timestamp,ecg_measurement,qrs_detected
0.000000000000000000e+00,3.533198642102655551e+00,0.000000000000000000e+00
1.000000000000000000e+00,5.006045955918229318e+00,0.000000000000000000e+00
2.000000000000000000e+00,-9.082439947479651332e-01,0.000000000000000000e+00
3.000000000000000000e+00,-1.758941270654363898e-01,0.000000000000000000e+00
4.000000000000000000e+00,-6.731374243057979267e-01,0.000000000000000000e+00
5.000000000000000000e+00,-2.767048030510648737e-01,0.000000000000000000e+00
6.000000000000000000e+00,-4.887793318454857761e-01,0.000000000000000000e+00
7.000000000000000000e+00,-2.003990006771423915e-01,0.000000000000000000e+00
8.000000000000000000e+00,-3.188020745797207067e-01,0.000000000000000000e+00
9.000000000000000000e+00,-2.435382081859555070e-01,0.000000000000000000e+00
1.000000000000000000e+01,-1.711975971007786146e-01,0.000000000000000000e+00
1.100000000000000000e+01,1.024388188832878605e-01,0.000000000000000000e+00
1.200000000000000000e+01,4.265894851197576942e-02,0.000000000000000000e+00
1.300000000000000000e+01,5.318605148946615735e-01,0.000000000000000000e+00
1.400000000000000000e+01,4.429047179376141008e-01,0.000000000000000000e+00
1.500000000000000000e+01,8.749792503692660484e-01,0.000000000000000000e+00
1.600000000000000000e+01,8.536610580418566574e-01,0.000000000000000000e+00
1.700000000000000000e+01,1.074102734697273576e+00,0.000000000000000000e+00
1.800000000000000000e+01,3.622189984908214533e-01,0.000000000000000000e+00
1.900000000000000000e+01,-1.169660736801801382e-01,0.000000000000000000e+00
2.000000000000000000e+01,-1.027717438688430684e+00,1.000000000000000000e+00
2.100000000000000000e+01,-1.037995321492183320e+00,0.000000000000000000e+00
2.200000000000000000e+01,-1.220064692753914715e+00,0.000000000000000000e+00
2.300000000000000000e+01,-1.224283652124352306e+00,0.000000000000000000e+00
2.400000000000000000e+01,-1.016479974783149220e+00,0.000000000000000000e+00
2.500000000000000000e+01,-9.180858333015771144e-01,0.000000000000000000e+00
2.600000000000000000e+01,-1.053190540666002484e+00,0.000000000000000000e+00
2.700000000000000000e+01,-7.939659257279728655e-01,0.000000000000000000e+00
2.800000000000000000e+01,-5.661383041298029273e-01,0.000000000000000000e+00
2.900000000000000000e+01,-5.787165573172317057e-01,0.000000000000000000e+00
3.000000000000000000e+01,-4.724738633746988214e-01,0.000000000000000000e+00
3.100000000000000000e+01,-3.242227604768380123e-01,0.000000000000000000e+00
3.200000000000000000e+01,-3.913726555303728150e-01,0.000000000000000000e+00
3.300000000000000000e+01,-2.871070834983868725e-01,0.000000000000000000e+00
3.400000000000000000e+01,-2.621854060984994961e-01,0.000000000000000000e+00
3.500000000000000000e+01,-1.308470872459697731e-01,0.000000000000000000e+00
3.600000000000000000e+01,-1.755814111394833066e-01,0.000000000000000000e+00
3.700000000000000000e+01,-4.862629833386996475e-02,0.000000000000000000e+00
3.800000000000000000e+01,-2.305072911611924791e-01,0.000000000000000000e+00
3.900000000000000000e+01,5.792189626823061183e-02,0.000000000000000000e+00
4.000000000000000000e+01,-7.893942159650609025e-02,0.000000000000000000e+00
4.100000000000000000e+01,2.105788812468509241e-01,0.000000000000000000e+00
4.200000000000000000e+01,3.758137687109691649e-02,0.000000000000000000e+00
4.300000000000000000e+01,1.132653471469531742e-01,0.000000000000000000e+00
4.400000000000000000e+01,5.268051104095150539e-02,0.000000000000000000e+00
4.500000000000000000e+01,2.290934155464298683e-01,0.000000000000000000e+00
4.600000000000000000e+01,1.292898907067232817e-01,0.000000000000000000e+00
4.700000000000000000e+01,4.272288143405890137e-01,0.000000000000000000e+00
4.800000000000000000e+01,2.046824741787731661e-01,0.000000000000000000e+00
4.900000000000000000e+01,4.311455451938576711e-01,0.000000000000000000e+00
5.000000000000000000e+01,4.878399797046804598e-01,0.000000000000000000e+00
5.100000000000000000e+01,4.223101671293596482e-01,0.000000000000000000e+00
5.200000000000000000e+01,1.051256329228048847e-01,0.000000000000000000e+00
5.300000000000000000e+01,1.773002295644478810e-01,0.000000000000000000e+00
5.400000000000000000e+01,8.384824991946397688e-02,0.000000000000000000e+00
5.500000000000000000e+01,2.546668983534463027e-01,0.000000000000000000e+00
5.600000000000000000e+01,-4.187556573473094623e-01,0.000000000000000000e+00
5.700000000000000000e+01,4.210555236218318953e+00,0.000000000000000000e+00
5.800000000000000000e+01,4.781921840975544846e+00,0.000000000000000000e+00
5.900000000000000000e+01,-7.084599792113585037e-01,1.000000000000000000e+00
6.000000000000000000e+01,-3.072971053474294334e-01,0.000000000000000000e+00
6.100000000000000000e+01,-7.888358741776876348e-01,0.000000000000000000e+00
6.200000000000000000e+01,-6.485828235952667553e-01,0.000000000000000000e+00
6.300000000000000000e+01,-5.410147224540571287e-01,0.000000000000000000e+00
6.400000000000000000e+01,-3.861443862581278030e-01,0.000000000000000000e+00
6.500000000000000000e+01,-3.790648200442869320e-01,0.000000000000000000e+00
6.600000000000000000e+01,-3.520234556594261655e-01,0.000000000000000000e+00
6.700000000000000000e+01,-3.400387361088082483e-01,0.000000000000000000e+00
6.800000000000000000e+01,-1.495748936350964897e-01,0.000000000000000000e+00
6.900000000000000000e+01,1.961116517805305479e-02,0.000000000000000000e+00
7.000000000000000000e+01,3.237581517619008142e-01,0.000000000000000000e+00
7.100000000000000000e+01,5.561740625222625356e-01,0.000000000000000000e+00
7.200000000000000000e+01,6.690751199638276248e-01,0.000000000000000000e+00
7.300000000000000000e+01,9.565520209667389695e-01,0.000000000000000000e+00
7.400000000000000000e+01,7.907464045726140256e-01,0.000000000000000000e+00
7.500000000000000000e+01,4.215051176288006629e-01,0.000000000000000000e+00
7.600000000000000000e+01,-2.860251919286975752e-01,0.000000000000000000e+00
7.700000000000000000e+01,-7.082371998637595478e-01,0.000000000000000000e+00
7.800000000000000000e+01,-1.080287704256429615e+00,0.000000000000000000e+00
7.900000000000000000e+01,-1.136282742943983237e+00,0.000000000000000000e+00
8.000000000000000000e+01,-1.150651409213190757e+00,0.000000000000000000e+00
8.100000000000000000e+01,-9.748741261949086523e-01,0.000000000000000000e+00
8.200000000000000000e+01,-8.819219296768687766e-01,0.000000000000000000e+00
8.300000000000000000e+01,-7.983423635883202252e-01,0.000000000000000000e+00
8.400000000000000000e+01,-6.758469533128862450e-01,0.000000000000000000e+00
8.500000000000000000e+01,-4.522396892014631797e-01,0.000000000000000000e+00
8.600000000000000000e+01,-5.794783334514480577e-01,0.000000000000000000e+00
8.700000000000000000e+01,-4.611324714842638950e-01,0.000000000000000000e+00
8.800000000000000000e+01,-3.419010057375791445e-01,0.000000000000000000e+00
8.900000000000000000e+01,-4.513201566895822525e-01,0.000000000000000000e+00
9.000000000000000000e+01,-1.200702838741194434e-01,0.000000000000000000e+00
9.100000000000000000e+01,-1.883933854580109590e-01,0.000000000000000000e+00
9.200000000000000000e+01,-1.120257121808639483e-01,0.000000000000000000e+00
9.300000000000000000e+01,-9.249878952332031556e-02,0.000000000000000000e+00
9.400000000000000000e+01,-1.507095450578781748e-01,0.000000000000000000e+00
9.500000000000000000e+01,-3.270275324776013293e-02,0.000000000000000000e+00
9.600000000000000000e+01,-1.194075861619775698e-02,0.000000000000000000e+00
9.700000000000000000e+01,1.475540669553148665e-01,0.000000000000000000e+00
9.800000000000000000e+01,9.972413772080235272e-02,0.000000000000000000e+00
9.900000000000000000e+01,9.808643217466712916e-02,0.000000000000000000e+00
1.000000000000000000e+02,7.828049871260740755e-02,0.000000000000000000e+00
1.010000000000000000e+02,1.043131956915087782e-01,0.000000000000000000e+00
1.020000000000000000e+02,1.279043671612292432e-01,0.000000000000000000e+00
1.030000000000000000e+02,2.254743186485546058e-01,0.000000000000000000e+00
1.040000000000000000e+02,1.809161378426249189e-01,0.000000000000000000e+00
1.050000000000000000e+02,2.452495267821169223e-01,0.000000000000000000e+00
1.060000000000000000e+02,3.294788989937067480e-01,0.000000000000000000e+00
1.070000000000000000e+02,3.956098160865379465e-01,0.000000000000000000e+00
1.080000000000000000e+02,3.666506408798950734e-01,0.000000000000000000e+00
1.090000000000000000e+02,2.988877788086545806e-01,0.000000000000000000e+00
1.100000000000000000e+02,-2.146618347680357905e-02,0.000000000000000000e+00
1.110000000000000000e+02,1.825059107206235542e-01,0.000000000000000000e+00
1.120000000000000000e+02,-6.558692137328371585e-02,0.000000000000000000e+00
1.130000000000000000e+02,1.109489636301879967e-01,0.000000000000000000e+00
1.140000000000000000e+02,-3.953098060710405481e-02,0.000000000000000000e+00
1.150000000000000000e+02,5.539658405189706869e+00,0.000000000000000000e+00
1.160000000000000000e+02,3.330666573802273600e+00,1.000000000000000000e+00
1.170000000000000000e+02,-9.461740693181972528e-01,0.000000000000000000e+00
1.180000000000000000e+02,-2.605322723345478431e-01,0.000000000000000000e+00
1.190000000000000000e+02,-8.881241181037955457e-01,0.000000000000000000e+00
1.200000000000000000e+02,-5.003730123942662367e-01,0.000000000000000000e+00
1.210000000000000000e+02,-7.339639345599187070e-01,0.000000000000000000e+00
1.220000000000000000e+02,-3.811988529925836033e-01,0.000000000000000000e+00
1.230000000000000000e+02,-5.818696515867539665e-01,0.000000000000000000e+00
1.240000000000000000e+02,-2.041911498733790520e-01,0.000000000000000000e+00
1.250000000000000000e+02,-3.389421734411230402e-01,0.000000000000000000e+00
1.260000000000000000e+02,1.018803279144416540e-01,0.000000000000000000e+00
1.270000000000000000e+02,-1.151103121134690842e-02,0.000000000000000000e+00
1.280000000000000000e+02,4.194634121862264586e-01,0.000000000000000000e+00
1.290000000000000000e+02,4.614869259258392309e-01,0.000000000000000000e+00
1.300000000000000000e+02,8.251235501464613264e-01,0.000000000000000000e+00
1.310000000000000000e+02,7.970428968865197472e-01,0.000000000000000000e+00
1.320000000000000000e+02,9.326582861308758687e-01,0.000000000000000000e+00
1.330000000000000000e+02,2.451972514288110194e-01,0.000000000000000000e+00
1.340000000000000000e+02,-4.820958817719760425e-01,0.000000000000000000e+00
1.350000000000000000e+02,-8.593138168374947483e-01,0.000000000000000000e+00
1.360000000000000000e+02,-1.190307470110791854e+00,0.000000000000000000e+00
1.370000000000000000e+02,-1.146700632449770829e+00,0.000000000000000000e+00
1.380000000000000000e+02,-9.289051541206605478e-01,0.000000000000000000e+00
1.390000000000000000e+02,-9.357263741060418694e-01,0.000000000000000000e+00
1.400000000000000000e+02,-8.913278467167878860e-01,0.000000000000000000e+00
1.410000000000000000e+02,-7.104319735497277577e-01,0.000000000000000000e+00
1.420000000000000000e+02,-7.265207758515299652e-01,0.000000000000000000e+00
1.430000000000000000e+02,-6.068393765182716892e-01,0.000000000000000000e+00
1.440000000000000000e+02,-4.867696981409054824e-01,0.000000000000000000e+00
1.450000000000000000e+02,-4.414536855970896401e-01,0.000000000000000000e+00
1.460000000000000000e+02,-3.032357172442820548e-01,0.000000000000000000e+00
1.470000000000000000e+02,-3.221573812302121476e-01,0.000000000000000000e+00
1.480000000000000000e+02,-3.310324074169980757e-01,0.000000000000000000e+00
1.490000000000000000e+02,-2.565376519508326125e-01,0.000000000000000000e+00
1.500000000000000000e+02,-3.040018783453239948e-01,0.000000000000000000e+00
1.510000000000000000e+02,-1.277991204467765485e-01,0.000000000000000000e+00
1.520000000000000000e+02,-1.778128957844165858e-01,0.000000000000000000e+00
1.530000000000000000e+02,8.251616348025614389e-02,0.000000000000000000e+00
1.540000000000000000e+02,-1.580084893568365068e-01,0.000000000000000000e+00
1.550000000000000000e+02,-4.581329508547790121e-03,0.000000000000000000e+00
1.560000000000000000e+02,1.172163385991391721e-01,0.000000000000000000e+00
1.570000000000000000e+02,1.078734624997781805e-01,0.000000000000000000e+00
1.580000000000000000e+02,5.830089074917847725e-02,0.000000000000000000e+00
1.590000000000000000e+02,2.147809815708489334e-01,0.000000000000000000e+00
1.600000000000000000e+02,1.436053051519015911e-01,0.000000000000000000e+00
1.610000000000000000e+02,2.607289842229722487e-01,0.000000000000000000e+00
1.620000000000000000e+02,2.377811811807940823e-01,0.000000000000000000e+00
1.630000000000000000e+02,2.125137942703253235e-01,0.000000000000000000e+00
1.640000000000000000e+02,4.073709139061414963e-01,0.000000000000000000e+00
1.650000000000000000e+02,2.893836121985598475e-01,0.000000000000000000e+00
1.660000000000000000e+02,2.541275922245169183e-01,0.000000000000000000e+00
1.670000000000000000e+02,4.710970691239865782e-01,0.000000000000000000e+00
1.680000000000000000e+02,4.842063525857112083e-01,0.000000000000000000e+00
1.690000000000000000e+02,4.888039582439780428e-01,0.000000000000000000e+00
1.700000000000000000e+02,1.917179704659698336e-01,0.000000000000000000e+00
1.710000000000000000e+02,1.989818495361172779e-01,0.000000000000000000e+00
1.720000000000000000e+02,7.158778326861868491e-02,0.000000000000000000e+00
1.730000000000000000e+02,1.806387499737537733e-02,0.000000000000000000e+00
1.740000000000000000e+02,-3.789066629398046837e-01,0.000000000000000000e+00
1.750000000000000000e+02,4.596666191266882251e+00,0.000000000000000000e+00
1.760000000000000000e+02,4.633901961623838162e+00,0.000000000000000000e+00
1.770000000000000000e+02,-8.479460204858432215e-01,1.000000000000000000e+00
1.780000000000000000e+02,-2.006077622069820376e-01,0.000000000000000000e+00
1.790000000000000000e+02,-8.868516615810183579e-01,0.000000000000000000e+00
1.800000000000000000e+02,-5.712065704076094708e-01,0.000000000000000000e+00
1.810000000000000000e+02,-7.549644593081945576e-01,0.000000000000000000e+00
1.820000000000000000e+02,-5.231923563224529783e-01,0.000000000000000000e+00
1.830000000000000000e+02,-5.632646634487994408e-01,0.000000000000000000e+00
1.840000000000000000e+02,-3.807129272006413157e-01,0.000000000000000000e+00
1.850000000000000000e+02,-2.013904550800696414e-01,0.000000000000000000e+00
1.860000000000000000e+02,1.230176524491499029e-01,0.000000000000000000e+00
1.870000000000000000e+02,-2.182167043517664606e-01,0.000000000000000000e+00
1.880000000000000000e+02,2.920002192549193687e-01,0.000000000000000000e+00
1.890000000000000000e+02,3.031639104877262292e-01,0.000000000000000000e+00
1.900000000000000000e+02,8.571391602263314091e-01,0.000000000000000000e+00
1.910000000000000000e+02,1.036080700559319112e+00,0.000000000000000000e+00
1.920000000000000000e+02,9.698808048970002371e-01,0.000000000000000000e+00
1.930000000000000000e+02,3.611946260456831426e-01,0.000000000000000000e+00
1.940000000000000000e+02,-3.112055183537126846e-01,0.000000000000000000e+00
1.950000000000000000e+02,-9.563017487691463092e-01,0.000000000000000000e+00
1.960000000000000000e+02,-1.041456647948527658e+00,0.000000000000000000e+00
1.970000000000000000e+02,-1.180271862772633185e+00,0.000000000000000000e+00
1.980000000000000000e+02,-1.060482909142587582e+00,0.000000000000000000e+00
1.990000000000000000e+02,-1.066206075973355816e+00,0.000000000000000000e+00
2.000000000000000000e+02,-8.200023334874116943e-01,0.000000000000000000e+00
2.010000000000000000e+02,-9.049473220734048917e-01,0.000000000000000000e+00
2.020000000000000000e+02,-4.748256668464727603e-01,0.000000000000000000e+00
2.030000000000000000e+02,-8.207966090555179894e-01,0.000000000000000000e+00
2.040000000000000000e+02,-3.992414379172419259e-01,0.000000000000000000e+00
2.050000000000000000e+02,-6.473837235265326173e-01,0.000000000000000000e+00
2.060000000000000000e+02,-2.833037782962655737e-01,0.000000000000000000e+00
2.070000000000000000e+02,-3.810144059914860049e-01,0.000000000000000000e+00
2.080000000000000000e+02,-2.813533359155520608e-01,0.000000000000000000e+00
2.090000000000000000e+02,-3.294548771550748767e-01,0.000000000000000000e+00
2.100000000000000000e+02,-9.685804264051349477e-02,0.000000000000000000e+00
2.110000000000000000e+02,-2.275739032994739675e-01,0.000000000000000000e+00
2.120000000000000000e+02,-2.601654975398305994e-02,0.000000000000000000e+00
2.130000000000000000e+02,-1.111634011255420995e-01,0.000000000000000000e+00
2.140000000000000000e+02,7.704886536891177029e-02,0.000000000000000000e+00
2.150000000000000000e+02,-5.327211648042239761e-02,0.000000000000000000e+00
2.160000000000000000e+02,1.514490718532082725e-01,0.000000000000000000e+00
2.170000000000000000e+02,-4.953031204860428721e-02,0.000000000000000000e+00
2.180000000000000000e+02,2.040342620538379836e-01,0.000000000000000000e+00
2.190000000000000000e+02,6.211386200983945449e-02,0.000000000000000000e+00
2.200000000000000000e+02,2.806012103023151627e-01,0.000000000000000000e+00
2.210000000000000000e+02,2.585784543770479615e-01,0.000000000000000000e+00
2.220000000000000000e+02,3.039343286507741326e-01,0.000000000000000000e+00
2.230000000000000000e+02,2.608486664394030208e-01,0.000000000000000000e+00
2.240000000000000000e+02,5.005273842939768070e-01,0.000000000000000000e+00
2.250000000000000000e+02,1.654687637768329778e-01,0.000000000000000000e+00
2.260000000000000000e+02,4.726081912570265220e-01,0.000000000000000000e+00
2.270000000000000000e+02,2.443306379375321524e-01,0.000000000000000000e+00
2.280000000000000000e+02,5.518602855570067245e-01,0.000000000000000000e+00
2.290000000000000000e+02,-2.886099748731050380e-02,0.000000000000000000e+00
2.300000000000000000e+02,2.108882812097222781e-01,0.000000000000000000e+00
2.310000000000000000e+02,-8.821659386636329647e-02,0.000000000000000000e+00
2.320000000000000000e+02,3.304008194845021174e-01,0.000000000000000000e+00
2.330000000000000000e+02,-6.517078582880647675e-01,0.000000000000000000e+00
2.340000000000000000e+02,4.407756265789894101e+00,0.000000000000000000e+00
2.350000000000000000e+02,4.898213473463561840e+00,0.000000000000000000e+00
2.360000000000000000e+02,-7.942928568283421642e-01,1.000000000000000000e+00
2.370000000000000000e+02,-4.584176885646200628e-01,0.000000000000000000e+00
2.380000000000000000e+02,-8.779941881418216187e-01,0.000000000000000000e+00
2.390000000000000000e+02,-7.221537853901681681e-01,0.000000000000000000e+00
2.400000000000000000e+02,-6.231821189253861082e-01,0.000000000000000000e+00
2.410000000000000000e+02,-6.179869261735687624e-01,0.000000000000000000e+00
2.420000000000000000e+02,-4.370399987650525064e-01,0.000000000000000000e+00
2.430000000000000000e+02,-3.874826380267681891e-01,0.000000000000000000e+00
2.440000000000000000e+02,-2.508584416037734632e-01,0.000000000000000000e+00
2.450000000000000000e+02,-8.912553078067386725e-02,0.000000000000000000e+00
2.460000000000000000e+02,-1.255123849933449942e-01,0.000000000000000000e+00
2.470000000000000000e+02,3.054857402337218808e-01,0.000000000000000000e+00
2.480000000000000000e+02,4.164199426601857823e-01,0.000000000000000000e+00
2.490000000000000000e+02,8.617084263670110600e-01,0.000000000000000000e+00
2.500000000000000000e+02,9.538894220461625606e-01,0.000000000000000000e+00
2.510000000000000000e+02,9.240691722803090480e-01,0.000000000000000000e+00
2.520000000000000000e+02,5.155995432366555775e-01,0.000000000000000000e+00
2.530000000000000000e+02,-3.602871037621385719e-01,0.000000000000000000e+00
2.540000000000000000e+02,-8.783849605563812668e-01,0.000000000000000000e+00
2.550000000000000000e+02,-9.695654509994801051e-01,0.000000000000000000e+00
2.560000000000000000e+02,-1.185134581531179121e+00,0.000000000000000000e+00
2.570000000000000000e+02,-1.165501063010598637e+00,0.000000000000000000e+00
2.580000000000000000e+02,-1.121439797140847627e+00,0.000000000000000000e+00
2.590000000000000000e+02,-9.626736360544906335e-01,0.000000000000000000e+00
2.600000000000000000e+02,-8.786753976403824939e-01,0.000000000000000000e+00
2.610000000000000000e+02,-8.285259418399559816e-01,0.000000000000000000e+00
2.620000000000000000e+02,-7.860758410990253964e-01,0.000000000000000000e+00
2.630000000000000000e+02,-3.997274192798376258e-01,0.000000000000000000e+00
2.640000000000000000e+02,-4.106367645402338451e-01,0.000000000000000000e+00
2.650000000000000000e+02,-4.316250269855551602e-01,0.000000000000000000e+00
2.660000000000000000e+02,-3.986319409608018449e-01,0.000000000000000000e+00
2.670000000000000000e+02,-3.369489849575054152e-01,0.000000000000000000e+00
2.680000000000000000e+02,-3.051380427260299011e-01,0.000000000000000000e+00
2.690000000000000000e+02,-2.665112116148571353e-01,0.000000000000000000e+00
2.700000000000000000e+02,-1.243942058226955583e-01,0.000000000000000000e+00
2.710000000000000000e+02,5.935222042336340403e-02,0.000000000000000000e+00
2.720000000000000000e+02,-1.583927213710452087e-01,0.000000000000000000e+00
2.730000000000000000e+02,-7.189410341144880645e-02,0.000000000000000000e+00
2.740000000000000000e+02,9.337511216216785870e-02,0.000000000000000000e+00
2.750000000000000000e+02,4.124633371277380833e-02,0.000000000000000000e+00
2.760000000000000000e+02,1.672897170825907859e-02,0.000000000000000000e+00
2.770000000000000000e+02,2.783126826324025527e-01,0.000000000000000000e+00
2.780000000000000000e+02,1.032356176681451937e-01,0.000000000000000000e+00
2.790000000000000000e+02,8.855439534661803391e-02,0.000000000000000000e+00
2.800000000000000000e+02,2.236079587718914907e-01,0.000000000000000000e+00
2.810000000000000000e+02,3.083368560152943139e-01,0.000000000000000000e+00
2.820000000000000000e+02,3.914685635362607496e-01,0.000000000000000000e+00
2.830000000000000000e+02,1.485986898044425741e-01,0.000000000000000000e+00
2.840000000000000000e+02,4.018318912197941239e-01,0.000000000000000000e+00
2.850000000000000000e+02,6.230554620235677632e-01,0.000000000000000000e+00
2.860000000000000000e+02,4.736502606335319943e-01,0.000000000000000000e+00
2.870000000000000000e+02,1.796854016304837709e-01,0.000000000000000000e+00
2.880000000000000000e+02,2.560837228384510444e-01,0.000000000000000000e+00
2.890000000000000000e+02,7.638181633897782319e-02,0.000000000000000000e+00
2.900000000000000000e+02,3.335550240148325574e-01,0.000000000000000000e+00
2.910000000000000000e+02,-5.627041591816869248e-01,0.000000000000000000e+00
2.920000000000000000e+02,2.603926453923220308e+00,0.000000000000000000e+00
2.930000000000000000e+02,6.193864927128126752e+00,0.000000000000000000e+00
2.940000000000000000e+02,1.885366968279998945e-01,1.000000000000000000e+00
2.950000000000000000e+02,-5.674625374461045313e-01,0.000000000000000000e+00
2.960000000000000000e+02,-5.449930831219677030e-01,0.000000000000000000e+00
2.970000000000000000e+02,-6.732217036557405221e-01,0.000000000000000000e+00
2.980000000000000000e+02,-6.095179152188525684e-01,0.000000000000000000e+00
2.990000000000000000e+02,-6.417360094435908824e-01,0.000000000000000000e+00
3.000000000000000000e+02,-5.612548537651301794e-01,0.000000000000000000e+00
3.010000000000000000e+02,-3.878543009058034730e-01,0.000000000000000000e+00
3.020000000000000000e+02,-3.112280818870175603e-01,0.000000000000000000e+00
3.030000000000000000e+02,-7.733810559878054325e-02,0.000000000000000000e+00
3.040000000000000000e+02,4.737381263334065895e-02,0.000000000000000000e+00
3.050000000000000000e+02,1.972872973023875875e-01,0.000000000000000000e+00
3.060000000000000000e+02,3.112739921686119016e-01,0.000000000000000000e+00
3.070000000000000000e+02,6.741315462943430203e-01,0.000000000000000000e+00
3.080000000000000000e+02,9.722461895469430848e-01,0.000000000000000000e+00
3.090000000000000000e+02,9.057017821128726665e-01,0.000000000000000000e+00
3.100000000000000000e+02,6.371527217250646524e-01,0.000000000000000000e+00
3.110000000000000000e+02,5.837549646590679125e-02,0.000000000000000000e+00
3.120000000000000000e+02,-7.466780743989187563e-01,0.000000000000000000e+00
3.130000000000000000e+02,-1.292047163384908437e+00,0.000000000000000000e+00
3.140000000000000000e+02,-1.125846685716582973e+00,0.000000000000000000e+00
3.150000000000000000e+02,-1.187440327229243087e+00,0.000000000000000000e+00
3.160000000000000000e+02,-1.079313010721936195e+00,0.000000000000000000e+00
3.170000000000000000e+02,-9.115799450176979013e-01,0.000000000000000000e+00
3.180000000000000000e+02,-8.198469157440348987e-01,0.000000000000000000e+00
3.190000000000000000e+02,-8.779115664268442032e-01,0.000000000000000000e+00
3.200000000000000000e+02,-7.728724667187499842e-01,0.000000000000000000e+00
3.210000000000000000e+02,-5.080634468857651020e-01,0.000000000000000000e+00
3.220000000000000000e+02,-5.429610750891064042e-01,0.000000000000000000e+00
3.230000000000000000e+02,-4.255981793521282364e-01,0.000000000000000000e+00
3.240000000000000000e+02,-3.507707327693406762e-01,0.000000000000000000e+00
3.250000000000000000e+02,-2.405453760371451255e-01,0.000000000000000000e+00
3.260000000000000000e+02,-3.001879376376129782e-01,0.000000000000000000e+00
3.270000000000000000e+02,-3.132942526991717158e-01,0.000000000000000000e+00
3.280000000000000000e+02,-1.241307908521244174e-01,0.000000000000000000e+00
3.290000000000000000e+02,-1.566151133233582848e-01,0.000000000000000000e+00
3.300000000000000000e+02,7.667980906733933011e-02,0.000000000000000000e+00
3.310000000000000000e+02,-3.546759829088903890e-03,0.000000000000000000e+00
3.320000000000000000e+02,2.102407591731637188e-02,0.000000000000000000e+00
3.330000000000000000e+02,3.972970351527917859e-02,0.000000000000000000e+00
3.340000000000000000e+02,9.470473883558026829e-02,0.000000000000000000e+00
3.350000000000000000e+02,1.042042338433824267e-01,0.000000000000000000e+00
3.360000000000000000e+02,2.069415234806059045e-01,0.000000000000000000e+00
3.370000000000000000e+02,1.956033624785341596e-01,0.000000000000000000e+00
3.380000000000000000e+02,3.637991727287499533e-01,0.000000000000000000e+00
3.390000000000000000e+02,2.575149307376546903e-01,0.000000000000000000e+00
3.400000000000000000e+02,3.121500668067067052e-01,0.000000000000000000e+00
3.410000000000000000e+02,2.945985690109903521e-01,0.000000000000000000e+00
3.420000000000000000e+02,5.128411274108116702e-01,0.000000000000000000e+00
3.430000000000000000e+02,3.720073356872489745e-01,0.000000000000000000e+00
3.440000000000000000e+02,4.685600324919526605e-01,0.000000000000000000e+00
3.450000000000000000e+02,2.384998556559277949e-01,0.000000000000000000e+00
3.460000000000000000e+02,2.501548940956468403e-01,0.000000000000000000e+00
3.470000000000000000e+02,1.007927056442987912e-01,0.000000000000000000e+00
3.480000000000000000e+02,2.756319258528864835e-01,0.000000000000000000e+00
3.490000000000000000e+02,-3.476102675667326336e-01,0.000000000000000000e+00
3.500000000000000000e+02,4.861785989668411467e+00,0.000000000000000000e+00
3.510000000000000000e+02,4.078403696195866956e+00,1.000000000000000000e+00
3.520000000000000000e+02,-1.098888265392714114e+00,0.000000000000000000e+00
3.530000000000000000e+02,-1.246437567266306251e-01,0.000000000000000000e+00
3.540000000000000000e+02,-7.462104370740134662e-01,0.000000000000000000e+00
3.550000000000000000e+02,-3.930769998810372812e-01,0.000000000000000000e+00
3.560000000000000000e+02,-6.505309775069149092e-01,0.000000000000000000e+00
3.570000000000000000e+02,-3.221476593564492341e-01,0.000000000000000000e+00
3.580000000000000000e+02,-4.294160916186062216e-01,0.000000000000000000e+00
3.590000000000000000e+02,-1.606614913861411087e-01,0.000000000000000000e+00
3.600000000000000000e+02,-1.119927671893727744e-01,0.000000000000000000e+00
3.610000000000000000e+02,8.464615830142066533e-02,0.000000000000000000e+00
3.620000000000000000e+02,1.050178571187545817e-01,0.000000000000000000e+00
3.630000000000000000e+02,4.491947061996246493e-01,0.000000000000000000e+00
3.640000000000000000e+02,5.660463214691288103e-01,0.000000000000000000e+00
3.650000000000000000e+02,7.870172168570173099e-01,0.000000000000000000e+00
3.660000000000000000e+02,7.803421769840342970e-01,0.000000000000000000e+00
3.670000000000000000e+02,1.171112290883523865e+00,0.000000000000000000e+00
3.680000000000000000e+02,3.776371390319861465e-01,0.000000000000000000e+00
3.690000000000000000e+02,-2.241292359065912843e-01,0.000000000000000000e+00
3.700000000000000000e+02,-9.869151492940649861e-01,0.000000000000000000e+00
3.710000000000000000e+02,-1.104774755807494957e+00,0.000000000000000000e+00
3.720000000000000000e+02,-1.405700193831139089e+00,0.000000000000000000e+00
3.730000000000000000e+02,-1.067647340490120333e+00,0.000000000000000000e+00
3.740000000000000000e+02,-1.022254739886702568e+00,0.000000000000000000e+00
3.750000000000000000e+02,-7.334884262685221756e-01,0.000000000000000000e+00
3.760000000000000000e+02,-1.047847022665096661e+00,0.000000000000000000e+00
3.770000000000000000e+02,-5.965433550440848443e-01,0.000000000000000000e+00
3.780000000000000000e+02,-8.759029951249425183e-01,0.000000000000000000e+00
3.790000000000000000e+02,-4.526936727093355817e-01,0.000000000000000000e+00
3.800000000000000000e+02,-4.716193710800181682e-01,0.000000000000000000e+00
3.810000000000000000e+02,-3.971101132833715908e-01,0.000000000000000000e+00
3.820000000000000000e+02,-3.119274193239139348e-01,0.000000000000000000e+00
3.830000000000000000e+02,-1.688493228676204438e-01,0.000000000000000000e+00
3.840000000000000000e+02,-2.758084303382031255e-01,0.000000000000000000e+00
3.850000000000000000e+02,-2.004760213181750184e-01,0.000000000000000000e+00
3.860000000000000000e+02,-1.359485622777742986e-01,0.000000000000000000e+00
3.870000000000000000e+02,-3.653612177991739495e-03,0.000000000000000000e+00
3.880000000000000000e+02,-1.658433127206577762e-01,0.000000000000000000e+00
3.890000000000000000e+02,-1.558415907291033162e-03,0.000000000000000000e+00
3.900000000000000000e+02,-1.022324113804564116e-01,0.000000000000000000e+00
3.910000000000000000e+02,1.783670036488695931e-01,0.000000000000000000e+00
3.920000000000000000e+02,-3.942711411925779036e-02,0.000000000000000000e+00
3.930000000000000000e+02,1.193312639662386515e-01,0.000000000000000000e+00
3.940000000000000000e+02,7.689835541544599862e-02,0.000000000000000000e+00
3.950000000000000000e+02,2.684475306737958977e-01,0.000000000000000000e+00
3.960000000000000000e+02,8.056606824021163293e-02,0.000000000000000000e+00
3.970000000000000000e+02,5.252328177932040765e-01,0.000000000000000000e+00
3.980000000000000000e+02,1.310172229884374873e-01,0.000000000000000000e+00
3.990000000000000000e+02,4.288038834854441261e-01,0.000000000000000000e+00
4.000000000000000000e+02,-1.719280959900486849e-01,0.000000000000000000e+00
4.010000000000000000e+02,2.682223891834336071e-01,0.000000000000000000e+00
4.020000000000000000e+02,2.592231520144975751e-02,0.000000000000000000e+00
4.030000000000000000e+02,2.281010808289052894e-01,0.000000000000000000e+00
4.040000000000000000e+02,-2.332034712240695917e-01,0.000000000000000000e+00
4.050000000000000000e+02,4.853221123410280669e+00,0.000000000000000000e+00
4.060000000000000000e+02,3.258797706200079247e+00,1.000000000000000000e+00
4.070000000000000000e+02,-1.380811904500949261e+00,0.000000000000000000e+00
4.080000000000000000e+02,8.589941612936237425e-02,0.000000000000000000e+00
4.090000000000000000e+02,-6.963448348760821194e-01,0.000000000000000000e+00
4.100000000000000000e+02,-3.590231868203632715e-01,0.000000000000000000e+00
4.110000000000000000e+02,-6.147355164167676023e-01,0.000000000000000000e+00
4.120000000000000000e+02,-1.914267299999272975e-01,0.000000000000000000e+00
4.130000000000000000e+02,-3.277279794240829380e-01,0.000000000000000000e+00
4.140000000000000000e+02,-7.591108468281980437e-02,0.000000000000000000e+00
4.150000000000000000e+02,-1.362273359274376316e-01,0.000000000000000000e+00
4.160000000000000000e+02,1.977653461637654542e-01,0.000000000000000000e+00
4.170000000000000000e+02,9.371106449439015051e-02,0.000000000000000000e+00
4.180000000000000000e+02,5.005758586966835288e-01,0.000000000000000000e+00
4.190000000000000000e+02,6.688752991175764828e-01,0.000000000000000000e+00
4.200000000000000000e+02,8.113673805869818789e-01,0.000000000000000000e+00
4.210000000000000000e+02,9.703125691566185651e-01,0.000000000000000000e+00
4.220000000000000000e+02,8.791171747892263522e-01,0.000000000000000000e+00
4.230000000000000000e+02,2.366707292462361667e-01,0.000000000000000000e+00
4.240000000000000000e+02,-3.186793872723407417e-01,0.000000000000000000e+00
4.250000000000000000e+02,-1.036287720548212166e+00,0.000000000000000000e+00
4.260000000000000000e+02,-1.162845987145717297e+00,0.000000000000000000e+00
4.270000000000000000e+02,-1.119887507276955851e+00,0.000000000000000000e+00
4.280000000000000000e+02,-1.130715139383649870e+00,0.000000000000000000e+00
4.290000000000000000e+02,-1.107188885338083351e+00,0.000000000000000000e+00
4.300000000000000000e+02,-8.965750490132959882e-01,0.000000000000000000e+00
4.310000000000000000e+02,-8.330454415226091758e-01,0.000000000000000000e+00
4.320000000000000000e+02,-6.729238649353336266e-01,0.000000000000000000e+00
4.330000000000000000e+02,-7.157142928366114765e-01,0.000000000000000000e+00
4.340000000000000000e+02,-4.886513756490151184e-01,0.000000000000000000e+00
4.350000000000000000e+02,-4.061547015114115311e-01,0.000000000000000000e+00
4.360000000000000000e+02,-4.368161070536052959e-01,0.000000000000000000e+00
4.370000000000000000e+02,-3.786886275365317078e-01,0.000000000000000000e+00
4.380000000000000000e+02,-3.113478084294205583e-01,0.000000000000000000e+00
4.390000000000000000e+02,-3.146169598342438700e-01,0.000000000000000000e+00
4.400000000000000000e+02,-1.297192617229982192e-01,0.000000000000000000e+00
4.410000000000000000e+02,-4.613225794892887588e-02,0.000000000000000000e+00
4.420000000000000000e+02,-1.994837171200726511e-01,0.000000000000000000e+00
4.430000000000000000e+02,-1.353959453028911672e-02,0.000000000000000000e+00
4.440000000000000000e+02,-6.157300501876152281e-04,0.000000000000000000e+00
4.450000000000000000e+02,-5.698470829754580941e-02,0.000000000000000000e+00
4.460000000000000000e+02,1.462233101334372842e-01,0.000000000000000000e+00
4.470000000000000000e+02,2.045221037747906867e-01,0.000000000000000000e+00
4.480000000000000000e+02,1.070554551405849403e-01,0.000000000000000000e+00
4.490000000000000000e+02,2.909006509118267636e-01,0.000000000000000000e+00
4.500000000000000000e+02,2.609074214898824406e-01,0.000000000000000000e+00
4.510000000000000000e+02,3.303289762190684820e-01,0.000000000000000000e+00
4.520000000000000000e+02,5.466252692375903610e-01,0.000000000000000000e+00
4.530000000000000000e+02,4.155449188762526114e-01,0.000000000000000000e+00
4.540000000000000000e+02,1.985347886104502357e-01,0.000000000000000000e+00
4.550000000000000000e+02,6.328254520322876275e-02,0.000000000000000000e+00
4.560000000000000000e+02,6.796222469651444498e-02,0.000000000000000000e+00
4.570000000000000000e+02,3.061573716711930571e-01,0.000000000000000000e+00
4.580000000000000000e+02,-3.595929566617778739e-01,0.000000000000000000e+00
4.590000000000000000e+02,3.205089489451508289e+00,0.000000000000000000e+00
4.600000000000000000e+02,5.436425816485611406e+00,0.000000000000000000e+00
4.610000000000000000e+02,-7.168369978171604817e-01,1.000000000000000000e+00
4.620000000000000000e+02,-2.955356385609192449e-01,0.000000000000000000e+00
4.630000000000000000e+02,-4.607284435470586081e-01,0.000000000000000000e+00
4.640000000000000000e+02,-5.549441008041199330e-01,0.000000000000000000e+00
4.650000000000000000e+02,-4.822551216727237744e-01,0.000000000000000000e+00
4.660000000000000000e+02,-1.200563224853604116e-01,0.000000000000000000e+00
4.670000000000000000e+02,-4.549870601815849125e-01,0.000000000000000000e+00
4.680000000000000000e+02,-1.814986481444994249e-01,0.000000000000000000e+00
4.690000000000000000e+02,-2.778294096307276084e-01,0.000000000000000000e+00
4.700000000000000000e+02,1.007094982349572149e-01,0.000000000000000000e+00
4.710000000000000000e+02,8.646043653508805882e-02,0.000000000000000000e+00
4.720000000000000000e+02,4.168800047250812990e-01,0.000000000000000000e+00
4.730000000000000000e+02,3.530906959513581689e-01,0.000000000000000000e+00
4.740000000000000000e+02,9.164233342747857280e-01,0.000000000000000000e+00
4.750000000000000000e+02,8.186208272620066895e-01,0.000000000000000000e+00
4.760000000000000000e+02,1.114893639448985230e+00,0.000000000000000000e+00
4.770000000000000000e+02,3.340538365000015331e-01,0.000000000000000000e+00
4.780000000000000000e+02,-2.737109627516927379e-02,0.000000000000000000e+00
4.790000000000000000e+02,-8.214718675091515765e-01,0.000000000000000000e+00
4.800000000000000000e+02,-9.817594664167694773e-01,0.000000000000000000e+00
4.810000000000000000e+02,-1.168403598667618004e+00,0.000000000000000000e+00
4.820000000000000000e+02,-1.113581410490452450e+00,0.000000000000000000e+00
4.830000000000000000e+02,-9.923136902589124730e-01,0.000000000000000000e+00
4.840000000000000000e+02,-9.286555539142336002e-01,0.000000000000000000e+00
4.850000000000000000e+02,-9.232103715899977470e-01,0.000000000000000000e+00
4.860000000000000000e+02,-4.710037272411616849e-01,0.000000000000000000e+00
4.870000000000000000e+02,-6.564293013950189826e-01,0.000000000000000000e+00
4.880000000000000000e+02,-4.707814062902935803e-01,0.000000000000000000e+00
4.890000000000000000e+02,-5.529063109581633384e-01,0.000000000000000000e+00
4.900000000000000000e+02,-3.726085011749039611e-01,0.000000000000000000e+00
4.910000000000000000e+02,-3.675883322188519542e-01,0.000000000000000000e+00
4.920000000000000000e+02,-1.571422330357962749e-01,0.000000000000000000e+00
4.930000000000000000e+02,-1.618526922518297162e-01,0.000000000000000000e+00
4.940000000000000000e+02,-2.111418636097355805e-01,0.000000000000000000e+00
4.950000000000000000e+02,-2.237878485203369516e-01,0.000000000000000000e+00
4.960000000000000000e+02,-1.283069775742592677e-01,0.000000000000000000e+00
4.970000000000000000e+02,-1.626168211715635636e-01,0.000000000000000000e+00
4.980000000000000000e+02,9.132433438061805797e-02,0.000000000000000000e+00
4.990000000000000000e+02,-1.956009137248473639e-01,0.000000000000000000e+00
5.000000000000000000e+02,2.011524270107279688e-01,0.000000000000000000e+00
5.010000000000000000e+02,2.130974415686993570e-02,0.000000000000000000e+00
5.020000000000000000e+02,1.119217241431878784e-01,0.000000000000000000e+00
5.030000000000000000e+02,3.252527583998415101e-02,0.000000000000000000e+00
5.040000000000000000e+02,1.797887586611450761e-01,0.000000000000000000e+00
5.050000000000000000e+02,-8.987379929506829346e-03,0.000000000000000000e+00
5.060000000000000000e+02,3.322055299998814548e-01,0.000000000000000000e+00
5.070000000000000000e+02,1.705900096576239422e-01,0.000000000000000000e+00
5.080000000000000000e+02,6.089839739322726597e-01,0.000000000000000000e+00
5.090000000000000000e+02,3.054862375223455495e-01,0.000000000000000000e+00
5.100000000000000000e+02,3.069197901113004390e-01,0.000000000000000000e+00
5.110000000000000000e+02,1.232088968143094515e-01,0.000000000000000000e+00
5.120000000000000000e+02,2.210715312594260795e-01,0.000000000000000000e+00
5.130000000000000000e+02,1.826659970892067497e-01,0.000000000000000000e+00
5.140000000000000000e+02,1.016760620999372644e-01,0.000000000000000000e+00
5.150000000000000000e+02,-3.123075697424830544e-02,0.000000000000000000e+00
5.160000000000000000e+02,5.447291107714669067e+00,0.000000000000000000e+00
5.170000000000000000e+02,3.468729443627807552e+00,1.000000000000000000e+00
5.180000000000000000e+02,-8.801494628523771624e-01,0.000000000000000000e+00
5.190000000000000000e+02,-1.749516412244881136e-01,0.000000000000000000e+00
5.200000000000000000e+02,-8.406115813849754925e-01,0.000000000000000000e+00
5.210000000000000000e+02,-5.951359043958382999e-01,0.000000000000000000e+00
5.220000000000000000e+02,-8.212195799689563369e-01,0.000000000000000000e+00
5.230000000000000000e+02,-2.917349195521770633e-01,0.000000000000000000e+00
5.240000000000000000e+02,-4.045174451075015387e-01,0.000000000000000000e+00
5.250000000000000000e+02,-1.735096673298205661e-01,0.000000000000000000e+00
5.260000000000000000e+02,-1.726876023576792707e-01,0.000000000000000000e+00
5.270000000000000000e+02,-4.317784944656290896e-02,0.000000000000000000e+00
5.280000000000000000e+02,-8.059754353242087888e-02,0.000000000000000000e+00
5.290000000000000000e+02,3.442921721500381005e-01,0.000000000000000000e+00
5.300000000000000000e+02,4.939858180157725709e-01,0.000000000000000000e+00
5.310000000000000000e+02,6.941237284484307324e-01,0.000000000000000000e+00
5.320000000000000000e+02,8.817041614996615762e-01,0.000000000000000000e+00
5.330000000000000000e+02,8.274859203587298095e-01,0.000000000000000000e+00
5.340000000000000000e+02,1.964333605322989007e-01,0.000000000000000000e+00
5.350000000000000000e+02,-5.385047926806474372e-01,0.000000000000000000e+00
5.360000000000000000e+02,-1.162410358767109519e+00,0.000000000000000000e+00
5.370000000000000000e+02,-1.246954388908220412e+00,0.000000000000000000e+00
5.380000000000000000e+02,-1.152151610656256153e+00,0.000000000000000000e+00
5.390000000000000000e+02,-1.207732648935498476e+00,0.000000000000000000e+00
5.400000000000000000e+02,-1.046393224328810989e+00,0.000000000000000000e+00
5.410000000000000000e+02,-6.991673328671337284e-01,0.000000000000000000e+00
5.420000000000000000e+02,-6.347657374984386758e-01,0.000000000000000000e+00
5.430000000000000000e+02,-6.921632643386382844e-01,0.000000000000000000e+00
5.440000000000000000e+02,-6.665256763561737685e-01,0.000000000000000000e+00
5.450000000000000000e+02,-6.810674625464423482e-01,0.000000000000000000e+00
5.460000000000000000e+02,-3.661945459654900037e-01,0.000000000000000000e+00
5.470000000000000000e+02,-1.673232043539522040e-01,0.000000000000000000e+00
5.480000000000000000e+02,-2.365657890123948615e-01,0.000000000000000000e+00
5.490000000000000000e+02,-2.200285506490421150e-01,0.000000000000000000e+00
5.500000000000000000e+02,-2.321882009648925382e-01,0.000000000000000000e+00
5.510000000000000000e+02,-2.781916248238008871e-01,0.000000000000000000e+00
5.520000000000000000e+02,-1.984654605848666931e-01,0.000000000000000000e+00
5.530000000000000000e+02,4.439349181202407318e-02,0.000000000000000000e+00
5.540000000000000000e+02,-1.227950611914187251e-01,0.000000000000000000e+00
5.550000000000000000e+02,1.341789978898644264e-01,0.000000000000000000e+00
5.560000000000000000e+02,-2.205110647085662956e-01,0.000000000000000000e+00
5.570000000000000000e+02,1.333742200530025068e-01,0.000000000000000000e+00
5.580000000000000000e+02,-4.202694350922180078e-02,0.000000000000000000e+00
5.590000000000000000e+02,1.249977244920710551e-01,0.000000000000000000e+00
5.600000000000000000e+02,2.044235200514716022e-01,0.000000000000000000e+00
5.610000000000000000e+02,2.641010418032372353e-01,0.000000000000000000e+00
5.620000000000000000e+02,2.461443176656711584e-01,0.000000000000000000e+00
5.630000000000000000e+02,2.592564396039973573e-01,0.000000000000000000e+00
5.640000000000000000e+02,2.759130318368259172e-01,0.000000000000000000e+00
5.650000000000000000e+02,3.683994750008862118e-01,0.000000000000000000e+00
5.660000000000000000e+02,4.494270099770419358e-01,0.000000000000000000e+00
5.670000000000000000e+02,5.395179380409064196e-01,0.000000000000000000e+00
5.680000000000000000e+02,4.416129554977799576e-01,0.000000000000000000e+00
5.690000000000000000e+02,8.002985053284643324e-02,0.000000000000000000e+00
5.700000000000000000e+02,2.591319280074844134e-01,0.000000000000000000e+00
5.710000000000000000e+02,1.338364910477280734e-01,0.000000000000000000e+00
5.720000000000000000e+02,7.376678443398036744e-02,0.000000000000000000e+00
5.730000000000000000e+02,7.577303585550419773e-02,0.000000000000000000e+00
5.740000000000000000e+02,5.732875362299150623e+00,0.000000000000000000e+00
5.750000000000000000e+02,3.394443829525906509e+00,1.000000000000000000e+00
5.760000000000000000e+02,-9.929129593828905920e-01,0.000000000000000000e+00
5.770000000000000000e+02,-2.012139597692839954e-01,0.000000000000000000e+00
5.780000000000000000e+02,-1.090872467490121345e+00,0.000000000000000000e+00
5.790000000000000000e+02,-4.648897418234470003e-01,0.000000000000000000e+00
5.800000000000000000e+02,-8.967033245107685069e-01,0.000000000000000000e+00
5.810000000000000000e+02,-2.450422639865136865e-01,0.000000000000000000e+00
5.820000000000000000e+02,-7.407985487170412053e-01,0.000000000000000000e+00
5.830000000000000000e+02,-4.541734028389884242e-02,0.000000000000000000e+00
5.840000000000000000e+02,-3.732812955202587379e-01,0.000000000000000000e+00
5.850000000000000000e+02,9.312007876384773009e-02,0.000000000000000000e+00
5.860000000000000000e+02,7.755819896152159332e-02,0.000000000000000000e+00
5.870000000000000000e+02,5.352788969881854264e-01,0.000000000000000000e+00
5.880000000000000000e+02,5.490307925945370204e-01,0.000000000000000000e+00
5.890000000000000000e+02,9.542840639938825475e-01,0.000000000000000000e+00
5.900000000000000000e+02,8.313776085886412925e-01,0.000000000000000000e+00
5.910000000000000000e+02,1.109998591679392632e+00,0.000000000000000000e+00
5.920000000000000000e+02,2.552623915803146071e-01,0.000000000000000000e+00
5.930000000000000000e+02,-3.222651461729101885e-01,0.000000000000000000e+00
5.940000000000000000e+02,-1.005082760860924518e+00,0.000000000000000000e+00
5.950000000000000000e+02,-1.083860185611148719e+00,0.000000000000000000e+00
5.960000000000000000e+02,-1.270593961985174269e+00,0.000000000000000000e+00
5.970000000000000000e+02,-1.168610600930388044e+00,0.000000000000000000e+00
5.980000000000000000e+02,-1.083563892637460890e+00,0.000000000000000000e+00
5.990000000000000000e+02,-7.905604397232379732e-01,0.000000000000000000e+00
6.000000000000000000e+02,-8.633036313543461793e-01,0.000000000000000000e+00
6.010000000000000000e+02,-5.388893138472219402e-01,0.000000000000000000e+00
6.020000000000000000e+02,-7.642701673480086777e-01,0.000000000000000000e+00
6.030000000000000000e+02,-5.613874296448507772e-01,0.000000000000000000e+00
6.040000000000000000e+02,-5.728922788722037307e-01,0.000000000000000000e+00
6.050000000000000000e+02,-4.273175211400317419e-01,0.000000000000000000e+00
6.060000000000000000e+02,-3.898723202664944876e-01,0.000000000000000000e+00
6.070000000000000000e+02,-3.013377288360978845e-01,0.000000000000000000e+00
6.080000000000000000e+02,-2.333664491321976731e-01,0.000000000000000000e+00
6.090000000000000000e+02,-1.602551981533695824e-01,0.000000000000000000e+00
6.100000000000000000e+02,-2.702608368496867142e-01,0.000000000000000000e+00
6.110000000000000000e+02,-6.984870892007138954e-02,0.000000000000000000e+00
6.120000000000000000e+02,-1.131507999446393770e-01,0.000000000000000000e+00
6.130000000000000000e+02,-1.629029745146031716e-01,0.000000000000000000e+00
6.140000000000000000e+02,-1.210198791750697750e-01,0.000000000000000000e+00
6.150000000000000000e+02,2.905834694314374800e-01,0.000000000000000000e+00
6.160000000000000000e+02,-3.100112378738595353e-02,0.000000000000000000e+00
6.170000000000000000e+02,2.143540715178315348e-01,0.000000000000000000e+00
6.180000000000000000e+02,-1.024210237530235740e-01,0.000000000000000000e+00
6.190000000000000000e+02,1.960729430713517851e-01,0.000000000000000000e+00
6.200000000000000000e+02,2.954842490413846501e-01,0.000000000000000000e+00
6.210000000000000000e+02,2.435107133401923918e-01,0.000000000000000000e+00
6.220000000000000000e+02,1.814028640653934654e-01,0.000000000000000000e+00
6.230000000000000000e+02,5.163127401620355439e-01,0.000000000000000000e+00
6.240000000000000000e+02,4.131461070963046711e-01,0.000000000000000000e+00
6.250000000000000000e+02,3.518799517687977163e-01,0.000000000000000000e+00
6.260000000000000000e+02,6.795439738091482718e-02,0.000000000000000000e+00
6.270000000000000000e+02,3.548732045469899510e-01,0.000000000000000000e+00
6.280000000000000000e+02,6.214021061574957761e-02,0.000000000000000000e+00
6.290000000000000000e+02,8.833300724081061261e-02,0.000000000000000000e+00
6.300000000000000000e+02,8.595129048547717199e-02,0.000000000000000000e+00
6.310000000000000000e+02,5.890740995664078383e+00,0.000000000000000000e+00
6.320000000000000000e+02,3.297154669665187665e+00,1.000000000000000000e+00
6.330000000000000000e+02,-9.697946316438398329e-01,0.000000000000000000e+00
6.340000000000000000e+02,-1.133527369333073437e-01,0.000000000000000000e+00
6.350000000000000000e+02,-9.929318959695465630e-01,0.000000000000000000e+00
6.360000000000000000e+02,-4.380096754923525348e-01,0.000000000000000000e+00
6.370000000000000000e+02,-7.659048768724715517e-01,0.000000000000000000e+00
6.380000000000000000e+02,-3.781962021818112141e-01,0.000000000000000000e+00
6.390000000000000000e+02,-5.407041568520281061e-01,0.000000000000000000e+00
6.400000000000000000e+02,-1.502165496307228953e-01,0.000000000000000000e+00
6.410000000000000000e+02,-1.235971632499939382e-01,0.000000000000000000e+00
6.420000000000000000e+02,-2.961110478155060122e-02,0.000000000000000000e+00
6.430000000000000000e+02,2.658517488011196694e-01,0.000000000000000000e+00
6.440000000000000000e+02,3.356836322422571128e-01,0.000000000000000000e+00
6.450000000000000000e+02,5.766996040749520214e-01,0.000000000000000000e+00
6.460000000000000000e+02,7.845953178963479546e-01,0.000000000000000000e+00
6.470000000000000000e+02,1.017852837513008923e+00,0.000000000000000000e+00
6.480000000000000000e+02,8.416271635220293756e-01,0.000000000000000000e+00
6.490000000000000000e+02,4.431265077753616111e-01,0.000000000000000000e+00
6.500000000000000000e+02,-5.930626868175228328e-01,0.000000000000000000e+00
6.510000000000000000e+02,-9.174096158776611221e-01,0.000000000000000000e+00
6.520000000000000000e+02,-1.281780370217584508e+00,0.000000000000000000e+00
6.530000000000000000e+02,-1.301477440817393028e+00,0.000000000000000000e+00
6.540000000000000000e+02,-1.072165152435391899e+00,0.000000000000000000e+00
6.550000000000000000e+02,-1.119812046686918583e+00,0.000000000000000000e+00
6.560000000000000000e+02,-8.531576882679822171e-01,0.000000000000000000e+00
6.570000000000000000e+02,-9.149346428799229880e-01,0.000000000000000000e+00
6.580000000000000000e+02,-6.599098550546387276e-01,0.000000000000000000e+00
6.590000000000000000e+02,-5.102694144646109375e-01,0.000000000000000000e+00
6.600000000000000000e+02,-6.712032632464982607e-01,0.000000000000000000e+00
6.610000000000000000e+02,-4.469886926950400463e-01,0.000000000000000000e+00
6.620000000000000000e+02,-5.328828249495156655e-01,0.000000000000000000e+00
6.630000000000000000e+02,-1.853943953544922030e-01,0.000000000000000000e+00
6.640000000000000000e+02,-3.746859571043538728e-01,0.000000000000000000e+00
6.650000000000000000e+02,-5.893444774008614650e-04,0.000000000000000000e+00
6.660000000000000000e+02,-4.261011685370592050e-01,0.000000000000000000e+00
6.670000000000000000e+02,-3.605268521153018324e-02,0.000000000000000000e+00
6.680000000000000000e+02,-3.040087707847019538e-01,0.000000000000000000e+00
6.690000000000000000e+02,1.154026671229615858e-01,0.000000000000000000e+00
6.700000000000000000e+02,-1.694948429123518258e-02,0.000000000000000000e+00
6.710000000000000000e+02,1.453660403266519296e-01,0.000000000000000000e+00
6.720000000000000000e+02,-7.580354140520957629e-02,0.000000000000000000e+00
6.730000000000000000e+02,2.505250571006614746e-01,0.000000000000000000e+00
6.740000000000000000e+02,4.115780127036219177e-02,0.000000000000000000e+00
6.750000000000000000e+02,1.621765705154223081e-01,0.000000000000000000e+00
6.760000000000000000e+02,2.682573199997959068e-01,0.000000000000000000e+00
6.770000000000000000e+02,2.562214564393855420e-01,0.000000000000000000e+00
6.780000000000000000e+02,1.908677168340567054e-01,0.000000000000000000e+00
6.790000000000000000e+02,4.645657550068659214e-01,0.000000000000000000e+00
6.800000000000000000e+02,3.355455107188274888e-01,0.000000000000000000e+00
6.810000000000000000e+02,5.327890141641308253e-01,0.000000000000000000e+00
6.820000000000000000e+02,4.270550984649224002e-01,0.000000000000000000e+00
6.830000000000000000e+02,4.412895705468685703e-01,0.000000000000000000e+00
6.840000000000000000e+02,8.826154337751164480e-02,0.000000000000000000e+00
6.850000000000000000e+02,1.808366064124868056e-01,0.000000000000000000e+00
6.860000000000000000e+02,2.127016753229442336e-01,0.000000000000000000e+00
6.870000000000000000e+02,2.815738537183837820e-01,0.000000000000000000e+00
6.880000000000000000e+02,-3.571781984331124371e-01,0.000000000000000000e+00
6.890000000000000000e+02,5.148272959820459072e+00,0.000000000000000000e+00
6.900000000000000000e+02,4.226984385824130719e+00,1.000000000000000000e+00
6.910000000000000000e+02,-1.254306865643769697e+00,0.000000000000000000e+00
6.920000000000000000e+02,-1.919466272767430259e-01,0.000000000000000000e+00
6.930000000000000000e+02,-7.725502928137881753e-01,0.000000000000000000e+00
6.940000000000000000e+02,-4.989634239461356313e-01,0.000000000000000000e+00
6.950000000000000000e+02,-7.204816810768764901e-01,0.000000000000000000e+00
6.960000000000000000e+02,-4.057493472026200698e-01,0.000000000000000000e+00
6.970000000000000000e+02,-5.030275023213017782e-01,0.000000000000000000e+00
6.980000000000000000e+02,-2.882903099143079850e-01,0.000000000000000000e+00
6.990000000000000000e+02,-4.101777819016412252e-01,0.000000000000000000e+00
7.000000000000000000e+02,3.886359435750311175e-02,0.000000000000000000e+00
7.010000000000000000e+02,1.106157138939487528e-01,0.000000000000000000e+00
7.020000000000000000e+02,3.476066518385202420e-01,0.000000000000000000e+00
7.030000000000000000e+02,5.591022926377990920e-01,0.000000000000000000e+00
7.040000000000000000e+02,8.145892280351051395e-01,0.000000000000000000e+00
7.050000000000000000e+02,9.254293924819320116e-01,0.000000000000000000e+00
7.060000000000000000e+02,8.443143919366080663e-01,0.000000000000000000e+00
7.070000000000000000e+02,2.901514979393425842e-01,0.000000000000000000e+00
7.080000000000000000e+02,-3.165198064674991651e-01,0.000000000000000000e+00
7.090000000000000000e+02,-1.101012533709611496e+00,0.000000000000000000e+00
7.100000000000000000e+02,-1.002609758009006757e+00,0.000000000000000000e+00
7.110000000000000000e+02,-1.244340270225003930e+00,0.000000000000000000e+00
7.120000000000000000e+02,-1.131009681661342858e+00,0.000000000000000000e+00
7.130000000000000000e+02,-1.103061222629774241e+00,0.000000000000000000e+00
7.140000000000000000e+02,-1.007804482832378001e+00,0.000000000000000000e+00
7.150000000000000000e+02,-8.879360630029162760e-01,0.000000000000000000e+00
7.160000000000000000e+02,-6.922680495081934282e-01,0.000000000000000000e+00
7.170000000000000000e+02,-6.893528110552606947e-01,0.000000000000000000e+00
7.180000000000000000e+02,-4.799746175654772684e-01,0.000000000000000000e+00
7.190000000000000000e+02,-5.155590022357018354e-01,0.000000000000000000e+00
7.200000000000000000e+02,-5.701800030381846129e-01,0.000000000000000000e+00
7.210000000000000000e+02,-3.946799031988721396e-01,0.000000000000000000e+00
7.220000000000000000e+02,-2.354697023786967436e-01,0.000000000000000000e+00
7.230000000000000000e+02,-1.587142525856912734e-01,0.000000000000000000e+00
7.240000000000000000e+02,-2.577123061474672072e-01,0.000000000000000000e+00
7.250000000000000000e+02,-6.521027643552824993e-02,0.000000000000000000e+00
7.260000000000000000e+02,-1.868529122825149935e-01,0.000000000000000000e+00
7.270000000000000000e+02,-1.268624549563417692e-01,0.000000000000000000e+00
7.280000000000000000e+02,1.228691592795180983e-02,0.000000000000000000e+00
7.290000000000000000e+02,5.328779242111438691e-02,0.000000000000000000e+00
7.300000000000000000e+02,1.176851547156854833e-01,0.000000000000000000e+00
7.310000000000000000e+02,1.048011880235338311e-01,0.000000000000000000e+00
7.320000000000000000e+02,9.948592779872199310e-02,0.000000000000000000e+00
7.330000000000000000e+02,3.173344348486413224e-01,0.000000000000000000e+00
7.340000000000000000e+02,-3.706972739706403119e-02,0.000000000000000000e+00
7.350000000000000000e+02,3.746317087672712542e-01,0.000000000000000000e+00
7.360000000000000000e+02,2.155855363051866758e-01,0.000000000000000000e+00
7.370000000000000000e+02,3.438027838632818356e-01,0.000000000000000000e+00
7.380000000000000000e+02,5.668293314000648619e-01,0.000000000000000000e+00
7.390000000000000000e+02,4.005726809249276488e-01,0.000000000000000000e+00
7.400000000000000000e+02,9.269185097629294157e-02,0.000000000000000000e+00
7.410000000000000000e+02,2.067608589985601708e-01,0.000000000000000000e+00
7.420000000000000000e+02,-4.015542454481018514e-02,0.000000000000000000e+00
7.430000000000000000e+02,2.686457366085474585e-01,0.000000000000000000e+00
7.440000000000000000e+02,-3.098796384233951651e-01,0.000000000000000000e+00
7.450000000000000000e+02,2.606937264253389230e+00,0.000000000000000000e+00
7.460000000000000000e+02,5.812374103796095426e+00,0.000000000000000000e+00
7.470000000000000000e+02,-3.350106586542433984e-01,1.000000000000000000e+00
7.480000000000000000e+02,-5.962657550273301466e-01,0.000000000000000000e+00
7.490000000000000000e+02,-3.524566562373852574e-01,0.000000000000000000e+00
7.500000000000000000e+02,-6.003587359178239602e-01,0.000000000000000000e+00
7.510000000000000000e+02,-4.851325821154031659e-01,0.000000000000000000e+00
7.520000000000000000e+02,-3.277156835346358710e-01,0.000000000000000000e+00
7.530000000000000000e+02,-3.806807524512087482e-01,0.000000000000000000e+00
7.540000000000000000e+02,-8.908873599642408436e-02,0.000000000000000000e+00
7.550000000000000000e+02,-1.454248639981607083e-01,0.000000000000000000e+00
7.560000000000000000e+02,8.485863004318583425e-02,0.000000000000000000e+00
7.570000000000000000e+02,-1.360856392052795655e-02,0.000000000000000000e+00
7.580000000000000000e+02,2.752742847616791999e-01,0.000000000000000000e+00
7.590000000000000000e+02,5.970256195209415750e-01,0.000000000000000000e+00
7.600000000000000000e+02,8.746287237314794849e-01,0.000000000000000000e+00
7.610000000000000000e+02,9.077919821946256462e-01,0.000000000000000000e+00
7.620000000000000000e+02,1.024501386415367366e+00,0.000000000000000000e+00
7.630000000000000000e+02,7.101672415540343231e-01,0.000000000000000000e+00
7.640000000000000000e+02,-2.297260511341830125e-01,0.000000000000000000e+00
7.650000000000000000e+02,-6.410240479228889177e-01,0.000000000000000000e+00
7.660000000000000000e+02,-1.214317633737705293e+00,0.000000000000000000e+00
7.670000000000000000e+02,-1.208359444007585326e+00,0.000000000000000000e+00
7.680000000000000000e+02,-1.152138333692774408e+00,0.000000000000000000e+00
7.690000000000000000e+02,-1.022773825935472392e+00,0.000000000000000000e+00
7.700000000000000000e+02,-1.043641606326633386e+00,0.000000000000000000e+00
7.710000000000000000e+02,-9.335511565365083309e-01,0.000000000000000000e+00
7.720000000000000000e+02,-7.368505153693988285e-01,0.000000000000000000e+00
7.730000000000000000e+02,-6.501771236154568756e-01,0.000000000000000000e+00
7.740000000000000000e+02,-6.062163427669083893e-01,0.000000000000000000e+00
7.750000000000000000e+02,-5.044841152573933396e-01,0.000000000000000000e+00
7.760000000000000000e+02,-4.164945378951113719e-01,0.000000000000000000e+00
7.770000000000000000e+02,-4.317271690138628215e-01,0.000000000000000000e+00
7.780000000000000000e+02,-2.148842382024632180e-01,0.000000000000000000e+00
7.790000000000000000e+02,-2.631887124305675174e-01,0.000000000000000000e+00
7.800000000000000000e+02,-2.094277676909764296e-01,0.000000000000000000e+00
7.810000000000000000e+02,-6.565145605681642349e-02,0.000000000000000000e+00
7.820000000000000000e+02,-2.848474268765764372e-01,0.000000000000000000e+00
7.830000000000000000e+02,-7.863970065759248729e-02,0.000000000000000000e+00
7.840000000000000000e+02,-5.778921991157800336e-02,0.000000000000000000e+00
7.850000000000000000e+02,1.242987809567745183e-01,0.000000000000000000e+00
7.860000000000000000e+02,-9.108230756182249255e-02,0.000000000000000000e+00
7.870000000000000000e+02,1.371654990731039359e-01,0.000000000000000000e+00
7.880000000000000000e+02,7.671312923427982267e-02,0.000000000000000000e+00
7.890000000000000000e+02,3.131445661212492459e-01,0.000000000000000000e+00
7.900000000000000000e+02,8.968329003251457321e-02,0.000000000000000000e+00
7.910000000000000000e+02,4.064811943820869078e-01,0.000000000000000000e+00
7.920000000000000000e+02,4.214565939915400627e-01,0.000000000000000000e+00
7.930000000000000000e+02,3.949124535006859893e-01,0.000000000000000000e+00
7.940000000000000000e+02,5.569610206667415658e-02,0.000000000000000000e+00
7.950000000000000000e+02,1.788345139078128254e-01,0.000000000000000000e+00
7.960000000000000000e+02,1.497065506987136640e-01,0.000000000000000000e+00
7.970000000000000000e+02,-7.716783430571090563e-02,0.000000000000000000e+00
7.980000000000000000e+02,8.607486741698100463e-01,0.000000000000000000e+00
7.990000000000000000e+02,5.831493924169765641e+00,0.000000000000000000e+00
8.000000000000000000e+02,1.381893532287070459e+00,1.000000000000000000e+00
8.010000000000000000e+02,-9.914324015136627422e-01,0.000000000000000000e+00
8.020000000000000000e+02,4.544216586659988177e-03,0.000000000000000000e+00
8.030000000000000000e+02,-6.675480135485339916e-01,0.000000000000000000e+00
8.040000000000000000e+02,-3.225489415387083336e-01,0.000000000000000000e+00
8.050000000000000000e+02,-3.817519629400531467e-01,0.000000000000000000e+00
8.060000000000000000e+02,-2.051436610841907981e-01,0.000000000000000000e+00
8.070000000000000000e+02,-1.514799163779400604e-01,0.000000000000000000e+00
8.080000000000000000e+02,4.603666608431644658e-02,0.000000000000000000e+00
8.090000000000000000e+02,-1.749334182016749895e-01,0.000000000000000000e+00
8.100000000000000000e+02,1.898006048075445706e-01,0.000000000000000000e+00
8.110000000000000000e+02,1.185706647697548216e-01,0.000000000000000000e+00
8.120000000000000000e+02,5.692514848236278624e-01,0.000000000000000000e+00
8.130000000000000000e+02,7.670587873265699574e-01,0.000000000000000000e+00
8.140000000000000000e+02,9.721000494429242744e-01,0.000000000000000000e+00
8.150000000000000000e+02,9.415175472405028501e-01,0.000000000000000000e+00
8.160000000000000000e+02,7.507460331670197107e-01,0.000000000000000000e+00
8.170000000000000000e+02,2.594169857954539693e-02,0.000000000000000000e+00
8.180000000000000000e+02,-5.058633608890420463e-01,0.000000000000000000e+00
8.190000000000000000e+02,-1.073641027041964069e+00,0.000000000000000000e+00
8.200000000000000000e+02,-1.015541289807990077e+00,0.000000000000000000e+00
8.210000000000000000e+02,-1.142753740445006549e+00,0.000000000000000000e+00
8.220000000000000000e+02,-9.745637498801458243e-01,0.000000000000000000e+00
8.230000000000000000e+02,-1.056385239527097619e+00,0.000000000000000000e+00
8.240000000000000000e+02,-8.610541163079131755e-01,0.000000000000000000e+00
8.250000000000000000e+02,-7.968865667370065298e-01,0.000000000000000000e+00
8.260000000000000000e+02,-7.077123948383897689e-01,0.000000000000000000e+00
8.270000000000000000e+02,-3.335245708399417475e-01,0.000000000000000000e+00
8.280000000000000000e+02,-5.422060707871593221e-01,0.000000000000000000e+00
8.290000000000000000e+02,-4.040801947067488853e-01,0.000000000000000000e+00
8.300000000000000000e+02,-3.976812593391022554e-01,0.000000000000000000e+00
8.310000000000000000e+02,-2.381347314809970361e-01,0.000000000000000000e+00
8.320000000000000000e+02,-3.316193071776000756e-01,0.000000000000000000e+00
8.330000000000000000e+02,-2.121240810595564352e-01,0.000000000000000000e+00
8.340000000000000000e+02,-1.454776213246454508e-01,0.000000000000000000e+00
8.350000000000000000e+02,-2.904169983158862434e-01,0.000000000000000000e+00
8.360000000000000000e+02,-2.321313971662997688e-01,0.000000000000000000e+00
8.370000000000000000e+02,5.887917883468443692e-02,0.000000000000000000e+00
8.380000000000000000e+02,-2.900170034273949135e-02,0.000000000000000000e+00
8.390000000000000000e+02,-1.060793110085337387e-01,0.000000000000000000e+00
8.400000000000000000e+02,7.788744041563847205e-04,0.000000000000000000e+00
8.410000000000000000e+02,6.458363576222093949e-02,0.000000000000000000e+00
8.420000000000000000e+02,2.220292280543074981e-01,0.000000000000000000e+00
8.430000000000000000e+02,1.444135955638898017e-01,0.000000000000000000e+00
8.440000000000000000e+02,2.360777122416454210e-01,0.000000000000000000e+00
8.450000000000000000e+02,1.942671077110479649e-01,0.000000000000000000e+00
8.460000000000000000e+02,-9.846962809729312149e-02,0.000000000000000000e+00
8.470000000000000000e+02,1.066012666874587012e-01,0.000000000000000000e+00
8.480000000000000000e+02,-5.645523972016391889e-02,0.000000000000000000e+00
8.490000000000000000e+02,-3.832974335268660854e-02,0.000000000000000000e+00
8.500000000000000000e+02,3.855977751764473882e-01,0.000000000000000000e+00
8.510000000000000000e+02,5.342705450326190153e+00,0.000000000000000000e+00
8.520000000000000000e+02,1.825225670068772121e+00,1.000000000000000000e+00
8.530000000000000000e+02,-1.322063970540028999e+00,0.000000000000000000e+00
8.540000000000000000e+02,7.032681327924443504e-02,0.000000000000000000e+00
8.550000000000000000e+02,-7.821853991314419163e-01,0.000000000000000000e+00
8.560000000000000000e+02,-1.337657680182630648e-01,0.000000000000000000e+00
8.570000000000000000e+02,-4.505784064750221196e-01,0.000000000000000000e+00
8.580000000000000000e+02,-2.526782590743745227e-01,0.000000000000000000e+00
8.590000000000000000e+02,-2.660964541545722262e-01,0.000000000000000000e+00
8.600000000000000000e+02,1.824027807217362337e-02,0.000000000000000000e+00
8.610000000000000000e+02,9.075288077852809721e-02,0.000000000000000000e+00
8.620000000000000000e+02,2.586287844776287703e-01,0.000000000000000000e+00
8.630000000000000000e+02,2.488841855673899484e-01,0.000000000000000000e+00
8.640000000000000000e+02,7.144732766545356384e-01,0.000000000000000000e+00
8.650000000000000000e+02,6.806395420385301653e-01,0.000000000000000000e+00
8.660000000000000000e+02,1.144119826466896805e+00,0.000000000000000000e+00
8.670000000000000000e+02,9.959102831813501089e-01,0.000000000000000000e+00
8.680000000000000000e+02,9.263619705392349690e-01,0.000000000000000000e+00
8.690000000000000000e+02,1.844620704052333526e-01,0.000000000000000000e+00
8.700000000000000000e+02,-5.085678257951591341e-01,0.000000000000000000e+00
8.710000000000000000e+02,-1.026888453976357196e+00,0.000000000000000000e+00
8.720000000000000000e+02,-1.135703902698686818e+00,0.000000000000000000e+00
8.730000000000000000e+02,-1.141343871504291840e+00,0.000000000000000000e+00
8.740000000000000000e+02,-7.905822933311746903e-01,0.000000000000000000e+00
8.750000000000000000e+02,-1.043914332180977844e+00,0.000000000000000000e+00
8.760000000000000000e+02,-7.598159273658272594e-01,0.000000000000000000e+00
8.770000000000000000e+02,-7.866460385717549686e-01,0.000000000000000000e+00
8.780000000000000000e+02,-4.098909421669305053e-01,0.000000000000000000e+00
8.790000000000000000e+02,-5.369725281407370376e-01,0.000000000000000000e+00
8.800000000000000000e+02,-2.840565865808618029e-01,0.000000000000000000e+00
8.810000000000000000e+02,-4.466413945140271791e-01,0.000000000000000000e+00
8.820000000000000000e+02,-3.538224681908380687e-01,0.000000000000000000e+00
8.830000000000000000e+02,-3.505218697638043945e-01,0.000000000000000000e+00
8.840000000000000000e+02,-1.070678208052581321e-01,0.000000000000000000e+00
8.850000000000000000e+02,-1.155050761331044284e-01,0.000000000000000000e+00
8.860000000000000000e+02,-1.620472031426210477e-02,0.000000000000000000e+00
8.870000000000000000e+02,-8.527276220210368296e-02,0.000000000000000000e+00
8.880000000000000000e+02,-1.918542715532134402e-02,0.000000000000000000e+00
8.890000000000000000e+02,-1.220384436779440029e-01,0.000000000000000000e+00
8.900000000000000000e+02,1.218447841315969810e-01,0.000000000000000000e+00
8.910000000000000000e+02,-9.040078777451597894e-03,0.000000000000000000e+00
8.920000000000000000e+02,7.780792391920401951e-02,0.000000000000000000e+00
8.930000000000000000e+02,2.097817298603871228e-01,0.000000000000000000e+00
8.940000000000000000e+02,2.237627906272760814e-01,0.000000000000000000e+00
8.950000000000000000e+02,2.366831562790621679e-01,0.000000000000000000e+00
8.960000000000000000e+02,3.804581473669703118e-01,0.000000000000000000e+00
8.970000000000000000e+02,3.641953624535677059e-01,0.000000000000000000e+00
8.980000000000000000e+02,2.190576406210257288e-01,0.000000000000000000e+00
8.990000000000000000e+02,5.794337574633103699e-02,0.000000000000000000e+00
9.000000000000000000e+02,8.590887920917299192e-02,0.000000000000000000e+00
9.010000000000000000e+02,1.141175918561441738e-01,0.000000000000000000e+00
9.020000000000000000e+02,-2.767645384207308434e-01,0.000000000000000000e+00
9.030000000000000000e+02,1.670206342489965579e+00,0.000000000000000000e+00
9.040000000000000000e+02,6.144793443544517508e+00,0.000000000000000000e+00
9.050000000000000000e+02,7.077784585405614282e-01,1.000000000000000000e+00
9.060000000000000000e+02,-7.682792490623310266e-01,0.000000000000000000e+00
9.070000000000000000e+02,-7.997302693817917030e-01,0.000000000000000000e+00
9.080000000000000000e+02,-4.861100263485909068e-01,0.000000000000000000e+00
9.090000000000000000e+02,-4.941582717891627730e-01,0.000000000000000000e+00
9.100000000000000000e+02,-4.699241360798501188e-01,0.000000000000000000e+00
9.110000000000000000e+02,-1.663069509837239446e-01,0.000000000000000000e+00
9.120000000000000000e+02,-3.578855641396828657e-01,0.000000000000000000e+00
9.130000000000000000e+02,-1.924314798169658725e-01,0.000000000000000000e+00
9.140000000000000000e+02,-7.014640860482976303e-02,0.000000000000000000e+00
9.150000000000000000e+02,1.252262267678979357e-01,0.000000000000000000e+00
9.160000000000000000e+02,2.797313176713775995e-01,0.000000000000000000e+00
9.170000000000000000e+02,4.090293748409590813e-01,0.000000000000000000e+00
9.180000000000000000e+02,6.270503481070460738e-01,0.000000000000000000e+00
9.190000000000000000e+02,9.313598417034625321e-01,0.000000000000000000e+00
9.200000000000000000e+02,9.812252044837228571e-01,0.000000000000000000e+00
9.210000000000000000e+02,5.388262363183318193e-01,0.000000000000000000e+00
9.220000000000000000e+02,-1.829319041824005732e-01,0.000000000000000000e+00
9.230000000000000000e+02,-6.534381548859297117e-01,0.000000000000000000e+00
9.240000000000000000e+02,-1.150018068009807548e+00,0.000000000000000000e+00
9.250000000000000000e+02,-1.102794679247285359e+00,0.000000000000000000e+00
9.260000000000000000e+02,-1.007475648268533641e+00,0.000000000000000000e+00
9.270000000000000000e+02,-1.113664356293734725e+00,0.000000000000000000e+00
9.280000000000000000e+02,-8.495161629082265131e-01,0.000000000000000000e+00
9.290000000000000000e+02,-8.680979792642264936e-01,0.000000000000000000e+00
9.300000000000000000e+02,-7.133638472677693576e-01,0.000000000000000000e+00
9.310000000000000000e+02,-6.493418660880405646e-01,0.000000000000000000e+00
9.320000000000000000e+02,-6.157123057311263414e-01,0.000000000000000000e+00
9.330000000000000000e+02,-3.159448005474561061e-01,0.000000000000000000e+00
9.340000000000000000e+02,-4.218519197524527864e-01,0.000000000000000000e+00
9.350000000000000000e+02,-3.994706851519239654e-01,0.000000000000000000e+00
9.360000000000000000e+02,-2.038376094594748500e-01,0.000000000000000000e+00
9.370000000000000000e+02,-1.787608294521248753e-01,0.000000000000000000e+00
9.380000000000000000e+02,-1.062563440882543647e-01,0.000000000000000000e+00
9.390000000000000000e+02,-2.613744492553256027e-01,0.000000000000000000e+00
9.400000000000000000e+02,-3.569708654181445034e-02,0.000000000000000000e+00
9.410000000000000000e+02,1.315126881352371435e-02,0.000000000000000000e+00
9.420000000000000000e+02,-1.248374323972541305e-01,0.000000000000000000e+00
9.430000000000000000e+02,2.128506207417586032e-02,0.000000000000000000e+00
9.440000000000000000e+02,9.969811909716858045e-02,0.000000000000000000e+00
9.450000000000000000e+02,-3.066858325011415348e-03,0.000000000000000000e+00
9.460000000000000000e+02,1.656278522820014976e-01,0.000000000000000000e+00
9.470000000000000000e+02,7.290991126489475282e-02,0.000000000000000000e+00
9.480000000000000000e+02,2.373128399092631902e-01,0.000000000000000000e+00
9.490000000000000000e+02,2.100605940058716814e-01,0.000000000000000000e+00
9.500000000000000000e+02,1.942019252700241672e-01,0.000000000000000000e+00
9.510000000000000000e+02,3.059002402730683357e-01,0.000000000000000000e+00
9.520000000000000000e+02,3.292678722874185504e-01,0.000000000000000000e+00
9.530000000000000000e+02,4.381397839828800600e-01,0.000000000000000000e+00
9.540000000000000000e+02,4.214184055488712222e-01,0.000000000000000000e+00
9.550000000000000000e+02,1.605905547254987409e-01,0.000000000000000000e+00
9.560000000000000000e+02,1.064793312418514659e-01,0.000000000000000000e+00
9.570000000000000000e+02,-2.324921349240765406e-02,0.000000000000000000e+00
9.580000000000000000e+02,-5.915476509086346757e-02,0.000000000000000000e+00
9.590000000000000000e+02,7.813737691629651927e-01,0.000000000000000000e+00
9.600000000000000000e+02,6.257813860921424443e+00,0.000000000000000000e+00
9.610000000000000000e+02,2.183611206411724126e+00,1.000000000000000000e+00
9.620000000000000000e+02,-9.816325592737467076e-01,0.000000000000000000e+00
9.630000000000000000e+02,-4.086694550568422679e-01,0.000000000000000000e+00
9.640000000000000000e+02,-8.811465823870443526e-01,0.000000000000000000e+00
9.650000000000000000e+02,-5.611125829760791328e-01,0.000000000000000000e+00
9.660000000000000000e+02,-7.020887370984740805e-01,0.000000000000000000e+00
9.670000000000000000e+02,-4.887717279979906793e-01,0.000000000000000000e+00
9.680000000000000000e+02,-4.485271909125884138e-01,0.000000000000000000e+00
9.690000000000000000e+02,-1.015106510664928324e-01,0.000000000000000000e+00
9.700000000000000000e+02,-2.366776348974665989e-01,0.000000000000000000e+00
9.710000000000000000e+02,1.772331966873142914e-02,0.000000000000000000e+00
9.720000000000000000e+02,4.162929826940689471e-02,0.000000000000000000e+00
9.730000000000000000e+02,3.415757342064826840e-01,0.000000000000000000e+00
9.740000000000000000e+02,5.234077293805946551e-01,0.000000000000000000e+00
9.750000000000000000e+02,9.634603715264911106e-01,0.000000000000000000e+00
9.760000000000000000e+02,8.317546815511013270e-01,0.000000000000000000e+00
9.770000000000000000e+02,8.345336668362338672e-01,0.000000000000000000e+00
9.780000000000000000e+02,-7.943308525276769616e-02,0.000000000000000000e+00
9.790000000000000000e+02,-6.000383661665742441e-01,0.000000000000000000e+00
9.800000000000000000e+02,-1.122048407345045185e+00,0.000000000000000000e+00
9.810000000000000000e+02,-1.106758860201239258e+00,0.000000000000000000e+00
9.820000000000000000e+02,-1.206871210129804917e+00,0.000000000000000000e+00
9.830000000000000000e+02,-9.249656851302786587e-01,0.000000000000000000e+00
9.840000000000000000e+02,-9.873241778452925832e-01,0.000000000000000000e+00
9.850000000000000000e+02,-7.297720567037052630e-01,0.000000000000000000e+00
9.860000000000000000e+02,-8.344633505099874338e-01,0.000000000000000000e+00
9.870000000000000000e+02,-5.483008811387971582e-01,0.000000000000000000e+00
9.880000000000000000e+02,-6.533316806990928649e-01,0.000000000000000000e+00
9.890000000000000000e+02,-4.107094465913992409e-01,0.000000000000000000e+00
9.900000000000000000e+02,-4.381682003085560217e-01,0.000000000000000000e+00
9.910000000000000000e+02,-3.369903933239719596e-01,0.000000000000000000e+00
9.920000000000000000e+02,-3.851526733666484903e-01,0.000000000000000000e+00
9.930000000000000000e+02,-6.050492227965013903e-02,0.000000000000000000e+00
9.940000000000000000e+02,-1.252277656747756429e-01,0.000000000000000000e+00
9.950000000000000000e+02,6.110138847019089270e-02,0.000000000000000000e+00
9.960000000000000000e+02,-3.017459699880205015e-01,0.000000000000000000e+00
9.970000000000000000e+02,6.103678922779336158e-02,0.000000000000000000e+00
9.980000000000000000e+02,3.258294164675110821e-02,0.000000000000000000e+00
9.990000000000000000e+02,7.283277392969687847e-02,0.000000000000000000e+00
1.000000000000000000e+03,6.138461939129770395e-02,0.000000000000000000e+00
1.001000000000000000e+03,1.405719072207040343e-01,0.000000000000000000e+00
1.002000000000000000e+03,-4.018227165192292394e-02,0.000000000000000000e+00
1.003000000000000000e+03,1.949639785445294315e-01,0.000000000000000000e+00
1.004000000000000000e+03,2.074576000208000204e-01,0.000000000000000000e+00
1.005000000000000000e+03,2.625092313005769618e-01,0.000000000000000000e+00
1.006000000000000000e+03,1.069894077792928472e-01,0.000000000000000000e+00
1.007000000000000000e+03,2.111254613433241056e-01,0.000000000000000000e+00
1.008000000000000000e+03,2.838410460623249087e-01,0.000000000000000000e+00
1.009000000000000000e+03,3.594747198799285171e-01,0.000000000000000000e+00
1.010000000000000000e+03,3.465373842585044439e-01,0.000000000000000000e+00
1.011000000000000000e+03,4.544687171507945100e-01,0.000000000000000000e+00
1.012000000000000000e+03,4.701460986447751900e-01,0.000000000000000000e+00
1.013000000000000000e+03,3.807186555532043881e-01,0.000000000000000000e+00
1.014000000000000000e+03,3.185843753073944185e-02,0.000000000000000000e+00
1.015000000000000000e+03,2.992901083709739729e-01,0.000000000000000000e+00
1.016000000000000000e+03,1.002882428254909253e-01,0.000000000000000000e+00
1.017000000000000000e+03,1.540154182921169290e-01,0.000000000000000000e+00
1.018000000000000000e+03,-2.444176498728293512e-01,0.000000000000000000e+00
1.019000000000000000e+03,5.628164166585597705e+00,0.000000000000000000e+00
1.020000000000000000e+03,3.633876551052435122e+00,1.000000000000000000e+00
1.021000000000000000e+03,-1.121461656937296825e+00,0.000000000000000000e+00
1.022000000000000000e+03,-2.255616374293013815e-01,0.000000000000000000e+00
1.023000000000000000e+03,-9.808584056559472852e-01,0.000000000000000000e+00
1.024000000000000000e+03,-5.770818427326849243e-01,0.000000000000000000e+00
1.025000000000000000e+03,-7.756119790426468930e-01,0.000000000000000000e+00
1.026000000000000000e+03,-4.612341446069129214e-01,0.000000000000000000e+00
1.027000000000000000e+03,-4.554623448884098647e-01,0.000000000000000000e+00
1.028000000000000000e+03,-2.243716072143837059e-01,0.000000000000000000e+00
1.029000000000000000e+03,-3.431540491824772166e-01,0.000000000000000000e+00
1.030000000000000000e+03,-7.314389414259067634e-02,0.000000000000000000e+00
1.031000000000000000e+03,-5.320412278138689222e-02,0.000000000000000000e+00
1.032000000000000000e+03,4.762581482265911270e-01,0.000000000000000000e+00
1.033000000000000000e+03,4.352358419111475585e-01,0.000000000000000000e+00
1.034000000000000000e+03,9.196115022407986839e-01,0.000000000000000000e+00
1.035000000000000000e+03,9.979045581132384157e-01,0.000000000000000000e+00
1.036000000000000000e+03,7.221816389885141740e-01,0.000000000000000000e+00
1.037000000000000000e+03,1.840018892354968738e-01,0.000000000000000000e+00
1.038000000000000000e+03,-5.403631465688630842e-01,0.000000000000000000e+00
1.039000000000000000e+03,-9.285281022936284767e-01,0.000000000000000000e+00
1.040000000000000000e+03,-1.243091405573829800e+00,0.000000000000000000e+00
1.041000000000000000e+03,-1.300380292965282569e+00,0.000000000000000000e+00
1.042000000000000000e+03,-1.261868154320006985e+00,0.000000000000000000e+00
1.043000000000000000e+03,-9.606766063732616878e-01,0.000000000000000000e+00
1.044000000000000000e+03,-1.021261074920475576e+00,0.000000000000000000e+00
1.045000000000000000e+03,-8.108716995501336067e-01,0.000000000000000000e+00
1.046000000000000000e+03,-8.182745402893885078e-01,0.000000000000000000e+00
1.047000000000000000e+03,-7.424830759923157775e-01,0.000000000000000000e+00
1.048000000000000000e+03,-6.242998059274438294e-01,0.000000000000000000e+00
1.049000000000000000e+03,-4.945317629421512873e-01,0.000000000000000000e+00
1.050000000000000000e+03,-4.593096647981617098e-01,0.000000000000000000e+00
1.051000000000000000e+03,-4.645138375169143852e-01,0.000000000000000000e+00
1.052000000000000000e+03,-2.132974907371414652e-01,0.000000000000000000e+00
1.053000000000000000e+03,-2.857173063402624891e-01,0.000000000000000000e+00
1.054000000000000000e+03,-1.650224181794447409e-01,0.000000000000000000e+00
1.055000000000000000e+03,-2.217554756996844567e-01,0.000000000000000000e+00
1.056000000000000000e+03,-1.268805691319158102e-01,0.000000000000000000e+00
1.057000000000000000e+03,-4.309443648423011419e-02,0.000000000000000000e+00
1.058000000000000000e+03,-1.398214852200250768e-01,0.000000000000000000e+00
1.059000000000000000e+03,1.299182649501307296e-01,0.000000000000000000e+00
1.060000000000000000e+03,1.222150777566285845e-01,0.000000000000000000e+00
1.061000000000000000e+03,6.802678667692936554e-02,0.000000000000000000e+00
1.062000000000000000e+03,1.400017006323665270e-01,0.000000000000000000e+00
1.063000000000000000e+03,1.643660108374047912e-01,0.000000000000000000e+00
1.064000000000000000e+03,2.413575087239715200e-01,0.000000000000000000e+00
1.065000000000000000e+03,1.403895490415189018e-01,0.000000000000000000e+00
1.066000000000000000e+03,3.376553991294793389e-01,0.000000000000000000e+00
1.067000000000000000e+03,2.957517659967492385e-01,0.000000000000000000e+00
1.068000000000000000e+03,2.956996295110712603e-01,0.000000000000000000e+00
1.069000000000000000e+03,5.250316738017277718e-01,0.000000000000000000e+00
1.070000000000000000e+03,3.776611134507501522e-01,0.000000000000000000e+00
1.071000000000000000e+03,7.041782727901801930e-01,0.000000000000000000e+00
1.072000000000000000e+03,3.747976292420121536e-01,0.000000000000000000e+00
1.073000000000000000e+03,3.036169402723247757e-01,0.000000000000000000e+00
1.074000000000000000e+03,2.504074716366268549e-01,0.000000000000000000e+00
1.075000000000000000e+03,1.222907901493298644e-01,0.000000000000000000e+00
1.076000000000000000e+03,2.272487551485964374e-01,0.000000000000000000e+00
1.077000000000000000e+03,-1.604036098743790162e-01,0.000000000000000000e+00
1.078000000000000000e+03,8.010241091666701063e-01,0.000000000000000000e+00
1.079000000000000000e+03,6.552994780212499037e+00,0.000000000000000000e+00
1.080000000000000000e+03,2.218165739323062269e+00,1.000000000000000000e+00
1.081000000000000000e+03,-9.347320105372615151e-01,0.000000000000000000e+00
1.082000000000000000e+03,-3.811344392556751948e-01,0.000000000000000000e+00
1.083000000000000000e+03,-8.899437505877129118e-01,0.000000000000000000e+00
1.084000000000000000e+03,-5.024674338663743800e-01,0.000000000000000000e+00
1.085000000000000000e+03,-7.914041151100670302e-01,0.000000000000000000e+00
1.086000000000000000e+03,-3.788032008948954421e-01,0.000000000000000000e+00
1.087000000000000000e+03,-6.023632736314558089e-01,0.000000000000000000e+00
1.088000000000000000e+03,-1.298810594062064228e-01,0.000000000000000000e+00
1.089000000000000000e+03,-3.253929949998054516e-01,0.000000000000000000e+00
1.090000000000000000e+03,9.393363017098693701e-02,0.000000000000000000e+00
1.091000000000000000e+03,1.226818630010452632e-01,0.000000000000000000e+00
1.092000000000000000e+03,3.293491252188927021e-01,0.000000000000000000e+00
1.093000000000000000e+03,6.043313079109638997e-01,0.000000000000000000e+00
1.094000000000000000e+03,9.623483947239624969e-01,0.000000000000000000e+00
1.095000000000000000e+03,8.940465563302976149e-01,0.000000000000000000e+00
1.096000000000000000e+03,9.134497220643823523e-01,0.000000000000000000e+00
1.097000000000000000e+03,1.044993521938274855e-01,0.000000000000000000e+00
1.098000000000000000e+03,-7.645271305545016105e-01,0.000000000000000000e+00
1.099000000000000000e+03,-1.223833548766987578e+00,0.000000000000000000e+00
1.100000000000000000e+03,-1.128810523224248463e+00,0.000000000000000000e+00
1.101000000000000000e+03,-1.456340547062899615e+00,0.000000000000000000e+00
1.102000000000000000e+03,-1.065495443030629596e+00,0.000000000000000000e+00
1.103000000000000000e+03,-1.281919281229613627e+00,0.000000000000000000e+00
1.104000000000000000e+03,-9.985360931497402337e-01,0.000000000000000000e+00
1.105000000000000000e+03,-8.580015730336134627e-01,0.000000000000000000e+00
1.106000000000000000e+03,-8.136408564615819072e-01,0.000000000000000000e+00
1.107000000000000000e+03,-7.043906173196073928e-01,0.000000000000000000e+00
1.108000000000000000e+03,-4.629395263426368534e-01,0.000000000000000000e+00
1.109000000000000000e+03,-6.388342166317780846e-01,0.000000000000000000e+00
1.110000000000000000e+03,-2.582770378616823237e-01,0.000000000000000000e+00
1.111000000000000000e+03,-4.739887083033494375e-01,0.000000000000000000e+00
1.112000000000000000e+03,-1.742607406024555550e-01,0.000000000000000000e+00
1.113000000000000000e+03,-4.232956281026097889e-01,0.000000000000000000e+00
1.114000000000000000e+03,-7.323637639198643523e-02,0.000000000000000000e+00
1.115000000000000000e+03,-2.537902238639382912e-01,0.000000000000000000e+00
1.116000000000000000e+03,6.497069996808639558e-02,0.000000000000000000e+00
1.117000000000000000e+03,-3.350188270876641727e-01,0.000000000000000000e+00
1.118000000000000000e+03,1.459807768832723784e-01,0.000000000000000000e+00
1.119000000000000000e+03,-9.215358163272041603e-02,0.000000000000000000e+00
1.120000000000000000e+03,2.141774806311144419e-01,0.000000000000000000e+00
1.121000000000000000e+03,1.671728131873417844e-01,0.000000000000000000e+00
1.122000000000000000e+03,3.528191301692819581e-01,0.000000000000000000e+00
1.123000000000000000e+03,2.622552111789139967e-02,0.000000000000000000e+00
1.124000000000000000e+03,2.745645079612940576e-01,0.000000000000000000e+00
1.125000000000000000e+03,4.583641316630986118e-02,0.000000000000000000e+00
1.126000000000000000e+03,4.873110624175510108e-01,0.000000000000000000e+00
1.127000000000000000e+03,1.528724162831677502e-01,0.000000000000000000e+00
1.128000000000000000e+03,5.241609299762396423e-01,0.000000000000000000e+00
1.129000000000000000e+03,2.045852329083609200e-01,0.000000000000000000e+00
1.130000000000000000e+03,6.091281223093523156e-01,0.000000000000000000e+00
1.131000000000000000e+03,3.501304626858536273e-01,0.000000000000000000e+00
1.132000000000000000e+03,6.047546257516224211e-01,0.000000000000000000e+00
1.133000000000000000e+03,1.548231251879572112e-01,0.000000000000000000e+00
1.134000000000000000e+03,1.518072511354977006e-01,0.000000000000000000e+00
1.135000000000000000e+03,1.518559676379731271e-01,0.000000000000000000e+00
1.136000000000000000e+03,1.967314478529953170e-01,0.000000000000000000e+00
1.137000000000000000e+03,2.939037833491646434e-02,0.000000000000000000e+00
1.138000000000000000e+03,5.915818125367073854e+00,0.000000000000000000e+00
1.139000000000000000e+03,3.359449583976516607e+00,1.000000000000000000e+00
1.140000000000000000e+03,-1.231842978238373298e+00,0.000000000000000000e+00
1.141000000000000000e+03,-9.771483583369673653e-02,0.000000000000000000e+00
1.142000000000000000e+03,-1.016643677247950350e+00,0.000000000000000000e+00
1.143000000000000000e+03,-4.140584724360764080e-01,0.000000000000000000e+00
1.144000000000000000e+03,-6.825221222657065212e-01,0.000000000000000000e+00
1.145000000000000000e+03,-3.706829744919192815e-01,0.000000000000000000e+00
1.146000000000000000e+03,-5.078102276129538017e-01,0.000000000000000000e+00
1.147000000000000000e+03,-1.933001880392409277e-01,0.000000000000000000e+00
1.148000000000000000e+03,-3.852005014541602934e-01,0.000000000000000000e+00
1.149000000000000000e+03,2.153567171532895230e-01,0.000000000000000000e+00
1.150000000000000000e+03,-6.671251416171031234e-02,0.000000000000000000e+00
1.151000000000000000e+03,4.988661103281955556e-01,0.000000000000000000e+00
1.152000000000000000e+03,5.011105033593792335e-01,0.000000000000000000e+00
1.153000000000000000e+03,7.864511617536721344e-01,0.000000000000000000e+00
1.154000000000000000e+03,1.083533088116910292e+00,0.000000000000000000e+00
1.155000000000000000e+03,8.776214771156775063e-01,0.000000000000000000e+00
1.156000000000000000e+03,2.324518922870419668e-01,0.000000000000000000e+00
1.157000000000000000e+03,-3.333938570221655628e-01,0.000000000000000000e+00
1.158000000000000000e+03,-1.061428417978370398e+00,0.000000000000000000e+00
1.159000000000000000e+03,-1.125567348374715726e+00,0.000000000000000000e+00
1.160000000000000000e+03,-1.281341480331595006e+00,0.000000000000000000e+00
1.161000000000000000e+03,-1.226648087374809792e+00,0.000000000000000000e+00
1.162000000000000000e+03,-1.181750757227326476e+00,0.000000000000000000e+00
1.163000000000000000e+03,-8.060854178673008130e-01,0.000000000000000000e+00
1.164000000000000000e+03,-8.887993905299460540e-01,0.000000000000000000e+00
1.165000000000000000e+03,-6.883075939697222978e-01,0.000000000000000000e+00
1.166000000000000000e+03,-6.818090162219329065e-01,0.000000000000000000e+00
1.167000000000000000e+03,-6.172386633052006077e-01,0.000000000000000000e+00
1.168000000000000000e+03,-4.978150154749254042e-01,0.000000000000000000e+00
1.169000000000000000e+03,-4.863742230452736126e-01,0.000000000000000000e+00
1.170000000000000000e+03,-2.955368910098210011e-01,0.000000000000000000e+00
1.171000000000000000e+03,-2.489552738324240511e-01,0.000000000000000000e+00
1.172000000000000000e+03,-3.902999186700691348e-01,0.000000000000000000e+00
1.173000000000000000e+03,-2.390623521995605960e-01,0.000000000000000000e+00
1.174000000000000000e+03,-9.242524243979342857e-02,0.000000000000000000e+00
1.175000000000000000e+03,-8.403052746781848603e-02,0.000000000000000000e+00
1.176000000000000000e+03,-1.151552115864984405e-01,0.000000000000000000e+00
1.177000000000000000e+03,1.909537606302541546e-01,0.000000000000000000e+00
1.178000000000000000e+03,-3.050914180116470406e-02,0.000000000000000000e+00
1.179000000000000000e+03,1.359639133604431394e-01,0.000000000000000000e+00
1.180000000000000000e+03,-1.814184949861536930e-02,0.000000000000000000e+00
1.181000000000000000e+03,1.182421562500274581e-01,0.000000000000000000e+00
1.182000000000000000e+03,-9.879282825974758375e-02,0.000000000000000000e+00
1.183000000000000000e+03,3.297662472936395139e-01,0.000000000000000000e+00
1.184000000000000000e+03,1.310648436471187062e-01,0.000000000000000000e+00
1.185000000000000000e+03,2.894788749366749014e-01,0.000000000000000000e+00
1.186000000000000000e+03,2.406538569982019926e-01,0.000000000000000000e+00
1.187000000000000000e+03,4.518104759871584553e-01,0.000000000000000000e+00
1.188000000000000000e+03,3.119070360738923076e-01,0.000000000000000000e+00
1.189000000000000000e+03,4.867484091667700907e-01,0.000000000000000000e+00
1.190000000000000000e+03,7.473016107974123079e-02,0.000000000000000000e+00
1.191000000000000000e+03,6.607963882532584543e-02,0.000000000000000000e+00
1.192000000000000000e+03,8.249972660496696780e-03,0.000000000000000000e+00
1.193000000000000000e+03,3.040381021964548847e-01,0.000000000000000000e+00
1.194000000000000000e+03,-2.197411830822069700e-01,0.000000000000000000e+00
1.195000000000000000e+03,5.223946832534916318e+00,0.000000000000000000e+00
1.196000000000000000e+03,3.517318345629035115e+00,1.000000000000000000e+00
1.197000000000000000e+03,-1.326535725241828167e+00,0.000000000000000000e+00
1.198000000000000000e+03,-2.368691109795375005e-01,0.000000000000000000e+00
1.199000000000000000e+03,-7.513011208819109221e-01,0.000000000000000000e+00
1.200000000000000000e+03,-3.765830669098770289e-01,0.000000000000000000e+00
1.201000000000000000e+03,-5.500181688108287670e-01,0.000000000000000000e+00
1.202000000000000000e+03,-1.147938093009141375e-01,0.000000000000000000e+00
1.203000000000000000e+03,-4.837532731879036763e-01,0.000000000000000000e+00
1.204000000000000000e+03,-1.212060869513244266e-01,0.000000000000000000e+00
1.205000000000000000e+03,-1.641677565203767675e-01,0.000000000000000000e+00
1.206000000000000000e+03,1.119187092802408079e-01,0.000000000000000000e+00
1.207000000000000000e+03,2.153481673495850901e-01,0.000000000000000000e+00
1.208000000000000000e+03,5.283449384055454168e-01,0.000000000000000000e+00
1.209000000000000000e+03,7.349105080518921751e-01,0.000000000000000000e+00
1.210000000000000000e+03,8.605468284476430751e-01,0.000000000000000000e+00
1.211000000000000000e+03,9.816111889840646310e-01,0.000000000000000000e+00
1.212000000000000000e+03,1.052478706500689976e+00,0.000000000000000000e+00
1.213000000000000000e+03,1.444300717794744504e-01,0.000000000000000000e+00
1.214000000000000000e+03,-1.901169398375968933e-01,0.000000000000000000e+00
1.215000000000000000e+03,-9.219398480388247830e-01,0.000000000000000000e+00
1.216000000000000000e+03,-1.036274406507875057e+00,0.000000000000000000e+00
1.217000000000000000e+03,-1.184150523235045549e+00,0.000000000000000000e+00
1.218000000000000000e+03,-1.157842458865574908e+00,0.000000000000000000e+00
1.219000000000000000e+03,-1.154245807938869328e+00,0.000000000000000000e+00
1.220000000000000000e+03,-9.403085174611690578e-01,0.000000000000000000e+00
1.221000000000000000e+03,-7.936028848727733065e-01,0.000000000000000000e+00
1.222000000000000000e+03,-6.787024875719335215e-01,0.000000000000000000e+00
1.223000000000000000e+03,-4.767011889256760893e-01,0.000000000000000000e+00
1.224000000000000000e+03,-5.309878345390550702e-01,0.000000000000000000e+00
1.225000000000000000e+03,-4.928041004529964964e-01,0.000000000000000000e+00
1.226000000000000000e+03,-2.582189684481444591e-01,0.000000000000000000e+00
1.227000000000000000e+03,-4.871007403441091621e-01,0.000000000000000000e+00
1.228000000000000000e+03,-1.880053507828049475e-01,0.000000000000000000e+00
1.229000000000000000e+03,-2.480860543903715965e-01,0.000000000000000000e+00
1.230000000000000000e+03,-1.010529770950616135e-01,0.000000000000000000e+00
1.231000000000000000e+03,-1.630009471967872325e-01,0.000000000000000000e+00
1.232000000000000000e+03,-2.051302840242316128e-01,0.000000000000000000e+00
1.233000000000000000e+03,2.162028826196074269e-02,0.000000000000000000e+00
1.234000000000000000e+03,-6.594353628227807296e-02,0.000000000000000000e+00
1.235000000000000000e+03,-7.114279285574918142e-03,0.000000000000000000e+00
1.236000000000000000e+03,5.272602020181551413e-02,0.000000000000000000e+00
1.237000000000000000e+03,3.809702217941009304e-03,0.000000000000000000e+00
1.238000000000000000e+03,1.750170068224586040e-01,0.000000000000000000e+00
1.239000000000000000e+03,1.959601767323995158e-01,0.000000000000000000e+00
1.240000000000000000e+03,3.325717919479262430e-01,0.000000000000000000e+00
1.241000000000000000e+03,2.919608572798119139e-01,0.000000000000000000e+00
1.242000000000000000e+03,3.438279826309881826e-01,0.000000000000000000e+00
1.243000000000000000e+03,9.810207290161145066e-02,0.000000000000000000e+00
1.244000000000000000e+03,3.696952714007182422e-02,0.000000000000000000e+00
1.245000000000000000e+03,-4.351284343968597756e-02,0.000000000000000000e+00
1.246000000000000000e+03,-5.879869296455055017e-02,0.000000000000000000e+00
1.247000000000000000e+03,4.966541579547329444e-01,0.000000000000000000e+00
1.248000000000000000e+03,5.588342123088141378e+00,0.000000000000000000e+00
1.249000000000000000e+03,1.782195254370489756e+00,1.000000000000000000e+00
1.250000000000000000e+03,-1.429970806583719778e+00,0.000000000000000000e+00
1.251000000000000000e+03,6.220461091736412783e-03,0.000000000000000000e+00
1.252000000000000000e+03,-6.669141026215946733e-01,0.000000000000000000e+00
1.253000000000000000e+03,-3.316727483708917235e-01,0.000000000000000000e+00
1.254000000000000000e+03,-3.235955139810748338e-01,0.000000000000000000e+00
1.255000000000000000e+03,-1.323979103471893126e-01,0.000000000000000000e+00
1.256000000000000000e+03,-3.755030284147765074e-01,0.000000000000000000e+00
1.257000000000000000e+03,6.032969812977621860e-02,0.000000000000000000e+00
1.258000000000000000e+03,2.443727924458547612e-03,0.000000000000000000e+00
1.259000000000000000e+03,9.919747272346307598e-02,0.000000000000000000e+00
1.260000000000000000e+03,2.464828432274204784e-01,0.000000000000000000e+00
1.261000000000000000e+03,6.545532046323838671e-01,0.000000000000000000e+00
1.262000000000000000e+03,6.144711841997921864e-01,0.000000000000000000e+00
1.263000000000000000e+03,1.163698137212529904e+00,0.000000000000000000e+00
1.264000000000000000e+03,8.956794317094055602e-01,0.000000000000000000e+00
1.265000000000000000e+03,9.126589337453464568e-01,0.000000000000000000e+00
1.266000000000000000e+03,-1.052160539197701805e-01,0.000000000000000000e+00
1.267000000000000000e+03,-5.873888742241655248e-01,0.000000000000000000e+00
1.268000000000000000e+03,-9.874480266143604856e-01,0.000000000000000000e+00
1.269000000000000000e+03,-1.188976552127070985e+00,0.000000000000000000e+00
1.270000000000000000e+03,-1.013633112324557439e+00,0.000000000000000000e+00
1.271000000000000000e+03,-1.032162151804170147e+00,0.000000000000000000e+00
1.272000000000000000e+03,-9.995961368777320777e-01,0.000000000000000000e+00
1.273000000000000000e+03,-7.682452264207517700e-01,0.000000000000000000e+00
1.274000000000000000e+03,-9.918773044969328989e-01,0.000000000000000000e+00
1.275000000000000000e+03,-6.616254693759149319e-01,0.000000000000000000e+00
1.276000000000000000e+03,-4.893462073481679719e-01,0.000000000000000000e+00
1.277000000000000000e+03,-4.458946916865810794e-01,0.000000000000000000e+00
1.278000000000000000e+03,-5.903604334649903418e-01,0.000000000000000000e+00
1.279000000000000000e+03,-2.621153267152073751e-01,0.000000000000000000e+00
1.280000000000000000e+03,-4.439160719352210349e-01,0.000000000000000000e+00
1.281000000000000000e+03,-2.015463123276346746e-01,0.000000000000000000e+00
1.282000000000000000e+03,-3.006920346416446788e-01,0.000000000000000000e+00
1.283000000000000000e+03,-5.701554411705434672e-02,0.000000000000000000e+00
1.284000000000000000e+03,-3.229766036679346808e-01,0.000000000000000000e+00
1.285000000000000000e+03,8.716276840905107237e-02,0.000000000000000000e+00
1.286000000000000000e+03,-1.063637261626914493e-01,0.000000000000000000e+00
1.287000000000000000e+03,8.751530974497746806e-02,0.000000000000000000e+00
1.288000000000000000e+03,9.486815229791094317e-02,0.000000000000000000e+00
1.289000000000000000e+03,1.009772886548687965e-01,0.000000000000000000e+00
1.290000000000000000e+03,1.007040120608087702e-01,0.000000000000000000e+00
1.291000000000000000e+03,2.770715802110685910e-01,0.000000000000000000e+00
1.292000000000000000e+03,4.698716900734494772e-01,0.000000000000000000e+00
1.293000000000000000e+03,3.219055493575994631e-01,0.000000000000000000e+00
1.294000000000000000e+03,1.057033102866593716e-01,0.000000000000000000e+00
1.295000000000000000e+03,1.339803195729606135e-02,0.000000000000000000e+00
1.296000000000000000e+03,-2.261361812628525161e-02,0.000000000000000000e+00
1.297000000000000000e+03,2.272913335687418435e-01,0.000000000000000000e+00
1.298000000000000000e+03,-4.852979070044368126e-01,0.000000000000000000e+00
1.299000000000000000e+03,4.397626328561610620e+00,0.000000000000000000e+00
1.300000000000000000e+03,4.274883618016366960e+00,0.000000000000000000e+00
1.301000000000000000e+03,-1.026569865326280251e+00,1.000000000000000000e+00
1.302000000000000000e+03,-2.463995518602206392e-01,0.000000000000000000e+00
1.303000000000000000e+03,-7.527070341883796978e-01,0.000000000000000000e+00
1.304000000000000000e+03,-2.491043758243552952e-01,0.000000000000000000e+00
1.305000000000000000e+03,-5.076069737471518017e-01,0.000000000000000000e+00
1.306000000000000000e+03,-1.540404057188249909e-01,0.000000000000000000e+00
1.307000000000000000e+03,-2.586748254746392695e-01,0.000000000000000000e+00
1.308000000000000000e+03,-1.220744349419941310e-01,0.000000000000000000e+00
1.309000000000000000e+03,2.292941108212946319e-02,0.000000000000000000e+00
1.310000000000000000e+03,1.841424720072617205e-01,0.000000000000000000e+00
1.311000000000000000e+03,1.785434406875738289e-01,0.000000000000000000e+00
1.312000000000000000e+03,4.054667143480237268e-01,0.000000000000000000e+00
1.313000000000000000e+03,7.123964137799170260e-01,0.000000000000000000e+00
1.314000000000000000e+03,8.821279212884854948e-01,0.000000000000000000e+00
1.315000000000000000e+03,8.993830460499667723e-01,0.000000000000000000e+00
1.316000000000000000e+03,1.084070173229253919e+00,0.000000000000000000e+00
1.317000000000000000e+03,3.220154932846289175e-01,0.000000000000000000e+00
1.318000000000000000e+03,-1.800721701610310810e-01,0.000000000000000000e+00
1.319000000000000000e+03,-9.216768143894401577e-01,0.000000000000000000e+00
1.320000000000000000e+03,-9.268899421370838665e-01,0.000000000000000000e+00
1.321000000000000000e+03,-1.105273841439780025e+00,0.000000000000000000e+00
1.322000000000000000e+03,-8.987957897996826651e-01,0.000000000000000000e+00
1.323000000000000000e+03,-6.504234451081438717e-01,0.000000000000000000e+00
1.324000000000000000e+03,-7.550491497758693438e-01,0.000000000000000000e+00
1.325000000000000000e+03,-6.770647064550967542e-01,0.000000000000000000e+00
1.326000000000000000e+03,-6.556613681972117691e-01,0.000000000000000000e+00
1.327000000000000000e+03,-5.631236442662930219e-01,0.000000000000000000e+00
1.328000000000000000e+03,-3.127977453928451612e-01,0.000000000000000000e+00
1.329000000000000000e+03,-4.354966035644745048e-01,0.000000000000000000e+00
1.330000000000000000e+03,-3.688423038607707705e-01,0.000000000000000000e+00
1.331000000000000000e+03,-1.936994801861200155e-01,0.000000000000000000e+00
1.332000000000000000e+03,-1.076236959321702630e-01,0.000000000000000000e+00
1.333000000000000000e+03,-2.796532606857973779e-01,0.000000000000000000e+00
1.334000000000000000e+03,-5.226470613413402438e-02,0.000000000000000000e+00
1.335000000000000000e+03,-2.164004337547353329e-01,0.000000000000000000e+00
1.336000000000000000e+03,-1.255819094209607023e-01,0.000000000000000000e+00
1.337000000000000000e+03,-1.087108205653996157e-01,0.000000000000000000e+00
1.338000000000000000e+03,-1.593740874028725871e-02,0.000000000000000000e+00
1.339000000000000000e+03,3.289955307203935864e-02,0.000000000000000000e+00
1.340000000000000000e+03,3.265844340874539398e-02,0.000000000000000000e+00
1.341000000000000000e+03,1.335042805963257417e-02,0.000000000000000000e+00
1.342000000000000000e+03,-1.599649039688422984e-03,0.000000000000000000e+00
1.343000000000000000e+03,1.175940134400446924e-01,0.000000000000000000e+00
1.344000000000000000e+03,1.172361931435467880e-01,0.000000000000000000e+00
1.345000000000000000e+03,2.315115930847503889e-01,0.000000000000000000e+00
1.346000000000000000e+03,4.278552819120036710e-01,0.000000000000000000e+00
1.347000000000000000e+03,4.582341669589189426e-01,0.000000000000000000e+00
1.348000000000000000e+03,1.610200728476649246e-01,0.000000000000000000e+00
1.349000000000000000e+03,2.554253347816217573e-02,0.000000000000000000e+00
1.350000000000000000e+03,1.637845248463351278e-01,0.000000000000000000e+00
1.351000000000000000e+03,5.807421309956099786e-02,0.000000000000000000e+00
1.352000000000000000e+03,-3.685230020418808206e-01,0.000000000000000000e+00
1.353000000000000000e+03,1.761491653451129347e+00,0.000000000000000000e+00
1.354000000000000000e+03,6.168913985679655099e+00,0.000000000000000000e+00
1.355000000000000000e+03,7.736699039178909221e-01,1.000000000000000000e+00
1.356000000000000000e+03,-7.190919515373555004e-01,0.000000000000000000e+00
1.357000000000000000e+03,-5.428568706559075974e-01,0.000000000000000000e+00
1.358000000000000000e+03,-8.337454057098386828e-01,0.000000000000000000e+00
1.359000000000000000e+03,-5.711589859290157056e-01,0.000000000000000000e+00
1.360000000000000000e+03,-4.592808530421152446e-01,0.000000000000000000e+00
1.361000000000000000e+03,-5.919194556499391968e-01,0.000000000000000000e+00
1.362000000000000000e+03,-3.372611402513202572e-01,0.000000000000000000e+00
1.363000000000000000e+03,-3.146951248606632556e-01,0.000000000000000000e+00
1.364000000000000000e+03,-2.107404726065715272e-01,0.000000000000000000e+00
1.365000000000000000e+03,-3.899264761687905312e-02,0.000000000000000000e+00
1.366000000000000000e+03,2.796483282195937337e-01,0.000000000000000000e+00
1.367000000000000000e+03,4.853313820418183044e-01,0.000000000000000000e+00
1.368000000000000000e+03,5.375957854069455255e-01,0.000000000000000000e+00
1.369000000000000000e+03,8.333504733543192211e-01,0.000000000000000000e+00
1.370000000000000000e+03,8.169666165714435380e-01,0.000000000000000000e+00
1.371000000000000000e+03,6.599701669597896059e-01,0.000000000000000000e+00
1.372000000000000000e+03,-1.337614162998238820e-01,0.000000000000000000e+00
1.373000000000000000e+03,-5.688554795862686975e-01,0.000000000000000000e+00
1.374000000000000000e+03,-9.445266879305384000e-01,0.000000000000000000e+00
1.375000000000000000e+03,-1.329961957045288523e+00,0.000000000000000000e+00
1.376000000000000000e+03,-1.116743569413398030e+00,0.000000000000000000e+00
1.377000000000000000e+03,-1.097433019153788436e+00,0.000000000000000000e+00
1.378000000000000000e+03,-8.046829172228741056e-01,0.000000000000000000e+00
1.379000000000000000e+03,-6.825802868577981464e-01,0.000000000000000000e+00
1.380000000000000000e+03,-6.440158197517045213e-01,0.000000000000000000e+00
1.381000000000000000e+03,-7.969161245444636998e-01,0.000000000000000000e+00
1.382000000000000000e+03,-5.231943230713023141e-01,0.000000000000000000e+00
1.383000000000000000e+03,-4.228186559368657393e-01,0.000000000000000000e+00
1.384000000000000000e+03,-5.189488253128685669e-01,0.000000000000000000e+00
1.385000000000000000e+03,-4.407339249313944607e-01,0.000000000000000000e+00
1.386000000000000000e+03,-2.463731818695584219e-01,0.000000000000000000e+00
1.387000000000000000e+03,-7.814426709134940363e-02,0.000000000000000000e+00
1.388000000000000000e+03,-4.245344254509010873e-01,0.000000000000000000e+00
1.389000000000000000e+03,-7.115114841434155846e-02,0.000000000000000000e+00
1.390000000000000000e+03,-2.627081837208327664e-01,0.000000000000000000e+00
1.391000000000000000e+03,-1.179496162996817865e-01,0.000000000000000000e+00
1.392000000000000000e+03,1.156029283198137664e-01,0.000000000000000000e+00
1.393000000000000000e+03,5.723404075358624887e-02,0.000000000000000000e+00
1.394000000000000000e+03,8.224240389839865273e-02,0.000000000000000000e+00
1.395000000000000000e+03,7.222336396861502028e-02,0.000000000000000000e+00
1.396000000000000000e+03,-7.468371801383888453e-02,0.000000000000000000e+00
1.397000000000000000e+03,1.757265061140240447e-01,0.000000000000000000e+00
1.398000000000000000e+03,2.555966044561381878e-01,0.000000000000000000e+00
1.399000000000000000e+03,3.866164616393433229e-01,0.000000000000000000e+00
1.400000000000000000e+03,3.351018503942826410e-01,0.000000000000000000e+00
1.401000000000000000e+03,5.431001689836534307e-01,0.000000000000000000e+00
1.402000000000000000e+03,3.165939886442944440e-01,0.000000000000000000e+00
1.403000000000000000e+03,1.625602828122710564e-01,0.000000000000000000e+00
1.404000000000000000e+03,1.933772926534550463e-01,0.000000000000000000e+00
1.405000000000000000e+03,1.038072819622683218e-01,0.000000000000000000e+00
1.406000000000000000e+03,3.068031882019253698e-01,0.000000000000000000e+00
1.407000000000000000e+03,-2.313604909505854457e-01,0.000000000000000000e+00
1.408000000000000000e+03,1.646874109039237810e+00,0.000000000000000000e+00
1.409000000000000000e+03,6.413079073908913408e+00,0.000000000000000000e+00
1.410000000000000000e+03,9.100117995289171979e-01,1.000000000000000000e+00
1.411000000000000000e+03,-6.948297914778350792e-01,0.000000000000000000e+00
1.412000000000000000e+03,-5.389346018354650436e-01,0.000000000000000000e+00
1.413000000000000000e+03,-6.576643054626463147e-01,0.000000000000000000e+00
1.414000000000000000e+03,-6.240564721293666572e-01,0.000000000000000000e+00
1.415000000000000000e+03,-5.603966639864562671e-01,0.000000000000000000e+00
1.416000000000000000e+03,-2.973680701952969851e-01,0.000000000000000000e+00
1.417000000000000000e+03,-4.415394189455781881e-01,0.000000000000000000e+00
1.418000000000000000e+03,-2.459398331926520020e-01,0.000000000000000000e+00
1.419000000000000000e+03,-3.018596769819633513e-02,0.000000000000000000e+00
1.420000000000000000e+03,5.172973682610649410e-02,0.000000000000000000e+00
1.421000000000000000e+03,2.169682546832057968e-01,0.000000000000000000e+00
1.422000000000000000e+03,4.461162044974152363e-01,0.000000000000000000e+00
1.423000000000000000e+03,6.467549436947082064e-01,0.000000000000000000e+00
1.424000000000000000e+03,1.012388997874769991e+00,0.000000000000000000e+00
1.425000000000000000e+03,9.684369880206369352e-01,0.000000000000000000e+00
1.426000000000000000e+03,6.844977975560635475e-01,0.000000000000000000e+00
1.427000000000000000e+03,5.096167915874214721e-02,0.000000000000000000e+00
1.428000000000000000e+03,-7.011416843763895734e-01,0.000000000000000000e+00
1.429000000000000000e+03,-1.104648649725720633e+00,0.000000000000000000e+00
1.430000000000000000e+03,-9.946563023281008720e-01,0.000000000000000000e+00
1.431000000000000000e+03,-1.249501601669983142e+00,0.000000000000000000e+00
1.432000000000000000e+03,-1.059635874834523372e+00,0.000000000000000000e+00
1.433000000000000000e+03,-9.972287270479257559e-01,0.000000000000000000e+00
1.434000000000000000e+03,-8.271187153267427483e-01,0.000000000000000000e+00
1.435000000000000000e+03,-7.644955357185481137e-01,0.000000000000000000e+00
1.436000000000000000e+03,-6.175118000616901526e-01,0.000000000000000000e+00
1.437000000000000000e+03,-7.610895162227867550e-01,0.000000000000000000e+00
1.438000000000000000e+03,-3.709000900346093310e-01,0.000000000000000000e+00
1.439000000000000000e+03,-4.617234782460061804e-01,0.000000000000000000e+00
1.440000000000000000e+03,-2.347973309386906238e-01,0.000000000000000000e+00
1.441000000000000000e+03,-2.542110491951065643e-01,0.000000000000000000e+00
1.442000000000000000e+03,-2.015714303604080326e-01,0.000000000000000000e+00
1.443000000000000000e+03,-2.664408343950108726e-01,0.000000000000000000e+00
1.444000000000000000e+03,-7.527770456323695791e-02,0.000000000000000000e+00
1.445000000000000000e+03,-1.627328607982371500e-01,0.000000000000000000e+00
1.446000000000000000e+03,-1.651646671535394184e-01,0.000000000000000000e+00
1.447000000000000000e+03,1.456832117913775815e-01,0.000000000000000000e+00
1.448000000000000000e+03,5.948845323884940223e-02,0.000000000000000000e+00
1.449000000000000000e+03,8.841601362721174251e-02,0.000000000000000000e+00
1.450000000000000000e+03,6.169584371465872824e-02,0.000000000000000000e+00
1.451000000000000000e+03,1.520830493041646636e-01,0.000000000000000000e+00
1.452000000000000000e+03,2.149287843251601604e-01,0.000000000000000000e+00
1.453000000000000000e+03,1.099007417308051487e-01,0.000000000000000000e+00
1.454000000000000000e+03,1.986299835198488406e-01,0.000000000000000000e+00
1.455000000000000000e+03,3.441445448759808956e-01,0.000000000000000000e+00
1.456000000000000000e+03,2.271712938541718130e-01,0.000000000000000000e+00
1.457000000000000000e+03,5.728146372682925147e-01,0.000000000000000000e+00
1.458000000000000000e+03,4.442277092394106286e-01,0.000000000000000000e+00
1.459000000000000000e+03,2.607650397913153228e-01,0.000000000000000000e+00
1.460000000000000000e+03,1.268014561412857677e-01,0.000000000000000000e+00
1.461000000000000000e+03,-1.121133071761440808e-01,0.000000000000000000e+00
1.462000000000000000e+03,3.128271637981758224e-01,0.000000000000000000e+00
1.463000000000000000e+03,-4.567060516921601643e-01,0.000000000000000000e+00
1.464000000000000000e+03,2.200484955801422782e+00,0.000000000000000000e+00
1.465000000000000000e+03,6.331161524476683233e+00,0.000000000000000000e+00
1.466000000000000000e+03,4.837653122649995252e-01,1.000000000000000000e+00
1.467000000000000000e+03,-6.008092283570011238e-01,0.000000000000000000e+00
1.468000000000000000e+03,-5.234896602769629759e-01,0.000000000000000000e+00
1.469000000000000000e+03,-7.466014194665021586e-01,0.000000000000000000e+00
1.470000000000000000e+03,-5.151916230878486047e-01,0.000000000000000000e+00
1.471000000000000000e+03,-6.076129637283623763e-01,0.000000000000000000e+00
1.472000000000000000e+03,-4.821042641489097225e-01,0.000000000000000000e+00
1.473000000000000000e+03,-2.892382728501760591e-01,0.000000000000000000e+00
1.474000000000000000e+03,-1.689934411413249182e-01,0.000000000000000000e+00
1.475000000000000000e+03,-1.980681205934526068e-01,0.000000000000000000e+00
1.476000000000000000e+03,6.414353016187923640e-02,0.000000000000000000e+00
1.477000000000000000e+03,3.383933134853911451e-01,0.000000000000000000e+00
1.478000000000000000e+03,4.466029202028209411e-01,0.000000000000000000e+00
1.479000000000000000e+03,9.613968377193877757e-01,0.000000000000000000e+00
1.480000000000000000e+03,8.613932573405758131e-01,0.000000000000000000e+00
1.481000000000000000e+03,8.549672642031147518e-01,0.000000000000000000e+00
1.482000000000000000e+03,6.847625621571008514e-01,0.000000000000000000e+00
1.483000000000000000e+03,-1.929307504378711124e-01,0.000000000000000000e+00
1.484000000000000000e+03,-7.586645988482011438e-01,0.000000000000000000e+00
1.485000000000000000e+03,-1.062645905317055162e+00,0.000000000000000000e+00
1.486000000000000000e+03,-1.208480846750150661e+00,0.000000000000000000e+00
1.487000000000000000e+03,-1.116379389800820299e+00,0.000000000000000000e+00
1.488000000000000000e+03,-1.168266874307396508e+00,0.000000000000000000e+00
1.489000000000000000e+03,-9.148829748485847180e-01,0.000000000000000000e+00
1.490000000000000000e+03,-7.951638075100853076e-01,0.000000000000000000e+00
1.491000000000000000e+03,-8.258564727587107690e-01,0.000000000000000000e+00
1.492000000000000000e+03,-6.124384576230578192e-01,0.000000000000000000e+00
1.493000000000000000e+03,-5.376254978508832050e-01,0.000000000000000000e+00
1.494000000000000000e+03,-6.813144409631717302e-01,0.000000000000000000e+00
1.495000000000000000e+03,-2.466643043131885316e-01,0.000000000000000000e+00
1.496000000000000000e+03,-2.412145308256858356e-01,0.000000000000000000e+00
1.497000000000000000e+03,-3.694632509650783714e-01,0.000000000000000000e+00
1.498000000000000000e+03,-3.114603898712364205e-01,0.000000000000000000e+00
1.499000000000000000e+03,-2.004852314444987571e-01,0.000000000000000000e+00
1.500000000000000000e+03,-2.039771996844880475e-01,0.000000000000000000e+00
1.501000000000000000e+03,-6.165549354048346919e-02,0.000000000000000000e+00
1.502000000000000000e+03,7.121502559948549027e-02,0.000000000000000000e+00
1.503000000000000000e+03,-6.219239446325236509e-02,0.000000000000000000e+00
1.504000000000000000e+03,-3.442637977252210185e-02,0.000000000000000000e+00
1.505000000000000000e+03,-2.159855902670001701e-02,0.000000000000000000e+00
1.506000000000000000e+03,1.934582543003814659e-01,0.000000000000000000e+00
1.507000000000000000e+03,-4.359632270765616269e-02,0.000000000000000000e+00
1.508000000000000000e+03,1.998612096619649392e-01,0.000000000000000000e+00
1.509000000000000000e+03,1.817699446606617364e-01,0.000000000000000000e+00
1.510000000000000000e+03,2.587210884255600196e-01,0.000000000000000000e+00
1.511000000000000000e+03,1.026433608116444629e-01,0.000000000000000000e+00
1.512000000000000000e+03,4.317426802416623466e-01,0.000000000000000000e+00
1.513000000000000000e+03,4.062481030892860501e-01,0.000000000000000000e+00
1.514000000000000000e+03,5.184021574004309407e-01,0.000000000000000000e+00
1.515000000000000000e+03,1.400366070132079699e-01,0.000000000000000000e+00
1.516000000000000000e+03,3.432191660554771706e-03,0.000000000000000000e+00
1.517000000000000000e+03,-1.982402640223604462e-01,0.000000000000000000e+00
1.518000000000000000e+03,1.690401737624776801e-01,0.000000000000000000e+00
1.519000000000000000e+03,-3.861117630981812376e-01,0.000000000000000000e+00
1.520000000000000000e+03,3.300283624302483343e+00,0.000000000000000000e+00
1.521000000000000000e+03,5.912154110631485437e+00,0.000000000000000000e+00
1.522000000000000000e+03,-4.170344576372689849e-01,1.000000000000000000e+00
1.523000000000000000e+03,-5.258411918585143008e-01,0.000000000000000000e+00
1.524000000000000000e+03,-8.767918717143633467e-01,0.000000000000000000e+00
1.525000000000000000e+03,-5.975655955413782250e-01,0.000000000000000000e+00
1.526000000000000000e+03,-6.575470893103576575e-01,0.000000000000000000e+00
1.527000000000000000e+03,-4.826070323519237593e-01,0.000000000000000000e+00
1.528000000000000000e+03,-5.775295003841515173e-01,0.000000000000000000e+00
1.529000000000000000e+03,-1.881825769536226156e-01,0.000000000000000000e+00
1.530000000000000000e+03,-4.116462776678931901e-01,0.000000000000000000e+00
1.531000000000000000e+03,2.982419595267217505e-03,0.000000000000000000e+00
1.532000000000000000e+03,-8.814709041378215870e-02,0.000000000000000000e+00
1.533000000000000000e+03,2.591007404262397618e-01,0.000000000000000000e+00
1.534000000000000000e+03,5.237393991411012362e-01,0.000000000000000000e+00
1.535000000000000000e+03,9.340968677364668293e-01,0.000000000000000000e+00
1.536000000000000000e+03,8.883179853034165463e-01,0.000000000000000000e+00
1.537000000000000000e+03,1.047262551086092452e+00,0.000000000000000000e+00
1.538000000000000000e+03,5.101426599788714267e-01,0.000000000000000000e+00
1.539000000000000000e+03,-2.561315199147763400e-01,0.000000000000000000e+00
1.540000000000000000e+03,-9.024323830814499070e-01,0.000000000000000000e+00
1.541000000000000000e+03,-1.099125151960198776e+00,0.000000000000000000e+00
1.542000000000000000e+03,-1.369707768949228299e+00,0.000000000000000000e+00
1.543000000000000000e+03,-1.025972101967472128e+00,0.000000000000000000e+00
1.544000000000000000e+03,-1.108876392913448639e+00,0.000000000000000000e+00
1.545000000000000000e+03,-8.077539109835721876e-01,0.000000000000000000e+00
1.546000000000000000e+03,-1.001468479886924223e+00,0.000000000000000000e+00
1.547000000000000000e+03,-7.431208484508403656e-01,0.000000000000000000e+00
1.548000000000000000e+03,-5.957036438523907185e-01,0.000000000000000000e+00
1.549000000000000000e+03,-4.655619125521717194e-01,0.000000000000000000e+00
1.550000000000000000e+03,-5.149121512011273216e-01,0.000000000000000000e+00
1.551000000000000000e+03,-2.798601262984418692e-01,0.000000000000000000e+00
1.552000000000000000e+03,-4.296427137803063845e-01,0.000000000000000000e+00
1.553000000000000000e+03,-8.141004816221962537e-02,0.000000000000000000e+00
1.554000000000000000e+03,-3.930487865221699018e-01,0.000000000000000000e+00
1.555000000000000000e+03,-6.129092875544595032e-02,0.000000000000000000e+00
1.556000000000000000e+03,-1.008649391615518143e-01,0.000000000000000000e+00
1.557000000000000000e+03,-7.532256152564804907e-02,0.000000000000000000e+00
1.558000000000000000e+03,-2.993375193383906660e-02,0.000000000000000000e+00
1.559000000000000000e+03,-3.493080907583921008e-02,0.000000000000000000e+00
1.560000000000000000e+03,9.862264159583655765e-02,0.000000000000000000e+00
1.561000000000000000e+03,9.085475652194227592e-02,0.000000000000000000e+00
1.562000000000000000e+03,2.248277703918502568e-01,0.000000000000000000e+00
1.563000000000000000e+03,1.762846197038223095e-01,0.000000000000000000e+00
1.564000000000000000e+03,2.524867615036366919e-01,0.000000000000000000e+00
1.565000000000000000e+03,2.443095024999430154e-01,0.000000000000000000e+00
1.566000000000000000e+03,1.831269588691099570e-01,0.000000000000000000e+00
1.567000000000000000e+03,5.735304231076625570e-01,0.000000000000000000e+00
1.568000000000000000e+03,4.216520012854540478e-01,0.000000000000000000e+00
1.569000000000000000e+03,5.073634764939197739e-01,0.000000000000000000e+00
1.570000000000000000e+03,1.804335845189923293e-01,0.000000000000000000e+00
1.571000000000000000e+03,7.724838019293489566e-02,0.000000000000000000e+00
1.572000000000000000e+03,1.592109444533752471e-01,0.000000000000000000e+00
1.573000000000000000e+03,-6.847243685540729818e-02,0.000000000000000000e+00
1.574000000000000000e+03,8.411074333977316408e-01,0.000000000000000000e+00
1.575000000000000000e+03,6.218416390571951169e+00,0.000000000000000000e+00
1.576000000000000000e+03,1.761840256330839072e+00,1.000000000000000000e+00
1.577000000000000000e+03,-1.030884732279851779e+00,0.000000000000000000e+00
1.578000000000000000e+03,-2.101365037483581555e-01,0.000000000000000000e+00
1.579000000000000000e+03,-7.799588757094614300e-01,0.000000000000000000e+00
1.580000000000000000e+03,-4.311249760061312553e-01,0.000000000000000000e+00
1.581000000000000000e+03,-4.805836829726184423e-01,0.000000000000000000e+00
1.582000000000000000e+03,-2.067107206909275241e-01,0.000000000000000000e+00
1.583000000000000000e+03,-1.754082279048160276e-01,0.000000000000000000e+00
1.584000000000000000e+03,-1.401304014809471865e-01,0.000000000000000000e+00
1.585000000000000000e+03,-7.439270848566498229e-02,0.000000000000000000e+00
1.586000000000000000e+03,9.157989024117095533e-02,0.000000000000000000e+00
