timestamp,ecg_measurement,qrs_detected
0.000000000000000000e+00,-6.566221487535126577e-01,0.000000000000000000e+00
1.000000000000000000e+00,-1.323711691604132046e+00,0.000000000000000000e+00
2.000000000000000000e+00,-1.396813343407182995e+00,0.000000000000000000e+00
3.000000000000000000e+00,-1.302118706202486376e+00,0.000000000000000000e+00
4.000000000000000000e+00,-1.455179785600266840e+00,0.000000000000000000e+00
5.000000000000000000e+00,-1.056155465000374383e+00,0.000000000000000000e+00
6.000000000000000000e+00,-1.067006223161377276e+00,0.000000000000000000e+00
7.000000000000000000e+00,-9.566661058549774665e-01,0.000000000000000000e+00
8.000000000000000000e+00,-8.295810622754652419e-01,0.000000000000000000e+00
9.000000000000000000e+00,-6.016173624741810722e-01,0.000000000000000000e+00
1.000000000000000000e+01,-4.997717100176627403e-01,0.000000000000000000e+00
1.100000000000000000e+01,-5.933525472562123371e-01,0.000000000000000000e+00
1.200000000000000000e+01,-3.111447609560041849e-01,0.000000000000000000e+00
1.300000000000000000e+01,-2.475390705481953224e-01,0.000000000000000000e+00
1.400000000000000000e+01,-1.556839086890389467e-01,0.000000000000000000e+00
1.500000000000000000e+01,-1.617435079488055705e-01,0.000000000000000000e+00
1.600000000000000000e+01,-2.184267370954353915e-01,0.000000000000000000e+00
1.700000000000000000e+01,-9.523692659806105854e-02,0.000000000000000000e+00
1.800000000000000000e+01,8.857716941312732128e-02,0.000000000000000000e+00
1.900000000000000000e+01,-3.274817778791030420e-01,0.000000000000000000e+00
2.000000000000000000e+01,3.711948030220980736e-03,0.000000000000000000e+00
2.100000000000000000e+01,1.812910612924564235e-01,0.000000000000000000e+00
2.200000000000000000e+01,6.845417897483366265e-02,0.000000000000000000e+00
2.300000000000000000e+01,2.465972993818531939e-02,0.000000000000000000e+00
2.400000000000000000e+01,1.606775066665014906e-01,0.000000000000000000e+00
2.500000000000000000e+01,2.329124172948655314e-01,0.000000000000000000e+00
2.600000000000000000e+01,3.311043820668513327e-02,0.000000000000000000e+00
2.700000000000000000e+01,2.920724768032663121e-01,0.000000000000000000e+00
2.800000000000000000e+01,3.103676584728473076e-01,0.000000000000000000e+00
2.900000000000000000e+01,3.959610638180722231e-01,0.000000000000000000e+00
3.000000000000000000e+01,5.604333877591746171e-01,0.000000000000000000e+00
3.100000000000000000e+01,4.271807631994005705e-01,0.000000000000000000e+00
3.200000000000000000e+01,1.874517004222552019e-01,0.000000000000000000e+00
3.300000000000000000e+01,-2.111281596331183313e-02,0.000000000000000000e+00
3.400000000000000000e+01,2.550264062942278476e-01,0.000000000000000000e+00
3.500000000000000000e+01,4.084997107481590922e-02,0.000000000000000000e+00
3.600000000000000000e+01,3.251901410578543761e-01,0.000000000000000000e+00
3.700000000000000000e+01,-6.448357713659306212e-01,0.000000000000000000e+00
3.800000000000000000e+01,2.853416475277479769e+00,0.000000000000000000e+00
3.900000000000000000e+01,5.384883362534433893e+00,0.000000000000000000e+00
4.000000000000000000e+01,-2.672199234490775233e-01,1.000000000000000000e+00
4.100000000000000000e+01,-5.078463029305999576e-01,0.000000000000000000e+00
4.200000000000000000e+01,-7.834367650644850078e-01,0.000000000000000000e+00
4.300000000000000000e+01,-4.705647639114670100e-01,0.000000000000000000e+00
4.400000000000000000e+01,-5.022026353008689492e-01,0.000000000000000000e+00
4.500000000000000000e+01,-2.338864716276619071e-01,0.000000000000000000e+00
4.600000000000000000e+01,-3.421126749879732087e-01,0.000000000000000000e+00
4.700000000000000000e+01,-1.828677319332564222e-01,0.000000000000000000e+00
4.800000000000000000e+01,-1.903382050344611109e-02,0.000000000000000000e+00
4.900000000000000000e+01,-5.642239290590355880e-03,0.000000000000000000e+00
5.000000000000000000e+01,2.785496054724266868e-01,0.000000000000000000e+00
5.100000000000000000e+01,3.836998855524944019e-01,0.000000000000000000e+00
5.200000000000000000e+01,5.564220585515009532e-01,0.000000000000000000e+00
5.300000000000000000e+01,6.947862163917460920e-01,0.000000000000000000e+00
5.400000000000000000e+01,1.103463256132480419e+00,0.000000000000000000e+00
5.500000000000000000e+01,9.562351484027219461e-01,0.000000000000000000e+00
5.600000000000000000e+01,7.443108150891352137e-01,0.000000000000000000e+00
5.700000000000000000e+01,5.338216667599129384e-01,0.000000000000000000e+00
5.800000000000000000e+01,-2.307846374435204573e-02,0.000000000000000000e+00
5.900000000000000000e+01,-9.126582907063806038e-01,0.000000000000000000e+00
6.000000000000000000e+01,-1.045085375534887673e+00,0.000000000000000000e+00
6.100000000000000000e+01,-1.351050646948912526e+00,0.000000000000000000e+00
6.200000000000000000e+01,-1.126618795840945264e+00,0.000000000000000000e+00
6.300000000000000000e+01,-1.065672175206727523e+00,0.000000000000000000e+00
6.400000000000000000e+01,-9.940563916927122046e-01,0.000000000000000000e+00
6.500000000000000000e+01,-8.051632968995086070e-01,0.000000000000000000e+00
6.600000000000000000e+01,-8.065434334373021708e-01,0.000000000000000000e+00
6.700000000000000000e+01,-5.790341596002321900e-01,0.000000000000000000e+00
6.800000000000000000e+01,-5.258954795836947582e-01,0.000000000000000000e+00
6.900000000000000000e+01,-3.183903261425531928e-01,0.000000000000000000e+00
7.000000000000000000e+01,-2.960446920578122532e-01,0.000000000000000000e+00
7.100000000000000000e+01,-1.317086322039679180e-01,0.000000000000000000e+00
7.200000000000000000e+01,-1.239635234109553730e-01,0.000000000000000000e+00
7.300000000000000000e+01,-9.081467318165324654e-02,0.000000000000000000e+00
7.400000000000000000e+01,-3.527786125744257761e-01,0.000000000000000000e+00
7.500000000000000000e+01,-6.890465020373105764e-02,0.000000000000000000e+00
7.600000000000000000e+01,-9.588135098479882990e-02,0.000000000000000000e+00
7.700000000000000000e+01,-2.040878306771142792e-01,0.000000000000000000e+00
7.800000000000000000e+01,1.073947911770836289e-01,0.000000000000000000e+00
7.900000000000000000e+01,8.749326895750236116e-03,0.000000000000000000e+00
8.000000000000000000e+01,-7.522388712840509528e-02,0.000000000000000000e+00
8.100000000000000000e+01,2.095309854115859627e-01,0.000000000000000000e+00
8.200000000000000000e+01,6.025924440782177288e-02,0.000000000000000000e+00
8.300000000000000000e+01,1.218268300328704395e-01,0.000000000000000000e+00
8.400000000000000000e+01,7.977575596337696529e-02,0.000000000000000000e+00
8.500000000000000000e+01,1.630534703022783471e-01,0.000000000000000000e+00
8.600000000000000000e+01,1.248714285730517931e-01,0.000000000000000000e+00
8.700000000000000000e+01,5.459933649482198170e-01,0.000000000000000000e+00
8.800000000000000000e+01,4.962629382731876260e-01,0.000000000000000000e+00
8.900000000000000000e+01,4.341329093145266382e-01,0.000000000000000000e+00
9.000000000000000000e+01,4.537148097018027237e-01,0.000000000000000000e+00
9.100000000000000000e+01,5.969186133670276173e-02,0.000000000000000000e+00
9.200000000000000000e+01,-1.100678042682761149e-01,0.000000000000000000e+00
9.300000000000000000e+01,3.453531861564939631e-01,0.000000000000000000e+00
9.400000000000000000e+01,-5.472627029986413399e-02,0.000000000000000000e+00
9.500000000000000000e+01,7.503280907922636571e-03,0.000000000000000000e+00
9.600000000000000000e+01,-3.703997716427597231e-01,0.000000000000000000e+00
9.700000000000000000e+01,4.460650182000116537e+00,0.000000000000000000e+00
9.800000000000000000e+01,4.142786644080658220e+00,0.000000000000000000e+00
9.900000000000000000e+01,-7.175471470303781407e-01,1.000000000000000000e+00
1.000000000000000000e+02,-5.545282161205480342e-01,0.000000000000000000e+00
1.010000000000000000e+02,-8.621751927336133159e-01,0.000000000000000000e+00
1.020000000000000000e+02,-4.895496389281563387e-01,0.000000000000000000e+00
1.030000000000000000e+02,-7.722897900549242634e-01,0.000000000000000000e+00
1.040000000000000000e+02,-4.320384544370226565e-01,0.000000000000000000e+00
1.050000000000000000e+02,-4.815703135888015352e-01,0.000000000000000000e+00
1.060000000000000000e+02,-3.255403580105044048e-01,0.000000000000000000e+00
1.070000000000000000e+02,-2.180048399229288225e-01,0.000000000000000000e+00
1.080000000000000000e+02,5.072706569177349439e-02,0.000000000000000000e+00
1.090000000000000000e+02,-2.416153034989454718e-01,0.000000000000000000e+00
1.100000000000000000e+02,2.059276291084831123e-01,0.000000000000000000e+00
1.110000000000000000e+02,5.578257418152060554e-01,0.000000000000000000e+00
1.120000000000000000e+02,6.804087410363175437e-01,0.000000000000000000e+00
1.130000000000000000e+02,8.668879909702321696e-01,0.000000000000000000e+00
1.140000000000000000e+02,8.557332362813774296e-01,0.000000000000000000e+00
1.150000000000000000e+02,5.647256540916331113e-01,0.000000000000000000e+00
1.160000000000000000e+02,2.387458205882427020e-01,0.000000000000000000e+00
1.170000000000000000e+02,-3.774179174602607101e-01,0.000000000000000000e+00
1.180000000000000000e+02,-9.219766979332565393e-01,0.000000000000000000e+00
1.190000000000000000e+02,-1.579385837273802995e+00,0.000000000000000000e+00
1.200000000000000000e+02,-1.286587024500631005e+00,0.000000000000000000e+00
1.210000000000000000e+02,-1.491788761172200717e+00,0.000000000000000000e+00
1.220000000000000000e+02,-1.080454975353795755e+00,0.000000000000000000e+00
1.230000000000000000e+02,-1.026358503787368592e+00,0.000000000000000000e+00
1.240000000000000000e+02,-8.063716179713087406e-01,0.000000000000000000e+00
1.250000000000000000e+02,-7.870086370414236532e-01,0.000000000000000000e+00
1.260000000000000000e+02,-8.224871736342029838e-01,0.000000000000000000e+00
1.270000000000000000e+02,-6.698084831942218154e-01,0.000000000000000000e+00
1.280000000000000000e+02,-4.671763866987084790e-01,0.000000000000000000e+00
1.290000000000000000e+02,-2.814056060848370566e-01,0.000000000000000000e+00
1.300000000000000000e+02,-3.814463920473590286e-01,0.000000000000000000e+00
1.310000000000000000e+02,-1.282889586401045057e-01,0.000000000000000000e+00
1.320000000000000000e+02,-1.856682029388657951e-01,0.000000000000000000e+00
1.330000000000000000e+02,-1.845147776491908309e-01,0.000000000000000000e+00
1.340000000000000000e+02,-1.694113247552318235e-01,0.000000000000000000e+00
1.350000000000000000e+02,2.593362456148342113e-02,0.000000000000000000e+00
1.360000000000000000e+02,-2.681851603529553443e-02,0.000000000000000000e+00
1.370000000000000000e+02,-4.763941064835138656e-02,0.000000000000000000e+00
1.380000000000000000e+02,2.662190424452765339e-02,0.000000000000000000e+00
1.390000000000000000e+02,3.544630871662491495e-02,0.000000000000000000e+00
1.400000000000000000e+02,1.797519962057196607e-01,0.000000000000000000e+00
1.410000000000000000e+02,6.533111855210045615e-02,0.000000000000000000e+00
1.420000000000000000e+02,2.756614892508998382e-01,0.000000000000000000e+00
1.430000000000000000e+02,2.101024936545608235e-01,0.000000000000000000e+00
1.440000000000000000e+02,1.889681707090831719e-01,0.000000000000000000e+00
1.450000000000000000e+02,1.783867933221618407e-01,0.000000000000000000e+00
1.460000000000000000e+02,3.162644145821145170e-01,0.000000000000000000e+00
1.470000000000000000e+02,5.731127007913152660e-01,0.000000000000000000e+00
1.480000000000000000e+02,3.968065220226922318e-01,0.000000000000000000e+00
1.490000000000000000e+02,7.762018558964284276e-01,0.000000000000000000e+00
1.500000000000000000e+02,5.933654478959508038e-01,0.000000000000000000e+00
1.510000000000000000e+02,1.213703143288021868e-01,0.000000000000000000e+00
1.520000000000000000e+02,7.314752949591017683e-02,0.000000000000000000e+00
1.530000000000000000e+02,3.373067542342544911e-01,0.000000000000000000e+00
1.540000000000000000e+02,-9.346813538280994427e-02,0.000000000000000000e+00
1.550000000000000000e+02,4.000457739991201689e-01,0.000000000000000000e+00
1.560000000000000000e+02,-4.952182201617554291e-01,0.000000000000000000e+00
1.570000000000000000e+02,1.806198531439315635e+00,0.000000000000000000e+00
1.580000000000000000e+02,5.980278707672865401e+00,0.000000000000000000e+00
1.590000000000000000e+02,1.148892247682237411e+00,1.000000000000000000e+00
1.600000000000000000e+02,-6.536695240698657816e-01,0.000000000000000000e+00
1.610000000000000000e+02,-6.302002632694128081e-01,0.000000000000000000e+00
1.620000000000000000e+02,-7.432129109626309793e-01,0.000000000000000000e+00
1.630000000000000000e+02,-6.208642550824066131e-01,0.000000000000000000e+00
1.640000000000000000e+02,-4.494422192722912768e-01,0.000000000000000000e+00
1.650000000000000000e+02,-2.838278303969324345e-01,0.000000000000000000e+00
1.660000000000000000e+02,-3.530941318778119120e-01,0.000000000000000000e+00
1.670000000000000000e+02,-1.737183794114727231e-01,0.000000000000000000e+00
1.680000000000000000e+02,-2.781541925169327412e-01,0.000000000000000000e+00
1.690000000000000000e+02,2.122421507580656008e-02,0.000000000000000000e+00
1.700000000000000000e+02,2.789229911438099729e-01,0.000000000000000000e+00
1.710000000000000000e+02,3.819148994856600421e-01,0.000000000000000000e+00
1.720000000000000000e+02,7.502229003576791344e-01,0.000000000000000000e+00
1.730000000000000000e+02,9.169288883176934801e-01,0.000000000000000000e+00
1.740000000000000000e+02,7.056896898023558018e-01,0.000000000000000000e+00
1.750000000000000000e+02,9.028940209523753646e-01,0.000000000000000000e+00
1.760000000000000000e+02,5.814753611253075105e-01,0.000000000000000000e+00
1.770000000000000000e+02,-3.395179117892036750e-03,0.000000000000000000e+00
1.780000000000000000e+02,-6.761252715647535494e-01,0.000000000000000000e+00
1.790000000000000000e+02,-1.355823233585729426e+00,0.000000000000000000e+00
1.800000000000000000e+02,-1.329144726125508047e+00,0.000000000000000000e+00
1.810000000000000000e+02,-1.339998988108689337e+00,0.000000000000000000e+00
1.820000000000000000e+02,-1.112546446401442513e+00,0.000000000000000000e+00
1.830000000000000000e+02,-1.198925096052829264e+00,0.000000000000000000e+00
1.840000000000000000e+02,-1.027181574147715715e+00,0.000000000000000000e+00
1.850000000000000000e+02,-9.209737591927746880e-01,0.000000000000000000e+00
1.860000000000000000e+02,-7.248913819946805059e-01,0.000000000000000000e+00
1.870000000000000000e+02,-6.349635929837587067e-01,0.000000000000000000e+00
1.880000000000000000e+02,-5.574852548286517440e-01,0.000000000000000000e+00
1.890000000000000000e+02,-3.069159014444638456e-01,0.000000000000000000e+00
1.900000000000000000e+02,-2.876615867080800637e-01,0.000000000000000000e+00
1.910000000000000000e+02,-2.030878496660610544e-01,0.000000000000000000e+00
1.920000000000000000e+02,-2.280549311811090052e-01,0.000000000000000000e+00
1.930000000000000000e+02,-1.150634685929249751e-01,0.000000000000000000e+00
1.940000000000000000e+02,-5.181731766540966649e-02,0.000000000000000000e+00
1.950000000000000000e+02,-1.765788194184071680e-01,0.000000000000000000e+00
1.960000000000000000e+02,-1.854065517132343910e-01,0.000000000000000000e+00
1.970000000000000000e+02,1.577178102120302405e-01,0.000000000000000000e+00
1.980000000000000000e+02,-6.421975866065510186e-02,0.000000000000000000e+00
1.990000000000000000e+02,1.637678399567269460e-01,0.000000000000000000e+00
2.000000000000000000e+02,-2.024356279315006613e-02,0.000000000000000000e+00
2.010000000000000000e+02,1.266673554896931841e-01,0.000000000000000000e+00
2.020000000000000000e+02,1.370611374028400664e-01,0.000000000000000000e+00
2.030000000000000000e+02,3.810269646938126420e-01,0.000000000000000000e+00
2.040000000000000000e+02,1.058996028828498165e-01,0.000000000000000000e+00
2.050000000000000000e+02,2.254028443421312589e-01,0.000000000000000000e+00
2.060000000000000000e+02,2.736306374469903435e-01,0.000000000000000000e+00
2.070000000000000000e+02,2.493673355993905327e-01,0.000000000000000000e+00
2.080000000000000000e+02,5.937015517438182233e-01,0.000000000000000000e+00
2.090000000000000000e+02,4.242754348643121842e-01,0.000000000000000000e+00
2.100000000000000000e+02,5.430313288136279226e-01,0.000000000000000000e+00
2.110000000000000000e+02,3.862904065580402557e-01,0.000000000000000000e+00
2.120000000000000000e+02,-8.156565093127794708e-02,0.000000000000000000e+00
2.130000000000000000e+02,2.023888933661120715e-01,0.000000000000000000e+00
2.140000000000000000e+02,3.692176990759606092e-02,0.000000000000000000e+00
2.150000000000000000e+02,3.829298145933115460e-01,0.000000000000000000e+00
2.160000000000000000e+02,-4.691858007943793263e-01,0.000000000000000000e+00
2.170000000000000000e+02,1.324564495065573944e+00,0.000000000000000000e+00
2.180000000000000000e+02,5.945398726022167679e+00,0.000000000000000000e+00
2.190000000000000000e+02,9.035926629533215237e-01,1.000000000000000000e+00
2.200000000000000000e+02,-9.487378251495228731e-01,0.000000000000000000e+00
2.210000000000000000e+02,-6.126899841734462226e-01,0.000000000000000000e+00
2.220000000000000000e+02,-5.693872380657735155e-01,0.000000000000000000e+00
2.230000000000000000e+02,-4.411317188488442231e-01,0.000000000000000000e+00
2.240000000000000000e+02,-5.515221704184478657e-01,0.000000000000000000e+00
2.250000000000000000e+02,-3.868783797252706713e-01,0.000000000000000000e+00
2.260000000000000000e+02,-1.982608819872676842e-01,0.000000000000000000e+00
2.270000000000000000e+02,-1.326431175094726078e-01,0.000000000000000000e+00
2.280000000000000000e+02,7.797485505255058111e-03,0.000000000000000000e+00
2.290000000000000000e+02,2.220180494099910362e-02,0.000000000000000000e+00
2.300000000000000000e+02,1.700890052612027969e-01,0.000000000000000000e+00
2.310000000000000000e+02,5.356089113324732365e-01,0.000000000000000000e+00
2.320000000000000000e+02,6.618507423880060081e-01,0.000000000000000000e+00
2.330000000000000000e+02,9.092746753804362703e-01,0.000000000000000000e+00
2.340000000000000000e+02,8.889901021928924285e-01,0.000000000000000000e+00
2.350000000000000000e+02,7.917108939901954523e-01,0.000000000000000000e+00
2.360000000000000000e+02,4.714651331714229676e-01,0.000000000000000000e+00
2.370000000000000000e+02,8.526012145280539357e-05,0.000000000000000000e+00
2.380000000000000000e+02,-5.972020701515400321e-01,0.000000000000000000e+00
2.390000000000000000e+02,-1.296917574797666228e+00,0.000000000000000000e+00
2.400000000000000000e+02,-1.234859185056582653e+00,0.000000000000000000e+00
2.410000000000000000e+02,-1.339650654473707014e+00,0.000000000000000000e+00
2.420000000000000000e+02,-1.261083358223663575e+00,0.000000000000000000e+00
2.430000000000000000e+02,-1.050121573613422177e+00,0.000000000000000000e+00
2.440000000000000000e+02,-1.125661032646942283e+00,0.000000000000000000e+00
2.450000000000000000e+02,-8.413640284710484085e-01,0.000000000000000000e+00
2.460000000000000000e+02,-7.041021086643945992e-01,0.000000000000000000e+00
2.470000000000000000e+02,-5.827851670276361640e-01,0.000000000000000000e+00
2.480000000000000000e+02,-4.634927711860591382e-01,0.000000000000000000e+00
2.490000000000000000e+02,-2.726287451129038031e-01,0.000000000000000000e+00
2.500000000000000000e+02,-3.798375182855709964e-01,0.000000000000000000e+00
2.510000000000000000e+02,-1.739960770573241722e-01,0.000000000000000000e+00
2.520000000000000000e+02,-2.331377394913621282e-01,0.000000000000000000e+00
2.530000000000000000e+02,-2.502419370961634359e-01,0.000000000000000000e+00
2.540000000000000000e+02,-1.127272256164432163e-01,0.000000000000000000e+00
2.550000000000000000e+02,4.839206145269542465e-03,0.000000000000000000e+00
2.560000000000000000e+02,-5.393433943680191189e-02,0.000000000000000000e+00
2.570000000000000000e+02,-1.888112933727200127e-01,0.000000000000000000e+00
2.580000000000000000e+02,-1.874339678424991745e-02,0.000000000000000000e+00
2.590000000000000000e+02,9.769777882298062710e-02,0.000000000000000000e+00
2.600000000000000000e+02,7.292437651391985021e-02,0.000000000000000000e+00
2.610000000000000000e+02,2.984421423368926324e-02,0.000000000000000000e+00
2.620000000000000000e+02,2.029614352500055674e-01,0.000000000000000000e+00
2.630000000000000000e+02,1.791789227322111711e-01,0.000000000000000000e+00
2.640000000000000000e+02,1.499259427450646831e-01,0.000000000000000000e+00
2.650000000000000000e+02,3.936698167136712390e-01,0.000000000000000000e+00
2.660000000000000000e+02,4.538610529306845165e-01,0.000000000000000000e+00
2.670000000000000000e+02,3.019438154285531417e-01,0.000000000000000000e+00
2.680000000000000000e+02,6.690258631067096395e-01,0.000000000000000000e+00
2.690000000000000000e+02,3.152001728102384881e-01,0.000000000000000000e+00
2.700000000000000000e+02,2.001385053998873675e-01,0.000000000000000000e+00
2.710000000000000000e+02,8.607251019584592766e-02,0.000000000000000000e+00
2.720000000000000000e+02,7.999616840137903362e-02,0.000000000000000000e+00
2.730000000000000000e+02,2.106898021372662633e-01,0.000000000000000000e+00
2.740000000000000000e+02,-3.468942678943685576e-01,0.000000000000000000e+00
2.750000000000000000e+02,8.317655167859447918e-01,0.000000000000000000e+00
2.760000000000000000e+02,5.611306245986452446e+00,0.000000000000000000e+00
2.770000000000000000e+02,2.042248183889976865e+00,1.000000000000000000e+00
2.780000000000000000e+02,-7.437903019785454539e-01,0.000000000000000000e+00
2.790000000000000000e+02,-5.067093448062208738e-01,0.000000000000000000e+00
2.800000000000000000e+02,-7.606066220717462301e-01,0.000000000000000000e+00
2.810000000000000000e+02,-4.741976775010403600e-01,0.000000000000000000e+00
2.820000000000000000e+02,-4.694441504217338190e-01,0.000000000000000000e+00
2.830000000000000000e+02,-2.506766241857011912e-01,0.000000000000000000e+00
2.840000000000000000e+02,-3.230694098301300499e-01,0.000000000000000000e+00
2.850000000000000000e+02,-1.765330223195555048e-01,0.000000000000000000e+00
2.860000000000000000e+02,-1.551403682090212455e-01,0.000000000000000000e+00
2.870000000000000000e+02,1.413117904666583990e-01,0.000000000000000000e+00
2.880000000000000000e+02,1.962987308175892787e-01,0.000000000000000000e+00
2.890000000000000000e+02,4.642169421472481239e-01,0.000000000000000000e+00
2.900000000000000000e+02,5.838511609120916601e-01,0.000000000000000000e+00
2.910000000000000000e+02,7.898037210352851778e-01,0.000000000000000000e+00
2.920000000000000000e+02,9.655121600202335452e-01,0.000000000000000000e+00
2.930000000000000000e+02,7.972549174617795664e-01,0.000000000000000000e+00
2.940000000000000000e+02,4.933840636145463421e-01,0.000000000000000000e+00
2.950000000000000000e+02,2.011905903240096549e-01,0.000000000000000000e+00
2.960000000000000000e+02,-5.485052723201103708e-01,0.000000000000000000e+00
2.970000000000000000e+02,-1.114360000976999610e+00,0.000000000000000000e+00
2.980000000000000000e+02,-1.314776234670339994e+00,0.000000000000000000e+00
2.990000000000000000e+02,-1.414836636301701978e+00,0.000000000000000000e+00
3.000000000000000000e+02,-1.208579236315317829e+00,0.000000000000000000e+00
3.010000000000000000e+02,-1.116153835462062593e+00,0.000000000000000000e+00
3.020000000000000000e+02,-9.062290949166426079e-01,0.000000000000000000e+00
3.030000000000000000e+02,-1.038017741367581070e+00,0.000000000000000000e+00
3.040000000000000000e+02,-8.204935891246057933e-01,0.000000000000000000e+00
3.050000000000000000e+02,-5.544584424980345538e-01,0.000000000000000000e+00
3.060000000000000000e+02,-4.618652426554265555e-01,0.000000000000000000e+00
3.070000000000000000e+02,-3.016812584641300754e-01,0.000000000000000000e+00
3.080000000000000000e+02,-4.321829877687703991e-01,0.000000000000000000e+00
3.090000000000000000e+02,-2.944760117487397744e-01,0.000000000000000000e+00
3.100000000000000000e+02,-2.994603677944739362e-01,0.000000000000000000e+00
3.110000000000000000e+02,-1.169647144011196072e-01,0.000000000000000000e+00
3.120000000000000000e+02,-1.584050415977101070e-02,0.000000000000000000e+00
3.130000000000000000e+02,-3.939446191183016560e-02,0.000000000000000000e+00
3.140000000000000000e+02,-3.029578675323119086e-02,0.000000000000000000e+00
3.150000000000000000e+02,-3.140547232469971806e-01,0.000000000000000000e+00
3.160000000000000000e+02,4.210425598017896592e-02,0.000000000000000000e+00
3.170000000000000000e+02,-1.250574740122116224e-01,0.000000000000000000e+00
3.180000000000000000e+02,2.266443224992700234e-01,0.000000000000000000e+00
3.190000000000000000e+02,9.521139876924863965e-02,0.000000000000000000e+00
3.200000000000000000e+02,5.789375137483301209e-02,0.000000000000000000e+00
3.210000000000000000e+02,1.321231232109510711e-01,0.000000000000000000e+00
3.220000000000000000e+02,1.903932242640001826e-01,0.000000000000000000e+00
3.230000000000000000e+02,1.678213709058347103e-01,0.000000000000000000e+00
3.240000000000000000e+02,1.931576035577879935e-01,0.000000000000000000e+00
3.250000000000000000e+02,2.572410509342879514e-01,0.000000000000000000e+00
3.260000000000000000e+02,4.115481604665007231e-01,0.000000000000000000e+00
3.270000000000000000e+02,4.342882814183089413e-01,0.000000000000000000e+00
3.280000000000000000e+02,6.705728281596425866e-01,0.000000000000000000e+00
3.290000000000000000e+02,1.510250385748068136e-01,0.000000000000000000e+00
3.300000000000000000e+02,5.447386120470016496e-02,0.000000000000000000e+00
3.310000000000000000e+02,1.638855877347445145e-01,0.000000000000000000e+00
3.320000000000000000e+02,5.511760197900014702e-02,0.000000000000000000e+00
3.330000000000000000e+02,1.787443611745100081e-01,0.000000000000000000e+00
3.340000000000000000e+02,-4.877423239286545198e-01,0.000000000000000000e+00
3.350000000000000000e+02,1.172769746346248310e+00,0.000000000000000000e+00
3.360000000000000000e+02,5.850563802027107130e+00,0.000000000000000000e+00
3.370000000000000000e+02,1.614572296798605811e+00,1.000000000000000000e+00
3.380000000000000000e+02,-6.385318306972936897e-01,0.000000000000000000e+00
3.390000000000000000e+02,-7.122486286405580458e-01,0.000000000000000000e+00
3.400000000000000000e+02,-7.734577719888650060e-01,0.000000000000000000e+00
3.410000000000000000e+02,-5.241315428212606209e-01,0.000000000000000000e+00
3.420000000000000000e+02,-5.098529238991624801e-01,0.000000000000000000e+00
3.430000000000000000e+02,-4.889932082411322378e-01,0.000000000000000000e+00
3.440000000000000000e+02,-1.973847865128959544e-01,0.000000000000000000e+00
3.450000000000000000e+02,-4.664004121899593125e-01,0.000000000000000000e+00
3.460000000000000000e+02,1.342588407185270061e-01,0.000000000000000000e+00
3.470000000000000000e+02,-7.174867790304514936e-02,0.000000000000000000e+00
3.480000000000000000e+02,2.663760406045698748e-01,0.000000000000000000e+00
3.490000000000000000e+02,2.394940518660497453e-01,0.000000000000000000e+00
3.500000000000000000e+02,6.883656104529163322e-01,0.000000000000000000e+00
3.510000000000000000e+02,8.641028969260337034e-01,0.000000000000000000e+00
3.520000000000000000e+02,1.084572695842831225e+00,0.000000000000000000e+00
3.530000000000000000e+02,8.168324558765557297e-01,0.000000000000000000e+00
3.540000000000000000e+02,6.717658573055305116e-01,0.000000000000000000e+00
3.550000000000000000e+02,-9.936670500870904699e-02,0.000000000000000000e+00
3.560000000000000000e+02,-7.692548601457322999e-01,0.000000000000000000e+00
3.570000000000000000e+02,-1.085392526797301693e+00,0.000000000000000000e+00
3.580000000000000000e+02,-1.358262868220574182e+00,0.000000000000000000e+00
3.590000000000000000e+02,-1.374999812223447915e+00,0.000000000000000000e+00
3.600000000000000000e+02,-1.217006151548505999e+00,0.000000000000000000e+00
3.610000000000000000e+02,-1.139838700456426546e+00,0.000000000000000000e+00
3.620000000000000000e+02,-8.929506063747775224e-01,0.000000000000000000e+00
3.630000000000000000e+02,-9.573927234948212961e-01,0.000000000000000000e+00
3.640000000000000000e+02,-7.784078213843153016e-01,0.000000000000000000e+00
3.650000000000000000e+02,-6.325044961915896602e-01,0.000000000000000000e+00
3.660000000000000000e+02,-4.913736564365827064e-01,0.000000000000000000e+00
3.670000000000000000e+02,-4.359003178137859646e-01,0.000000000000000000e+00
3.680000000000000000e+02,-9.357055609979067490e-02,0.000000000000000000e+00
3.690000000000000000e+02,-3.645493689662562264e-01,0.000000000000000000e+00
3.700000000000000000e+02,-3.725696225546924062e-02,0.000000000000000000e+00
3.710000000000000000e+02,-2.044278877204764311e-01,0.000000000000000000e+00
3.720000000000000000e+02,-1.580238755351219548e-01,0.000000000000000000e+00
3.730000000000000000e+02,-4.973705818882639962e-02,0.000000000000000000e+00
3.740000000000000000e+02,2.484666077384636504e-02,0.000000000000000000e+00
3.750000000000000000e+02,-1.411856800626758723e-01,0.000000000000000000e+00
3.760000000000000000e+02,2.087053633953919185e-01,0.000000000000000000e+00
3.770000000000000000e+02,-2.675132092876750592e-02,0.000000000000000000e+00
3.780000000000000000e+02,1.915697621280281482e-01,0.000000000000000000e+00
3.790000000000000000e+02,-8.507215627890848952e-02,0.000000000000000000e+00
3.800000000000000000e+02,2.427460211458865869e-01,0.000000000000000000e+00
3.810000000000000000e+02,1.721384498232969851e-01,0.000000000000000000e+00
3.820000000000000000e+02,2.898110186172643266e-01,0.000000000000000000e+00
3.830000000000000000e+02,1.391194468896674308e-01,0.000000000000000000e+00
3.840000000000000000e+02,3.169132724739928131e-01,0.000000000000000000e+00
3.850000000000000000e+02,2.942991709704447234e-01,0.000000000000000000e+00
3.860000000000000000e+02,4.330702541112046444e-01,0.000000000000000000e+00
3.870000000000000000e+02,3.888000011293606950e-01,0.000000000000000000e+00
3.880000000000000000e+02,6.292452108923313192e-01,0.000000000000000000e+00
3.890000000000000000e+02,3.336901964281105970e-01,0.000000000000000000e+00
3.900000000000000000e+02,1.659684236388976053e-01,0.000000000000000000e+00
3.910000000000000000e+02,2.034975610526400525e-01,0.000000000000000000e+00
3.920000000000000000e+02,1.758528470540266231e-01,0.000000000000000000e+00
3.930000000000000000e+02,-8.018380618017131867e-02,0.000000000000000000e+00
3.940000000000000000e+02,1.207423726351891935e-01,0.000000000000000000e+00
3.950000000000000000e+02,-4.556588786040920436e-01,0.000000000000000000e+00
3.960000000000000000e+02,4.339360683197329926e+00,0.000000000000000000e+00
3.970000000000000000e+02,4.538871566172989702e+00,0.000000000000000000e+00
3.980000000000000000e+02,-7.636689214191025865e-01,1.000000000000000000e+00
3.990000000000000000e+02,-5.301241923915382959e-01,0.000000000000000000e+00
4.000000000000000000e+02,-7.435596635296063406e-01,0.000000000000000000e+00
4.010000000000000000e+02,-6.268070630513579156e-01,0.000000000000000000e+00
4.020000000000000000e+02,-6.619411627429211409e-01,0.000000000000000000e+00
4.030000000000000000e+02,-3.374583351926356278e-01,0.000000000000000000e+00
4.040000000000000000e+02,-2.875651164454259279e-01,0.000000000000000000e+00
4.050000000000000000e+02,-2.058191933395544793e-01,0.000000000000000000e+00
4.060000000000000000e+02,-1.505806211020099816e-01,0.000000000000000000e+00
4.070000000000000000e+02,-1.148541549388720634e-01,0.000000000000000000e+00
4.080000000000000000e+02,1.059672289286973101e-01,0.000000000000000000e+00
4.090000000000000000e+02,1.770783267568608876e-01,0.000000000000000000e+00
4.100000000000000000e+02,5.348874603854437693e-01,0.000000000000000000e+00
4.110000000000000000e+02,7.219446088294240171e-01,0.000000000000000000e+00
4.120000000000000000e+02,9.518556612271743544e-01,0.000000000000000000e+00
4.130000000000000000e+02,8.936887580726151636e-01,0.000000000000000000e+00
4.140000000000000000e+02,6.434334236269124707e-01,0.000000000000000000e+00
4.150000000000000000e+02,2.288885595560890829e-01,0.000000000000000000e+00
4.160000000000000000e+02,-3.915872098361800613e-01,0.000000000000000000e+00
4.170000000000000000e+02,-8.715625549298441355e-01,0.000000000000000000e+00
4.180000000000000000e+02,-1.517546338968643660e+00,0.000000000000000000e+00
4.190000000000000000e+02,-1.240872660383721460e+00,0.000000000000000000e+00
4.200000000000000000e+02,-1.394419690924393995e+00,0.000000000000000000e+00
4.210000000000000000e+02,-1.339224970879385967e+00,0.000000000000000000e+00
4.220000000000000000e+02,-9.056846247291279184e-01,0.000000000000000000e+00
4.230000000000000000e+02,-9.626444327002464663e-01,0.000000000000000000e+00
4.240000000000000000e+02,-9.034390896879791466e-01,0.000000000000000000e+00
4.250000000000000000e+02,-7.055189798034908755e-01,0.000000000000000000e+00
4.260000000000000000e+02,-6.751140486469450197e-01,0.000000000000000000e+00
4.270000000000000000e+02,-4.063009361680326448e-01,0.000000000000000000e+00
4.280000000000000000e+02,-1.696713286802474796e-01,0.000000000000000000e+00
4.290000000000000000e+02,-3.163142157333298510e-01,0.000000000000000000e+00
4.300000000000000000e+02,-3.253222267977908255e-01,0.000000000000000000e+00
4.310000000000000000e+02,-1.939062477827371289e-01,0.000000000000000000e+00
4.320000000000000000e+02,-1.754292613613043506e-01,0.000000000000000000e+00
4.330000000000000000e+02,-1.963934268690910867e-01,0.000000000000000000e+00
4.340000000000000000e+02,-5.809500446436938886e-02,0.000000000000000000e+00
4.350000000000000000e+02,-9.063402999957102801e-02,0.000000000000000000e+00
4.360000000000000000e+02,2.614584594509341154e-04,0.000000000000000000e+00
4.370000000000000000e+02,1.747201766447730939e-02,0.000000000000000000e+00
4.380000000000000000e+02,7.666980492023954541e-02,0.000000000000000000e+00
4.390000000000000000e+02,1.857191333897602048e-01,0.000000000000000000e+00
4.400000000000000000e+02,-1.724867503480077488e-02,0.000000000000000000e+00
4.410000000000000000e+02,2.183392214610244131e-01,0.000000000000000000e+00
4.420000000000000000e+02,2.406382893668730927e-01,0.000000000000000000e+00
4.430000000000000000e+02,2.253896492477113489e-01,0.000000000000000000e+00
4.440000000000000000e+02,3.684304100200657128e-01,0.000000000000000000e+00
4.450000000000000000e+02,4.330088550875524911e-01,0.000000000000000000e+00
4.460000000000000000e+02,5.746054556921033063e-01,0.000000000000000000e+00
4.470000000000000000e+02,5.456969041133933329e-01,0.000000000000000000e+00
4.480000000000000000e+02,1.909381122030664457e-01,0.000000000000000000e+00
4.490000000000000000e+02,6.572764414129673993e-02,0.000000000000000000e+00
4.500000000000000000e+02,2.569398529774247208e-01,0.000000000000000000e+00
4.510000000000000000e+02,9.259659229483677145e-02,0.000000000000000000e+00
4.520000000000000000e+02,3.041321844889132153e-01,0.000000000000000000e+00
4.530000000000000000e+02,-5.480522537065434241e-01,0.000000000000000000e+00
4.540000000000000000e+02,2.916061111659050908e+00,0.000000000000000000e+00
4.550000000000000000e+02,5.268716268717884788e+00,0.000000000000000000e+00
4.560000000000000000e+02,1.239635614980125478e-01,1.000000000000000000e+00
4.570000000000000000e+02,-5.831116551209613030e-01,0.000000000000000000e+00
4.580000000000000000e+02,-5.704600715022829505e-01,0.000000000000000000e+00
4.590000000000000000e+02,-5.886135816130325660e-01,0.000000000000000000e+00
4.600000000000000000e+02,-4.684536064769651564e-01,0.000000000000000000e+00
4.610000000000000000e+02,-2.306301874688053144e-01,0.000000000000000000e+00
4.620000000000000000e+02,-2.572101625641542988e-01,0.000000000000000000e+00
4.630000000000000000e+02,-1.769049205289458526e-01,0.000000000000000000e+00
4.640000000000000000e+02,-7.112633011241402403e-02,0.000000000000000000e+00
4.650000000000000000e+02,-2.703758294854311309e-02,0.000000000000000000e+00
4.660000000000000000e+02,1.036468671303666239e-01,0.000000000000000000e+00
4.670000000000000000e+02,4.936856279855578178e-01,0.000000000000000000e+00
4.680000000000000000e+02,5.026640662505517110e-01,0.000000000000000000e+00
4.690000000000000000e+02,7.875910096439379116e-01,0.000000000000000000e+00
4.700000000000000000e+02,9.660635845166659630e-01,0.000000000000000000e+00
4.710000000000000000e+02,9.377570485167080472e-01,0.000000000000000000e+00
4.720000000000000000e+02,7.251927645066003070e-01,0.000000000000000000e+00
4.730000000000000000e+02,6.545451505428655503e-01,0.000000000000000000e+00
4.740000000000000000e+02,-2.435014857240436204e-01,0.000000000000000000e+00
4.750000000000000000e+02,-8.238973243528252555e-01,0.000000000000000000e+00
4.760000000000000000e+02,-1.149294795723192930e+00,0.000000000000000000e+00
4.770000000000000000e+02,-1.269599137335457595e+00,0.000000000000000000e+00
4.780000000000000000e+02,-1.185087677050393973e+00,0.000000000000000000e+00
4.790000000000000000e+02,-1.305552453755689735e+00,0.000000000000000000e+00
4.800000000000000000e+02,-1.095636303728208416e+00,0.000000000000000000e+00
4.810000000000000000e+02,-8.876993835970797830e-01,0.000000000000000000e+00
4.820000000000000000e+02,-7.693190229307520500e-01,0.000000000000000000e+00
4.830000000000000000e+02,-5.274967519101387836e-01,0.000000000000000000e+00
4.840000000000000000e+02,-6.341747104625635734e-01,0.000000000000000000e+00
4.850000000000000000e+02,-5.284660729587471462e-01,0.000000000000000000e+00
4.860000000000000000e+02,-1.555989367111388078e-01,0.000000000000000000e+00
4.870000000000000000e+02,-3.136289282379340349e-01,0.000000000000000000e+00
4.880000000000000000e+02,-1.729719607362751044e-01,0.000000000000000000e+00
4.890000000000000000e+02,-1.584991894661078315e-01,0.000000000000000000e+00
4.900000000000000000e+02,-1.358629744319961585e-01,0.000000000000000000e+00
4.910000000000000000e+02,-6.889691018310878379e-02,0.000000000000000000e+00
4.920000000000000000e+02,-2.589225126516684905e-01,0.000000000000000000e+00
4.930000000000000000e+02,-4.618470604736783780e-02,0.000000000000000000e+00
4.940000000000000000e+02,-1.408551239080756967e-01,0.000000000000000000e+00
4.950000000000000000e+02,2.499803815640314498e-03,0.000000000000000000e+00
4.960000000000000000e+02,7.785698012641535659e-02,0.000000000000000000e+00
4.970000000000000000e+02,1.310762138878064365e-01,0.000000000000000000e+00
4.980000000000000000e+02,4.681146224333290751e-02,0.000000000000000000e+00
4.990000000000000000e+02,-3.282752943445598989e-04,0.000000000000000000e+00
5.000000000000000000e+02,1.429673709573318907e-01,0.000000000000000000e+00
5.010000000000000000e+02,2.363919790872177629e-01,0.000000000000000000e+00
5.020000000000000000e+02,1.922415452814127124e-01,0.000000000000000000e+00
5.030000000000000000e+02,2.052073209062744430e-01,0.000000000000000000e+00
5.040000000000000000e+02,2.436789375937771784e-01,0.000000000000000000e+00
5.050000000000000000e+02,5.081103624034375432e-01,0.000000000000000000e+00
5.060000000000000000e+02,4.561528021430534263e-01,0.000000000000000000e+00
5.070000000000000000e+02,3.751792965277225833e-01,0.000000000000000000e+00
5.080000000000000000e+02,8.201476135730441375e-02,0.000000000000000000e+00
5.090000000000000000e+02,5.896660514610808923e-02,0.000000000000000000e+00
5.100000000000000000e+02,-9.757639005925308751e-02,0.000000000000000000e+00
5.110000000000000000e+02,2.136835392701919856e-01,0.000000000000000000e+00
5.120000000000000000e+02,-1.586923824164986341e-01,0.000000000000000000e+00
5.130000000000000000e+02,-9.247487264626605419e-02,0.000000000000000000e+00
5.140000000000000000e+02,5.031374588119621905e+00,0.000000000000000000e+00
5.150000000000000000e+02,3.319495586606035609e+00,1.000000000000000000e+00
5.160000000000000000e+02,-7.933234146341879844e-01,0.000000000000000000e+00
5.170000000000000000e+02,-3.173365109152910812e-01,0.000000000000000000e+00
5.180000000000000000e+02,-9.593934064805301754e-01,0.000000000000000000e+00
5.190000000000000000e+02,-5.785593340259221895e-01,0.000000000000000000e+00
5.200000000000000000e+02,-6.313905284980122490e-01,0.000000000000000000e+00
5.210000000000000000e+02,-5.653421516458579932e-01,0.000000000000000000e+00
5.220000000000000000e+02,-2.387462333448592822e-01,0.000000000000000000e+00
5.230000000000000000e+02,-1.451091246150069680e-01,0.000000000000000000e+00
5.240000000000000000e+02,-3.230841381615094376e-01,0.000000000000000000e+00
5.250000000000000000e+02,-7.116250303893089692e-03,0.000000000000000000e+00
5.260000000000000000e+02,1.325479918540939106e-01,0.000000000000000000e+00
5.270000000000000000e+02,2.274532696804324738e-01,0.000000000000000000e+00
5.280000000000000000e+02,4.971645407024906094e-01,0.000000000000000000e+00
5.290000000000000000e+02,8.083790514920037307e-01,0.000000000000000000e+00
5.300000000000000000e+02,9.214522133426562567e-01,0.000000000000000000e+00
5.310000000000000000e+02,8.523697947887158843e-01,0.000000000000000000e+00
5.320000000000000000e+02,8.759208494868295780e-01,0.000000000000000000e+00
5.330000000000000000e+02,2.412830635198226492e-01,0.000000000000000000e+00
5.340000000000000000e+02,-7.135604024932036271e-01,0.000000000000000000e+00
5.350000000000000000e+02,-1.032838654897396236e+00,0.000000000000000000e+00
5.360000000000000000e+02,-1.376225441746370182e+00,0.000000000000000000e+00
5.370000000000000000e+02,-1.365030305830016610e+00,0.000000000000000000e+00
5.380000000000000000e+02,-1.235067439797493893e+00,0.000000000000000000e+00
5.390000000000000000e+02,-1.212127437623167880e+00,0.000000000000000000e+00
5.400000000000000000e+02,-1.076081423532870840e+00,0.000000000000000000e+00
5.410000000000000000e+02,-9.726534785929575877e-01,0.000000000000000000e+00
5.420000000000000000e+02,-9.001713357409591998e-01,0.000000000000000000e+00
5.430000000000000000e+02,-5.892065836748017205e-01,0.000000000000000000e+00
5.440000000000000000e+02,-6.231857430141952703e-01,0.000000000000000000e+00
5.450000000000000000e+02,-5.342790263951504581e-01,0.000000000000000000e+00
5.460000000000000000e+02,-2.222520944146396116e-01,0.000000000000000000e+00
5.470000000000000000e+02,-2.523675305351096299e-01,0.000000000000000000e+00
5.480000000000000000e+02,-2.478538143171881702e-01,0.000000000000000000e+00
5.490000000000000000e+02,-1.536330204480420847e-01,0.000000000000000000e+00
5.500000000000000000e+02,-1.597463902916427050e-02,0.000000000000000000e+00
5.510000000000000000e+02,-7.367634373059220310e-02,0.000000000000000000e+00
5.520000000000000000e+02,-1.445597509706427752e-01,0.000000000000000000e+00
5.530000000000000000e+02,8.130205016848396360e-02,0.000000000000000000e+00
5.540000000000000000e+02,-5.665333343461256138e-02,0.000000000000000000e+00
5.550000000000000000e+02,1.275517301426187244e-01,0.000000000000000000e+00
5.560000000000000000e+02,1.523708014741172734e-01,0.000000000000000000e+00
5.570000000000000000e+02,6.400293258773882832e-02,0.000000000000000000e+00
5.580000000000000000e+02,2.640226540758011109e-01,0.000000000000000000e+00
5.590000000000000000e+02,3.425626608186698729e-01,0.000000000000000000e+00
5.600000000000000000e+02,1.190794462544572246e-01,0.000000000000000000e+00
5.610000000000000000e+02,2.225487947237088926e-01,0.000000000000000000e+00
5.620000000000000000e+02,4.110011237269123874e-01,0.000000000000000000e+00
5.630000000000000000e+02,2.533043927039855259e-01,0.000000000000000000e+00
5.640000000000000000e+02,4.139166592239318931e-01,0.000000000000000000e+00
5.650000000000000000e+02,7.331515566295450093e-01,0.000000000000000000e+00
5.660000000000000000e+02,5.400250008615947728e-01,0.000000000000000000e+00
5.670000000000000000e+02,4.239972094729276830e-01,0.000000000000000000e+00
5.680000000000000000e+02,1.429100498503217860e-02,0.000000000000000000e+00
5.690000000000000000e+02,2.209602728612346800e-01,0.000000000000000000e+00
5.700000000000000000e+02,-4.779450937577064268e-02,0.000000000000000000e+00
5.710000000000000000e+02,3.125907601197780439e-01,0.000000000000000000e+00
5.720000000000000000e+02,-2.899234850406139374e-01,0.000000000000000000e+00
5.730000000000000000e+02,1.283997957505254917e+00,0.000000000000000000e+00
5.740000000000000000e+02,6.046048193629574463e+00,0.000000000000000000e+00
5.750000000000000000e+02,1.621868454933208969e+00,1.000000000000000000e+00
5.760000000000000000e+02,-7.146523346785630393e-01,0.000000000000000000e+00
5.770000000000000000e+02,-4.832432454809452160e-01,0.000000000000000000e+00
5.780000000000000000e+02,-8.862257825927930543e-01,0.000000000000000000e+00
5.790000000000000000e+02,-4.453799670550859235e-01,0.000000000000000000e+00
5.800000000000000000e+02,-5.462274194493750290e-01,0.000000000000000000e+00
5.810000000000000000e+02,-2.877314408930054523e-01,0.000000000000000000e+00
5.820000000000000000e+02,-2.393293249413311063e-01,0.000000000000000000e+00
5.830000000000000000e+02,-3.144563943740633083e-01,0.000000000000000000e+00
5.840000000000000000e+02,-1.077364795757854571e-01,0.000000000000000000e+00
5.850000000000000000e+02,8.249879090813400095e-02,0.000000000000000000e+00
5.860000000000000000e+02,1.295140759104267403e-01,0.000000000000000000e+00
5.870000000000000000e+02,3.904203901054476011e-01,0.000000000000000000e+00
5.880000000000000000e+02,7.094780749632799699e-01,0.000000000000000000e+00
5.890000000000000000e+02,7.996036762914229268e-01,0.000000000000000000e+00
5.900000000000000000e+02,1.035412150040860402e+00,0.000000000000000000e+00
5.910000000000000000e+02,6.564040873614029881e-01,0.000000000000000000e+00
5.920000000000000000e+02,6.767584610339215656e-01,0.000000000000000000e+00
5.930000000000000000e+02,-3.380478683161725756e-02,0.000000000000000000e+00
5.940000000000000000e+02,-7.137561155599929652e-01,0.000000000000000000e+00
5.950000000000000000e+02,-1.167845588100199228e+00,0.000000000000000000e+00
5.960000000000000000e+02,-1.544261781372526121e+00,0.000000000000000000e+00
5.970000000000000000e+02,-1.314346825395508400e+00,0.000000000000000000e+00
5.980000000000000000e+02,-1.221162319728165802e+00,0.000000000000000000e+00
5.990000000000000000e+02,-1.271354429873736924e+00,0.000000000000000000e+00
6.000000000000000000e+02,-1.109971196975815699e+00,0.000000000000000000e+00
6.010000000000000000e+02,-1.060834655530905613e+00,0.000000000000000000e+00
6.020000000000000000e+02,-6.320861934863127862e-01,0.000000000000000000e+00
6.030000000000000000e+02,-7.689313684552371297e-01,0.000000000000000000e+00
6.040000000000000000e+02,-5.997991543353768940e-01,0.000000000000000000e+00
6.050000000000000000e+02,-2.167584122771067656e-01,0.000000000000000000e+00
6.060000000000000000e+02,-4.469722429929437468e-01,0.000000000000000000e+00
6.070000000000000000e+02,-2.981417290745052573e-01,0.000000000000000000e+00
6.080000000000000000e+02,-2.325561640304345534e-01,0.000000000000000000e+00
6.090000000000000000e+02,-1.073600527735195515e-01,0.000000000000000000e+00
6.100000000000000000e+02,-2.073546855737622430e-01,0.000000000000000000e+00
6.110000000000000000e+02,-1.151679771642869637e-01,0.000000000000000000e+00
6.120000000000000000e+02,-1.530540622771617287e-01,0.000000000000000000e+00
6.130000000000000000e+02,3.332152877932624546e-02,0.000000000000000000e+00
6.140000000000000000e+02,-5.457834236948481271e-02,0.000000000000000000e+00
6.150000000000000000e+02,-7.483070716733518542e-03,0.000000000000000000e+00
6.160000000000000000e+02,2.135491725224110127e-01,0.000000000000000000e+00
6.170000000000000000e+02,-3.426794568241061517e-02,0.000000000000000000e+00
6.180000000000000000e+02,1.177483831514288121e-01,0.000000000000000000e+00
6.190000000000000000e+02,1.752883064219609155e-01,0.000000000000000000e+00
6.200000000000000000e+02,3.091232831181093266e-01,0.000000000000000000e+00
6.210000000000000000e+02,1.762180191251054018e-01,0.000000000000000000e+00
6.220000000000000000e+02,3.592021506326937841e-01,0.000000000000000000e+00
6.230000000000000000e+02,4.592981465390532092e-01,0.000000000000000000e+00
6.240000000000000000e+02,4.724068832161248399e-01,0.000000000000000000e+00
6.250000000000000000e+02,2.506271659269861951e-01,0.000000000000000000e+00
6.260000000000000000e+02,3.901293540567499218e-02,0.000000000000000000e+00
6.270000000000000000e+02,6.486628772889085903e-02,0.000000000000000000e+00
6.280000000000000000e+02,-7.079140868948093079e-02,0.000000000000000000e+00
6.290000000000000000e+02,1.897538048125470556e-01,0.000000000000000000e+00
6.300000000000000000e+02,-4.302162221421725330e-01,0.000000000000000000e+00
6.310000000000000000e+02,2.791271607825483336e+00,0.000000000000000000e+00
6.320000000000000000e+02,5.086884388100619603e+00,0.000000000000000000e+00
6.330000000000000000e+02,-3.778881050729519520e-01,1.000000000000000000e+00
6.340000000000000000e+02,-6.014466529843141007e-01,0.000000000000000000e+00
6.350000000000000000e+02,-6.113542599139500933e-01,0.000000000000000000e+00
6.360000000000000000e+02,-4.691122855288226146e-01,0.000000000000000000e+00
6.370000000000000000e+02,-3.393327404858479945e-01,0.000000000000000000e+00
6.380000000000000000e+02,-4.133596518578354639e-01,0.000000000000000000e+00
6.390000000000000000e+02,-2.109971230071646386e-01,0.000000000000000000e+00
6.400000000000000000e+02,-1.720522532582910435e-01,0.000000000000000000e+00
6.410000000000000000e+02,4.307765991005734624e-02,0.000000000000000000e+00
6.420000000000000000e+02,6.086484059356565834e-02,0.000000000000000000e+00
6.430000000000000000e+02,7.876413650230733310e-02,0.000000000000000000e+00
6.440000000000000000e+02,3.800974466196214152e-01,0.000000000000000000e+00
6.450000000000000000e+02,4.730493842022742146e-01,0.000000000000000000e+00
6.460000000000000000e+02,7.872491820396086970e-01,0.000000000000000000e+00
6.470000000000000000e+02,9.760428965167730064e-01,0.000000000000000000e+00
6.480000000000000000e+02,9.300833870195600594e-01,0.000000000000000000e+00
6.490000000000000000e+02,9.053783715383606490e-01,0.000000000000000000e+00
6.500000000000000000e+02,5.335741945168410716e-01,0.000000000000000000e+00
6.510000000000000000e+02,-2.367748307726869061e-01,0.000000000000000000e+00
6.520000000000000000e+02,-8.147156067696849080e-01,0.000000000000000000e+00
6.530000000000000000e+02,-1.182428166062963415e+00,0.000000000000000000e+00
6.540000000000000000e+02,-1.310913726153307701e+00,0.000000000000000000e+00
6.550000000000000000e+02,-1.165237666513494030e+00,0.000000000000000000e+00
6.560000000000000000e+02,-1.229883340140228931e+00,0.000000000000000000e+00
6.570000000000000000e+02,-1.020213767284779527e+00,0.000000000000000000e+00
6.580000000000000000e+02,-9.780124330946325939e-01,0.000000000000000000e+00
6.590000000000000000e+02,-8.093567853013716729e-01,0.000000000000000000e+00
6.600000000000000000e+02,-6.300314024395621271e-01,0.000000000000000000e+00
6.610000000000000000e+02,-4.799854002145587661e-01,0.000000000000000000e+00
6.620000000000000000e+02,-2.509864587052729190e-01,0.000000000000000000e+00
6.630000000000000000e+02,-2.703370831274060637e-01,0.000000000000000000e+00
6.640000000000000000e+02,-2.970787244205440603e-01,0.000000000000000000e+00
6.650000000000000000e+02,-1.589525120968148242e-01,0.000000000000000000e+00
6.660000000000000000e+02,-6.928467854438505324e-02,0.000000000000000000e+00
6.670000000000000000e+02,-1.300439684962276521e-01,0.000000000000000000e+00
6.680000000000000000e+02,-4.076537514843139171e-02,0.000000000000000000e+00
6.690000000000000000e+02,-1.750718928258376550e-01,0.000000000000000000e+00
6.700000000000000000e+02,1.827209648651750146e-02,0.000000000000000000e+00
6.710000000000000000e+02,-6.648604811147723614e-02,0.000000000000000000e+00
6.720000000000000000e+02,7.023323813191956200e-02,0.000000000000000000e+00
6.730000000000000000e+02,2.296822475741357519e-02,0.000000000000000000e+00
6.740000000000000000e+02,9.116622496760198868e-02,0.000000000000000000e+00
6.750000000000000000e+02,8.003149579941450098e-02,0.000000000000000000e+00
6.760000000000000000e+02,1.239180189175237284e-01,0.000000000000000000e+00
6.770000000000000000e+02,1.286776548892174243e-01,0.000000000000000000e+00
6.780000000000000000e+02,3.731640068542274036e-01,0.000000000000000000e+00
6.790000000000000000e+02,1.032255359931433386e-01,0.000000000000000000e+00
6.800000000000000000e+02,4.144821339689115369e-01,0.000000000000000000e+00
6.810000000000000000e+02,3.642658877772377846e-01,0.000000000000000000e+00
6.820000000000000000e+02,5.485812196592441126e-01,0.000000000000000000e+00
6.830000000000000000e+02,5.003799392978230953e-01,0.000000000000000000e+00
6.840000000000000000e+02,1.738740227952054922e-03,0.000000000000000000e+00
6.850000000000000000e+02,1.321311671229964957e-01,0.000000000000000000e+00
6.860000000000000000e+02,1.501034223735637496e-01,0.000000000000000000e+00
6.870000000000000000e+02,4.416839889982279027e-02,0.000000000000000000e+00
6.880000000000000000e+02,-8.241686125300429211e-02,0.000000000000000000e+00
6.890000000000000000e+02,1.991914673741963515e-01,0.000000000000000000e+00
6.900000000000000000e+02,5.373404028910773178e+00,0.000000000000000000e+00
6.910000000000000000e+02,2.888802212520150903e+00,1.000000000000000000e+00
6.920000000000000000e+02,-8.869813435357596365e-01,0.000000000000000000e+00
6.930000000000000000e+02,-4.065978261175001163e-01,0.000000000000000000e+00
6.940000000000000000e+02,-7.939333566455784030e-01,0.000000000000000000e+00
6.950000000000000000e+02,-3.260150875548991634e-01,0.000000000000000000e+00
6.960000000000000000e+02,-6.669499350068234245e-01,0.000000000000000000e+00
6.970000000000000000e+02,-3.496154547262462220e-01,0.000000000000000000e+00
6.980000000000000000e+02,-4.425991596862091093e-01,0.000000000000000000e+00
6.990000000000000000e+02,-2.762414201331884200e-01,0.000000000000000000e+00
7.000000000000000000e+02,4.729684198803702638e-02,0.000000000000000000e+00
7.010000000000000000e+02,-2.587264814372013805e-02,0.000000000000000000e+00
7.020000000000000000e+02,9.711498994599056245e-02,0.000000000000000000e+00
7.030000000000000000e+02,4.026271897238826170e-01,0.000000000000000000e+00
7.040000000000000000e+02,4.831211325891308084e-01,0.000000000000000000e+00
7.050000000000000000e+02,8.647391588634889548e-01,0.000000000000000000e+00
7.060000000000000000e+02,9.006401817901715789e-01,0.000000000000000000e+00
7.070000000000000000e+02,8.435487101447260994e-01,0.000000000000000000e+00
7.080000000000000000e+02,7.848923621662035055e-01,0.000000000000000000e+00
7.090000000000000000e+02,2.451508310153036330e-01,0.000000000000000000e+00
7.100000000000000000e+02,-6.253877914036444219e-01,0.000000000000000000e+00
7.110000000000000000e+02,-1.063595949906169347e+00,0.000000000000000000e+00
7.120000000000000000e+02,-1.408783289041819931e+00,0.000000000000000000e+00
7.130000000000000000e+02,-1.436848082412434779e+00,0.000000000000000000e+00
7.140000000000000000e+02,-1.073445504509736415e+00,0.000000000000000000e+00
7.150000000000000000e+02,-1.118633710097906242e+00,0.000000000000000000e+00
7.160000000000000000e+02,-1.030891080555068617e+00,0.000000000000000000e+00
7.170000000000000000e+02,-8.139475047691618892e-01,0.000000000000000000e+00
7.180000000000000000e+02,-9.177512769370809176e-01,0.000000000000000000e+00
7.190000000000000000e+02,-5.780490389999528578e-01,0.000000000000000000e+00
7.200000000000000000e+02,-6.515086983291225042e-01,0.000000000000000000e+00
7.210000000000000000e+02,-4.075868131061357591e-01,0.000000000000000000e+00
7.220000000000000000e+02,-3.415217870565347424e-01,0.000000000000000000e+00
7.230000000000000000e+02,-1.926845494720285379e-01,0.000000000000000000e+00
7.240000000000000000e+02,-2.068927045959574607e-01,0.000000000000000000e+00
7.250000000000000000e+02,-1.624141785513159297e-01,0.000000000000000000e+00
7.260000000000000000e+02,-2.400256547272578422e-01,0.000000000000000000e+00
7.270000000000000000e+02,-2.041584667980901949e-02,0.000000000000000000e+00
7.280000000000000000e+02,-5.756787845185974695e-02,0.000000000000000000e+00
7.290000000000000000e+02,1.958810246899674382e-02,0.000000000000000000e+00
7.300000000000000000e+02,-8.008073482688934930e-02,0.000000000000000000e+00
7.310000000000000000e+02,1.283263308082739917e-01,0.000000000000000000e+00
7.320000000000000000e+02,6.307641839855238075e-02,0.000000000000000000e+00
7.330000000000000000e+02,2.289475971893217277e-01,0.000000000000000000e+00
7.340000000000000000e+02,-7.960382394601354938e-02,0.000000000000000000e+00
7.350000000000000000e+02,3.514164242158349660e-01,0.000000000000000000e+00
7.360000000000000000e+02,1.828329624391465125e-01,0.000000000000000000e+00
7.370000000000000000e+02,2.671507364851976041e-01,0.000000000000000000e+00
7.380000000000000000e+02,3.091907524417668585e-01,0.000000000000000000e+00
7.390000000000000000e+02,2.868585542300385871e-01,0.000000000000000000e+00
7.400000000000000000e+02,3.266180439225612742e-01,0.000000000000000000e+00
7.410000000000000000e+02,6.358527327020451203e-01,0.000000000000000000e+00
7.420000000000000000e+02,5.834128846874860885e-01,0.000000000000000000e+00
7.430000000000000000e+02,2.558062898254120920e-01,0.000000000000000000e+00
7.440000000000000000e+02,3.652295404876651497e-02,0.000000000000000000e+00
7.450000000000000000e+02,2.649969623667577379e-01,0.000000000000000000e+00
7.460000000000000000e+02,1.177687113467399890e-02,0.000000000000000000e+00
7.470000000000000000e+02,3.510037491740175541e-02,0.000000000000000000e+00
7.480000000000000000e+02,-5.921729381572272688e-01,0.000000000000000000e+00
7.490000000000000000e+02,2.168105105663773902e+00,0.000000000000000000e+00
7.500000000000000000e+02,5.920546689500619131e+00,0.000000000000000000e+00
7.510000000000000000e+02,8.503207436290393106e-01,1.000000000000000000e+00
7.520000000000000000e+02,-6.295919617053820083e-01,0.000000000000000000e+00
7.530000000000000000e+02,-7.897115605818688655e-01,0.000000000000000000e+00
7.540000000000000000e+02,-7.409790371380030605e-01,0.000000000000000000e+00
7.550000000000000000e+02,-5.846743799059787028e-01,0.000000000000000000e+00
7.560000000000000000e+02,-4.366828290159713299e-01,0.000000000000000000e+00
7.570000000000000000e+02,-4.933143132771310446e-01,0.000000000000000000e+00
7.580000000000000000e+02,-3.111073974604507408e-01,0.000000000000000000e+00
7.590000000000000000e+02,-2.743846750509409405e-01,0.000000000000000000e+00
7.600000000000000000e+02,-2.013989803862318087e-02,0.000000000000000000e+00
7.610000000000000000e+02,6.572890684096061031e-02,0.000000000000000000e+00
7.620000000000000000e+02,3.877129591830371508e-02,0.000000000000000000e+00
7.630000000000000000e+02,4.637498816456058770e-01,0.000000000000000000e+00
7.640000000000000000e+02,6.555528978913880422e-01,0.000000000000000000e+00
7.650000000000000000e+02,8.307684151913630188e-01,0.000000000000000000e+00
7.660000000000000000e+02,9.033565758333512719e-01,0.000000000000000000e+00
7.670000000000000000e+02,9.646161894247108348e-01,0.000000000000000000e+00
7.680000000000000000e+02,5.683503487380507924e-01,0.000000000000000000e+00
7.690000000000000000e+02,-1.895390149681766834e-01,0.000000000000000000e+00
7.700000000000000000e+02,-9.262478636900569606e-01,0.000000000000000000e+00
7.710000000000000000e+02,-1.270155886734912531e+00,0.000000000000000000e+00
7.720000000000000000e+02,-1.464946353453951966e+00,0.000000000000000000e+00
7.730000000000000000e+02,-1.329398000974314042e+00,0.000000000000000000e+00
7.740000000000000000e+02,-1.246093689101399171e+00,0.000000000000000000e+00
7.750000000000000000e+02,-1.114421659793155772e+00,0.000000000000000000e+00
7.760000000000000000e+02,-9.940787995175243141e-01,0.000000000000000000e+00
7.770000000000000000e+02,-1.019045393517555187e+00,0.000000000000000000e+00
7.780000000000000000e+02,-7.090912154066838502e-01,0.000000000000000000e+00
7.790000000000000000e+02,-7.282728266371001347e-01,0.000000000000000000e+00
7.800000000000000000e+02,-5.309717096452182261e-01,0.000000000000000000e+00
7.810000000000000000e+02,-2.649484962783818509e-01,0.000000000000000000e+00
7.820000000000000000e+02,-3.781083516704710212e-01,0.000000000000000000e+00
7.830000000000000000e+02,-2.101441173191161971e-01,0.000000000000000000e+00
7.840000000000000000e+02,-1.920863173707824667e-01,0.000000000000000000e+00
7.850000000000000000e+02,5.938235330183198532e-03,0.000000000000000000e+00
7.860000000000000000e+02,-2.290126334749209569e-01,0.000000000000000000e+00
7.870000000000000000e+02,-2.160171118141452351e-01,0.000000000000000000e+00
7.880000000000000000e+02,3.724196825097863400e-02,0.000000000000000000e+00
7.890000000000000000e+02,-8.977863455578001528e-02,0.000000000000000000e+00
7.900000000000000000e+02,9.678542714521083667e-02,0.000000000000000000e+00
7.910000000000000000e+02,7.362558476701239196e-02,0.000000000000000000e+00
7.920000000000000000e+02,5.335864214606768352e-02,0.000000000000000000e+00
7.930000000000000000e+02,1.207009510041371636e-01,0.000000000000000000e+00
7.940000000000000000e+02,2.402820571327859700e-01,0.000000000000000000e+00
7.950000000000000000e+02,1.048168886460053850e-01,0.000000000000000000e+00
7.960000000000000000e+02,1.460866769711979540e-01,0.000000000000000000e+00
7.970000000000000000e+02,5.493662967429370214e-01,0.000000000000000000e+00
7.980000000000000000e+02,1.482101357281966347e-01,0.000000000000000000e+00
7.990000000000000000e+02,2.373056810737624589e-01,0.000000000000000000e+00
8.000000000000000000e+02,5.489821620804916646e-01,0.000000000000000000e+00
8.010000000000000000e+02,5.389123036903563646e-01,0.000000000000000000e+00
8.020000000000000000e+02,6.289453945954012193e-01,0.000000000000000000e+00
8.030000000000000000e+02,1.757290314183440616e-01,0.000000000000000000e+00
8.040000000000000000e+02,6.843864362923962608e-02,0.000000000000000000e+00
8.050000000000000000e+02,2.696165389128846734e-01,0.000000000000000000e+00
8.060000000000000000e+02,3.469393273600663435e-02,0.000000000000000000e+00
8.070000000000000000e+02,3.292289446095989502e-01,0.000000000000000000e+00
8.080000000000000000e+02,-5.276311480023819778e-01,0.000000000000000000e+00
8.090000000000000000e+02,2.121508584915718476e+00,0.000000000000000000e+00
8.100000000000000000e+02,5.985399985456730576e+00,0.000000000000000000e+00
8.110000000000000000e+02,5.570971159224521463e-01,1.000000000000000000e+00
8.120000000000000000e+02,-7.973675134487684391e-01,0.000000000000000000e+00
8.130000000000000000e+02,-6.413509346067449712e-01,0.000000000000000000e+00
8.140000000000000000e+02,-5.982604948146660329e-01,0.000000000000000000e+00
8.150000000000000000e+02,-5.762166645779254193e-01,0.000000000000000000e+00
8.160000000000000000e+02,-5.204613391637680220e-01,0.000000000000000000e+00
8.170000000000000000e+02,-1.899772498860015368e-01,0.000000000000000000e+00
8.180000000000000000e+02,-3.301915494015972286e-01,0.000000000000000000e+00
8.190000000000000000e+02,-4.259277443335429680e-02,0.000000000000000000e+00
8.200000000000000000e+02,-1.725742444747527249e-01,0.000000000000000000e+00
8.210000000000000000e+02,1.340961494120561370e-01,0.000000000000000000e+00
8.220000000000000000e+02,2.482155835402543309e-01,0.000000000000000000e+00
8.230000000000000000e+02,4.651903468209281356e-01,0.000000000000000000e+00
8.240000000000000000e+02,6.258874277322714619e-01,0.000000000000000000e+00
8.250000000000000000e+02,9.430652083153036047e-01,0.000000000000000000e+00
8.260000000000000000e+02,8.487539955554663784e-01,0.000000000000000000e+00
8.270000000000000000e+02,8.225975069026530972e-01,0.000000000000000000e+00
8.280000000000000000e+02,5.633682341407657557e-01,0.000000000000000000e+00
8.290000000000000000e+02,-1.148800325478385453e-01,0.000000000000000000e+00
8.300000000000000000e+02,-6.651669421150663286e-01,0.000000000000000000e+00
8.310000000000000000e+02,-1.290319849496237348e+00,0.000000000000000000e+00
8.320000000000000000e+02,-1.492820272725881692e+00,0.000000000000000000e+00
8.330000000000000000e+02,-1.313952561958161347e+00,0.000000000000000000e+00
8.340000000000000000e+02,-1.255003129431904840e+00,0.000000000000000000e+00
8.350000000000000000e+02,-1.049913420939976305e+00,0.000000000000000000e+00
8.360000000000000000e+02,-1.150769361216023245e+00,0.000000000000000000e+00
8.370000000000000000e+02,-8.392327816595522849e-01,0.000000000000000000e+00
8.380000000000000000e+02,-7.393647623725833062e-01,0.000000000000000000e+00
8.390000000000000000e+02,-5.538181405532111024e-01,0.000000000000000000e+00
8.400000000000000000e+02,-5.506715518570224344e-01,0.000000000000000000e+00
8.410000000000000000e+02,-3.734130556594568162e-01,0.000000000000000000e+00
8.420000000000000000e+02,-1.959447155313770450e-01,0.000000000000000000e+00
8.430000000000000000e+02,-3.050837212283428190e-01,0.000000000000000000e+00
8.440000000000000000e+02,-1.790463382807134241e-01,0.000000000000000000e+00
8.450000000000000000e+02,-2.275792247112807809e-01,0.000000000000000000e+00
8.460000000000000000e+02,-1.848634175483129527e-01,0.000000000000000000e+00
8.470000000000000000e+02,-4.267523335362675280e-02,0.000000000000000000e+00
8.480000000000000000e+02,-2.011892982894481208e-01,0.000000000000000000e+00
8.490000000000000000e+02,-4.592495860312837547e-02,0.000000000000000000e+00
8.500000000000000000e+02,3.765973576223691915e-02,0.000000000000000000e+00
8.510000000000000000e+02,1.222391479829788435e-01,0.000000000000000000e+00
8.520000000000000000e+02,5.288647169416563903e-02,0.000000000000000000e+00
8.530000000000000000e+02,2.305863914653771274e-01,0.000000000000000000e+00
8.540000000000000000e+02,-1.380105510806820257e-01,0.000000000000000000e+00
8.550000000000000000e+02,2.530661368580682247e-01,0.000000000000000000e+00
8.560000000000000000e+02,2.714532805088175071e-01,0.000000000000000000e+00
8.570000000000000000e+02,3.953928336501242313e-01,0.000000000000000000e+00
8.580000000000000000e+02,4.610209124163204275e-01,0.000000000000000000e+00
8.590000000000000000e+02,5.714583826118235788e-01,0.000000000000000000e+00
8.600000000000000000e+02,3.859581190966694386e-01,0.000000000000000000e+00
8.610000000000000000e+02,3.314835184871985085e-02,0.000000000000000000e+00
8.620000000000000000e+02,1.488560456638828300e-01,0.000000000000000000e+00
8.630000000000000000e+02,4.677079964201320134e-02,0.000000000000000000e+00
8.640000000000000000e+02,2.154431062410359643e-01,0.000000000000000000e+00
8.650000000000000000e+02,1.028788819713183367e-01,0.000000000000000000e+00
8.660000000000000000e+02,-3.365481925218662962e-01,0.000000000000000000e+00
8.670000000000000000e+02,4.044502224077434427e+00,0.000000000000000000e+00
8.680000000000000000e+02,4.407759383472245496e+00,0.000000000000000000e+00
8.690000000000000000e+02,-7.080460643305479529e-01,1.000000000000000000e+00
8.700000000000000000e+02,-3.759381320200789744e-01,0.000000000000000000e+00
8.710000000000000000e+02,-6.028633335078852351e-01,0.000000000000000000e+00
8.720000000000000000e+02,-5.516205972862949780e-01,0.000000000000000000e+00
8.730000000000000000e+02,-5.316548940854501915e-01,0.000000000000000000e+00
8.740000000000000000e+02,-3.061478381875099020e-01,0.000000000000000000e+00
8.750000000000000000e+02,-3.866671342547210455e-01,0.000000000000000000e+00
8.760000000000000000e+02,-5.771537500181892627e-02,0.000000000000000000e+00
8.770000000000000000e+02,-2.155459387105993288e-02,0.000000000000000000e+00
8.780000000000000000e+02,9.565126652137527496e-02,0.000000000000000000e+00
8.790000000000000000e+02,7.184477280531931243e-02,0.000000000000000000e+00
8.800000000000000000e+02,3.646163185135631868e-01,0.000000000000000000e+00
8.810000000000000000e+02,4.982354579572088049e-01,0.000000000000000000e+00
8.820000000000000000e+02,8.132397674348674776e-01,0.000000000000000000e+00
8.830000000000000000e+02,9.256688936845095528e-01,0.000000000000000000e+00
8.840000000000000000e+02,9.528049133394392856e-01,0.000000000000000000e+00
8.850000000000000000e+02,8.350199515300034125e-01,0.000000000000000000e+00
8.860000000000000000e+02,3.968189009535745826e-01,0.000000000000000000e+00
8.870000000000000000e+02,-3.690494683366075113e-01,0.000000000000000000e+00
8.880000000000000000e+02,-8.570364802301507767e-01,0.000000000000000000e+00
8.890000000000000000e+02,-1.404877276228768679e+00,0.000000000000000000e+00
8.900000000000000000e+02,-1.226053188319397247e+00,0.000000000000000000e+00
8.910000000000000000e+02,-1.291283217059000732e+00,0.000000000000000000e+00
8.920000000000000000e+02,-1.031954358673842442e+00,0.000000000000000000e+00
8.930000000000000000e+02,-1.108807281832083547e+00,0.000000000000000000e+00
8.940000000000000000e+02,-1.088782572011798733e+00,0.000000000000000000e+00
8.950000000000000000e+02,-6.963524045907070192e-01,0.000000000000000000e+00
8.960000000000000000e+02,-8.060125956907562284e-01,0.000000000000000000e+00
8.970000000000000000e+02,-3.824821401920583952e-01,0.000000000000000000e+00
8.980000000000000000e+02,-4.861105469241500110e-01,0.000000000000000000e+00
8.990000000000000000e+02,-2.483389371156730641e-01,0.000000000000000000e+00
9.000000000000000000e+02,-3.462366685412008871e-01,0.000000000000000000e+00
9.010000000000000000e+02,-2.319324355625313472e-01,0.000000000000000000e+00
9.020000000000000000e+02,-1.959457287006643178e-01,0.000000000000000000e+00
9.030000000000000000e+02,-1.625287477889779675e-01,0.000000000000000000e+00
9.040000000000000000e+02,7.358543367320460882e-04,0.000000000000000000e+00
9.050000000000000000e+02,-1.375385973883745949e-01,0.000000000000000000e+00
9.060000000000000000e+02,-6.676064811786844300e-02,0.000000000000000000e+00
9.070000000000000000e+02,-1.094650559567093423e-01,0.000000000000000000e+00
9.080000000000000000e+02,-2.285683040492886980e-02,0.000000000000000000e+00
9.090000000000000000e+02,5.468707847485843043e-02,0.000000000000000000e+00
9.100000000000000000e+02,7.985234878245849044e-02,0.000000000000000000e+00
9.110000000000000000e+02,2.746041995439484074e-02,0.000000000000000000e+00
9.120000000000000000e+02,2.307138941106572916e-01,0.000000000000000000e+00
9.130000000000000000e+02,1.120874572748806197e-01,0.000000000000000000e+00
9.140000000000000000e+02,1.507428037141579913e-01,0.000000000000000000e+00
9.150000000000000000e+02,3.383387046868773229e-01,0.000000000000000000e+00
9.160000000000000000e+02,-1.641513063677013315e-02,0.000000000000000000e+00
9.170000000000000000e+02,4.450191596567663610e-01,0.000000000000000000e+00
9.180000000000000000e+02,4.823304236688165103e-01,0.000000000000000000e+00
9.190000000000000000e+02,6.334904823935012530e-01,0.000000000000000000e+00
9.200000000000000000e+02,2.877621983093753277e-01,0.000000000000000000e+00
9.210000000000000000e+02,-6.142744554650114708e-02,0.000000000000000000e+00
9.220000000000000000e+02,1.546408108697335249e-01,0.000000000000000000e+00
9.230000000000000000e+02,-1.367957814717190579e-01,0.000000000000000000e+00
9.240000000000000000e+02,4.003853137201515144e-01,0.000000000000000000e+00
9.250000000000000000e+02,-6.515816682731381260e-01,0.000000000000000000e+00
9.260000000000000000e+02,1.098392268969760277e+00,0.000000000000000000e+00
9.270000000000000000e+02,5.766343384702134145e+00,0.000000000000000000e+00
9.280000000000000000e+02,1.764708823662204606e+00,1.000000000000000000e+00
9.290000000000000000e+02,-6.401779732518129151e-01,0.000000000000000000e+00
9.300000000000000000e+02,-6.967098768903151607e-01,0.000000000000000000e+00
9.310000000000000000e+02,-6.855744807870773894e-01,0.000000000000000000e+00
9.320000000000000000e+02,-5.895953592151963463e-01,0.000000000000000000e+00
9.330000000000000000e+02,-5.858165376578347017e-01,0.000000000000000000e+00
9.340000000000000000e+02,-4.640145810090089418e-01,0.000000000000000000e+00
9.350000000000000000e+02,-2.605018305732061945e-01,0.000000000000000000e+00
9.360000000000000000e+02,-2.722549124826545985e-01,0.000000000000000000e+00
9.370000000000000000e+02,-1.403003401276990136e-01,0.000000000000000000e+00
9.380000000000000000e+02,8.838271485074940259e-02,0.000000000000000000e+00
9.390000000000000000e+02,5.382699760837285352e-02,0.000000000000000000e+00
9.400000000000000000e+02,4.114520621144385215e-01,0.000000000000000000e+00
9.410000000000000000e+02,5.868160506757396089e-01,0.000000000000000000e+00
9.420000000000000000e+02,9.613855793070695821e-01,0.000000000000000000e+00
9.430000000000000000e+02,8.820983584196279148e-01,0.000000000000000000e+00
9.440000000000000000e+02,8.867508437457559678e-01,0.000000000000000000e+00
9.450000000000000000e+02,6.177511734508253083e-01,0.000000000000000000e+00
9.460000000000000000e+02,1.121265711619696820e-01,0.000000000000000000e+00
9.470000000000000000e+02,-6.487689746653030332e-01,0.000000000000000000e+00
9.480000000000000000e+02,-1.219951860152951761e+00,0.000000000000000000e+00
9.490000000000000000e+02,-1.457131372620201315e+00,0.000000000000000000e+00
9.500000000000000000e+02,-1.226810840546575410e+00,0.000000000000000000e+00
9.510000000000000000e+02,-1.200212173712507990e+00,0.000000000000000000e+00
9.520000000000000000e+02,-1.154205859382128052e+00,0.000000000000000000e+00
9.530000000000000000e+02,-9.903673714651403115e-01,0.000000000000000000e+00
9.540000000000000000e+02,-9.353165094763317144e-01,0.000000000000000000e+00
9.550000000000000000e+02,-7.325416284655935639e-01,0.000000000000000000e+00
9.560000000000000000e+02,-6.264461466057477113e-01,0.000000000000000000e+00
9.570000000000000000e+02,-5.632080806599277789e-01,0.000000000000000000e+00
9.580000000000000000e+02,-4.461167776487752201e-01,0.000000000000000000e+00
9.590000000000000000e+02,-2.935546086957606104e-01,0.000000000000000000e+00
9.600000000000000000e+02,-1.918213736501392097e-01,0.000000000000000000e+00
9.610000000000000000e+02,-1.711456433733632154e-01,0.000000000000000000e+00
9.620000000000000000e+02,-2.136285238494541050e-01,0.000000000000000000e+00
9.630000000000000000e+02,-9.122703363512850439e-02,0.000000000000000000e+00
9.640000000000000000e+02,-4.130685989887588477e-02,0.000000000000000000e+00
9.650000000000000000e+02,5.869716349358101298e-02,0.000000000000000000e+00
9.660000000000000000e+02,-4.806009694421239237e-03,0.000000000000000000e+00
9.670000000000000000e+02,-2.543696409059312616e-02,0.000000000000000000e+00
9.680000000000000000e+02,6.880225463480801884e-02,0.000000000000000000e+00
9.690000000000000000e+02,2.298653387802934711e-01,0.000000000000000000e+00
9.700000000000000000e+02,2.512839102458449547e-01,0.000000000000000000e+00
9.710000000000000000e+02,1.568810782566594508e-02,0.000000000000000000e+00
9.720000000000000000e+02,2.853854864258635327e-01,0.000000000000000000e+00
9.730000000000000000e+02,7.663428358338131643e-03,0.000000000000000000e+00
9.740000000000000000e+02,3.568611021948397410e-01,0.000000000000000000e+00
9.750000000000000000e+02,5.048808118975744996e-01,0.000000000000000000e+00
9.760000000000000000e+02,2.507556150187554844e-01,0.000000000000000000e+00
9.770000000000000000e+02,4.782319985232578174e-01,0.000000000000000000e+00
9.780000000000000000e+02,6.083106461863404535e-01,0.000000000000000000e+00
9.790000000000000000e+02,4.522230821498534614e-01,0.000000000000000000e+00
9.800000000000000000e+02,3.435484157980656095e-01,0.000000000000000000e+00
9.810000000000000000e+02,9.317392564306798200e-03,0.000000000000000000e+00
9.820000000000000000e+02,2.889487925677611813e-01,0.000000000000000000e+00
9.830000000000000000e+02,2.639375532572022509e-01,0.000000000000000000e+00
9.840000000000000000e+02,9.782136151207429520e-02,0.000000000000000000e+00
9.850000000000000000e+02,-3.927314607409492231e-01,0.000000000000000000e+00
9.860000000000000000e+02,9.008359803856665904e-01,0.000000000000000000e+00
9.870000000000000000e+02,6.084086956772452481e+00,0.000000000000000000e+00
9.880000000000000000e+02,1.985135177564052666e+00,1.000000000000000000e+00
9.890000000000000000e+02,-6.650970724056107786e-01,0.000000000000000000e+00
9.900000000000000000e+02,-5.068031123179402853e-01,0.000000000000000000e+00
9.910000000000000000e+02,-6.311387612131622582e-01,0.000000000000000000e+00
9.920000000000000000e+02,-7.943526206716409188e-01,0.000000000000000000e+00
9.930000000000000000e+02,-5.029371664132887831e-01,0.000000000000000000e+00
9.940000000000000000e+02,-3.803427349504823196e-01,0.000000000000000000e+00
9.950000000000000000e+02,-3.479568625477847954e-01,0.000000000000000000e+00
9.960000000000000000e+02,-2.511815502598324645e-01,0.000000000000000000e+00
9.970000000000000000e+02,-1.530645942326826214e-01,0.000000000000000000e+00
9.980000000000000000e+02,2.153674342205098152e-02,0.000000000000000000e+00
9.990000000000000000e+02,1.284782673223433536e-01,0.000000000000000000e+00
1.000000000000000000e+03,2.979971242699597234e-01,0.000000000000000000e+00
1.001000000000000000e+03,5.470698210800829520e-01,0.000000000000000000e+00
1.002000000000000000e+03,9.917253805180769044e-01,0.000000000000000000e+00
1.003000000000000000e+03,8.974521498727832114e-01,0.000000000000000000e+00
1.004000000000000000e+03,8.659685727289955226e-01,0.000000000000000000e+00
1.005000000000000000e+03,5.274381972451782641e-01,0.000000000000000000e+00
1.006000000000000000e+03,9.120464388975633996e-02,0.000000000000000000e+00
1.007000000000000000e+03,-8.424133171312909729e-01,0.000000000000000000e+00
1.008000000000000000e+03,-1.072088793183447297e+00,0.000000000000000000e+00
1.009000000000000000e+03,-1.423402826767842910e+00,0.000000000000000000e+00
1.010000000000000000e+03,-1.301337760083639550e+00,0.000000000000000000e+00
1.011000000000000000e+03,-1.413396883137743032e+00,0.000000000000000000e+00
1.012000000000000000e+03,-1.158042152122900514e+00,0.000000000000000000e+00
1.013000000000000000e+03,-1.119572401498342362e+00,0.000000000000000000e+00
1.014000000000000000e+03,-8.400888707543094913e-01,0.000000000000000000e+00
1.015000000000000000e+03,-7.788716743637241757e-01,0.000000000000000000e+00
1.016000000000000000e+03,-7.653937238927941422e-01,0.000000000000000000e+00
1.017000000000000000e+03,-6.071053086766258211e-01,0.000000000000000000e+00
1.018000000000000000e+03,-4.600589054460765270e-01,0.000000000000000000e+00
1.019000000000000000e+03,-3.581059426660615497e-01,0.000000000000000000e+00
1.020000000000000000e+03,-1.918337822228400047e-01,0.000000000000000000e+00
1.021000000000000000e+03,-1.537311187019052838e-01,0.000000000000000000e+00
1.022000000000000000e+03,-3.790929704215827423e-01,0.000000000000000000e+00
1.023000000000000000e+03,-1.751718781495107402e-01,0.000000000000000000e+00
1.024000000000000000e+03,8.523739637068551700e-02,0.000000000000000000e+00
1.025000000000000000e+03,-1.174515347951553962e-01,0.000000000000000000e+00
1.026000000000000000e+03,-1.935932255151026904e-01,0.000000000000000000e+00
1.027000000000000000e+03,8.461393067294327441e-03,0.000000000000000000e+00
1.028000000000000000e+03,1.796170586469970631e-01,0.000000000000000000e+00
1.029000000000000000e+03,9.164797786950273917e-02,0.000000000000000000e+00
1.030000000000000000e+03,3.077270308112576291e-01,0.000000000000000000e+00
1.031000000000000000e+03,-3.316601700533639095e-03,0.000000000000000000e+00
1.032000000000000000e+03,2.124312587935828223e-01,0.000000000000000000e+00
1.033000000000000000e+03,2.219725990039009278e-01,0.000000000000000000e+00
1.034000000000000000e+03,2.967892910162709952e-01,0.000000000000000000e+00
1.035000000000000000e+03,3.995791948270568938e-01,0.000000000000000000e+00
1.036000000000000000e+03,6.208313659494256731e-01,0.000000000000000000e+00
1.037000000000000000e+03,4.565516160009610580e-01,0.000000000000000000e+00
1.038000000000000000e+03,2.639003894535746908e-01,0.000000000000000000e+00
1.039000000000000000e+03,-4.895308573585703538e-02,0.000000000000000000e+00
1.040000000000000000e+03,2.199065115405143822e-01,0.000000000000000000e+00
1.041000000000000000e+03,8.317723125170686793e-02,0.000000000000000000e+00
1.042000000000000000e+03,1.124069465972538651e-01,0.000000000000000000e+00
1.043000000000000000e+03,-3.246750288695777753e-01,0.000000000000000000e+00
1.044000000000000000e+03,3.962467371114567705e+00,0.000000000000000000e+00
1.045000000000000000e+03,4.302201942936446422e+00,0.000000000000000000e+00
1.046000000000000000e+03,-8.898016963289342440e-01,1.000000000000000000e+00
1.047000000000000000e+03,-7.037994506744741363e-01,0.000000000000000000e+00
1.048000000000000000e+03,-5.153744661452905884e-01,0.000000000000000000e+00
1.049000000000000000e+03,-3.031282609939306427e-01,0.000000000000000000e+00
1.050000000000000000e+03,-5.114959625576305235e-01,0.000000000000000000e+00
1.051000000000000000e+03,-2.844695598627949296e-01,0.000000000000000000e+00
1.052000000000000000e+03,-3.532553040275205891e-01,0.000000000000000000e+00
1.053000000000000000e+03,-1.078070921447748937e-01,0.000000000000000000e+00
1.054000000000000000e+03,-5.951416528041912624e-02,0.000000000000000000e+00
1.055000000000000000e+03,4.160399071193759957e-02,0.000000000000000000e+00
1.056000000000000000e+03,6.966786553265508219e-02,0.000000000000000000e+00
1.057000000000000000e+03,4.700799276869147558e-01,0.000000000000000000e+00
1.058000000000000000e+03,5.586817981057363713e-01,0.000000000000000000e+00
1.059000000000000000e+03,7.391713784914105689e-01,0.000000000000000000e+00
1.060000000000000000e+03,1.064576802961446189e+00,0.000000000000000000e+00
1.061000000000000000e+03,7.797792183871210536e-01,0.000000000000000000e+00
1.062000000000000000e+03,7.622703187834980465e-01,0.000000000000000000e+00
1.063000000000000000e+03,2.270310438102723649e-01,0.000000000000000000e+00
1.064000000000000000e+03,-3.259630440334636003e-01,0.000000000000000000e+00
1.065000000000000000e+03,-8.344208775321161342e-01,0.000000000000000000e+00
1.066000000000000000e+03,-1.163157277206497087e+00,0.000000000000000000e+00
1.067000000000000000e+03,-1.418277676653443287e+00,0.000000000000000000e+00
1.068000000000000000e+03,-1.260562237257577101e+00,0.000000000000000000e+00
1.069000000000000000e+03,-1.115671915377318468e+00,0.000000000000000000e+00
1.070000000000000000e+03,-9.349588542236176858e-01,0.000000000000000000e+00
1.071000000000000000e+03,-8.556074299714891973e-01,0.000000000000000000e+00
1.072000000000000000e+03,-8.826737415269005904e-01,0.000000000000000000e+00
1.073000000000000000e+03,-5.500985958540201004e-01,0.000000000000000000e+00
1.074000000000000000e+03,-4.583474014353633996e-01,0.000000000000000000e+00
1.075000000000000000e+03,-5.038406991576070970e-01,0.000000000000000000e+00
1.076000000000000000e+03,-2.677992120113477023e-02,0.000000000000000000e+00
1.077000000000000000e+03,-1.837147783307581939e-01,0.000000000000000000e+00
1.078000000000000000e+03,-1.695492402555472400e-01,0.000000000000000000e+00
1.079000000000000000e+03,-1.307468669236327152e-01,0.000000000000000000e+00
1.080000000000000000e+03,-2.006101481036942358e-01,0.000000000000000000e+00
1.081000000000000000e+03,-4.880958391706718275e-02,0.000000000000000000e+00
1.082000000000000000e+03,-1.076488147746924445e-01,0.000000000000000000e+00
1.083000000000000000e+03,6.383385384707625232e-02,0.000000000000000000e+00
1.084000000000000000e+03,-1.405286900380693649e-01,0.000000000000000000e+00
1.085000000000000000e+03,-9.052072213073444895e-02,0.000000000000000000e+00
1.086000000000000000e+03,2.156551275272989079e-02,0.000000000000000000e+00
1.087000000000000000e+03,3.577516838072965916e-02,0.000000000000000000e+00
1.088000000000000000e+03,4.856745405139963750e-02,0.000000000000000000e+00
1.089000000000000000e+03,1.644884423489923475e-01,0.000000000000000000e+00
1.090000000000000000e+03,1.599693698073163250e-01,0.000000000000000000e+00
1.091000000000000000e+03,2.978569446027681256e-01,0.000000000000000000e+00
1.092000000000000000e+03,3.575612073795677581e-01,0.000000000000000000e+00
1.093000000000000000e+03,5.482176637614232240e-01,0.000000000000000000e+00
1.094000000000000000e+03,3.555127760027385064e-01,0.000000000000000000e+00
1.095000000000000000e+03,1.426819554789715283e-01,0.000000000000000000e+00
1.096000000000000000e+03,1.797407265273759658e-01,0.000000000000000000e+00
1.097000000000000000e+03,2.661965544157519625e-01,0.000000000000000000e+00
1.098000000000000000e+03,-1.776778283245775830e-02,0.000000000000000000e+00
1.099000000000000000e+03,2.890147614875830384e-01,0.000000000000000000e+00
1.100000000000000000e+03,-4.321422613731890627e-01,0.000000000000000000e+00
1.101000000000000000e+03,4.484572053798427049e+00,0.000000000000000000e+00
1.102000000000000000e+03,4.402809954616489385e+00,0.000000000000000000e+00
1.103000000000000000e+03,-4.964190048018505275e-01,1.000000000000000000e+00
1.104000000000000000e+03,-3.856920459675167168e-01,0.000000000000000000e+00
1.105000000000000000e+03,-8.477400024499303077e-01,0.000000000000000000e+00
1.106000000000000000e+03,-5.196003077113811042e-01,0.000000000000000000e+00
1.107000000000000000e+03,-3.644169097576165361e-01,0.000000000000000000e+00
1.108000000000000000e+03,-3.134026184329913312e-01,0.000000000000000000e+00
1.109000000000000000e+03,-3.225755177808969365e-01,0.000000000000000000e+00
1.110000000000000000e+03,-5.823389233773775681e-02,0.000000000000000000e+00
1.111000000000000000e+03,-1.950019830004643406e-01,0.000000000000000000e+00
1.112000000000000000e+03,1.726349567750297131e-01,0.000000000000000000e+00
1.113000000000000000e+03,1.133496650042368908e-01,0.000000000000000000e+00
1.114000000000000000e+03,3.052349576282947230e-01,0.000000000000000000e+00
1.115000000000000000e+03,5.511510732091010611e-01,0.000000000000000000e+00
1.116000000000000000e+03,8.591916291940355777e-01,0.000000000000000000e+00
1.117000000000000000e+03,8.976461981366524734e-01,0.000000000000000000e+00
1.118000000000000000e+03,9.772711841112865505e-01,0.000000000000000000e+00
1.119000000000000000e+03,8.957160388503768722e-01,0.000000000000000000e+00
1.120000000000000000e+03,3.387926388355632645e-01,0.000000000000000000e+00
1.121000000000000000e+03,-3.265425175359624177e-01,0.000000000000000000e+00
1.122000000000000000e+03,-1.130239701722317358e+00,0.000000000000000000e+00
1.123000000000000000e+03,-1.314121851900039051e+00,0.000000000000000000e+00
1.124000000000000000e+03,-1.171509903729673452e+00,0.000000000000000000e+00
1.125000000000000000e+03,-1.463000768899306525e+00,0.000000000000000000e+00
1.126000000000000000e+03,-9.422126635178187382e-01,0.000000000000000000e+00
1.127000000000000000e+03,-1.160772224679357256e+00,0.000000000000000000e+00
1.128000000000000000e+03,-9.211901651574556649e-01,0.000000000000000000e+00
1.129000000000000000e+03,-8.808527225165850849e-01,0.000000000000000000e+00
1.130000000000000000e+03,-8.024552620477510834e-01,0.000000000000000000e+00
1.131000000000000000e+03,-6.686499693753729101e-01,0.000000000000000000e+00
1.132000000000000000e+03,-5.547782462375367984e-01,0.000000000000000000e+00
1.133000000000000000e+03,-5.024234720079232552e-01,0.000000000000000000e+00
1.134000000000000000e+03,-3.218503459297360481e-01,0.000000000000000000e+00
1.135000000000000000e+03,-4.894788024109740232e-01,0.000000000000000000e+00
1.136000000000000000e+03,-1.009096028996377542e-01,0.000000000000000000e+00
1.137000000000000000e+03,-2.376584572266733641e-01,0.000000000000000000e+00
1.138000000000000000e+03,-1.098473085705995722e-01,0.000000000000000000e+00
1.139000000000000000e+03,-2.080991535200414355e-01,0.000000000000000000e+00
1.140000000000000000e+03,-1.797850874506130847e-01,0.000000000000000000e+00
1.141000000000000000e+03,6.726074430507699223e-03,0.000000000000000000e+00
1.142000000000000000e+03,-3.501604081457775075e-02,0.000000000000000000e+00
1.143000000000000000e+03,6.315005965249308184e-02,0.000000000000000000e+00
1.144000000000000000e+03,6.692382901632294712e-02,0.000000000000000000e+00
1.145000000000000000e+03,1.187579375738541804e-01,0.000000000000000000e+00
1.146000000000000000e+03,2.485699827188203037e-01,0.000000000000000000e+00
1.147000000000000000e+03,1.449038491532336770e-01,0.000000000000000000e+00
1.148000000000000000e+03,3.230506981352203044e-01,0.000000000000000000e+00
1.149000000000000000e+03,2.367186868881180350e-01,0.000000000000000000e+00
1.150000000000000000e+03,3.401462117566382282e-01,0.000000000000000000e+00
1.151000000000000000e+03,5.698893883755243861e-01,0.000000000000000000e+00
1.152000000000000000e+03,6.551348777493187781e-01,0.000000000000000000e+00
1.153000000000000000e+03,3.161273867504409973e-01,0.000000000000000000e+00
1.154000000000000000e+03,2.441140997412263869e-01,0.000000000000000000e+00
1.155000000000000000e+03,1.025832085804708194e-01,0.000000000000000000e+00
1.156000000000000000e+03,1.191678286738760556e-01,0.000000000000000000e+00
1.157000000000000000e+03,1.942402132727923669e-01,0.000000000000000000e+00
1.158000000000000000e+03,-8.914384708902993448e-02,0.000000000000000000e+00
1.159000000000000000e+03,1.110707956397225249e-01,0.000000000000000000e+00
1.160000000000000000e+03,5.460279525288198599e+00,0.000000000000000000e+00
1.161000000000000000e+03,3.247480470643681283e+00,1.000000000000000000e+00
1.162000000000000000e+03,-8.384747962064684756e-01,0.000000000000000000e+00
1.163000000000000000e+03,-4.148022615678887415e-01,0.000000000000000000e+00
1.164000000000000000e+03,-8.854393266949259766e-01,0.000000000000000000e+00
1.165000000000000000e+03,-3.165243557731008406e-01,0.000000000000000000e+00
1.166000000000000000e+03,-6.047309955539179605e-01,0.000000000000000000e+00
1.167000000000000000e+03,-2.965609755203930109e-01,0.000000000000000000e+00
1.168000000000000000e+03,-5.105221508570302325e-01,0.000000000000000000e+00
1.169000000000000000e+03,-1.253565196832723549e-01,0.000000000000000000e+00
1.170000000000000000e+03,-2.517487156870696907e-01,0.000000000000000000e+00
1.171000000000000000e+03,8.325977555475523595e-02,0.000000000000000000e+00
1.172000000000000000e+03,3.688041901558509333e-02,0.000000000000000000e+00
1.173000000000000000e+03,4.887877098753026228e-01,0.000000000000000000e+00
1.174000000000000000e+03,4.172466644445825268e-01,0.000000000000000000e+00
1.175000000000000000e+03,9.053418975699101257e-01,0.000000000000000000e+00
1.176000000000000000e+03,7.030435657144327166e-01,0.000000000000000000e+00
1.177000000000000000e+03,9.681509524992202298e-01,0.000000000000000000e+00
1.178000000000000000e+03,5.884833395264443823e-01,0.000000000000000000e+00
1.179000000000000000e+03,1.496773220496268875e-01,0.000000000000000000e+00
1.180000000000000000e+03,-4.459093294611717329e-01,0.000000000000000000e+00
1.181000000000000000e+03,-1.164454900659999126e+00,0.000000000000000000e+00
1.182000000000000000e+03,-1.454445531470401010e+00,0.000000000000000000e+00
1.183000000000000000e+03,-1.441773385317199452e+00,0.000000000000000000e+00
1.184000000000000000e+03,-1.451280110761096198e+00,0.000000000000000000e+00
1.185000000000000000e+03,-1.318668768854420970e+00,0.000000000000000000e+00
1.186000000000000000e+03,-9.031107003966962754e-01,0.000000000000000000e+00
1.187000000000000000e+03,-9.702933276477975211e-01,0.000000000000000000e+00
1.188000000000000000e+03,-8.270161035943217609e-01,0.000000000000000000e+00
1.189000000000000000e+03,-9.536291274905985826e-01,0.000000000000000000e+00
1.190000000000000000e+03,-5.682589399640074479e-01,0.000000000000000000e+00
1.191000000000000000e+03,-3.505788415961983429e-01,0.000000000000000000e+00
1.192000000000000000e+03,-3.327998128076544715e-01,0.000000000000000000e+00
1.193000000000000000e+03,-1.923881932258159899e-01,0.000000000000000000e+00
1.194000000000000000e+03,-3.030748851332609739e-01,0.000000000000000000e+00
1.195000000000000000e+03,-1.887861123702308519e-01,0.000000000000000000e+00
1.196000000000000000e+03,-1.211364064211441771e-01,0.000000000000000000e+00
1.197000000000000000e+03,2.662149147838878665e-03,0.000000000000000000e+00
1.198000000000000000e+03,-1.098792373903559744e-01,0.000000000000000000e+00
1.199000000000000000e+03,4.105952267895449266e-03,0.000000000000000000e+00
1.200000000000000000e+03,-5.819917780444579594e-03,0.000000000000000000e+00
1.201000000000000000e+03,2.256449043471999219e-02,0.000000000000000000e+00
1.202000000000000000e+03,1.074901669579930025e-01,0.000000000000000000e+00
1.203000000000000000e+03,2.520348266012015781e-01,0.000000000000000000e+00
1.204000000000000000e+03,1.915069627968754226e-02,0.000000000000000000e+00
1.205000000000000000e+03,3.295496558077987692e-01,0.000000000000000000e+00
1.206000000000000000e+03,1.930961027575764655e-01,0.000000000000000000e+00
1.207000000000000000e+03,1.751098737512140069e-01,0.000000000000000000e+00
1.208000000000000000e+03,4.641246580928211629e-01,0.000000000000000000e+00
1.209000000000000000e+03,4.020105444970743513e-01,0.000000000000000000e+00
1.210000000000000000e+03,4.208309411689212798e-01,0.000000000000000000e+00
1.211000000000000000e+03,6.707156385108269392e-01,0.000000000000000000e+00
1.212000000000000000e+03,3.376573275183672451e-01,0.000000000000000000e+00
1.213000000000000000e+03,2.400185759937553398e-01,0.000000000000000000e+00
1.214000000000000000e+03,1.602695371300821570e-01,0.000000000000000000e+00
1.215000000000000000e+03,-1.967285977942005194e-03,0.000000000000000000e+00
1.216000000000000000e+03,1.595179016935534266e-01,0.000000000000000000e+00
1.217000000000000000e+03,-1.928981751874485895e-01,0.000000000000000000e+00
1.218000000000000000e+03,3.443204664620378996e-01,0.000000000000000000e+00
1.219000000000000000e+03,5.702313353392842288e+00,0.000000000000000000e+00
1.220000000000000000e+03,2.986447036029631796e+00,1.000000000000000000e+00
1.221000000000000000e+03,-1.090603958180562216e+00,0.000000000000000000e+00
1.222000000000000000e+03,-5.121408061736903994e-01,0.000000000000000000e+00
1.223000000000000000e+03,-7.966890687634687884e-01,0.000000000000000000e+00
1.224000000000000000e+03,-4.285761304899793900e-01,0.000000000000000000e+00
1.225000000000000000e+03,-6.074175791881440967e-01,0.000000000000000000e+00
1.226000000000000000e+03,-3.548744422890352523e-01,0.000000000000000000e+00
1.227000000000000000e+03,-4.527525268475046660e-01,0.000000000000000000e+00
1.228000000000000000e+03,6.244685938841667422e-02,0.000000000000000000e+00
1.229000000000000000e+03,-2.084483476858602913e-01,0.000000000000000000e+00
1.230000000000000000e+03,8.022219276263271859e-02,0.000000000000000000e+00
1.231000000000000000e+03,9.522034143219411384e-02,0.000000000000000000e+00
1.232000000000000000e+03,2.764941965761941733e-01,0.000000000000000000e+00
1.233000000000000000e+03,6.446638764671103194e-01,0.000000000000000000e+00
1.234000000000000000e+03,8.946266437197639698e-01,0.000000000000000000e+00
1.235000000000000000e+03,9.151938273348229069e-01,0.000000000000000000e+00
1.236000000000000000e+03,9.362013162490947504e-01,0.000000000000000000e+00
1.237000000000000000e+03,5.452321265157771268e-01,0.000000000000000000e+00
1.238000000000000000e+03,2.586682870305292425e-01,0.000000000000000000e+00
1.239000000000000000e+03,-6.860909544368465340e-01,0.000000000000000000e+00
1.240000000000000000e+03,-1.084037345568451549e+00,0.000000000000000000e+00
1.241000000000000000e+03,-1.309777985592750049e+00,0.000000000000000000e+00
1.242000000000000000e+03,-1.434271158778881228e+00,0.000000000000000000e+00
1.243000000000000000e+03,-1.248158487693741936e+00,0.000000000000000000e+00
1.244000000000000000e+03,-1.229532225117801580e+00,0.000000000000000000e+00
1.245000000000000000e+03,-1.031808131435092424e+00,0.000000000000000000e+00
1.246000000000000000e+03,-9.344808745851557186e-01,0.000000000000000000e+00
1.247000000000000000e+03,-7.852044006180766145e-01,0.000000000000000000e+00
1.248000000000000000e+03,-6.483587135529833567e-01,0.000000000000000000e+00
1.249000000000000000e+03,-5.858243772366116264e-01,0.000000000000000000e+00
1.250000000000000000e+03,-4.435916645078369913e-01,0.000000000000000000e+00
1.251000000000000000e+03,-3.115316838374662667e-01,0.000000000000000000e+00
1.252000000000000000e+03,-3.524070039126125375e-01,0.000000000000000000e+00
1.253000000000000000e+03,-1.317647717461457868e-01,0.000000000000000000e+00
1.254000000000000000e+03,-2.894130860058574117e-01,0.000000000000000000e+00
1.255000000000000000e+03,-1.987766095749946837e-01,0.000000000000000000e+00
1.256000000000000000e+03,-1.807584298283009261e-01,0.000000000000000000e+00
1.257000000000000000e+03,-7.744248358729785564e-02,0.000000000000000000e+00
1.258000000000000000e+03,-1.685333753825467296e-01,0.000000000000000000e+00
1.259000000000000000e+03,1.217117626244852424e-01,0.000000000000000000e+00
1.260000000000000000e+03,-7.571148086654752585e-02,0.000000000000000000e+00
1.261000000000000000e+03,1.368253823268290315e-01,0.000000000000000000e+00
1.262000000000000000e+03,1.335984546222858116e-01,0.000000000000000000e+00
1.263000000000000000e+03,-2.018877004843512915e-02,0.000000000000000000e+00
1.264000000000000000e+03,4.306869022588884488e-01,0.000000000000000000e+00
1.265000000000000000e+03,1.769463018057202408e-01,0.000000000000000000e+00
1.266000000000000000e+03,3.577339438256815218e-01,0.000000000000000000e+00
1.267000000000000000e+03,5.049177026701425763e-01,0.000000000000000000e+00
1.268000000000000000e+03,4.978918610325041572e-01,0.000000000000000000e+00
1.269000000000000000e+03,3.410314638980971869e-01,0.000000000000000000e+00
1.270000000000000000e+03,-6.828848186478622684e-03,0.000000000000000000e+00
1.271000000000000000e+03,2.032518948478501120e-01,0.000000000000000000e+00
1.272000000000000000e+03,1.088827479025765849e-01,0.000000000000000000e+00
1.273000000000000000e+03,3.346591541877063092e-01,0.000000000000000000e+00
1.274000000000000000e+03,-5.796675732156811867e-01,0.000000000000000000e+00
1.275000000000000000e+03,2.593148570611482739e+00,0.000000000000000000e+00
1.276000000000000000e+03,5.407963914293461016e+00,0.000000000000000000e+00
1.277000000000000000e+03,1.340823089049228145e-01,1.000000000000000000e+00
1.278000000000000000e+03,-5.942738887258099956e-01,0.000000000000000000e+00
1.279000000000000000e+03,-4.664138775126810965e-01,0.000000000000000000e+00
1.280000000000000000e+03,-4.966246670673554742e-01,0.000000000000000000e+00
1.281000000000000000e+03,-3.641487128688684627e-01,0.000000000000000000e+00
1.282000000000000000e+03,-3.359225387508329441e-01,0.000000000000000000e+00
1.283000000000000000e+03,-2.432395307291454478e-01,0.000000000000000000e+00
1.284000000000000000e+03,-1.578453759968477810e-01,0.000000000000000000e+00
1.285000000000000000e+03,-9.566397105510002219e-02,0.000000000000000000e+00
1.286000000000000000e+03,1.887083753356582905e-01,0.000000000000000000e+00
1.287000000000000000e+03,1.917217656550359306e-01,0.000000000000000000e+00
1.288000000000000000e+03,3.551813269563981468e-01,0.000000000000000000e+00
1.289000000000000000e+03,6.676654770962459073e-01,0.000000000000000000e+00
1.290000000000000000e+03,7.192004551581230309e-01,0.000000000000000000e+00
1.291000000000000000e+03,9.230240666764837343e-01,0.000000000000000000e+00
1.292000000000000000e+03,9.393293315662578635e-01,0.000000000000000000e+00
1.293000000000000000e+03,9.068830756196495368e-01,0.000000000000000000e+00
1.294000000000000000e+03,6.200904269418389125e-01,0.000000000000000000e+00
1.295000000000000000e+03,-6.499373676349642914e-02,0.000000000000000000e+00
1.296000000000000000e+03,-8.830070156334887121e-01,0.000000000000000000e+00
1.297000000000000000e+03,-1.152204388610664543e+00,0.000000000000000000e+00
1.298000000000000000e+03,-1.136510902934296130e+00,0.000000000000000000e+00
1.299000000000000000e+03,-1.310676551533882295e+00,0.000000000000000000e+00
1.300000000000000000e+03,-1.026190285133086633e+00,0.000000000000000000e+00
1.301000000000000000e+03,-1.002417847779384585e+00,0.000000000000000000e+00
1.302000000000000000e+03,-1.105132659546985918e+00,0.000000000000000000e+00
1.303000000000000000e+03,-6.698243128802365831e-01,0.000000000000000000e+00
1.304000000000000000e+03,-6.579683432922067698e-01,0.000000000000000000e+00
1.305000000000000000e+03,-5.694794558294493658e-01,0.000000000000000000e+00
1.306000000000000000e+03,-3.022871395002806882e-01,0.000000000000000000e+00
1.307000000000000000e+03,-1.967331068215682210e-01,0.000000000000000000e+00
1.308000000000000000e+03,-2.607303361068428749e-01,0.000000000000000000e+00
1.309000000000000000e+03,-9.903656108424020721e-02,0.000000000000000000e+00
1.310000000000000000e+03,-2.822783239265381772e-01,0.000000000000000000e+00
1.311000000000000000e+03,-1.224735459991748154e-01,0.000000000000000000e+00
1.312000000000000000e+03,-2.640711546170171689e-02,0.000000000000000000e+00
1.313000000000000000e+03,-1.321274527437591439e-01,0.000000000000000000e+00
1.314000000000000000e+03,4.414113247416225419e-03,0.000000000000000000e+00
1.315000000000000000e+03,3.219321422011196115e-02,0.000000000000000000e+00
1.316000000000000000e+03,-2.200472862494282089e-01,0.000000000000000000e+00
1.317000000000000000e+03,2.196130703115565797e-01,0.000000000000000000e+00
1.318000000000000000e+03,-6.127320051904902587e-02,0.000000000000000000e+00
1.319000000000000000e+03,2.479038242955590443e-01,0.000000000000000000e+00
1.320000000000000000e+03,-5.753103080865268337e-02,0.000000000000000000e+00
1.321000000000000000e+03,3.184472696260861047e-01,0.000000000000000000e+00
1.322000000000000000e+03,1.731112010149668534e-01,0.000000000000000000e+00
1.323000000000000000e+03,3.120131853309041081e-01,0.000000000000000000e+00
1.324000000000000000e+03,2.928652800404917267e-01,0.000000000000000000e+00
1.325000000000000000e+03,4.666849082574576202e-01,0.000000000000000000e+00
1.326000000000000000e+03,4.584472078195230837e-01,0.000000000000000000e+00
1.327000000000000000e+03,1.971328675379837858e-01,0.000000000000000000e+00
1.328000000000000000e+03,4.454187455589522782e-02,0.000000000000000000e+00
1.329000000000000000e+03,1.132572845253275173e-01,0.000000000000000000e+00
1.330000000000000000e+03,2.092516948426372328e-02,0.000000000000000000e+00
1.331000000000000000e+03,5.544222621828619885e-02,0.000000000000000000e+00
1.332000000000000000e+03,-6.190468532028674531e-01,0.000000000000000000e+00
1.333000000000000000e+03,3.653368296740507226e+00,0.000000000000000000e+00
1.334000000000000000e+03,4.897276302386365465e+00,0.000000000000000000e+00
1.335000000000000000e+03,-1.615478110407824741e-01,1.000000000000000000e+00
1.336000000000000000e+03,-5.650163994687560365e-01,0.000000000000000000e+00
1.337000000000000000e+03,-9.052002526432216811e-01,0.000000000000000000e+00
1.338000000000000000e+03,-5.743339556286333192e-01,0.000000000000000000e+00
1.339000000000000000e+03,-5.658006493338543219e-01,0.000000000000000000e+00
1.340000000000000000e+03,-4.508209287873981008e-01,0.000000000000000000e+00
1.341000000000000000e+03,-3.476638933321953284e-01,0.000000000000000000e+00
1.342000000000000000e+03,-3.916416833084437887e-01,0.000000000000000000e+00
1.343000000000000000e+03,-1.856732792968425194e-01,0.000000000000000000e+00
1.344000000000000000e+03,-2.990950385465529840e-02,0.000000000000000000e+00
1.345000000000000000e+03,-2.583049993062212432e-02,0.000000000000000000e+00
1.346000000000000000e+03,1.968127086728655717e-01,0.000000000000000000e+00
1.347000000000000000e+03,3.293573666191026428e-01,0.000000000000000000e+00
1.348000000000000000e+03,8.128407306923534081e-01,0.000000000000000000e+00
1.349000000000000000e+03,8.489242094395760274e-01,0.000000000000000000e+00
1.350000000000000000e+03,1.025371222759580148e+00,0.000000000000000000e+00
1.351000000000000000e+03,6.529348679187434445e-01,0.000000000000000000e+00
1.352000000000000000e+03,4.279745494174229115e-01,0.000000000000000000e+00
1.353000000000000000e+03,-5.402844889985840560e-01,0.000000000000000000e+00
1.354000000000000000e+03,-8.418115786485302898e-01,0.000000000000000000e+00
1.355000000000000000e+03,-1.399957488041927878e+00,0.000000000000000000e+00
1.356000000000000000e+03,-1.297868162643615486e+00,0.000000000000000000e+00
1.357000000000000000e+03,-1.284465470799770026e+00,0.000000000000000000e+00
1.358000000000000000e+03,-1.314939924966273210e+00,0.000000000000000000e+00
1.359000000000000000e+03,-1.200979299666099065e+00,0.000000000000000000e+00
1.360000000000000000e+03,-8.335286101812015014e-01,0.000000000000000000e+00
1.361000000000000000e+03,-9.273652846557086660e-01,0.000000000000000000e+00
1.362000000000000000e+03,-6.940080274393606308e-01,0.000000000000000000e+00
1.363000000000000000e+03,-7.255401607526007490e-01,0.000000000000000000e+00
1.364000000000000000e+03,-5.647551300283226716e-01,0.000000000000000000e+00
1.365000000000000000e+03,-4.557646527240035161e-01,0.000000000000000000e+00
1.366000000000000000e+03,-2.301621576502284050e-01,0.000000000000000000e+00
1.367000000000000000e+03,-3.580484105079804746e-01,0.000000000000000000e+00
1.368000000000000000e+03,-1.171083530930885075e-01,0.000000000000000000e+00
1.369000000000000000e+03,-1.486160212863176233e-01,0.000000000000000000e+00
1.370000000000000000e+03,-1.603599353144187500e-01,0.000000000000000000e+00
1.371000000000000000e+03,-1.176864052648867176e-01,0.000000000000000000e+00
1.372000000000000000e+03,-7.905245361801188642e-02,0.000000000000000000e+00
1.373000000000000000e+03,5.898667865369876945e-02,0.000000000000000000e+00
1.374000000000000000e+03,7.865563179461809717e-02,0.000000000000000000e+00
1.375000000000000000e+03,-7.801793466505745067e-02,0.000000000000000000e+00
1.376000000000000000e+03,1.145294792713178883e-01,0.000000000000000000e+00
1.377000000000000000e+03,1.454585071707236166e-01,0.000000000000000000e+00
1.378000000000000000e+03,2.863586762396431173e-01,0.000000000000000000e+00
1.379000000000000000e+03,1.191702301616011372e-01,0.000000000000000000e+00
1.380000000000000000e+03,2.674608249490051382e-01,0.000000000000000000e+00
1.381000000000000000e+03,2.841799815923256034e-01,0.000000000000000000e+00
1.382000000000000000e+03,4.329030440129389978e-01,0.000000000000000000e+00
1.383000000000000000e+03,5.453800815772823496e-01,0.000000000000000000e+00
1.384000000000000000e+03,5.901474296542937870e-01,0.000000000000000000e+00
1.385000000000000000e+03,2.626659185429092158e-01,0.000000000000000000e+00
1.386000000000000000e+03,7.106641803546939751e-02,0.000000000000000000e+00
1.387000000000000000e+03,9.518750253602138722e-02,0.000000000000000000e+00
1.388000000000000000e+03,-1.811207401555175664e-02,0.000000000000000000e+00
1.389000000000000000e+03,2.156998980286028156e-01,0.000000000000000000e+00
1.390000000000000000e+03,-3.333582591918162197e-01,0.000000000000000000e+00
1.391000000000000000e+03,1.681563862390257791e+00,0.000000000000000000e+00
1.392000000000000000e+03,5.966206617426167647e+00,0.000000000000000000e+00
1.393000000000000000e+03,1.102598804543652999e+00,1.000000000000000000e+00
1.394000000000000000e+03,-6.875668753060018012e-01,0.000000000000000000e+00
1.395000000000000000e+03,-7.217428616238759087e-01,0.000000000000000000e+00
1.396000000000000000e+03,-6.047071930474910983e-01,0.000000000000000000e+00
1.397000000000000000e+03,-6.763600496870152412e-01,0.000000000000000000e+00
1.398000000000000000e+03,-5.356464167777436058e-01,0.000000000000000000e+00
1.399000000000000000e+03,-5.522586799172884975e-01,0.000000000000000000e+00
1.400000000000000000e+03,-2.733375629327344791e-01,0.000000000000000000e+00
1.401000000000000000e+03,-2.168748158965595751e-01,0.000000000000000000e+00
1.402000000000000000e+03,-7.301859705993642147e-02,0.000000000000000000e+00
1.403000000000000000e+03,-8.630050384209940473e-02,0.000000000000000000e+00
1.404000000000000000e+03,2.426375075324953279e-01,0.000000000000000000e+00
1.405000000000000000e+03,3.479861702928739864e-01,0.000000000000000000e+00
1.406000000000000000e+03,8.659514241558567971e-01,0.000000000000000000e+00
1.407000000000000000e+03,8.794803694446206022e-01,0.000000000000000000e+00
1.408000000000000000e+03,1.043258370268688617e+00,0.000000000000000000e+00
1.409000000000000000e+03,1.000574408741048416e+00,0.000000000000000000e+00
1.410000000000000000e+03,5.483770370463182386e-01,0.000000000000000000e+00
1.411000000000000000e+03,-5.371637372771251653e-03,0.000000000000000000e+00
1.412000000000000000e+03,-6.988152605475210777e-01,0.000000000000000000e+00
1.413000000000000000e+03,-1.108531710548273486e+00,0.000000000000000000e+00
1.414000000000000000e+03,-1.321678171502270516e+00,0.000000000000000000e+00
1.415000000000000000e+03,-1.153855023309824368e+00,0.000000000000000000e+00
1.416000000000000000e+03,-1.150829976190486770e+00,0.000000000000000000e+00
1.417000000000000000e+03,-1.130479531483380651e+00,0.000000000000000000e+00
1.418000000000000000e+03,-7.519837010271390731e-01,0.000000000000000000e+00
1.419000000000000000e+03,-8.027237092706366317e-01,0.000000000000000000e+00
1.420000000000000000e+03,-7.268851408381313828e-01,0.000000000000000000e+00
1.421000000000000000e+03,-4.278480464161059094e-01,0.000000000000000000e+00
1.422000000000000000e+03,-4.599764829261646648e-01,0.000000000000000000e+00
1.423000000000000000e+03,-2.126778682424076417e-01,0.000000000000000000e+00
1.424000000000000000e+03,-1.017959203092860809e-01,0.000000000000000000e+00
1.425000000000000000e+03,-2.431802123101083901e-01,0.000000000000000000e+00
1.426000000000000000e+03,7.837216999618136504e-02,0.000000000000000000e+00
1.427000000000000000e+03,-2.145232813254298876e-01,0.000000000000000000e+00
1.428000000000000000e+03,-1.906779407908512289e-02,0.000000000000000000e+00
1.429000000000000000e+03,2.000322936169504975e-02,0.000000000000000000e+00
1.430000000000000000e+03,1.218203820770305257e-01,0.000000000000000000e+00
1.431000000000000000e+03,-1.828743581154731318e-02,0.000000000000000000e+00
1.432000000000000000e+03,1.765843424537871797e-01,0.000000000000000000e+00
1.433000000000000000e+03,4.129600700617526432e-02,0.000000000000000000e+00
1.434000000000000000e+03,1.546455542250901594e-01,0.000000000000000000e+00
1.435000000000000000e+03,1.897302324923467454e-01,0.000000000000000000e+00
1.436000000000000000e+03,3.000569699497449561e-01,0.000000000000000000e+00
1.437000000000000000e+03,6.824984385975711720e-02,0.000000000000000000e+00
1.438000000000000000e+03,3.316015005033477459e-01,0.000000000000000000e+00
1.439000000000000000e+03,2.075631857567774574e-01,0.000000000000000000e+00
1.440000000000000000e+03,5.888324466862672191e-01,0.000000000000000000e+00
1.441000000000000000e+03,2.837762767783701401e-01,0.000000000000000000e+00
1.442000000000000000e+03,7.168729188605070801e-01,0.000000000000000000e+00
1.443000000000000000e+03,3.914852759591018749e-01,0.000000000000000000e+00
1.444000000000000000e+03,2.127984701388164479e-01,0.000000000000000000e+00
1.445000000000000000e+03,-5.842217066275955106e-02,0.000000000000000000e+00
1.446000000000000000e+03,2.124360917258482084e-01,0.000000000000000000e+00
1.447000000000000000e+03,-6.838968272766206280e-02,0.000000000000000000e+00
1.448000000000000000e+03,3.979744920596682833e-01,0.000000000000000000e+00
1.449000000000000000e+03,-8.426122584344416522e-01,0.000000000000000000e+00
1.450000000000000000e+03,3.931510474316425086e+00,0.000000000000000000e+00
1.451000000000000000e+03,4.982613148614673193e+00,0.000000000000000000e+00
1.452000000000000000e+03,-8.013703042590258896e-01,1.000000000000000000e+00
1.453000000000000000e+03,-4.628961432146486699e-01,0.000000000000000000e+00
1.454000000000000000e+03,-8.694817122785610808e-01,0.000000000000000000e+00
1.455000000000000000e+03,-3.826464034169440587e-01,0.000000000000000000e+00
1.456000000000000000e+03,-6.885028734795400895e-01,0.000000000000000000e+00
1.457000000000000000e+03,-5.113066589717146782e-01,0.000000000000000000e+00
1.458000000000000000e+03,-4.199943386073469731e-01,0.000000000000000000e+00
1.459000000000000000e+03,-3.083836877752484940e-01,0.000000000000000000e+00
1.460000000000000000e+03,-1.103958779176314603e-01,0.000000000000000000e+00
1.461000000000000000e+03,-5.610639582287792193e-02,0.000000000000000000e+00
1.462000000000000000e+03,2.077231466080811315e-02,0.000000000000000000e+00
1.463000000000000000e+03,4.171055671861296776e-01,0.000000000000000000e+00
1.464000000000000000e+03,4.143624586258612408e-01,0.000000000000000000e+00
1.465000000000000000e+03,5.038790266537255258e-01,0.000000000000000000e+00
1.466000000000000000e+03,8.834036607021215071e-01,0.000000000000000000e+00
1.467000000000000000e+03,8.253144386132060806e-01,0.000000000000000000e+00
1.468000000000000000e+03,7.688708541740052471e-01,0.000000000000000000e+00
1.469000000000000000e+03,3.609314875787031363e-01,0.000000000000000000e+00
1.470000000000000000e+03,-3.040256617211490875e-01,0.000000000000000000e+00
1.471000000000000000e+03,-1.102736681476394587e+00,0.000000000000000000e+00
1.472000000000000000e+03,-1.461342946832253631e+00,0.000000000000000000e+00
1.473000000000000000e+03,-1.362733920080896555e+00,0.000000000000000000e+00
1.474000000000000000e+03,-1.345599069668279357e+00,0.000000000000000000e+00
1.475000000000000000e+03,-1.474588590996401161e+00,0.000000000000000000e+00
1.476000000000000000e+03,-9.894039611362408504e-01,0.000000000000000000e+00
1.477000000000000000e+03,-1.092093069272866535e+00,0.000000000000000000e+00
1.478000000000000000e+03,-8.089951066944740532e-01,0.000000000000000000e+00
1.479000000000000000e+03,-8.722350861336364281e-01,0.000000000000000000e+00
1.480000000000000000e+03,-6.192470942251976362e-01,0.000000000000000000e+00
1.481000000000000000e+03,-5.365271182753341694e-01,0.000000000000000000e+00
1.482000000000000000e+03,-3.282686579014514883e-01,0.000000000000000000e+00
1.483000000000000000e+03,-3.346637344064613551e-01,0.000000000000000000e+00
1.484000000000000000e+03,-1.272475488729987170e-01,0.000000000000000000e+00
1.485000000000000000e+03,-2.959418368042053271e-01,0.000000000000000000e+00
1.486000000000000000e+03,-2.846954661901135997e-01,0.000000000000000000e+00
1.487000000000000000e+03,-1.778670801472490848e-01,0.000000000000000000e+00
1.488000000000000000e+03,-1.783575383117494417e-01,0.000000000000000000e+00
1.489000000000000000e+03,-6.745753267546905629e-02,0.000000000000000000e+00
1.490000000000000000e+03,-6.728041135886635160e-02,0.000000000000000000e+00
1.491000000000000000e+03,-5.863294659228820288e-02,0.000000000000000000e+00
1.492000000000000000e+03,2.583761291828919060e-02,0.000000000000000000e+00
1.493000000000000000e+03,7.888382434594533310e-02,0.000000000000000000e+00
1.494000000000000000e+03,1.656437134476270445e-01,0.000000000000000000e+00
1.495000000000000000e+03,1.908177396874589926e-01,0.000000000000000000e+00
1.496000000000000000e+03,3.676417565938560478e-02,0.000000000000000000e+00
1.497000000000000000e+03,3.148609412093658633e-01,0.000000000000000000e+00
1.498000000000000000e+03,3.456264891706657960e-01,0.000000000000000000e+00
1.499000000000000000e+03,6.247031407314317386e-01,0.000000000000000000e+00
1.500000000000000000e+03,4.581445992262853095e-01,0.000000000000000000e+00
1.501000000000000000e+03,1.997403136663037648e-01,0.000000000000000000e+00
1.502000000000000000e+03,4.111104586925588139e-02,0.000000000000000000e+00
1.503000000000000000e+03,1.599706300000389436e-01,0.000000000000000000e+00
1.504000000000000000e+03,2.857724434518420231e-02,0.000000000000000000e+00
1.505000000000000000e+03,2.784910117801847607e-01,0.000000000000000000e+00
1.506000000000000000e+03,-6.131723117062657380e-01,0.000000000000000000e+00
1.507000000000000000e+03,3.165021232891228387e+00,0.000000000000000000e+00
1.508000000000000000e+03,5.366384447770371935e+00,0.000000000000000000e+00
1.509000000000000000e+03,1.096662645612998463e-02,1.000000000000000000e+00
1.510000000000000000e+03,-4.784032197144581500e-01,0.000000000000000000e+00
1.511000000000000000e+03,-5.613740767405547283e-01,0.000000000000000000e+00
1.512000000000000000e+03,-6.164842210786398713e-01,0.000000000000000000e+00
1.513000000000000000e+03,-4.011994887652460817e-01,0.000000000000000000e+00
1.514000000000000000e+03,-3.696054388889684628e-01,0.000000000000000000e+00
1.515000000000000000e+03,-3.299883801898702007e-01,0.000000000000000000e+00
1.516000000000000000e+03,4.451186198042112428e-03,0.000000000000000000e+00
1.517000000000000000e+03,-2.290940209560320406e-01,0.000000000000000000e+00
1.518000000000000000e+03,6.055255026201473295e-02,0.000000000000000000e+00
1.519000000000000000e+03,9.527854218099908457e-02,0.000000000000000000e+00
1.520000000000000000e+03,3.140522125266679843e-01,0.000000000000000000e+00
1.521000000000000000e+03,7.123523028698055537e-01,0.000000000000000000e+00
1.522000000000000000e+03,8.422475339681352313e-01,0.000000000000000000e+00
1.523000000000000000e+03,9.221861199311036650e-01,0.000000000000000000e+00
1.524000000000000000e+03,9.962758278057508576e-01,0.000000000000000000e+00
1.525000000000000000e+03,8.317227495052789132e-01,0.000000000000000000e+00
1.526000000000000000e+03,5.594174316085720466e-01,0.000000000000000000e+00
1.527000000000000000e+03,2.252320867335719928e-02,0.000000000000000000e+00
1.528000000000000000e+03,-8.757151634293524056e-01,0.000000000000000000e+00
1.529000000000000000e+03,-1.226741351496825505e+00,0.000000000000000000e+00
1.530000000000000000e+03,-1.315854389466307284e+00,0.000000000000000000e+00
1.531000000000000000e+03,-1.185824972980353609e+00,0.000000000000000000e+00
1.532000000000000000e+03,-1.054776521173591330e+00,0.000000000000000000e+00
1.533000000000000000e+03,-9.049066580495592760e-01,0.000000000000000000e+00
1.534000000000000000e+03,-9.419518049376994773e-01,0.000000000000000000e+00
1.535000000000000000e+03,-6.812073030572740606e-01,0.000000000000000000e+00
1.536000000000000000e+03,-7.516615071217693789e-01,0.000000000000000000e+00
1.537000000000000000e+03,-5.525730314752337335e-01,0.000000000000000000e+00
1.538000000000000000e+03,-2.475058113845237384e-01,0.000000000000000000e+00
1.539000000000000000e+03,-3.513680796605460066e-01,0.000000000000000000e+00
1.540000000000000000e+03,-1.887565283432697805e-01,0.000000000000000000e+00
1.541000000000000000e+03,-1.180569661125826647e-01,0.000000000000000000e+00
1.542000000000000000e+03,-1.305294225655518614e-01,0.000000000000000000e+00
1.543000000000000000e+03,-2.229204895046702217e-01,0.000000000000000000e+00
1.544000000000000000e+03,6.637246140667249494e-02,0.000000000000000000e+00
1.545000000000000000e+03,-8.015624501297551052e-02,0.000000000000000000e+00
1.546000000000000000e+03,2.302429426191750575e-02,0.000000000000000000e+00
1.547000000000000000e+03,-4.767387617156464141e-02,0.000000000000000000e+00
1.548000000000000000e+03,9.060523362661672409e-02,0.000000000000000000e+00
1.549000000000000000e+03,3.711222814143076004e-02,0.000000000000000000e+00
1.550000000000000000e+03,1.119441072039411983e-01,0.000000000000000000e+00
1.551000000000000000e+03,1.646512543400541484e-01,0.000000000000000000e+00
1.552000000000000000e+03,1.627781491238012024e-01,0.000000000000000000e+00
1.553000000000000000e+03,2.003438776604128113e-01,0.000000000000000000e+00
1.554000000000000000e+03,2.287213608764106232e-01,0.000000000000000000e+00
1.555000000000000000e+03,1.593419059577289021e-01,0.000000000000000000e+00
1.556000000000000000e+03,5.672289712088357527e-01,0.000000000000000000e+00
1.557000000000000000e+03,5.834477670223370271e-01,0.000000000000000000e+00
1.558000000000000000e+03,4.896634384973932441e-01,0.000000000000000000e+00
1.559000000000000000e+03,1.723900987031320720e-01,0.000000000000000000e+00
1.560000000000000000e+03,7.662224316279227232e-03,0.000000000000000000e+00
1.561000000000000000e+03,1.016125785611753929e-01,0.000000000000000000e+00
1.562000000000000000e+03,-6.625301481778096691e-02,0.000000000000000000e+00
1.563000000000000000e+03,1.969601221960110837e-01,0.000000000000000000e+00
1.564000000000000000e+03,-5.491842352405390537e-01,0.000000000000000000e+00
1.565000000000000000e+03,2.133597178706703179e+00,0.000000000000000000e+00
1.566000000000000000e+03,5.792699254026400624e+00,0.000000000000000000e+00
1.567000000000000000e+03,7.637519948915525436e-01,1.000000000000000000e+00
1.568000000000000000e+03,-5.871372439911956009e-01,0.000000000000000000e+00
1.569000000000000000e+03,-8.414813823600695297e-01,0.000000000000000000e+00
1.570000000000000000e+03,-6.585247108580698505e-01,0.000000000000000000e+00
1.571000000000000000e+03,-6.642528170309213165e-01,0.000000000000000000e+00
1.572000000000000000e+03,-6.453134003538721908e-01,0.000000000000000000e+00
1.573000000000000000e+03,-4.135544599198762716e-01,0.000000000000000000e+00
1.574000000000000000e+03,-1.847872571825963373e-01,0.000000000000000000e+00
1.575000000000000000e+03,-2.331119079237831682e-01,0.000000000000000000e+00
1.576000000000000000e+03,-1.459111511428528296e-01,0.000000000000000000e+00
1.577000000000000000e+03,-6.029341569912481658e-02,0.000000000000000000e+00
1.578000000000000000e+03,2.160596091207956371e-01,0.000000000000000000e+00
1.579000000000000000e+03,3.242277573409040881e-01,0.000000000000000000e+00
1.580000000000000000e+03,6.986004367590413766e-01,0.000000000000000000e+00
1.581000000000000000e+03,8.613998540222328471e-01,0.000000000000000000e+00
1.582000000000000000e+03,9.751332944592771002e-01,0.000000000000000000e+00
1.583000000000000000e+03,7.257185284199955122e-01,0.000000000000000000e+00
1.584000000000000000e+03,4.730421809986624093e-01,0.000000000000000000e+00
1.585000000000000000e+03,-9.699909225703945426e-02,0.000000000000000000e+00
1.586000000000000000e+03,-9.184258920905749024e-01,0.000000000000000000e+00
1.587000000000000000e+03,-1.324568049454820207e+00,0.000000000000000000e+00
