timestamp,ecg_measurement,qrs_detected
0.000000000000000000e+00,3.923489240612158535e-01,0.000000000000000000e+00
1.000000000000000000e+00,5.105384747970856951e-01,0.000000000000000000e+00
2.000000000000000000e+00,6.982473155785384744e-01,0.000000000000000000e+00
3.000000000000000000e+00,5.293490318759122015e-01,0.000000000000000000e+00
4.000000000000000000e+00,5.114644094804252639e-01,0.000000000000000000e+00
5.000000000000000000e+00,-1.389131510638744703e-02,0.000000000000000000e+00
6.000000000000000000e+00,1.267689918928362747e-01,0.000000000000000000e+00
7.000000000000000000e+00,-6.352526722323229014e-02,0.000000000000000000e+00
8.000000000000000000e+00,7.320059699010859899e-02,0.000000000000000000e+00
9.000000000000000000e+00,4.436848015432417469e-01,0.000000000000000000e+00
1.000000000000000000e+01,5.089394431128665630e+00,0.000000000000000000e+00
1.100000000000000000e+01,3.990382777468172382e+00,0.000000000000000000e+00
1.200000000000000000e+01,-8.257860876953662110e-01,1.000000000000000000e+00
1.300000000000000000e+01,-2.047009040543241731e+00,0.000000000000000000e+00
1.400000000000000000e+01,-2.374081177207540971e+00,0.000000000000000000e+00
1.500000000000000000e+01,-1.017914037985761189e+00,0.000000000000000000e+00
1.600000000000000000e+01,-5.223693960201184483e-01,0.000000000000000000e+00
1.700000000000000000e+01,-2.675771468363991601e-01,0.000000000000000000e+00
1.800000000000000000e+01,-2.955000643859864717e-01,0.000000000000000000e+00
1.900000000000000000e+01,-2.432395729147375785e-01,0.000000000000000000e+00
2.000000000000000000e+01,-1.985663441311366906e-01,0.000000000000000000e+00
2.100000000000000000e+01,-1.527641382990816143e-01,0.000000000000000000e+00
2.200000000000000000e+01,-1.083965329865027305e-01,0.000000000000000000e+00
2.300000000000000000e+01,-2.354217255774242526e-02,0.000000000000000000e+00
2.400000000000000000e+01,-4.687711400004872936e-02,0.000000000000000000e+00
2.500000000000000000e+01,2.169136008938981064e-01,0.000000000000000000e+00
2.600000000000000000e+01,3.249740478865678073e-01,0.000000000000000000e+00
2.700000000000000000e+01,6.589606056786109223e-01,0.000000000000000000e+00
2.800000000000000000e+01,7.832598512383770473e-01,0.000000000000000000e+00
2.900000000000000000e+01,8.451761043067279600e-01,0.000000000000000000e+00
3.000000000000000000e+01,4.174042374070082717e-01,0.000000000000000000e+00
3.100000000000000000e+01,-2.366586604057199783e-01,0.000000000000000000e+00
3.200000000000000000e+01,-6.935721010595945479e-01,0.000000000000000000e+00
3.300000000000000000e+01,-9.053531846497618885e-01,0.000000000000000000e+00
3.400000000000000000e+01,-9.023851931113376912e-01,0.000000000000000000e+00
3.500000000000000000e+01,-8.460446965221823934e-01,0.000000000000000000e+00
3.600000000000000000e+01,-8.702480656333330122e-01,0.000000000000000000e+00
3.700000000000000000e+01,-8.203700899672976554e-01,0.000000000000000000e+00
3.800000000000000000e+01,-6.844564983617779097e-01,0.000000000000000000e+00
3.900000000000000000e+01,-7.532557678967949366e-01,0.000000000000000000e+00
4.000000000000000000e+01,-6.367339583414437509e-01,0.000000000000000000e+00
4.100000000000000000e+01,-6.061830083147526915e-01,0.000000000000000000e+00
4.200000000000000000e+01,-5.831694105246659765e-01,0.000000000000000000e+00
4.300000000000000000e+01,-4.061024231487746494e-01,0.000000000000000000e+00
4.400000000000000000e+01,-3.147575391008171075e-01,0.000000000000000000e+00
4.500000000000000000e+01,-3.682938085243002146e-01,0.000000000000000000e+00
4.600000000000000000e+01,-2.167290648926167018e-01,0.000000000000000000e+00
4.700000000000000000e+01,-1.619375701988683691e-01,0.000000000000000000e+00
4.800000000000000000e+01,-1.377177043215912500e-01,0.000000000000000000e+00
4.900000000000000000e+01,-5.900012153882579907e-02,0.000000000000000000e+00
5.000000000000000000e+01,-6.038422700234485213e-02,0.000000000000000000e+00
5.100000000000000000e+01,-4.225767525863324825e-02,0.000000000000000000e+00
5.200000000000000000e+01,3.579135944876223746e-02,0.000000000000000000e+00
5.300000000000000000e+01,-1.780555767232027894e-02,0.000000000000000000e+00
5.400000000000000000e+01,6.647028655134304409e-02,0.000000000000000000e+00
5.500000000000000000e+01,9.158264962080839289e-02,0.000000000000000000e+00
5.600000000000000000e+01,8.015882195808778088e-02,0.000000000000000000e+00
5.700000000000000000e+01,7.637488179248531905e-02,0.000000000000000000e+00
5.800000000000000000e+01,1.023688427547730373e-01,0.000000000000000000e+00
5.900000000000000000e+01,2.094317635109795364e-02,0.000000000000000000e+00
6.000000000000000000e+01,1.329557548973564207e-01,0.000000000000000000e+00
6.100000000000000000e+01,7.571733228757833445e-02,0.000000000000000000e+00
6.200000000000000000e+01,1.702029168491322186e-01,0.000000000000000000e+00
6.300000000000000000e+01,9.983723343255752891e-02,0.000000000000000000e+00
6.400000000000000000e+01,1.607819859828264475e-01,0.000000000000000000e+00
6.500000000000000000e+01,8.480967284809703965e-02,0.000000000000000000e+00
6.600000000000000000e+01,1.045116934660746538e-01,0.000000000000000000e+00
6.700000000000000000e+01,2.053910756496266643e-01,0.000000000000000000e+00
6.800000000000000000e+01,5.792055690958828329e-01,0.000000000000000000e+00
6.900000000000000000e+01,4.585240021539384037e-01,0.000000000000000000e+00
7.000000000000000000e+01,3.156650505738603507e-01,0.000000000000000000e+00
7.100000000000000000e+01,-1.468164844399003598e-02,0.000000000000000000e+00
7.200000000000000000e+01,-2.309626923899378570e-02,0.000000000000000000e+00
7.300000000000000000e+01,-1.773630028130582237e-01,0.000000000000000000e+00
7.400000000000000000e+01,-7.798395596814815256e-02,0.000000000000000000e+00
7.500000000000000000e+01,-3.547626703940242598e-01,0.000000000000000000e+00
7.600000000000000000e+01,2.634561413746977276e+00,0.000000000000000000e+00
7.700000000000000000e+01,5.601489902675329091e+00,0.000000000000000000e+00
7.800000000000000000e+01,5.898713837320878062e-01,1.000000000000000000e+00
7.900000000000000000e+01,-1.844556310456068937e+00,0.000000000000000000e+00
8.000000000000000000e+01,-2.540156575565324371e+00,0.000000000000000000e+00
8.100000000000000000e+01,-1.893811923868846003e+00,0.000000000000000000e+00
8.200000000000000000e+01,-8.814484231023264060e-01,0.000000000000000000e+00
8.300000000000000000e+01,-4.416750205544693331e-01,0.000000000000000000e+00
8.400000000000000000e+01,-2.685117604980723494e-01,0.000000000000000000e+00
8.500000000000000000e+01,-1.460676892623264389e-01,0.000000000000000000e+00
8.600000000000000000e+01,-1.587251209886505199e-01,0.000000000000000000e+00
8.700000000000000000e+01,-1.752771751491052910e-01,0.000000000000000000e+00
8.800000000000000000e+01,-5.456377538397343824e-02,0.000000000000000000e+00
8.900000000000000000e+01,-6.254897465080541674e-02,0.000000000000000000e+00
9.000000000000000000e+01,3.116910329941917704e-02,0.000000000000000000e+00
9.100000000000000000e+01,1.851875658975522809e-01,0.000000000000000000e+00
9.200000000000000000e+01,2.498889365659132111e-01,0.000000000000000000e+00
9.300000000000000000e+01,6.327637493236111244e-01,0.000000000000000000e+00
9.400000000000000000e+01,9.050331952187139484e-01,0.000000000000000000e+00
9.500000000000000000e+01,1.007989632949578551e+00,0.000000000000000000e+00
9.600000000000000000e+01,8.607170637461953877e-01,0.000000000000000000e+00
9.700000000000000000e+01,3.048153240176459944e-01,0.000000000000000000e+00
9.800000000000000000e+01,-2.035794470708874870e-01,0.000000000000000000e+00
9.900000000000000000e+01,-5.707132065606848048e-01,0.000000000000000000e+00
1.000000000000000000e+02,-7.341904096750568876e-01,0.000000000000000000e+00
1.010000000000000000e+02,-6.601012549924609729e-01,0.000000000000000000e+00
1.020000000000000000e+02,-6.147656635291235405e-01,0.000000000000000000e+00
1.030000000000000000e+02,-5.265086132827466736e-01,0.000000000000000000e+00
1.040000000000000000e+02,-6.270581018986932653e-01,0.000000000000000000e+00
1.050000000000000000e+02,-5.391312093270431705e-01,0.000000000000000000e+00
1.060000000000000000e+02,-4.526252667862810108e-01,0.000000000000000000e+00
1.070000000000000000e+02,-4.719311975714284291e-01,0.000000000000000000e+00
1.080000000000000000e+02,-3.764262482380071884e-01,0.000000000000000000e+00
1.090000000000000000e+02,-2.459439820028156698e-01,0.000000000000000000e+00
1.100000000000000000e+02,-2.978705074090209903e-01,0.000000000000000000e+00
1.110000000000000000e+02,-7.014350212181996724e-02,0.000000000000000000e+00
1.120000000000000000e+02,-9.487773012726884170e-02,0.000000000000000000e+00
1.130000000000000000e+02,4.299440871860935737e-02,0.000000000000000000e+00
1.140000000000000000e+02,-2.334055440282863450e-02,0.000000000000000000e+00
1.150000000000000000e+02,7.519260932717219958e-02,0.000000000000000000e+00
1.160000000000000000e+02,2.523943483184108022e-02,0.000000000000000000e+00
1.170000000000000000e+02,1.186886477676105250e-01,0.000000000000000000e+00
1.180000000000000000e+02,1.149961998103186528e-01,0.000000000000000000e+00
1.190000000000000000e+02,3.737516775527573859e-02,0.000000000000000000e+00
1.200000000000000000e+02,1.472540567150187885e-01,0.000000000000000000e+00
1.210000000000000000e+02,9.138372145698228644e-02,0.000000000000000000e+00
1.220000000000000000e+02,1.673897807696780871e-01,0.000000000000000000e+00
1.230000000000000000e+02,1.461560506323136555e-01,0.000000000000000000e+00
1.240000000000000000e+02,6.412484655537314948e-02,0.000000000000000000e+00
1.250000000000000000e+02,2.718758235786549182e-01,0.000000000000000000e+00
1.260000000000000000e+02,2.294971244891688689e-02,0.000000000000000000e+00
1.270000000000000000e+02,1.888940353530447203e-01,0.000000000000000000e+00
1.280000000000000000e+02,3.571970641503288690e-01,0.000000000000000000e+00
1.290000000000000000e+02,6.510901298419854433e-01,0.000000000000000000e+00
1.300000000000000000e+02,4.669457477110207089e-01,0.000000000000000000e+00
1.310000000000000000e+02,3.322266471910007568e-01,0.000000000000000000e+00
1.320000000000000000e+02,-1.116003504432670768e-01,0.000000000000000000e+00
1.330000000000000000e+02,4.840054194770480878e-02,0.000000000000000000e+00
1.340000000000000000e+02,-7.786693769291459788e-02,0.000000000000000000e+00
1.350000000000000000e+02,6.558757694593703169e-02,0.000000000000000000e+00
1.360000000000000000e+02,-2.545381361529689968e-01,0.000000000000000000e+00
1.370000000000000000e+02,3.621739857298164278e+00,0.000000000000000000e+00
1.380000000000000000e+02,5.073375268518378611e+00,0.000000000000000000e+00
1.390000000000000000e+02,-7.439388250656600587e-02,1.000000000000000000e+00
1.400000000000000000e+02,-1.864224082002954974e+00,0.000000000000000000e+00
1.410000000000000000e+02,-2.625544835119632214e+00,0.000000000000000000e+00
1.420000000000000000e+02,-1.668148320641229532e+00,0.000000000000000000e+00
1.430000000000000000e+02,-7.407785284260365311e-01,0.000000000000000000e+00
1.440000000000000000e+02,-3.619774117731637264e-01,0.000000000000000000e+00
1.450000000000000000e+02,-4.417733201301254908e-01,0.000000000000000000e+00
1.460000000000000000e+02,-1.916479765292745940e-01,0.000000000000000000e+00
1.470000000000000000e+02,-3.411561594262311203e-01,0.000000000000000000e+00
1.480000000000000000e+02,-6.081133008774390787e-03,0.000000000000000000e+00
1.490000000000000000e+02,-1.821805178495508326e-01,0.000000000000000000e+00
1.500000000000000000e+02,2.724245096410398553e-02,0.000000000000000000e+00
1.510000000000000000e+02,3.438533547076873254e-02,0.000000000000000000e+00
1.520000000000000000e+02,2.162105355707003296e-01,0.000000000000000000e+00
1.530000000000000000e+02,4.015013986851296846e-01,0.000000000000000000e+00
1.540000000000000000e+02,7.532345944048071118e-01,0.000000000000000000e+00
1.550000000000000000e+02,9.103253077811134242e-01,0.000000000000000000e+00
1.560000000000000000e+02,9.741862911516961931e-01,0.000000000000000000e+00
1.570000000000000000e+02,7.292252186902464794e-01,0.000000000000000000e+00
1.580000000000000000e+02,1.405957753085214923e-01,0.000000000000000000e+00
1.590000000000000000e+02,-3.680770107624647958e-01,0.000000000000000000e+00
1.600000000000000000e+02,-7.117251786553882020e-01,0.000000000000000000e+00
1.610000000000000000e+02,-7.453153875624308755e-01,0.000000000000000000e+00
1.620000000000000000e+02,-6.937647124609462868e-01,0.000000000000000000e+00
1.630000000000000000e+02,-7.237652362153629282e-01,0.000000000000000000e+00
1.640000000000000000e+02,-6.896952741350267369e-01,0.000000000000000000e+00
1.650000000000000000e+02,-5.165887800122361817e-01,0.000000000000000000e+00
1.660000000000000000e+02,-6.286956481260688179e-01,0.000000000000000000e+00
1.670000000000000000e+02,-5.261632581970264733e-01,0.000000000000000000e+00
1.680000000000000000e+02,-4.556361212149623308e-01,0.000000000000000000e+00
1.690000000000000000e+02,-3.301598859117701457e-01,0.000000000000000000e+00
1.700000000000000000e+02,-2.041443539361526838e-01,0.000000000000000000e+00
1.710000000000000000e+02,-2.716428589163453200e-01,0.000000000000000000e+00
1.720000000000000000e+02,-8.861110832185234432e-02,0.000000000000000000e+00
1.730000000000000000e+02,-9.786109363567992159e-02,0.000000000000000000e+00
1.740000000000000000e+02,-5.890960884990750074e-02,0.000000000000000000e+00
1.750000000000000000e+02,1.652938107706664050e-02,0.000000000000000000e+00
1.760000000000000000e+02,4.561478548969334634e-02,0.000000000000000000e+00
1.770000000000000000e+02,-2.521615237947055083e-02,0.000000000000000000e+00
1.780000000000000000e+02,9.438272015451176777e-02,0.000000000000000000e+00
1.790000000000000000e+02,1.296922371223157011e-01,0.000000000000000000e+00
1.800000000000000000e+02,9.573729688376157732e-02,0.000000000000000000e+00
1.810000000000000000e+02,1.618973143000790593e-01,0.000000000000000000e+00
1.820000000000000000e+02,1.222645754526340139e-01,0.000000000000000000e+00
1.830000000000000000e+02,1.762321303109682658e-01,0.000000000000000000e+00
1.840000000000000000e+02,2.964407879980489602e-01,0.000000000000000000e+00
1.850000000000000000e+02,1.319228458497799794e-01,0.000000000000000000e+00
1.860000000000000000e+02,1.020460979778491650e-01,0.000000000000000000e+00
1.870000000000000000e+02,2.714107284789987751e-01,0.000000000000000000e+00
1.880000000000000000e+02,1.507020432325446302e-01,0.000000000000000000e+00
1.890000000000000000e+02,1.517027677860302848e-01,0.000000000000000000e+00
1.900000000000000000e+02,2.192609428359901524e-01,0.000000000000000000e+00
1.910000000000000000e+02,1.443086023283413066e-01,0.000000000000000000e+00
1.920000000000000000e+02,2.718873075796676142e-01,0.000000000000000000e+00
1.930000000000000000e+02,1.821816444056311990e-01,0.000000000000000000e+00
1.940000000000000000e+02,6.803846359133818300e-01,0.000000000000000000e+00
1.950000000000000000e+02,5.543310725288236318e-01,0.000000000000000000e+00
1.960000000000000000e+02,4.230846194652941317e-01,0.000000000000000000e+00
1.970000000000000000e+02,1.488033615026728151e-01,0.000000000000000000e+00
1.980000000000000000e+02,-1.492335858924582759e-01,0.000000000000000000e+00
1.990000000000000000e+02,-9.508313657651369655e-02,0.000000000000000000e+00
2.000000000000000000e+02,-6.055359620834290663e-02,0.000000000000000000e+00
2.010000000000000000e+02,-3.864757868024208953e-01,0.000000000000000000e+00
2.020000000000000000e+02,1.661160507006068654e+00,0.000000000000000000e+00
2.030000000000000000e+02,5.681561452782361243e+00,0.000000000000000000e+00
2.040000000000000000e+02,1.686700545559737474e+00,1.000000000000000000e+00
2.050000000000000000e+02,-1.596499116389138662e+00,0.000000000000000000e+00
2.060000000000000000e+02,-2.604535221679801893e+00,0.000000000000000000e+00
2.070000000000000000e+02,-2.199308592496196368e+00,0.000000000000000000e+00
2.080000000000000000e+02,-8.543355605928949492e-01,0.000000000000000000e+00
2.090000000000000000e+02,-4.963627764744387716e-01,0.000000000000000000e+00
2.100000000000000000e+02,-3.773928395995168050e-01,0.000000000000000000e+00
2.110000000000000000e+02,-3.478643482644516727e-01,0.000000000000000000e+00
2.120000000000000000e+02,-2.867361677032224665e-01,0.000000000000000000e+00
2.130000000000000000e+02,-1.462785675655777218e-01,0.000000000000000000e+00
2.140000000000000000e+02,-1.683379879888024788e-01,0.000000000000000000e+00
2.150000000000000000e+02,-3.050265537909948709e-03,0.000000000000000000e+00
2.160000000000000000e+02,-4.656018275931140399e-02,0.000000000000000000e+00
2.170000000000000000e+02,1.200991106575875628e-01,0.000000000000000000e+00
2.180000000000000000e+02,2.701145084077580805e-01,0.000000000000000000e+00
2.190000000000000000e+02,5.978742511933763382e-01,0.000000000000000000e+00
2.200000000000000000e+02,8.447566392487999565e-01,0.000000000000000000e+00
2.210000000000000000e+02,1.035336197972342331e+00,0.000000000000000000e+00
2.220000000000000000e+02,7.689934928825533644e-01,0.000000000000000000e+00
2.230000000000000000e+02,2.766678337363676632e-01,0.000000000000000000e+00
2.240000000000000000e+02,-2.388977536411659719e-01,0.000000000000000000e+00
2.250000000000000000e+02,-5.916574359834932961e-01,0.000000000000000000e+00
2.260000000000000000e+02,-7.679590099573365691e-01,0.000000000000000000e+00
2.270000000000000000e+02,-8.508651788155084938e-01,0.000000000000000000e+00
2.280000000000000000e+02,-7.568545139924762744e-01,0.000000000000000000e+00
2.290000000000000000e+02,-7.098304386768643504e-01,0.000000000000000000e+00
2.300000000000000000e+02,-6.093650580170569819e-01,0.000000000000000000e+00
2.310000000000000000e+02,-6.424008703065455794e-01,0.000000000000000000e+00
2.320000000000000000e+02,-6.099825677369713484e-01,0.000000000000000000e+00
2.330000000000000000e+02,-5.306646034038023929e-01,0.000000000000000000e+00
2.340000000000000000e+02,-4.244984605591782256e-01,0.000000000000000000e+00
2.350000000000000000e+02,-4.206468386382917757e-01,0.000000000000000000e+00
2.360000000000000000e+02,-2.572326973579616149e-01,0.000000000000000000e+00
2.370000000000000000e+02,-2.222317319983932726e-01,0.000000000000000000e+00
2.380000000000000000e+02,-2.052163848555036696e-01,0.000000000000000000e+00
2.390000000000000000e+02,-1.179167887918825680e-01,0.000000000000000000e+00
2.400000000000000000e+02,-1.797748318123490174e-01,0.000000000000000000e+00
2.410000000000000000e+02,-1.570196731208776397e-01,0.000000000000000000e+00
2.420000000000000000e+02,-4.149134500446875762e-02,0.000000000000000000e+00
2.430000000000000000e+02,3.331000203607788201e-02,0.000000000000000000e+00
2.440000000000000000e+02,-1.027392216632038863e-01,0.000000000000000000e+00
2.450000000000000000e+02,-1.052215192683606275e-03,0.000000000000000000e+00
2.460000000000000000e+02,1.346238885374529369e-02,0.000000000000000000e+00
2.470000000000000000e+02,2.402818827448293879e-02,0.000000000000000000e+00
2.480000000000000000e+02,7.451051525613915094e-02,0.000000000000000000e+00
2.490000000000000000e+02,3.299223961323672488e-02,0.000000000000000000e+00
2.500000000000000000e+02,6.612246953283502926e-02,0.000000000000000000e+00
2.510000000000000000e+02,1.244694169524977329e-01,0.000000000000000000e+00
2.520000000000000000e+02,8.536799999648837789e-02,0.000000000000000000e+00
2.530000000000000000e+02,1.815260234711890963e-01,0.000000000000000000e+00
2.540000000000000000e+02,1.482630769267982707e-01,0.000000000000000000e+00
2.550000000000000000e+02,1.759591114647922061e-01,0.000000000000000000e+00
2.560000000000000000e+02,2.375057774428065149e-01,0.000000000000000000e+00
2.570000000000000000e+02,2.372725289562674089e-01,0.000000000000000000e+00
2.580000000000000000e+02,1.692136644311588722e-01,0.000000000000000000e+00
2.590000000000000000e+02,3.250638830022115067e-01,0.000000000000000000e+00
2.600000000000000000e+02,3.577946794248795803e-01,0.000000000000000000e+00
2.610000000000000000e+02,6.692463345739949609e-01,0.000000000000000000e+00
2.620000000000000000e+02,4.592540266182320030e-01,0.000000000000000000e+00
2.630000000000000000e+02,5.034619857804972787e-01,0.000000000000000000e+00
2.640000000000000000e+02,6.791987018644406182e-02,0.000000000000000000e+00
2.650000000000000000e+02,-7.041303559181621985e-02,0.000000000000000000e+00
2.660000000000000000e+02,-1.954433489573434157e-01,0.000000000000000000e+00
2.670000000000000000e+02,1.931592458358827313e-02,0.000000000000000000e+00
2.680000000000000000e+02,-3.758050465795045314e-01,0.000000000000000000e+00
2.690000000000000000e+02,2.597777493475153854e+00,0.000000000000000000e+00
2.700000000000000000e+02,5.749254626680963653e+00,0.000000000000000000e+00
2.710000000000000000e+02,7.558769018999694778e-01,1.000000000000000000e+00
2.720000000000000000e+02,-1.866157711619204296e+00,0.000000000000000000e+00
2.730000000000000000e+02,-2.580761047786206852e+00,0.000000000000000000e+00
2.740000000000000000e+02,-1.932659241210568757e+00,0.000000000000000000e+00
2.750000000000000000e+02,-8.623932648267200740e-01,0.000000000000000000e+00
2.760000000000000000e+02,-4.477107128072972952e-01,0.000000000000000000e+00
2.770000000000000000e+02,-3.488933672323499824e-01,0.000000000000000000e+00
2.780000000000000000e+02,-2.065288345819032700e-01,0.000000000000000000e+00
2.790000000000000000e+02,-2.305155967075400714e-01,0.000000000000000000e+00
2.800000000000000000e+02,-1.939484899574096810e-01,0.000000000000000000e+00
2.810000000000000000e+02,-2.353536333833068372e-01,0.000000000000000000e+00
2.820000000000000000e+02,-1.782248016936208504e-02,0.000000000000000000e+00
2.830000000000000000e+02,8.581392791959295552e-02,0.000000000000000000e+00
2.840000000000000000e+02,7.456091852703536360e-02,0.000000000000000000e+00
2.850000000000000000e+02,3.753957156856896349e-01,0.000000000000000000e+00
2.860000000000000000e+02,5.437770436293721810e-01,0.000000000000000000e+00
2.870000000000000000e+02,8.804092883865847208e-01,0.000000000000000000e+00
2.880000000000000000e+02,1.039399772627680685e+00,0.000000000000000000e+00
2.890000000000000000e+02,8.128377955904522167e-01,0.000000000000000000e+00
2.900000000000000000e+02,3.643986358262158443e-01,0.000000000000000000e+00
2.910000000000000000e+02,-2.672212207173382814e-01,0.000000000000000000e+00
2.920000000000000000e+02,-5.285106842508388025e-01,0.000000000000000000e+00
2.930000000000000000e+02,-7.018632142235892157e-01,0.000000000000000000e+00
2.940000000000000000e+02,-6.888184853391756679e-01,0.000000000000000000e+00
2.950000000000000000e+02,-6.676410432273867102e-01,0.000000000000000000e+00
2.960000000000000000e+02,-6.425752669387382321e-01,0.000000000000000000e+00
2.970000000000000000e+02,-6.807438573649078339e-01,0.000000000000000000e+00
2.980000000000000000e+02,-4.823607658298888490e-01,0.000000000000000000e+00
2.990000000000000000e+02,-5.508693552872145904e-01,0.000000000000000000e+00
3.000000000000000000e+02,-5.184730779109325560e-01,0.000000000000000000e+00
3.010000000000000000e+02,-3.709289570953429593e-01,0.000000000000000000e+00
3.020000000000000000e+02,-2.975264194629863024e-01,0.000000000000000000e+00
3.030000000000000000e+02,-2.004613528626287278e-01,0.000000000000000000e+00
3.040000000000000000e+02,-7.987188954551811826e-02,0.000000000000000000e+00
3.050000000000000000e+02,-1.468128011575436098e-01,0.000000000000000000e+00
3.060000000000000000e+02,5.766253583122427778e-03,0.000000000000000000e+00
3.070000000000000000e+02,-3.566637911767545771e-02,0.000000000000000000e+00
3.080000000000000000e+02,-8.768766445965036488e-03,0.000000000000000000e+00
3.090000000000000000e+02,-2.685330969017318131e-02,0.000000000000000000e+00
3.100000000000000000e+02,1.362186327739513814e-01,0.000000000000000000e+00
3.110000000000000000e+02,1.155536412239732552e-01,0.000000000000000000e+00
3.120000000000000000e+02,-4.758571187053844964e-02,0.000000000000000000e+00
3.130000000000000000e+02,1.169314004961019698e-01,0.000000000000000000e+00
3.140000000000000000e+02,1.128293773184614879e-01,0.000000000000000000e+00
3.150000000000000000e+02,1.302583214942286405e-01,0.000000000000000000e+00
3.160000000000000000e+02,1.904590848903266187e-01,0.000000000000000000e+00
3.170000000000000000e+02,1.598569477567932107e-01,0.000000000000000000e+00
3.180000000000000000e+02,1.608348844411830181e-01,0.000000000000000000e+00
3.190000000000000000e+02,2.414997922951832576e-01,0.000000000000000000e+00
3.200000000000000000e+02,4.004203235313982812e-01,0.000000000000000000e+00
3.210000000000000000e+02,5.715439817485615803e-01,0.000000000000000000e+00
3.220000000000000000e+02,6.023363453992727212e-01,0.000000000000000000e+00
3.230000000000000000e+02,3.996261150103365689e-01,0.000000000000000000e+00
3.240000000000000000e+02,1.058767058297398755e-01,0.000000000000000000e+00
3.250000000000000000e+02,1.498758937150163756e-02,0.000000000000000000e+00
3.260000000000000000e+02,-1.093638590626477558e-01,0.000000000000000000e+00
3.270000000000000000e+02,-4.432722781585241023e-02,0.000000000000000000e+00
3.280000000000000000e+02,-1.671138885538611674e-01,0.000000000000000000e+00
3.290000000000000000e+02,1.464840649788198723e+00,0.000000000000000000e+00
3.300000000000000000e+02,5.772907584631001399e+00,0.000000000000000000e+00
3.310000000000000000e+02,1.839404916716490312e+00,1.000000000000000000e+00
3.320000000000000000e+02,-1.386188636129715768e+00,0.000000000000000000e+00
3.330000000000000000e+02,-2.365543678600461774e+00,0.000000000000000000e+00
3.340000000000000000e+02,-2.100058579055286145e+00,0.000000000000000000e+00
3.350000000000000000e+02,-9.210748148844004612e-01,0.000000000000000000e+00
3.360000000000000000e+02,-5.550624595609987555e-01,0.000000000000000000e+00
3.370000000000000000e+02,-2.312513547893743082e-01,0.000000000000000000e+00
3.380000000000000000e+02,-1.890783139582512817e-01,0.000000000000000000e+00
3.390000000000000000e+02,-3.602803033812464473e-01,0.000000000000000000e+00
3.400000000000000000e+02,-1.499110644946046733e-01,0.000000000000000000e+00
3.410000000000000000e+02,-1.957686935674026185e-01,0.000000000000000000e+00
3.420000000000000000e+02,-3.964505562208961789e-04,0.000000000000000000e+00
3.430000000000000000e+02,1.284626841164589021e-02,0.000000000000000000e+00
3.440000000000000000e+02,1.013758334850904524e-01,0.000000000000000000e+00
3.450000000000000000e+02,3.911790359442276488e-01,0.000000000000000000e+00
3.460000000000000000e+02,5.073850453928592241e-01,0.000000000000000000e+00
3.470000000000000000e+02,8.294703286999840497e-01,0.000000000000000000e+00
3.480000000000000000e+02,9.111915220482118549e-01,0.000000000000000000e+00
3.490000000000000000e+02,7.957116114815002694e-01,0.000000000000000000e+00
3.500000000000000000e+02,3.359405450096192292e-01,0.000000000000000000e+00
3.510000000000000000e+02,-2.886462682557182080e-01,0.000000000000000000e+00
3.520000000000000000e+02,-6.223871802424109090e-01,0.000000000000000000e+00
3.530000000000000000e+02,-7.490714543639243050e-01,0.000000000000000000e+00
3.540000000000000000e+02,-8.651614669885101527e-01,0.000000000000000000e+00
3.550000000000000000e+02,-7.496589102560915485e-01,0.000000000000000000e+00
3.560000000000000000e+02,-6.957806038606612065e-01,0.000000000000000000e+00
3.570000000000000000e+02,-7.202260224512972986e-01,0.000000000000000000e+00
3.580000000000000000e+02,-7.110699768641061125e-01,0.000000000000000000e+00
3.590000000000000000e+02,-7.386179936087974296e-01,0.000000000000000000e+00
3.600000000000000000e+02,-5.102363195997129397e-01,0.000000000000000000e+00
3.610000000000000000e+02,-4.634139953107545007e-01,0.000000000000000000e+00
3.620000000000000000e+02,-3.313894049051540613e-01,0.000000000000000000e+00
3.630000000000000000e+02,-3.095963397867989575e-01,0.000000000000000000e+00
3.640000000000000000e+02,-2.287122368799062722e-01,0.000000000000000000e+00
3.650000000000000000e+02,-2.242617490880962350e-01,0.000000000000000000e+00
3.660000000000000000e+02,-3.729409287972171305e-02,0.000000000000000000e+00
3.670000000000000000e+02,-1.280633834980564600e-01,0.000000000000000000e+00
3.680000000000000000e+02,-5.610258785453392516e-02,0.000000000000000000e+00
3.690000000000000000e+02,-1.947949368152396277e-02,0.000000000000000000e+00
3.700000000000000000e+02,1.354352996157662595e-02,0.000000000000000000e+00
3.710000000000000000e+02,2.073782282936177321e-02,0.000000000000000000e+00
3.720000000000000000e+02,1.678627826493893915e-01,0.000000000000000000e+00
3.730000000000000000e+02,-1.292470745850359329e-02,0.000000000000000000e+00
3.740000000000000000e+02,2.034514645985874837e-01,0.000000000000000000e+00
3.750000000000000000e+02,-4.822391900030574031e-03,0.000000000000000000e+00
3.760000000000000000e+02,1.938409497836321715e-01,0.000000000000000000e+00
3.770000000000000000e+02,2.135606018562926089e-01,0.000000000000000000e+00
3.780000000000000000e+02,1.731290967685214510e-01,0.000000000000000000e+00
3.790000000000000000e+02,2.128808185761848215e-01,0.000000000000000000e+00
3.800000000000000000e+02,1.151858651858219534e-01,0.000000000000000000e+00
3.810000000000000000e+02,1.783171684055512851e-01,0.000000000000000000e+00
3.820000000000000000e+02,1.290642510444529600e-01,0.000000000000000000e+00
3.830000000000000000e+02,1.536791045769896058e-01,0.000000000000000000e+00
3.840000000000000000e+02,2.062193077274067088e-01,0.000000000000000000e+00
3.850000000000000000e+02,1.991044112777939079e-01,0.000000000000000000e+00
3.860000000000000000e+02,1.723733710238715966e-01,0.000000000000000000e+00
3.870000000000000000e+02,4.499166535852351934e-01,0.000000000000000000e+00
3.880000000000000000e+02,7.178003405865945874e-01,0.000000000000000000e+00
3.890000000000000000e+02,6.090327995702972119e-01,0.000000000000000000e+00
3.900000000000000000e+02,4.296775944712916684e-01,0.000000000000000000e+00
3.910000000000000000e+02,9.253987093219864790e-02,0.000000000000000000e+00
3.920000000000000000e+02,5.505707411679953284e-02,0.000000000000000000e+00
3.930000000000000000e+02,-8.827748700955376226e-02,0.000000000000000000e+00
3.940000000000000000e+02,1.392685557264835838e-01,0.000000000000000000e+00
3.950000000000000000e+02,-3.498920814520612432e-01,0.000000000000000000e+00
3.960000000000000000e+02,3.019219069789722987e+00,0.000000000000000000e+00
3.970000000000000000e+02,5.337978787820433446e+00,0.000000000000000000e+00
3.980000000000000000e+02,4.389835457381716100e-01,1.000000000000000000e+00
3.990000000000000000e+02,-1.846662218589456339e+00,0.000000000000000000e+00
4.000000000000000000e+02,-2.737909985116639078e+00,0.000000000000000000e+00
4.010000000000000000e+02,-1.828322103746066407e+00,0.000000000000000000e+00
4.020000000000000000e+02,-7.819491394492928960e-01,0.000000000000000000e+00
4.030000000000000000e+02,-5.018540978070982206e-01,0.000000000000000000e+00
4.040000000000000000e+02,-3.974631383910893212e-01,0.000000000000000000e+00
4.050000000000000000e+02,-2.811708375491511203e-01,0.000000000000000000e+00
4.060000000000000000e+02,-3.155772662950938612e-01,0.000000000000000000e+00
4.070000000000000000e+02,-1.926495417640730068e-01,0.000000000000000000e+00
4.080000000000000000e+02,-2.019454413172135920e-01,0.000000000000000000e+00
4.090000000000000000e+02,6.142266106771054196e-02,0.000000000000000000e+00
4.100000000000000000e+02,-4.747205902853389448e-02,0.000000000000000000e+00
4.110000000000000000e+02,1.574491897648150340e-01,0.000000000000000000e+00
4.120000000000000000e+02,3.702790514540448830e-01,0.000000000000000000e+00
4.130000000000000000e+02,5.548164466278988627e-01,0.000000000000000000e+00
4.140000000000000000e+02,8.960664342887130207e-01,0.000000000000000000e+00
4.150000000000000000e+02,9.480380300928997750e-01,0.000000000000000000e+00
4.160000000000000000e+02,8.264127218386958518e-01,0.000000000000000000e+00
4.170000000000000000e+02,6.251640675760922194e-02,0.000000000000000000e+00
4.180000000000000000e+02,-3.799496904716417878e-01,0.000000000000000000e+00
4.190000000000000000e+02,-6.724138576758901253e-01,0.000000000000000000e+00
4.200000000000000000e+02,-7.435523027939754392e-01,0.000000000000000000e+00
4.210000000000000000e+02,-7.991081961547280565e-01,0.000000000000000000e+00
4.220000000000000000e+02,-8.017888670798950512e-01,0.000000000000000000e+00
4.230000000000000000e+02,-6.541899833360107497e-01,0.000000000000000000e+00
4.240000000000000000e+02,-6.291878140268226671e-01,0.000000000000000000e+00
4.250000000000000000e+02,-5.698635686459658789e-01,0.000000000000000000e+00
4.260000000000000000e+02,-6.116556683674679862e-01,0.000000000000000000e+00
4.270000000000000000e+02,-4.728383100460269994e-01,0.000000000000000000e+00
4.280000000000000000e+02,-3.493989890277569565e-01,0.000000000000000000e+00
4.290000000000000000e+02,-3.212116304175933745e-01,0.000000000000000000e+00
4.300000000000000000e+02,-2.719546053717748491e-01,0.000000000000000000e+00
4.310000000000000000e+02,-2.037612299951010175e-01,0.000000000000000000e+00
4.320000000000000000e+02,-5.201881771859175052e-02,0.000000000000000000e+00
4.330000000000000000e+02,-1.323282944716859255e-01,0.000000000000000000e+00
4.340000000000000000e+02,1.588639892025906029e-03,0.000000000000000000e+00
4.350000000000000000e+02,-4.451502129609080649e-02,0.000000000000000000e+00
4.360000000000000000e+02,-2.900187262858070630e-03,0.000000000000000000e+00
4.370000000000000000e+02,7.752981776817663429e-02,0.000000000000000000e+00
4.380000000000000000e+02,9.179717701377346217e-02,0.000000000000000000e+00
4.390000000000000000e+02,7.642228436449902129e-02,0.000000000000000000e+00
4.400000000000000000e+02,1.147204696471574720e-01,0.000000000000000000e+00
4.410000000000000000e+02,1.718384120901849110e-01,0.000000000000000000e+00
4.420000000000000000e+02,2.091826211554315973e-01,0.000000000000000000e+00
4.430000000000000000e+02,2.389822228633113887e-01,0.000000000000000000e+00
4.440000000000000000e+02,1.585977263571467510e-01,0.000000000000000000e+00
4.450000000000000000e+02,2.035117861768373504e-01,0.000000000000000000e+00
4.460000000000000000e+02,2.034380934959286180e-01,0.000000000000000000e+00
4.470000000000000000e+02,2.018350044456894699e-01,0.000000000000000000e+00
4.480000000000000000e+02,2.227477252668586261e-01,0.000000000000000000e+00
4.490000000000000000e+02,1.365262633132788284e-01,0.000000000000000000e+00
4.500000000000000000e+02,2.517034163504960342e-01,0.000000000000000000e+00
4.510000000000000000e+02,1.848604563428854208e-01,0.000000000000000000e+00
4.520000000000000000e+02,2.448534171421712091e-01,0.000000000000000000e+00
4.530000000000000000e+02,1.501852016883539753e-01,0.000000000000000000e+00
4.540000000000000000e+02,2.501001807784446473e-01,0.000000000000000000e+00
4.550000000000000000e+02,1.512895265225397690e-01,0.000000000000000000e+00
4.560000000000000000e+02,2.917125414087832769e-01,0.000000000000000000e+00
4.570000000000000000e+02,4.935231130578310310e-01,0.000000000000000000e+00
4.580000000000000000e+02,7.064352705018752676e-01,0.000000000000000000e+00
4.590000000000000000e+02,4.185128104495147161e-01,0.000000000000000000e+00
4.600000000000000000e+02,3.551872736697087030e-01,0.000000000000000000e+00
4.610000000000000000e+02,2.782445657672591791e-02,0.000000000000000000e+00
4.620000000000000000e+02,-1.238183960119595972e-01,0.000000000000000000e+00
4.630000000000000000e+02,-2.275285853801576330e-01,0.000000000000000000e+00
4.640000000000000000e+02,-6.942166483517228648e-02,0.000000000000000000e+00
4.650000000000000000e+02,-3.617640694047021821e-01,0.000000000000000000e+00
4.660000000000000000e+02,3.688506108143564166e+00,0.000000000000000000e+00
4.670000000000000000e+02,4.868778146344354241e+00,0.000000000000000000e+00
4.680000000000000000e+02,-3.077651403033108690e-01,1.000000000000000000e+00
4.690000000000000000e+02,-2.134301623521853486e+00,0.000000000000000000e+00
4.700000000000000000e+02,-2.783851180523609248e+00,0.000000000000000000e+00
4.710000000000000000e+02,-1.613764553591633177e+00,0.000000000000000000e+00
4.720000000000000000e+02,-7.610407463788818605e-01,0.000000000000000000e+00
4.730000000000000000e+02,-4.680092116428570259e-01,0.000000000000000000e+00
4.740000000000000000e+02,-4.962315306507847912e-01,0.000000000000000000e+00
4.750000000000000000e+02,-2.618206766307970557e-01,0.000000000000000000e+00
4.760000000000000000e+02,-3.250918663176090573e-01,0.000000000000000000e+00
4.770000000000000000e+02,-1.906766487327037629e-01,0.000000000000000000e+00
4.780000000000000000e+02,-1.137853385395984629e-01,0.000000000000000000e+00
4.790000000000000000e+02,-1.279367752649398227e-01,0.000000000000000000e+00
4.800000000000000000e+02,1.139296982681937270e-02,0.000000000000000000e+00
4.810000000000000000e+02,1.475929784034741288e-01,0.000000000000000000e+00
4.820000000000000000e+02,3.192598545957122114e-01,0.000000000000000000e+00
4.830000000000000000e+02,5.876163773264546641e-01,0.000000000000000000e+00
4.840000000000000000e+02,8.895943897318441262e-01,0.000000000000000000e+00
4.850000000000000000e+02,1.010895323748951080e+00,0.000000000000000000e+00
4.860000000000000000e+02,7.057019268051193395e-01,0.000000000000000000e+00
4.870000000000000000e+02,-1.992489284834427291e-02,0.000000000000000000e+00
4.880000000000000000e+02,-3.837003709422059927e-01,0.000000000000000000e+00
4.890000000000000000e+02,-6.535438855997365293e-01,0.000000000000000000e+00
4.900000000000000000e+02,-7.752849027064799836e-01,0.000000000000000000e+00
4.910000000000000000e+02,-8.621201292263455107e-01,0.000000000000000000e+00
4.920000000000000000e+02,-6.571862853480291422e-01,0.000000000000000000e+00
4.930000000000000000e+02,-6.653376034900254643e-01,0.000000000000000000e+00
4.940000000000000000e+02,-6.325396217492528228e-01,0.000000000000000000e+00
4.950000000000000000e+02,-6.297072008378218344e-01,0.000000000000000000e+00
4.960000000000000000e+02,-4.983016262913567695e-01,0.000000000000000000e+00
4.970000000000000000e+02,-5.340998559797638379e-01,0.000000000000000000e+00
4.980000000000000000e+02,-5.101171033398576027e-01,0.000000000000000000e+00
4.990000000000000000e+02,-3.343688544736244106e-01,0.000000000000000000e+00
5.000000000000000000e+02,-3.090577126133324803e-01,0.000000000000000000e+00
5.010000000000000000e+02,-1.286791887544878055e-01,0.000000000000000000e+00
5.020000000000000000e+02,-1.407961762871499933e-01,0.000000000000000000e+00
5.030000000000000000e+02,-4.201322948965821591e-02,0.000000000000000000e+00
5.040000000000000000e+02,-3.124654371006492168e-02,0.000000000000000000e+00
5.050000000000000000e+02,7.458440070371163966e-02,0.000000000000000000e+00
5.060000000000000000e+02,4.124703661559588064e-02,0.000000000000000000e+00
5.070000000000000000e+02,8.582585333011907847e-02,0.000000000000000000e+00
5.080000000000000000e+02,1.035946755680835080e-01,0.000000000000000000e+00
5.090000000000000000e+02,7.160522391988850821e-02,0.000000000000000000e+00
5.100000000000000000e+02,9.483576729514379966e-02,0.000000000000000000e+00
5.110000000000000000e+02,1.514737212400811828e-01,0.000000000000000000e+00
5.120000000000000000e+02,1.149798048809515805e-01,0.000000000000000000e+00
5.130000000000000000e+02,2.045938958233081695e-01,0.000000000000000000e+00
5.140000000000000000e+02,1.790022416468293742e-01,0.000000000000000000e+00
5.150000000000000000e+02,1.478882248620606021e-01,0.000000000000000000e+00
5.160000000000000000e+02,1.592998360912878941e-01,0.000000000000000000e+00
5.170000000000000000e+02,2.352395713953549794e-01,0.000000000000000000e+00
5.180000000000000000e+02,1.366591184242067492e-01,0.000000000000000000e+00
5.190000000000000000e+02,2.382308458212597513e-01,0.000000000000000000e+00
5.200000000000000000e+02,1.794919420228926754e-01,0.000000000000000000e+00
5.210000000000000000e+02,1.674768621027726556e-01,0.000000000000000000e+00
5.220000000000000000e+02,2.782581438315659961e-01,0.000000000000000000e+00
5.230000000000000000e+02,2.064744872494287675e-01,0.000000000000000000e+00
5.240000000000000000e+02,2.517687229651268122e-01,0.000000000000000000e+00
5.250000000000000000e+02,1.549146613305854570e-01,0.000000000000000000e+00
5.260000000000000000e+02,2.202041992673467452e-01,0.000000000000000000e+00
5.270000000000000000e+02,1.527527133146058813e-01,0.000000000000000000e+00
5.280000000000000000e+02,1.786338700167551807e-01,0.000000000000000000e+00
5.290000000000000000e+02,2.218377177514857246e-01,0.000000000000000000e+00
5.300000000000000000e+02,2.799346693000471786e-01,0.000000000000000000e+00
5.310000000000000000e+02,4.580895249252150969e-01,0.000000000000000000e+00
5.320000000000000000e+02,4.558636922687699378e-01,0.000000000000000000e+00
5.330000000000000000e+02,2.815292669146740590e-01,0.000000000000000000e+00
5.340000000000000000e+02,1.176560557044026428e-01,0.000000000000000000e+00
5.350000000000000000e+02,-1.360856909184313679e-01,0.000000000000000000e+00
5.360000000000000000e+02,-2.088605291780867013e-01,0.000000000000000000e+00
5.370000000000000000e+02,-6.311380723583241703e-02,0.000000000000000000e+00
5.380000000000000000e+02,-3.568379436686639483e-01,0.000000000000000000e+00
5.390000000000000000e+02,1.718328866869150984e+00,0.000000000000000000e+00
5.400000000000000000e+02,5.703410458539012851e+00,0.000000000000000000e+00
5.410000000000000000e+02,1.456952627144079804e+00,1.000000000000000000e+00
5.420000000000000000e+02,-1.837592977821449702e+00,0.000000000000000000e+00
5.430000000000000000e+02,-2.439274786507748871e+00,0.000000000000000000e+00
5.440000000000000000e+02,-2.227297008743554851e+00,0.000000000000000000e+00
5.450000000000000000e+02,-1.059388541692312113e+00,0.000000000000000000e+00
5.460000000000000000e+02,-6.234012570429614541e-01,0.000000000000000000e+00
5.470000000000000000e+02,-4.325585197531587323e-01,0.000000000000000000e+00
5.480000000000000000e+02,-3.363004079944268976e-01,0.000000000000000000e+00
5.490000000000000000e+02,-3.092825790117498252e-01,0.000000000000000000e+00
5.500000000000000000e+02,-1.800863046872706319e-01,0.000000000000000000e+00
5.510000000000000000e+02,-2.185501116747890771e-01,0.000000000000000000e+00
5.520000000000000000e+02,-7.853524516231295827e-02,0.000000000000000000e+00
5.530000000000000000e+02,-3.648111327871168038e-03,0.000000000000000000e+00
5.540000000000000000e+02,1.197134000382678726e-01,0.000000000000000000e+00
5.550000000000000000e+02,2.118799515631342445e-01,0.000000000000000000e+00
5.560000000000000000e+02,5.216451914691768721e-01,0.000000000000000000e+00
5.570000000000000000e+02,7.291449702815200329e-01,0.000000000000000000e+00
5.580000000000000000e+02,1.088227340564039247e+00,0.000000000000000000e+00
5.590000000000000000e+02,9.746304938700215414e-01,0.000000000000000000e+00
5.600000000000000000e+02,5.995266079720348307e-01,0.000000000000000000e+00
5.610000000000000000e+02,-1.465138491214554861e-01,0.000000000000000000e+00
5.620000000000000000e+02,-4.777782044234858416e-01,0.000000000000000000e+00
5.630000000000000000e+02,-7.413489711794223336e-01,0.000000000000000000e+00
5.640000000000000000e+02,-6.704826830447906394e-01,0.000000000000000000e+00
5.650000000000000000e+02,-7.125254095762838524e-01,0.000000000000000000e+00
5.660000000000000000e+02,-6.833773757556627082e-01,0.000000000000000000e+00
5.670000000000000000e+02,-6.986168967291792598e-01,0.000000000000000000e+00
5.680000000000000000e+02,-6.152009807707811140e-01,0.000000000000000000e+00
5.690000000000000000e+02,-6.315652369588461434e-01,0.000000000000000000e+00
5.700000000000000000e+02,-4.043284548538743084e-01,0.000000000000000000e+00
5.710000000000000000e+02,-5.252059439037128907e-01,0.000000000000000000e+00
5.720000000000000000e+02,-4.803321573883705398e-01,0.000000000000000000e+00
5.730000000000000000e+02,-2.505705972903051193e-01,0.000000000000000000e+00
5.740000000000000000e+02,-1.856042656936365276e-01,0.000000000000000000e+00
5.750000000000000000e+02,-2.032992955482821051e-01,0.000000000000000000e+00
5.760000000000000000e+02,-1.101453484333804328e-01,0.000000000000000000e+00
5.770000000000000000e+02,-8.069819028405650352e-02,0.000000000000000000e+00
5.780000000000000000e+02,-1.320503865481065242e-01,0.000000000000000000e+00
5.790000000000000000e+02,1.252818352069526471e-02,0.000000000000000000e+00
5.800000000000000000e+02,-6.818078212826027273e-02,0.000000000000000000e+00
5.810000000000000000e+02,4.874606524462266229e-03,0.000000000000000000e+00
5.820000000000000000e+02,3.938599730319809755e-02,0.000000000000000000e+00
5.830000000000000000e+02,4.206082953265866120e-02,0.000000000000000000e+00
5.840000000000000000e+02,1.717085610160183351e-01,0.000000000000000000e+00
5.850000000000000000e+02,-7.665335589737518919e-03,0.000000000000000000e+00
5.860000000000000000e+02,6.470698743287152388e-02,0.000000000000000000e+00
5.870000000000000000e+02,1.071265480636792722e-01,0.000000000000000000e+00
5.880000000000000000e+02,1.231250712803987901e-01,0.000000000000000000e+00
5.890000000000000000e+02,1.377367481002270688e-01,0.000000000000000000e+00
5.900000000000000000e+02,2.324282792576617962e-01,0.000000000000000000e+00
5.910000000000000000e+02,1.682134035890445745e-01,0.000000000000000000e+00
5.920000000000000000e+02,1.430266795763477372e-01,0.000000000000000000e+00
5.930000000000000000e+02,2.425730968298646373e-01,0.000000000000000000e+00
5.940000000000000000e+02,2.344210125868308736e-01,0.000000000000000000e+00
5.950000000000000000e+02,1.976915231038085252e-01,0.000000000000000000e+00
5.960000000000000000e+02,3.004212687289395389e-01,0.000000000000000000e+00
5.970000000000000000e+02,5.067954592636325639e-01,0.000000000000000000e+00
5.980000000000000000e+02,4.454082678506003923e-01,0.000000000000000000e+00
5.990000000000000000e+02,2.554521153261245514e-01,0.000000000000000000e+00
6.000000000000000000e+02,1.600113992979388389e-01,0.000000000000000000e+00
6.010000000000000000e+02,-1.953732404196615313e-01,0.000000000000000000e+00
6.020000000000000000e+02,-8.135206331929620283e-02,0.000000000000000000e+00
6.030000000000000000e+02,-2.992356954701651528e-01,0.000000000000000000e+00
6.040000000000000000e+02,-1.669860205694383426e-01,0.000000000000000000e+00
6.050000000000000000e+02,5.210328387082782120e-01,0.000000000000000000e+00
6.060000000000000000e+02,5.271046755092184455e+00,0.000000000000000000e+00
6.070000000000000000e+02,3.240044942451691501e+00,0.000000000000000000e+00
6.080000000000000000e+02,-1.127712704961325585e+00,1.000000000000000000e+00
6.090000000000000000e+02,-2.380808186668770254e+00,0.000000000000000000e+00
6.100000000000000000e+02,-2.446126841470028790e+00,0.000000000000000000e+00
6.110000000000000000e+02,-1.157451246572688275e+00,0.000000000000000000e+00
6.120000000000000000e+02,-5.343254632042534480e-01,0.000000000000000000e+00
6.130000000000000000e+02,-2.733294496343445790e-01,0.000000000000000000e+00
6.140000000000000000e+02,-2.653689687804979824e-01,0.000000000000000000e+00
6.150000000000000000e+02,-2.766191958319486055e-01,0.000000000000000000e+00
6.160000000000000000e+02,-1.814695325916878821e-01,0.000000000000000000e+00
6.170000000000000000e+02,-4.034579814150097282e-02,0.000000000000000000e+00
6.180000000000000000e+02,-9.268210684259865773e-02,0.000000000000000000e+00
6.190000000000000000e+02,7.629032957895888478e-02,0.000000000000000000e+00
6.200000000000000000e+02,4.887788430647286436e-02,0.000000000000000000e+00
6.210000000000000000e+02,2.701676003924647351e-01,0.000000000000000000e+00
6.220000000000000000e+02,5.122873868504662642e-01,0.000000000000000000e+00
6.230000000000000000e+02,8.008538566139440373e-01,0.000000000000000000e+00
6.240000000000000000e+02,1.003089256976382515e+00,0.000000000000000000e+00
6.250000000000000000e+02,1.034528799223030759e+00,0.000000000000000000e+00
6.260000000000000000e+02,5.488177803997000836e-01,0.000000000000000000e+00
6.270000000000000000e+02,-5.747752706533471728e-02,0.000000000000000000e+00
6.280000000000000000e+02,-4.983615613651763976e-01,0.000000000000000000e+00
6.290000000000000000e+02,-6.810227979471293880e-01,0.000000000000000000e+00
6.300000000000000000e+02,-7.496173457931958328e-01,0.000000000000000000e+00
6.310000000000000000e+02,-7.788226265539046622e-01,0.000000000000000000e+00
6.320000000000000000e+02,-6.567654575909441794e-01,0.000000000000000000e+00
6.330000000000000000e+02,-7.775646198569629020e-01,0.000000000000000000e+00
6.340000000000000000e+02,-4.790864758803248802e-01,0.000000000000000000e+00
6.350000000000000000e+02,-6.001471707362264763e-01,0.000000000000000000e+00
6.360000000000000000e+02,-5.626792291944017199e-01,0.000000000000000000e+00
6.370000000000000000e+02,-4.256370184224300690e-01,0.000000000000000000e+00
6.380000000000000000e+02,-3.527795391756585741e-01,0.000000000000000000e+00
6.390000000000000000e+02,-2.128148096621003404e-01,0.000000000000000000e+00
6.400000000000000000e+02,-1.801863894888366124e-01,0.000000000000000000e+00
6.410000000000000000e+02,-4.597370813306100173e-02,0.000000000000000000e+00
6.420000000000000000e+02,-6.895729317066294495e-02,0.000000000000000000e+00
6.430000000000000000e+02,5.679207794151782882e-03,0.000000000000000000e+00
6.440000000000000000e+02,5.883324422403968940e-02,0.000000000000000000e+00
6.450000000000000000e+02,2.438887495159168181e-02,0.000000000000000000e+00
6.460000000000000000e+02,2.268964228170575886e-02,0.000000000000000000e+00
6.470000000000000000e+02,1.872439970593493541e-01,0.000000000000000000e+00
6.480000000000000000e+02,1.024186046795497046e-01,0.000000000000000000e+00
6.490000000000000000e+02,2.593971648307444866e-01,0.000000000000000000e+00
6.500000000000000000e+02,2.634572826476990759e-01,0.000000000000000000e+00
6.510000000000000000e+02,1.911410844654921060e-01,0.000000000000000000e+00
6.520000000000000000e+02,2.505149824322235319e-01,0.000000000000000000e+00
6.530000000000000000e+02,1.612229425892934276e-01,0.000000000000000000e+00
6.540000000000000000e+02,2.338960230724317912e-01,0.000000000000000000e+00
6.550000000000000000e+02,2.608767237136573880e-01,0.000000000000000000e+00
6.560000000000000000e+02,8.932901952001814916e-02,0.000000000000000000e+00
6.570000000000000000e+02,1.437520192394664553e-01,0.000000000000000000e+00
6.580000000000000000e+02,2.118926970178838243e-01,0.000000000000000000e+00
6.590000000000000000e+02,1.523764268496871632e-01,0.000000000000000000e+00
6.600000000000000000e+02,1.586855672796263494e-01,0.000000000000000000e+00
6.610000000000000000e+02,2.099880637055258348e-01,0.000000000000000000e+00
6.620000000000000000e+02,1.429662617598302377e-01,0.000000000000000000e+00
6.630000000000000000e+02,1.312014071258206793e-01,0.000000000000000000e+00
6.640000000000000000e+02,2.124040171386351872e-01,0.000000000000000000e+00
6.650000000000000000e+02,1.280119916787145484e-01,0.000000000000000000e+00
6.660000000000000000e+02,2.418598817095388709e-01,0.000000000000000000e+00
6.670000000000000000e+02,4.059643474256881546e-01,0.000000000000000000e+00
6.680000000000000000e+02,5.560210894633111911e-01,0.000000000000000000e+00
6.690000000000000000e+02,3.664679993004788527e-01,0.000000000000000000e+00
6.700000000000000000e+02,3.187895130286433343e-01,0.000000000000000000e+00
6.710000000000000000e+02,-2.324563179027065371e-02,0.000000000000000000e+00
6.720000000000000000e+02,-1.338232185659605777e-01,0.000000000000000000e+00
6.730000000000000000e+02,-1.657563223466607671e-01,0.000000000000000000e+00
6.740000000000000000e+02,-1.177864732310253126e-01,0.000000000000000000e+00
6.750000000000000000e+02,-2.557879238605856309e-01,0.000000000000000000e+00
6.760000000000000000e+02,3.848300465818844884e+00,0.000000000000000000e+00
6.770000000000000000e+02,4.896890120169653748e+00,0.000000000000000000e+00
6.780000000000000000e+02,-3.887785302357836259e-01,1.000000000000000000e+00
6.790000000000000000e+02,-2.107941753980293598e+00,0.000000000000000000e+00
6.800000000000000000e+02,-2.796356207701527374e+00,0.000000000000000000e+00
6.810000000000000000e+02,-1.593072259348563113e+00,0.000000000000000000e+00
6.820000000000000000e+02,-7.667780434657164301e-01,0.000000000000000000e+00
6.830000000000000000e+02,-5.306960265884199668e-01,0.000000000000000000e+00
6.840000000000000000e+02,-5.237634099873724747e-01,0.000000000000000000e+00
6.850000000000000000e+02,-3.466875839575025431e-01,0.000000000000000000e+00
6.860000000000000000e+02,-3.259445893461260790e-01,0.000000000000000000e+00
6.870000000000000000e+02,-2.920948812746895773e-01,0.000000000000000000e+00
6.880000000000000000e+02,-2.385943953689108332e-01,0.000000000000000000e+00
6.890000000000000000e+02,-1.248872190527782478e-01,0.000000000000000000e+00
6.900000000000000000e+02,-1.029110359338581554e-01,0.000000000000000000e+00
6.910000000000000000e+02,1.113672578990914375e-01,0.000000000000000000e+00
6.920000000000000000e+02,2.923916031978363028e-01,0.000000000000000000e+00
6.930000000000000000e+02,6.705669079974880820e-01,0.000000000000000000e+00
6.940000000000000000e+02,7.786924857096547692e-01,0.000000000000000000e+00
6.950000000000000000e+02,9.721226090851361468e-01,0.000000000000000000e+00
6.960000000000000000e+02,5.997059684638484933e-01,0.000000000000000000e+00
6.970000000000000000e+02,1.701023971062906037e-01,0.000000000000000000e+00
6.980000000000000000e+02,-5.229741680513301239e-01,0.000000000000000000e+00
6.990000000000000000e+02,-8.068774421343021253e-01,0.000000000000000000e+00
7.000000000000000000e+02,-9.601754496674909101e-01,0.000000000000000000e+00
7.010000000000000000e+02,-9.078572269445822629e-01,0.000000000000000000e+00
7.020000000000000000e+02,-8.870212679101715514e-01,0.000000000000000000e+00
7.030000000000000000e+02,-6.903866561943287072e-01,0.000000000000000000e+00
7.040000000000000000e+02,-8.244786722917559763e-01,0.000000000000000000e+00
7.050000000000000000e+02,-6.369433292905641864e-01,0.000000000000000000e+00
7.060000000000000000e+02,-5.928703370649084370e-01,0.000000000000000000e+00
7.070000000000000000e+02,-4.919110829267468454e-01,0.000000000000000000e+00
7.080000000000000000e+02,-5.380829711420286321e-01,0.000000000000000000e+00
7.090000000000000000e+02,-2.368361244786319209e-01,0.000000000000000000e+00
7.100000000000000000e+02,-3.736333909164717415e-01,0.000000000000000000e+00
7.110000000000000000e+02,-6.624513934357539879e-02,0.000000000000000000e+00
7.120000000000000000e+02,-2.612763797390150189e-01,0.000000000000000000e+00
7.130000000000000000e+02,1.394949177231574397e-03,0.000000000000000000e+00
7.140000000000000000e+02,-5.488666225639145940e-02,0.000000000000000000e+00
7.150000000000000000e+02,7.951409103592668726e-02,0.000000000000000000e+00
7.160000000000000000e+02,-3.207573082043298912e-02,0.000000000000000000e+00
7.170000000000000000e+02,1.742187067161296288e-01,0.000000000000000000e+00
7.180000000000000000e+02,3.869666828870268332e-02,0.000000000000000000e+00
7.190000000000000000e+02,1.454944253865081139e-01,0.000000000000000000e+00
7.200000000000000000e+02,1.190923519481625892e-01,0.000000000000000000e+00
7.210000000000000000e+02,1.773803104432968847e-01,0.000000000000000000e+00
7.220000000000000000e+02,1.761824745305123618e-01,0.000000000000000000e+00
7.230000000000000000e+02,1.484890822894097684e-01,0.000000000000000000e+00
7.240000000000000000e+02,1.612401916058720797e-01,0.000000000000000000e+00
7.250000000000000000e+02,1.197030510872759274e-01,0.000000000000000000e+00
7.260000000000000000e+02,1.444112461238810374e-01,0.000000000000000000e+00
7.270000000000000000e+02,2.656721929320796649e-01,0.000000000000000000e+00
7.280000000000000000e+02,2.529481350622125868e-01,0.000000000000000000e+00
7.290000000000000000e+02,2.808796444073403675e-01,0.000000000000000000e+00
7.300000000000000000e+02,1.546139751283499841e-01,0.000000000000000000e+00
7.310000000000000000e+02,2.703911381935226177e-01,0.000000000000000000e+00
7.320000000000000000e+02,2.172165126202661167e-01,0.000000000000000000e+00
7.330000000000000000e+02,3.556099510225796401e-01,0.000000000000000000e+00
7.340000000000000000e+02,2.741687717200535501e-01,0.000000000000000000e+00
7.350000000000000000e+02,2.969174794310262544e-01,0.000000000000000000e+00
7.360000000000000000e+02,2.227192324337951002e-01,0.000000000000000000e+00
7.370000000000000000e+02,2.653080863101316411e-01,0.000000000000000000e+00
7.380000000000000000e+02,5.866103945136034170e-01,0.000000000000000000e+00
7.390000000000000000e+02,7.447266443265893043e-01,0.000000000000000000e+00
7.400000000000000000e+02,4.438733946720806456e-01,0.000000000000000000e+00
7.410000000000000000e+02,3.997971032191844354e-01,0.000000000000000000e+00
7.420000000000000000e+02,-8.739209716677551198e-02,0.000000000000000000e+00
7.430000000000000000e+02,1.394022217544346742e-01,0.000000000000000000e+00
7.440000000000000000e+02,-1.618864900838811183e-01,0.000000000000000000e+00
7.450000000000000000e+02,-1.070092733060893087e-01,0.000000000000000000e+00
7.460000000000000000e+02,4.412126552655963874e-01,0.000000000000000000e+00
7.470000000000000000e+02,5.167114821168026673e+00,0.000000000000000000e+00
7.480000000000000000e+02,3.735301042565247531e+00,0.000000000000000000e+00
7.490000000000000000e+02,-1.209081366630588850e+00,1.000000000000000000e+00
7.500000000000000000e+02,-2.266753089482794525e+00,0.000000000000000000e+00
7.510000000000000000e+02,-2.577397320455590890e+00,0.000000000000000000e+00
7.520000000000000000e+02,-1.301200239239337364e+00,0.000000000000000000e+00
7.530000000000000000e+02,-7.273907171328728438e-01,0.000000000000000000e+00
7.540000000000000000e+02,-4.847920724242472112e-01,0.000000000000000000e+00
7.550000000000000000e+02,-3.718547468100125708e-01,0.000000000000000000e+00
7.560000000000000000e+02,-3.266982916830942774e-01,0.000000000000000000e+00
7.570000000000000000e+02,-2.879510293687425060e-01,0.000000000000000000e+00
7.580000000000000000e+02,-1.325840379033444705e-01,0.000000000000000000e+00
7.590000000000000000e+02,-1.930768193657262932e-01,0.000000000000000000e+00
7.600000000000000000e+02,-6.237936408593153237e-02,0.000000000000000000e+00
7.610000000000000000e+02,-6.739931665775163172e-02,0.000000000000000000e+00
7.620000000000000000e+02,2.370443303965880100e-01,0.000000000000000000e+00
7.630000000000000000e+02,3.986421402017407689e-01,0.000000000000000000e+00
7.640000000000000000e+02,7.266615484895119215e-01,0.000000000000000000e+00
7.650000000000000000e+02,8.565680955083334602e-01,0.000000000000000000e+00
7.660000000000000000e+02,1.043756678152502282e+00,0.000000000000000000e+00
7.670000000000000000e+02,6.682422860847218038e-01,0.000000000000000000e+00
7.680000000000000000e+02,1.242468677830779605e-01,0.000000000000000000e+00
7.690000000000000000e+02,-4.629139264648023389e-01,0.000000000000000000e+00
7.700000000000000000e+02,-7.435561641567824953e-01,0.000000000000000000e+00
7.710000000000000000e+02,-8.376906803543501256e-01,0.000000000000000000e+00
7.720000000000000000e+02,-7.377450916214929322e-01,0.000000000000000000e+00
7.730000000000000000e+02,-7.407588243809085649e-01,0.000000000000000000e+00
7.740000000000000000e+02,-6.396995959479663263e-01,0.000000000000000000e+00
7.750000000000000000e+02,-6.640126050544716829e-01,0.000000000000000000e+00
7.760000000000000000e+02,-5.658013202885914250e-01,0.000000000000000000e+00
7.770000000000000000e+02,-4.730800122533903584e-01,0.000000000000000000e+00
7.780000000000000000e+02,-4.817848555147568601e-01,0.000000000000000000e+00
7.790000000000000000e+02,-4.337965006292021086e-01,0.000000000000000000e+00
7.800000000000000000e+02,-2.048154682213662869e-01,0.000000000000000000e+00
7.810000000000000000e+02,-1.704710937686288175e-01,0.000000000000000000e+00
7.820000000000000000e+02,-1.653292957685451592e-01,0.000000000000000000e+00
7.830000000000000000e+02,-1.205378493246166277e-01,0.000000000000000000e+00
7.840000000000000000e+02,-7.433500329671709206e-02,0.000000000000000000e+00
7.850000000000000000e+02,-7.538659928776483832e-02,0.000000000000000000e+00
7.860000000000000000e+02,5.144527378154540968e-03,0.000000000000000000e+00
7.870000000000000000e+02,1.582171160172830132e-02,0.000000000000000000e+00
7.880000000000000000e+02,1.164614103261644301e-02,0.000000000000000000e+00
7.890000000000000000e+02,7.898029941077418237e-02,0.000000000000000000e+00
7.900000000000000000e+02,1.147438027378401559e-02,0.000000000000000000e+00
7.910000000000000000e+02,1.008950362899453113e-01,0.000000000000000000e+00
7.920000000000000000e+02,1.497482317938031715e-01,0.000000000000000000e+00
7.930000000000000000e+02,1.537075447558044206e-01,0.000000000000000000e+00
7.940000000000000000e+02,1.721130091551346386e-01,0.000000000000000000e+00
7.950000000000000000e+02,1.658975575262290059e-01,0.000000000000000000e+00
7.960000000000000000e+02,1.675509769750120059e-01,0.000000000000000000e+00
7.970000000000000000e+02,2.849473104585594219e-01,0.000000000000000000e+00
7.980000000000000000e+02,5.649121843347906097e-02,0.000000000000000000e+00
7.990000000000000000e+02,2.808189519081746854e-01,0.000000000000000000e+00
8.000000000000000000e+02,1.771807865925346670e-01,0.000000000000000000e+00
8.010000000000000000e+02,5.674372104161702346e-01,0.000000000000000000e+00
8.020000000000000000e+02,5.559613014746178639e-01,0.000000000000000000e+00
8.030000000000000000e+02,4.300139812915792503e-01,0.000000000000000000e+00
8.040000000000000000e+02,2.389982764406603163e-02,0.000000000000000000e+00
8.050000000000000000e+02,-8.120736114186273558e-02,0.000000000000000000e+00
8.060000000000000000e+02,-1.845929386651884163e-01,0.000000000000000000e+00
8.070000000000000000e+02,-5.504950811252865006e-02,0.000000000000000000e+00
8.080000000000000000e+02,-2.634052434304087753e-01,0.000000000000000000e+00
8.090000000000000000e+02,1.762800942945642602e+00,0.000000000000000000e+00
8.100000000000000000e+02,5.577536552430806260e+00,0.000000000000000000e+00
8.110000000000000000e+02,1.590517429217126466e+00,1.000000000000000000e+00
8.120000000000000000e+02,-1.643685701262141308e+00,0.000000000000000000e+00
8.130000000000000000e+02,-2.364144150918530585e+00,0.000000000000000000e+00
8.140000000000000000e+02,-2.160989018525110161e+00,0.000000000000000000e+00
8.150000000000000000e+02,-1.029424910127412662e+00,0.000000000000000000e+00
8.160000000000000000e+02,-5.764759166978471461e-01,0.000000000000000000e+00
8.170000000000000000e+02,-3.455984411460952255e-01,0.000000000000000000e+00
8.180000000000000000e+02,-3.825932117113781672e-01,0.000000000000000000e+00
8.190000000000000000e+02,-2.264846795363716914e-01,0.000000000000000000e+00
8.200000000000000000e+02,-1.796406330361629000e-01,0.000000000000000000e+00
8.210000000000000000e+02,-3.035738284628820005e-01,0.000000000000000000e+00
8.220000000000000000e+02,-1.954995668545334853e-01,0.000000000000000000e+00
8.230000000000000000e+02,-1.859449992017818132e-01,0.000000000000000000e+00
8.240000000000000000e+02,1.571989615341489940e-02,0.000000000000000000e+00
8.250000000000000000e+02,3.081573298445746678e-01,0.000000000000000000e+00
8.260000000000000000e+02,5.088642681245097998e-01,0.000000000000000000e+00
8.270000000000000000e+02,7.253525331959983502e-01,0.000000000000000000e+00
8.280000000000000000e+02,1.036887175780097703e+00,0.000000000000000000e+00
8.290000000000000000e+02,8.321127028144245097e-01,0.000000000000000000e+00
8.300000000000000000e+02,4.754370295941885982e-01,0.000000000000000000e+00
8.310000000000000000e+02,-2.314412692417550932e-01,0.000000000000000000e+00
8.320000000000000000e+02,-5.500350156712311422e-01,0.000000000000000000e+00
8.330000000000000000e+02,-7.840480997925559636e-01,0.000000000000000000e+00
8.340000000000000000e+02,-6.656490331819657769e-01,0.000000000000000000e+00
8.350000000000000000e+02,-7.600556335802002295e-01,0.000000000000000000e+00
8.360000000000000000e+02,-6.588689503487138444e-01,0.000000000000000000e+00
8.370000000000000000e+02,-5.157952935555938367e-01,0.000000000000000000e+00
8.380000000000000000e+02,-6.686587743649458071e-01,0.000000000000000000e+00
8.390000000000000000e+02,-5.704555739988731444e-01,0.000000000000000000e+00
8.400000000000000000e+02,-4.731497697860121976e-01,0.000000000000000000e+00
8.410000000000000000e+02,-3.474213573148218770e-01,0.000000000000000000e+00
8.420000000000000000e+02,-2.737840053251858752e-01,0.000000000000000000e+00
8.430000000000000000e+02,-1.455749140354853366e-01,0.000000000000000000e+00
8.440000000000000000e+02,-1.585828049509075133e-01,0.000000000000000000e+00
8.450000000000000000e+02,-8.353059888714668701e-02,0.000000000000000000e+00
8.460000000000000000e+02,-5.091463754996223418e-02,0.000000000000000000e+00
8.470000000000000000e+02,-4.236812232507426723e-02,0.000000000000000000e+00
8.480000000000000000e+02,3.917979990494146331e-02,0.000000000000000000e+00
8.490000000000000000e+02,2.755695410139187562e-02,0.000000000000000000e+00
8.500000000000000000e+02,3.430129380645094428e-02,0.000000000000000000e+00
8.510000000000000000e+02,3.617672208701125380e-02,0.000000000000000000e+00
8.520000000000000000e+02,1.435699355481235423e-02,0.000000000000000000e+00
8.530000000000000000e+02,1.798836378568294259e-01,0.000000000000000000e+00
8.540000000000000000e+02,1.454121049446606972e-01,0.000000000000000000e+00
8.550000000000000000e+02,1.862269780593648338e-01,0.000000000000000000e+00
8.560000000000000000e+02,1.524740950723952604e-01,0.000000000000000000e+00
8.570000000000000000e+02,1.809543826546488043e-01,0.000000000000000000e+00
8.580000000000000000e+02,2.758645020492261346e-01,0.000000000000000000e+00
8.590000000000000000e+02,2.011724560997606159e-01,0.000000000000000000e+00
8.600000000000000000e+02,2.456146357038968553e-01,0.000000000000000000e+00
8.610000000000000000e+02,2.995195841125239400e-01,0.000000000000000000e+00
8.620000000000000000e+02,2.225401271355383626e-01,0.000000000000000000e+00
8.630000000000000000e+02,2.814714925201208251e-01,0.000000000000000000e+00
8.640000000000000000e+02,2.327777016819563560e-01,0.000000000000000000e+00
8.650000000000000000e+02,2.196555152073304817e-01,0.000000000000000000e+00
8.660000000000000000e+02,2.640635587910896698e-01,0.000000000000000000e+00
8.670000000000000000e+02,1.863397570284037186e-01,0.000000000000000000e+00
8.680000000000000000e+02,3.633044899027511598e-01,0.000000000000000000e+00
8.690000000000000000e+02,7.196491807229351556e-01,0.000000000000000000e+00
8.700000000000000000e+02,4.082108570745653919e-01,0.000000000000000000e+00
8.710000000000000000e+02,4.686012164608824859e-01,0.000000000000000000e+00
8.720000000000000000e+02,-4.690999036209529682e-03,0.000000000000000000e+00
8.730000000000000000e+02,-8.061294064249428792e-03,0.000000000000000000e+00
8.740000000000000000e+02,-2.290938733117900139e-01,0.000000000000000000e+00
8.750000000000000000e+02,3.662600239801619764e-03,0.000000000000000000e+00
8.760000000000000000e+02,-3.235069604940638555e-01,0.000000000000000000e+00
8.770000000000000000e+02,3.271481575827756672e+00,0.000000000000000000e+00
8.780000000000000000e+02,5.292514587756679489e+00,0.000000000000000000e+00
8.790000000000000000e+02,1.840322189789081186e-01,1.000000000000000000e+00
8.800000000000000000e+02,-1.882750809247794033e+00,0.000000000000000000e+00
8.810000000000000000e+02,-2.727391048667119122e+00,0.000000000000000000e+00
8.820000000000000000e+02,-1.651602306006071386e+00,0.000000000000000000e+00
8.830000000000000000e+02,-7.578656252697454354e-01,0.000000000000000000e+00
8.840000000000000000e+02,-4.566618072078428292e-01,0.000000000000000000e+00
8.850000000000000000e+02,-3.464705532843081470e-01,0.000000000000000000e+00
8.860000000000000000e+02,-3.355666843847930902e-01,0.000000000000000000e+00
8.870000000000000000e+02,-3.472886413551241058e-01,0.000000000000000000e+00
8.880000000000000000e+02,-2.286984269821444316e-01,0.000000000000000000e+00
8.890000000000000000e+02,-1.542178871090409964e-01,0.000000000000000000e+00
8.900000000000000000e+02,-1.436826986870139988e-01,0.000000000000000000e+00
8.910000000000000000e+02,6.550824835942607900e-03,0.000000000000000000e+00
8.920000000000000000e+02,4.293049008793735355e-02,0.000000000000000000e+00
8.930000000000000000e+02,1.776135184819443713e-01,0.000000000000000000e+00
8.940000000000000000e+02,5.690938508625605907e-01,0.000000000000000000e+00
8.950000000000000000e+02,7.203298249187052305e-01,0.000000000000000000e+00
8.960000000000000000e+02,1.015593968214180354e+00,0.000000000000000000e+00
8.970000000000000000e+02,8.332761653591740370e-01,0.000000000000000000e+00
8.980000000000000000e+02,1.857721297701503682e-01,0.000000000000000000e+00
8.990000000000000000e+02,-3.779778106542177052e-01,0.000000000000000000e+00
9.000000000000000000e+02,-7.501112172432282676e-01,0.000000000000000000e+00
9.010000000000000000e+02,-9.035433192174083805e-01,0.000000000000000000e+00
9.020000000000000000e+02,-7.383973775503043235e-01,0.000000000000000000e+00
9.030000000000000000e+02,-8.043744319663067577e-01,0.000000000000000000e+00
9.040000000000000000e+02,-6.477079308990050244e-01,0.000000000000000000e+00
9.050000000000000000e+02,-7.050618378588524582e-01,0.000000000000000000e+00
9.060000000000000000e+02,-5.638394670822347576e-01,0.000000000000000000e+00
9.070000000000000000e+02,-5.756158227196865873e-01,0.000000000000000000e+00
9.080000000000000000e+02,-5.348703840640757212e-01,0.000000000000000000e+00
9.090000000000000000e+02,-4.312746528445619010e-01,0.000000000000000000e+00
9.100000000000000000e+02,-4.030333467523017910e-01,0.000000000000000000e+00
9.110000000000000000e+02,-3.378817890543478475e-01,0.000000000000000000e+00
9.120000000000000000e+02,-2.609789514512806941e-01,0.000000000000000000e+00
9.130000000000000000e+02,-8.626726595179982915e-02,0.000000000000000000e+00
9.140000000000000000e+02,-9.629803053932534107e-02,0.000000000000000000e+00
9.150000000000000000e+02,-8.185788847578474858e-02,0.000000000000000000e+00
9.160000000000000000e+02,2.124138890997376294e-02,0.000000000000000000e+00
9.170000000000000000e+02,7.235769414505452066e-03,0.000000000000000000e+00
9.180000000000000000e+02,1.097378001603096509e-01,0.000000000000000000e+00
9.190000000000000000e+02,3.920939543375678155e-02,0.000000000000000000e+00
9.200000000000000000e+02,1.230199567644874314e-01,0.000000000000000000e+00
9.210000000000000000e+02,8.271752675496393814e-02,0.000000000000000000e+00
9.220000000000000000e+02,1.367381733791412923e-01,0.000000000000000000e+00
9.230000000000000000e+02,1.341461119877657981e-01,0.000000000000000000e+00
9.240000000000000000e+02,2.916779622296616914e-01,0.000000000000000000e+00
9.250000000000000000e+02,2.324918721323910309e-01,0.000000000000000000e+00
9.260000000000000000e+02,2.594501605075586470e-01,0.000000000000000000e+00
9.270000000000000000e+02,1.959231554640808448e-01,0.000000000000000000e+00
9.280000000000000000e+02,2.016996069719109164e-01,0.000000000000000000e+00
9.290000000000000000e+02,1.850658039949631128e-01,0.000000000000000000e+00
9.300000000000000000e+02,1.916021079219094592e-01,0.000000000000000000e+00
9.310000000000000000e+02,2.392186245113239462e-01,0.000000000000000000e+00
9.320000000000000000e+02,2.524000483255365301e-01,0.000000000000000000e+00
9.330000000000000000e+02,1.728168353256971934e-01,0.000000000000000000e+00
9.340000000000000000e+02,2.765386378365770614e-01,0.000000000000000000e+00
9.350000000000000000e+02,2.096408150940451132e-01,0.000000000000000000e+00
9.360000000000000000e+02,2.654051242441038405e-01,0.000000000000000000e+00
9.370000000000000000e+02,3.422418704817115076e-01,0.000000000000000000e+00
9.380000000000000000e+02,6.359115718907604187e-01,0.000000000000000000e+00
9.390000000000000000e+02,6.642140352475072174e-01,0.000000000000000000e+00
9.400000000000000000e+02,3.944058380931614871e-01,0.000000000000000000e+00
9.410000000000000000e+02,2.505986616164314063e-01,0.000000000000000000e+00
9.420000000000000000e+02,-1.212114692579170788e-01,0.000000000000000000e+00
9.430000000000000000e+02,-3.086163824804128222e-02,0.000000000000000000e+00
9.440000000000000000e+02,-8.240020134363502946e-02,0.000000000000000000e+00
9.450000000000000000e+02,-2.526399093252413297e-01,0.000000000000000000e+00
9.460000000000000000e+02,1.395647392991229863e+00,0.000000000000000000e+00
9.470000000000000000e+02,5.762242141278377972e+00,0.000000000000000000e+00
9.480000000000000000e+02,2.093269397552307787e+00,1.000000000000000000e+00
9.490000000000000000e+02,-1.648204265792383438e+00,0.000000000000000000e+00
9.500000000000000000e+02,-2.614996156666585581e+00,0.000000000000000000e+00
9.510000000000000000e+02,-2.406100661379682482e+00,0.000000000000000000e+00
9.520000000000000000e+02,-1.101838869371317697e+00,0.000000000000000000e+00
9.530000000000000000e+02,-7.058786483656296351e-01,0.000000000000000000e+00
9.540000000000000000e+02,-4.465923812871412935e-01,0.000000000000000000e+00
9.550000000000000000e+02,-4.247880172288119871e-01,0.000000000000000000e+00
9.560000000000000000e+02,-3.746047262430892699e-01,0.000000000000000000e+00
9.570000000000000000e+02,-2.604493069332506350e-01,0.000000000000000000e+00
9.580000000000000000e+02,-1.348070618186583136e-01,0.000000000000000000e+00
9.590000000000000000e+02,-2.423205876410890192e-01,0.000000000000000000e+00
9.600000000000000000e+02,5.270797876958813535e-03,0.000000000000000000e+00
9.610000000000000000e+02,-5.814777562007795476e-03,0.000000000000000000e+00
9.620000000000000000e+02,2.433409893528774015e-01,0.000000000000000000e+00
9.630000000000000000e+02,5.248356122321056194e-01,0.000000000000000000e+00
9.640000000000000000e+02,7.175117000939341683e-01,0.000000000000000000e+00
9.650000000000000000e+02,9.594119767735225235e-01,0.000000000000000000e+00
9.660000000000000000e+02,9.269313487946213570e-01,0.000000000000000000e+00
9.670000000000000000e+02,3.433312460709031511e-01,0.000000000000000000e+00
9.680000000000000000e+02,-1.250816488985613262e-01,0.000000000000000000e+00
9.690000000000000000e+02,-6.747219224497594814e-01,0.000000000000000000e+00
9.700000000000000000e+02,-8.291507528211971012e-01,0.000000000000000000e+00
9.710000000000000000e+02,-7.997496471594651712e-01,0.000000000000000000e+00
9.720000000000000000e+02,-7.904650478671715330e-01,0.000000000000000000e+00
9.730000000000000000e+02,-7.188691340692094922e-01,0.000000000000000000e+00
9.740000000000000000e+02,-6.660770916283194065e-01,0.000000000000000000e+00
9.750000000000000000e+02,-6.898059955732057658e-01,0.000000000000000000e+00
9.760000000000000000e+02,-5.689879375806697892e-01,0.000000000000000000e+00
9.770000000000000000e+02,-5.835296551079722782e-01,0.000000000000000000e+00
9.780000000000000000e+02,-5.554611790160844942e-01,0.000000000000000000e+00
9.790000000000000000e+02,-4.614932010803432516e-01,0.000000000000000000e+00
9.800000000000000000e+02,-3.456703624821858556e-01,0.000000000000000000e+00
9.810000000000000000e+02,-1.959935766917915989e-01,0.000000000000000000e+00
9.820000000000000000e+02,-1.278226474090474185e-01,0.000000000000000000e+00
9.830000000000000000e+02,-1.348299413283913228e-01,0.000000000000000000e+00
9.840000000000000000e+02,-9.741464373036015645e-02,0.000000000000000000e+00
9.850000000000000000e+02,-8.071754441681987247e-02,0.000000000000000000e+00
9.860000000000000000e+02,-3.526410479145375941e-03,0.000000000000000000e+00
9.870000000000000000e+02,5.431891229148897576e-02,0.000000000000000000e+00
9.880000000000000000e+02,5.519369536916298585e-02,0.000000000000000000e+00
9.890000000000000000e+02,1.240427187217690713e-01,0.000000000000000000e+00
9.900000000000000000e+02,8.139617670918093684e-02,0.000000000000000000e+00
9.910000000000000000e+02,1.303689599396906929e-01,0.000000000000000000e+00
9.920000000000000000e+02,1.901901879809789198e-01,0.000000000000000000e+00
9.930000000000000000e+02,2.184988855734140978e-01,0.000000000000000000e+00
9.940000000000000000e+02,9.509748576625041971e-02,0.000000000000000000e+00
9.950000000000000000e+02,1.713485408503354068e-01,0.000000000000000000e+00
9.960000000000000000e+02,2.332896742830390113e-01,0.000000000000000000e+00
9.970000000000000000e+02,2.982702567786847947e-01,0.000000000000000000e+00
9.980000000000000000e+02,1.625900489551801165e-01,0.000000000000000000e+00
9.990000000000000000e+02,2.298776461486061740e-01,0.000000000000000000e+00
1.000000000000000000e+03,2.190061504688178284e-01,0.000000000000000000e+00
1.001000000000000000e+03,2.768843153328229834e-01,0.000000000000000000e+00
1.002000000000000000e+03,4.001680964071384627e-01,0.000000000000000000e+00
1.003000000000000000e+03,6.829362254350093142e-01,0.000000000000000000e+00
1.004000000000000000e+03,5.714973817217942065e-01,0.000000000000000000e+00
1.005000000000000000e+03,4.183881504234990278e-01,0.000000000000000000e+00
1.006000000000000000e+03,3.018330253701619337e-01,0.000000000000000000e+00
1.007000000000000000e+03,1.159805706620541804e-01,0.000000000000000000e+00
1.008000000000000000e+03,6.000101858595789650e-02,0.000000000000000000e+00
1.009000000000000000e+03,1.088527031483381008e-01,0.000000000000000000e+00
1.010000000000000000e+03,-1.389472198556107874e-01,0.000000000000000000e+00
1.011000000000000000e+03,2.153328048798407668e+00,0.000000000000000000e+00
1.012000000000000000e+03,5.696923427434128939e+00,0.000000000000000000e+00
1.013000000000000000e+03,1.222568120087531796e+00,1.000000000000000000e+00
1.014000000000000000e+03,-1.551863048338952389e+00,0.000000000000000000e+00
1.015000000000000000e+03,-2.212452817513281378e+00,0.000000000000000000e+00
1.016000000000000000e+03,-1.936353766888759376e+00,0.000000000000000000e+00
1.017000000000000000e+03,-8.473907659182978724e-01,0.000000000000000000e+00
1.018000000000000000e+03,-3.630526327426206734e-01,0.000000000000000000e+00
1.019000000000000000e+03,-3.278348524670752218e-01,0.000000000000000000e+00
1.020000000000000000e+03,-1.903847720253072917e-01,0.000000000000000000e+00
1.021000000000000000e+03,-2.208962048463318228e-01,0.000000000000000000e+00
1.022000000000000000e+03,-1.440140998289579366e-01,0.000000000000000000e+00
1.023000000000000000e+03,-1.555374416525545644e-01,0.000000000000000000e+00
1.024000000000000000e+03,-7.678594324723173048e-02,0.000000000000000000e+00
1.025000000000000000e+03,-6.440920218243563478e-02,0.000000000000000000e+00
1.026000000000000000e+03,1.481844850498997834e-01,0.000000000000000000e+00
1.027000000000000000e+03,1.377036161882280174e-01,0.000000000000000000e+00
1.028000000000000000e+03,5.309051620880541611e-01,0.000000000000000000e+00
1.029000000000000000e+03,7.481232179440511221e-01,0.000000000000000000e+00
1.030000000000000000e+03,1.013526738565311058e+00,0.000000000000000000e+00
1.031000000000000000e+03,8.669547284203412696e-01,0.000000000000000000e+00
1.032000000000000000e+03,3.512379657091825313e-01,0.000000000000000000e+00
1.033000000000000000e+03,-2.515865830190285313e-01,0.000000000000000000e+00
1.034000000000000000e+03,-6.999106385308024869e-01,0.000000000000000000e+00
1.035000000000000000e+03,-7.425012462367384103e-01,0.000000000000000000e+00
1.036000000000000000e+03,-8.833005101063229336e-01,0.000000000000000000e+00
1.037000000000000000e+03,-8.111208320941913907e-01,0.000000000000000000e+00
1.038000000000000000e+03,-9.192824170475066836e-01,0.000000000000000000e+00
1.039000000000000000e+03,-7.374715605875390434e-01,0.000000000000000000e+00
1.040000000000000000e+03,-7.586831288641839866e-01,0.000000000000000000e+00
1.041000000000000000e+03,-5.835064542775777463e-01,0.000000000000000000e+00
1.042000000000000000e+03,-5.890608447164518147e-01,0.000000000000000000e+00
1.043000000000000000e+03,-6.250212576949776278e-01,0.000000000000000000e+00
1.044000000000000000e+03,-4.234381397787117529e-01,0.000000000000000000e+00
1.045000000000000000e+03,-4.273165940260326146e-01,0.000000000000000000e+00
1.046000000000000000e+03,-3.525650350866791904e-01,0.000000000000000000e+00
1.047000000000000000e+03,-2.560933697973223344e-01,0.000000000000000000e+00
1.048000000000000000e+03,-2.115851755639409082e-01,0.000000000000000000e+00
1.049000000000000000e+03,-1.494142018059626265e-01,0.000000000000000000e+00
1.050000000000000000e+03,-1.168408935837018103e-01,0.000000000000000000e+00
1.051000000000000000e+03,-1.305624751248141424e-01,0.000000000000000000e+00
1.052000000000000000e+03,-6.580002654861880074e-02,0.000000000000000000e+00
1.053000000000000000e+03,-7.606541682588632836e-02,0.000000000000000000e+00
1.054000000000000000e+03,1.389212022891797016e-01,0.000000000000000000e+00
1.055000000000000000e+03,-3.286472035889875798e-02,0.000000000000000000e+00
1.056000000000000000e+03,7.233430159019275940e-03,0.000000000000000000e+00
1.057000000000000000e+03,1.669481008129014843e-01,0.000000000000000000e+00
1.058000000000000000e+03,1.785277446509426699e-02,0.000000000000000000e+00
1.059000000000000000e+03,2.373451589483488167e-01,0.000000000000000000e+00
1.060000000000000000e+03,1.647564456937203603e-01,0.000000000000000000e+00
1.061000000000000000e+03,1.829064035438410785e-01,0.000000000000000000e+00
1.062000000000000000e+03,5.158872568126578878e-02,0.000000000000000000e+00
1.063000000000000000e+03,1.506605853720401345e-01,0.000000000000000000e+00
1.064000000000000000e+03,2.305589082255821987e-01,0.000000000000000000e+00
1.065000000000000000e+03,2.741442265589050797e-01,0.000000000000000000e+00
1.066000000000000000e+03,1.320604312793114410e-01,0.000000000000000000e+00
1.067000000000000000e+03,2.716956024266676262e-01,0.000000000000000000e+00
1.068000000000000000e+03,5.566546255512490049e-01,0.000000000000000000e+00
1.069000000000000000e+03,4.998873992685746170e-01,0.000000000000000000e+00
1.070000000000000000e+03,4.918680416616854068e-01,0.000000000000000000e+00
1.071000000000000000e+03,2.715481614800302479e-01,0.000000000000000000e+00
1.072000000000000000e+03,-5.265143124698446614e-02,0.000000000000000000e+00
1.073000000000000000e+03,5.963468732126440269e-02,0.000000000000000000e+00
1.074000000000000000e+03,-1.930170236616754768e-03,0.000000000000000000e+00
1.075000000000000000e+03,-2.030201409776042354e-01,0.000000000000000000e+00
1.076000000000000000e+03,1.025870450386554555e+00,0.000000000000000000e+00
1.077000000000000000e+03,5.614352920252412282e+00,0.000000000000000000e+00
1.078000000000000000e+03,2.912475464867965158e+00,1.000000000000000000e+00
1.079000000000000000e+03,-1.298040084033644126e+00,0.000000000000000000e+00
1.080000000000000000e+03,-2.371659027233833594e+00,0.000000000000000000e+00
1.081000000000000000e+03,-2.284838736222063460e+00,0.000000000000000000e+00
1.082000000000000000e+03,-9.361414992768420928e-01,0.000000000000000000e+00
1.083000000000000000e+03,-5.178240159092873940e-01,0.000000000000000000e+00
1.084000000000000000e+03,-2.687879648785316267e-01,0.000000000000000000e+00
1.085000000000000000e+03,-3.621893339878651252e-01,0.000000000000000000e+00
1.086000000000000000e+03,-1.531947465875285186e-01,0.000000000000000000e+00
1.087000000000000000e+03,-1.749444453826780599e-01,0.000000000000000000e+00
1.088000000000000000e+03,-8.493697437291689023e-02,0.000000000000000000e+00
1.089000000000000000e+03,-8.296102095634673435e-02,0.000000000000000000e+00
1.090000000000000000e+03,6.008488635948668749e-02,0.000000000000000000e+00
1.091000000000000000e+03,4.093931802527796954e-02,0.000000000000000000e+00
1.092000000000000000e+03,2.900532188101276332e-01,0.000000000000000000e+00
1.093000000000000000e+03,4.509434294841950241e-01,0.000000000000000000e+00
1.094000000000000000e+03,8.540795745036728892e-01,0.000000000000000000e+00
1.095000000000000000e+03,1.005676986640870574e+00,0.000000000000000000e+00
1.096000000000000000e+03,1.000441786699574731e+00,0.000000000000000000e+00
1.097000000000000000e+03,5.388648462069656198e-01,0.000000000000000000e+00
1.098000000000000000e+03,-5.030381157264676023e-02,0.000000000000000000e+00
1.099000000000000000e+03,-6.121133575195241150e-01,0.000000000000000000e+00
1.100000000000000000e+03,-7.906000760052883658e-01,0.000000000000000000e+00
1.101000000000000000e+03,-8.713212635963943908e-01,0.000000000000000000e+00
1.102000000000000000e+03,-7.384148300588483371e-01,0.000000000000000000e+00
1.103000000000000000e+03,-8.789415765097300381e-01,0.000000000000000000e+00
1.104000000000000000e+03,-6.203104091826480149e-01,0.000000000000000000e+00
1.105000000000000000e+03,-7.090564339212160894e-01,0.000000000000000000e+00
1.106000000000000000e+03,-5.536717018074798213e-01,0.000000000000000000e+00
1.107000000000000000e+03,-6.821182312836512329e-01,0.000000000000000000e+00
1.108000000000000000e+03,-4.485800773403221808e-01,0.000000000000000000e+00
1.109000000000000000e+03,-5.437297297940176799e-01,0.000000000000000000e+00
1.110000000000000000e+03,-2.541194870054825361e-01,0.000000000000000000e+00
1.111000000000000000e+03,-2.493283166338677304e-01,0.000000000000000000e+00
1.112000000000000000e+03,-9.358947725473519552e-02,0.000000000000000000e+00
1.113000000000000000e+03,-1.418446823731673856e-01,0.000000000000000000e+00
1.114000000000000000e+03,-6.421414482269928448e-02,0.000000000000000000e+00
1.115000000000000000e+03,6.031899065436441970e-02,0.000000000000000000e+00
1.116000000000000000e+03,8.829862250701796256e-02,0.000000000000000000e+00
1.117000000000000000e+03,-2.970699248516575630e-02,0.000000000000000000e+00
1.118000000000000000e+03,1.045083339217397628e-01,0.000000000000000000e+00
1.119000000000000000e+03,1.073747728056254624e-01,0.000000000000000000e+00
1.120000000000000000e+03,7.097270393612972739e-02,0.000000000000000000e+00
1.121000000000000000e+03,1.922433754229229685e-01,0.000000000000000000e+00
1.122000000000000000e+03,1.601043726692744640e-01,0.000000000000000000e+00
1.123000000000000000e+03,1.964586093326531890e-01,0.000000000000000000e+00
1.124000000000000000e+03,1.874431275829412935e-01,0.000000000000000000e+00
1.125000000000000000e+03,1.144890551019878133e-01,0.000000000000000000e+00
1.126000000000000000e+03,2.755867911597273401e-01,0.000000000000000000e+00
1.127000000000000000e+03,1.655880042967395327e-01,0.000000000000000000e+00
1.128000000000000000e+03,2.561291507852715976e-01,0.000000000000000000e+00
1.129000000000000000e+03,1.564282846514870873e-01,0.000000000000000000e+00
1.130000000000000000e+03,2.516556196568245363e-01,0.000000000000000000e+00
1.131000000000000000e+03,1.100031669971413273e-01,0.000000000000000000e+00
1.132000000000000000e+03,3.252224682413183965e-01,0.000000000000000000e+00
1.133000000000000000e+03,1.881783657109938890e-01,0.000000000000000000e+00
1.134000000000000000e+03,2.670329906147229648e-01,0.000000000000000000e+00
1.135000000000000000e+03,3.748439577505626730e-01,0.000000000000000000e+00
1.136000000000000000e+03,6.221289608943095795e-01,0.000000000000000000e+00
1.137000000000000000e+03,4.575721028572889426e-01,0.000000000000000000e+00
1.138000000000000000e+03,3.512335785142846611e-01,0.000000000000000000e+00
1.139000000000000000e+03,6.035416052972262385e-02,0.000000000000000000e+00
1.140000000000000000e+03,-2.876091583595857121e-02,0.000000000000000000e+00
1.141000000000000000e+03,-1.634744290620702700e-01,0.000000000000000000e+00
1.142000000000000000e+03,2.536930977583688393e-02,0.000000000000000000e+00
1.143000000000000000e+03,-3.380379528998517791e-01,0.000000000000000000e+00
1.144000000000000000e+03,3.366919319741037864e+00,0.000000000000000000e+00
1.145000000000000000e+03,5.538640295705106631e+00,0.000000000000000000e+00
1.146000000000000000e+03,3.634127896670140689e-01,1.000000000000000000e+00
1.147000000000000000e+03,-1.898743910471004215e+00,0.000000000000000000e+00
1.148000000000000000e+03,-2.715360263924107453e+00,0.000000000000000000e+00
1.149000000000000000e+03,-1.763069254226492744e+00,0.000000000000000000e+00
1.150000000000000000e+03,-8.340496169255057213e-01,0.000000000000000000e+00
1.151000000000000000e+03,-4.843302885905917399e-01,0.000000000000000000e+00
1.152000000000000000e+03,-4.794469872850083969e-01,0.000000000000000000e+00
1.153000000000000000e+03,-4.010693246535279588e-01,0.000000000000000000e+00
1.154000000000000000e+03,-3.243551754841190737e-01,0.000000000000000000e+00
1.155000000000000000e+03,-2.506490248869609472e-01,0.000000000000000000e+00
1.156000000000000000e+03,-1.456088078930946328e-01,0.000000000000000000e+00
1.157000000000000000e+03,1.303503258391238394e-02,0.000000000000000000e+00
1.158000000000000000e+03,-5.636847780541567876e-02,0.000000000000000000e+00
1.159000000000000000e+03,1.865239758259525371e-01,0.000000000000000000e+00
1.160000000000000000e+03,2.676376155091793607e-01,0.000000000000000000e+00
1.161000000000000000e+03,7.147847125949509106e-01,0.000000000000000000e+00
1.162000000000000000e+03,8.826474230588797765e-01,0.000000000000000000e+00
1.163000000000000000e+03,1.095801740463342888e+00,0.000000000000000000e+00
1.164000000000000000e+03,8.377988417704042012e-01,0.000000000000000000e+00
1.165000000000000000e+03,2.522247232941554063e-01,0.000000000000000000e+00
1.166000000000000000e+03,-3.828002540494065964e-01,0.000000000000000000e+00
1.167000000000000000e+03,-7.158522728632573662e-01,0.000000000000000000e+00
1.168000000000000000e+03,-9.041778386880153784e-01,0.000000000000000000e+00
1.169000000000000000e+03,-8.399553567301242252e-01,0.000000000000000000e+00
1.170000000000000000e+03,-8.879876594473037343e-01,0.000000000000000000e+00
1.171000000000000000e+03,-7.686736280120725073e-01,0.000000000000000000e+00
1.172000000000000000e+03,-7.298585005585421781e-01,0.000000000000000000e+00
1.173000000000000000e+03,-7.120637527741915385e-01,0.000000000000000000e+00
1.174000000000000000e+03,-6.257528937435609118e-01,0.000000000000000000e+00
1.175000000000000000e+03,-6.746312471384345866e-01,0.000000000000000000e+00
1.176000000000000000e+03,-5.084047852831072856e-01,0.000000000000000000e+00
1.177000000000000000e+03,-4.471715517683790275e-01,0.000000000000000000e+00
1.178000000000000000e+03,-3.820088035416439598e-01,0.000000000000000000e+00
1.179000000000000000e+03,-2.428470588999444846e-01,0.000000000000000000e+00
1.180000000000000000e+03,-1.625454852732476363e-01,0.000000000000000000e+00
1.181000000000000000e+03,-1.435622668212619413e-01,0.000000000000000000e+00
1.182000000000000000e+03,-7.430401366280245390e-02,0.000000000000000000e+00
1.183000000000000000e+03,5.660264534179605678e-02,0.000000000000000000e+00
1.184000000000000000e+03,-3.961258638789517950e-02,0.000000000000000000e+00
1.185000000000000000e+03,1.063997383939960240e-01,0.000000000000000000e+00
1.186000000000000000e+03,8.246299566206291565e-02,0.000000000000000000e+00
1.187000000000000000e+03,2.081958831527867815e-01,0.000000000000000000e+00
1.188000000000000000e+03,1.177981790709306809e-01,0.000000000000000000e+00
1.189000000000000000e+03,1.789767338059835566e-01,0.000000000000000000e+00
1.190000000000000000e+03,1.585263540313305020e-01,0.000000000000000000e+00
1.191000000000000000e+03,1.206311399600414891e-01,0.000000000000000000e+00
1.192000000000000000e+03,1.539271310919811120e-01,0.000000000000000000e+00
1.193000000000000000e+03,1.685774253036840808e-01,0.000000000000000000e+00
1.194000000000000000e+03,1.913066524495670995e-01,0.000000000000000000e+00
1.195000000000000000e+03,1.498304449661101156e-01,0.000000000000000000e+00
1.196000000000000000e+03,1.656972883880305225e-01,0.000000000000000000e+00
1.197000000000000000e+03,1.629668599227974135e-01,0.000000000000000000e+00
1.198000000000000000e+03,1.350645391399051820e-01,0.000000000000000000e+00
1.199000000000000000e+03,1.335950747618646350e-01,0.000000000000000000e+00
1.200000000000000000e+03,1.909287819601596381e-01,0.000000000000000000e+00
1.201000000000000000e+03,3.700614818715147192e-01,0.000000000000000000e+00
1.202000000000000000e+03,6.511558826451726567e-01,0.000000000000000000e+00
1.203000000000000000e+03,3.489038336782657179e-01,0.000000000000000000e+00
1.204000000000000000e+03,2.938739219729895602e-01,0.000000000000000000e+00
1.205000000000000000e+03,-6.946916810268326248e-02,0.000000000000000000e+00
1.206000000000000000e+03,-1.768323832277441179e-02,0.000000000000000000e+00
1.207000000000000000e+03,-1.624721256161047733e-01,0.000000000000000000e+00
1.208000000000000000e+03,6.543708483974804146e-02,0.000000000000000000e+00
1.209000000000000000e+03,-2.414718042395863976e-02,0.000000000000000000e+00
1.210000000000000000e+03,4.510460647747316365e+00,0.000000000000000000e+00
1.211000000000000000e+03,4.377710027059420916e+00,0.000000000000000000e+00
1.212000000000000000e+03,-6.265293801202428403e-01,1.000000000000000000e+00
1.213000000000000000e+03,-2.033761294791820440e+00,0.000000000000000000e+00
1.214000000000000000e+03,-2.557760273878261881e+00,0.000000000000000000e+00
1.215000000000000000e+03,-1.374951726673043995e+00,0.000000000000000000e+00
1.216000000000000000e+03,-6.596638054504927462e-01,0.000000000000000000e+00
1.217000000000000000e+03,-3.254760667249598782e-01,0.000000000000000000e+00
1.218000000000000000e+03,-3.632552916122890885e-01,0.000000000000000000e+00
1.219000000000000000e+03,-2.148588146171896140e-01,0.000000000000000000e+00
1.220000000000000000e+03,-2.617712140967571877e-01,0.000000000000000000e+00
1.221000000000000000e+03,9.820063775390748539e-03,0.000000000000000000e+00
1.222000000000000000e+03,-1.056295071467517194e-01,0.000000000000000000e+00
1.223000000000000000e+03,-3.906309754021270592e-02,0.000000000000000000e+00
1.224000000000000000e+03,6.071380097877091681e-02,0.000000000000000000e+00
1.225000000000000000e+03,2.526829567035558388e-01,0.000000000000000000e+00
1.226000000000000000e+03,3.386694265314026953e-01,0.000000000000000000e+00
1.227000000000000000e+03,7.453749411313873585e-01,0.000000000000000000e+00
1.228000000000000000e+03,8.846477365346651078e-01,0.000000000000000000e+00
1.229000000000000000e+03,9.441349366257527631e-01,0.000000000000000000e+00
1.230000000000000000e+03,6.951010916577322618e-01,0.000000000000000000e+00
1.231000000000000000e+03,2.378781916973315425e-01,0.000000000000000000e+00
1.232000000000000000e+03,-4.592247617439882412e-01,0.000000000000000000e+00
1.233000000000000000e+03,-5.954352301690006843e-01,0.000000000000000000e+00
1.234000000000000000e+03,-7.321016172820813406e-01,0.000000000000000000e+00
1.235000000000000000e+03,-7.084914523832810396e-01,0.000000000000000000e+00
1.236000000000000000e+03,-6.487857961589670319e-01,0.000000000000000000e+00
1.237000000000000000e+03,-6.526140572529174344e-01,0.000000000000000000e+00
1.238000000000000000e+03,-5.475033187405602408e-01,0.000000000000000000e+00
1.239000000000000000e+03,-4.997771049914158659e-01,0.000000000000000000e+00
1.240000000000000000e+03,-4.883294338312589855e-01,0.000000000000000000e+00
1.241000000000000000e+03,-3.682157681940775307e-01,0.000000000000000000e+00
1.242000000000000000e+03,-3.659012923852010823e-01,0.000000000000000000e+00
1.243000000000000000e+03,-2.373777396765100467e-01,0.000000000000000000e+00
1.244000000000000000e+03,-1.404428822004799571e-01,0.000000000000000000e+00
1.245000000000000000e+03,-4.281771598409656043e-02,0.000000000000000000e+00
1.246000000000000000e+03,-9.764700465302605936e-02,0.000000000000000000e+00
1.247000000000000000e+03,5.470005654015118977e-03,0.000000000000000000e+00
1.248000000000000000e+03,-7.386591830100701361e-02,0.000000000000000000e+00
1.249000000000000000e+03,-9.903628897780125673e-03,0.000000000000000000e+00
1.250000000000000000e+03,5.656322580507249648e-02,0.000000000000000000e+00
1.251000000000000000e+03,1.183872883895639889e-02,0.000000000000000000e+00
1.252000000000000000e+03,4.995426761535760873e-02,0.000000000000000000e+00
1.253000000000000000e+03,1.913432559863929294e-01,0.000000000000000000e+00
1.254000000000000000e+03,4.113090485036526717e-02,0.000000000000000000e+00
1.255000000000000000e+03,1.719157955794289316e-01,0.000000000000000000e+00
1.256000000000000000e+03,1.073872436627672233e-01,0.000000000000000000e+00
1.257000000000000000e+03,1.768440372088307400e-01,0.000000000000000000e+00
1.258000000000000000e+03,1.431450949698924446e-01,0.000000000000000000e+00
1.259000000000000000e+03,7.768423998525923746e-02,0.000000000000000000e+00
1.260000000000000000e+03,2.193598751503897382e-01,0.000000000000000000e+00
1.261000000000000000e+03,3.062274538017485948e-01,0.000000000000000000e+00
1.262000000000000000e+03,6.528811364049438293e-01,0.000000000000000000e+00
1.263000000000000000e+03,4.667348807695261281e-01,0.000000000000000000e+00
1.264000000000000000e+03,3.588715328669184190e-01,0.000000000000000000e+00
1.265000000000000000e+03,-2.842752881409996157e-02,0.000000000000000000e+00
1.266000000000000000e+03,2.891198271324482358e-02,0.000000000000000000e+00
1.267000000000000000e+03,-2.277279606122596389e-01,0.000000000000000000e+00
1.268000000000000000e+03,-1.017119086971205767e-02,0.000000000000000000e+00
1.269000000000000000e+03,-2.584603522553825528e-01,0.000000000000000000e+00
1.270000000000000000e+03,2.252476142903291567e+00,0.000000000000000000e+00
1.271000000000000000e+03,5.715726458749278649e+00,0.000000000000000000e+00
1.272000000000000000e+03,1.082971982297706637e+00,1.000000000000000000e+00
1.273000000000000000e+03,-1.596378935772641228e+00,0.000000000000000000e+00
1.274000000000000000e+03,-2.529011208340028460e+00,0.000000000000000000e+00
1.275000000000000000e+03,-2.029231544908078888e+00,0.000000000000000000e+00
1.276000000000000000e+03,-1.005573433624651791e+00,0.000000000000000000e+00
1.277000000000000000e+03,-4.349125293644138801e-01,0.000000000000000000e+00
1.278000000000000000e+03,-4.190545322533892891e-01,0.000000000000000000e+00
1.279000000000000000e+03,-2.968187058209538209e-01,0.000000000000000000e+00
1.280000000000000000e+03,-2.250964635764947930e-01,0.000000000000000000e+00
1.281000000000000000e+03,-2.977469259400679635e-01,0.000000000000000000e+00
1.282000000000000000e+03,-1.015545731068147328e-01,0.000000000000000000e+00
1.283000000000000000e+03,-5.546311580639008698e-02,0.000000000000000000e+00
1.284000000000000000e+03,6.490901768770171096e-03,0.000000000000000000e+00
1.285000000000000000e+03,1.934086162799647235e-01,0.000000000000000000e+00
1.286000000000000000e+03,2.998387036056351374e-01,0.000000000000000000e+00
1.287000000000000000e+03,5.575160966952199537e-01,0.000000000000000000e+00
1.288000000000000000e+03,9.150071887176030039e-01,0.000000000000000000e+00
1.289000000000000000e+03,1.036733636092004529e+00,0.000000000000000000e+00
1.290000000000000000e+03,9.347845896617923422e-01,0.000000000000000000e+00
1.291000000000000000e+03,2.214296308961051785e-01,0.000000000000000000e+00
1.292000000000000000e+03,-2.854694114186974163e-01,0.000000000000000000e+00
1.293000000000000000e+03,-7.464258536031326274e-01,0.000000000000000000e+00
1.294000000000000000e+03,-7.742872371637707918e-01,0.000000000000000000e+00
1.295000000000000000e+03,-8.694799581655926479e-01,0.000000000000000000e+00
1.296000000000000000e+03,-8.481218440045693585e-01,0.000000000000000000e+00
1.297000000000000000e+03,-7.525535846652616767e-01,0.000000000000000000e+00
1.298000000000000000e+03,-7.800915157677280609e-01,0.000000000000000000e+00
1.299000000000000000e+03,-6.881638927777485870e-01,0.000000000000000000e+00
1.300000000000000000e+03,-5.464082585922988011e-01,0.000000000000000000e+00
1.301000000000000000e+03,-6.557395959788027140e-01,0.000000000000000000e+00
1.302000000000000000e+03,-4.285270433805805079e-01,0.000000000000000000e+00
1.303000000000000000e+03,-3.739992952936370685e-01,0.000000000000000000e+00
1.304000000000000000e+03,-2.794964298455535623e-01,0.000000000000000000e+00
1.305000000000000000e+03,-1.445156827333095306e-01,0.000000000000000000e+00
1.306000000000000000e+03,-1.952824349520763392e-01,0.000000000000000000e+00
1.307000000000000000e+03,-1.806392678143889374e-02,0.000000000000000000e+00
1.308000000000000000e+03,-1.276575387758112703e-02,0.000000000000000000e+00
1.309000000000000000e+03,-4.482839080784437047e-03,0.000000000000000000e+00
1.310000000000000000e+03,6.589327880500847612e-02,0.000000000000000000e+00
1.311000000000000000e+03,-1.065151265221521842e-01,0.000000000000000000e+00
1.312000000000000000e+03,1.035772352136612867e-01,0.000000000000000000e+00
1.313000000000000000e+03,1.263063295526657415e-01,0.000000000000000000e+00
1.314000000000000000e+03,5.793664856105010252e-02,0.000000000000000000e+00
1.315000000000000000e+03,1.723788018654797138e-01,0.000000000000000000e+00
1.316000000000000000e+03,1.050446132910696079e-01,0.000000000000000000e+00
1.317000000000000000e+03,2.294318082950525806e-01,0.000000000000000000e+00
1.318000000000000000e+03,2.516039520003909846e-01,0.000000000000000000e+00
1.319000000000000000e+03,1.320287289350973170e-01,0.000000000000000000e+00
1.320000000000000000e+03,1.173684318161203749e-01,0.000000000000000000e+00
1.321000000000000000e+03,1.279081469855098407e-01,0.000000000000000000e+00
1.322000000000000000e+03,1.492916389869679838e-01,0.000000000000000000e+00
1.323000000000000000e+03,2.122487931409317019e-01,0.000000000000000000e+00
1.324000000000000000e+03,1.088679255164253512e-01,0.000000000000000000e+00
1.325000000000000000e+03,7.070027794484889938e-02,0.000000000000000000e+00
1.326000000000000000e+03,3.402020638803041619e-01,0.000000000000000000e+00
1.327000000000000000e+03,5.226572154599572473e-01,0.000000000000000000e+00
1.328000000000000000e+03,6.449663385108570512e-01,0.000000000000000000e+00
1.329000000000000000e+03,2.791323006078547109e-01,0.000000000000000000e+00
1.330000000000000000e+03,2.948822186092514563e-01,0.000000000000000000e+00
1.331000000000000000e+03,-1.211871619104185061e-01,0.000000000000000000e+00
1.332000000000000000e+03,3.114858585453966766e-02,0.000000000000000000e+00
1.333000000000000000e+03,-1.220363577507320302e-01,0.000000000000000000e+00
1.334000000000000000e+03,-2.415218679011112424e-01,0.000000000000000000e+00
1.335000000000000000e+03,6.657957379474024329e-01,0.000000000000000000e+00
1.336000000000000000e+03,5.568960453075730399e+00,0.000000000000000000e+00
1.337000000000000000e+03,3.102256231975675238e+00,1.000000000000000000e+00
1.338000000000000000e+03,-1.199035365710870105e+00,0.000000000000000000e+00
1.339000000000000000e+03,-2.448386812786048417e+00,0.000000000000000000e+00
1.340000000000000000e+03,-2.426824622422138589e+00,0.000000000000000000e+00
1.341000000000000000e+03,-1.044057900774239656e+00,0.000000000000000000e+00
1.342000000000000000e+03,-5.201427219782166489e-01,0.000000000000000000e+00
1.343000000000000000e+03,-2.628713561364962592e-01,0.000000000000000000e+00
1.344000000000000000e+03,-3.648087207625669848e-01,0.000000000000000000e+00
1.345000000000000000e+03,-2.539633264753387021e-01,0.000000000000000000e+00
1.346000000000000000e+03,-2.177022361474892642e-01,0.000000000000000000e+00
1.347000000000000000e+03,-1.444702327447950664e-02,0.000000000000000000e+00
1.348000000000000000e+03,-2.056629237250199790e-02,0.000000000000000000e+00
1.349000000000000000e+03,6.894036122270420786e-02,0.000000000000000000e+00
1.350000000000000000e+03,1.244479539353184477e-01,0.000000000000000000e+00
1.351000000000000000e+03,2.665329510446893813e-01,0.000000000000000000e+00
1.352000000000000000e+03,5.525923574873309319e-01,0.000000000000000000e+00
1.353000000000000000e+03,7.648478033223792272e-01,0.000000000000000000e+00
1.354000000000000000e+03,1.048329329966687595e+00,0.000000000000000000e+00
1.355000000000000000e+03,1.007314367852150339e+00,0.000000000000000000e+00
1.356000000000000000e+03,5.201401031268807484e-01,0.000000000000000000e+00
1.357000000000000000e+03,-3.517883391128565768e-02,0.000000000000000000e+00
1.358000000000000000e+03,-4.917210898283758680e-01,0.000000000000000000e+00
1.359000000000000000e+03,-6.386410653092708944e-01,0.000000000000000000e+00
1.360000000000000000e+03,-7.342562212174132963e-01,0.000000000000000000e+00
1.361000000000000000e+03,-7.071305070116365998e-01,0.000000000000000000e+00
1.362000000000000000e+03,-6.041749656310525518e-01,0.000000000000000000e+00
1.363000000000000000e+03,-5.677794366517036062e-01,0.000000000000000000e+00
1.364000000000000000e+03,-5.564805461808751685e-01,0.000000000000000000e+00
1.365000000000000000e+03,-4.855217139110913904e-01,0.000000000000000000e+00
1.366000000000000000e+03,-5.276635072709255914e-01,0.000000000000000000e+00
1.367000000000000000e+03,-3.689739166463802400e-01,0.000000000000000000e+00
1.368000000000000000e+03,-4.338023569457200024e-01,0.000000000000000000e+00
1.369000000000000000e+03,-2.044273237110053043e-01,0.000000000000000000e+00
1.370000000000000000e+03,-2.290838793718356081e-01,0.000000000000000000e+00
1.371000000000000000e+03,-2.044496885778436246e-01,0.000000000000000000e+00
1.372000000000000000e+03,1.182408310481024467e-02,0.000000000000000000e+00
1.373000000000000000e+03,-1.082485145901778550e-01,0.000000000000000000e+00
1.374000000000000000e+03,-8.880209939795270790e-02,0.000000000000000000e+00
1.375000000000000000e+03,-2.523868151660490014e-02,0.000000000000000000e+00
1.376000000000000000e+03,-4.391271832873391845e-02,0.000000000000000000e+00
1.377000000000000000e+03,9.841926287372526616e-02,0.000000000000000000e+00
1.378000000000000000e+03,-1.312180417572647714e-03,0.000000000000000000e+00
1.379000000000000000e+03,5.697554343944832844e-02,0.000000000000000000e+00
1.380000000000000000e+03,7.490203214661666879e-03,0.000000000000000000e+00
1.381000000000000000e+03,1.210071131597778293e-01,0.000000000000000000e+00
1.382000000000000000e+03,1.399251626848095897e-01,0.000000000000000000e+00
1.383000000000000000e+03,1.138557422272361008e-01,0.000000000000000000e+00
1.384000000000000000e+03,7.573157093922809613e-02,0.000000000000000000e+00
1.385000000000000000e+03,1.821553288398535253e-01,0.000000000000000000e+00
1.386000000000000000e+03,1.488739558840014576e-01,0.000000000000000000e+00
1.387000000000000000e+03,1.586060167335537063e-01,0.000000000000000000e+00
1.388000000000000000e+03,1.858008614343267806e-01,0.000000000000000000e+00
1.389000000000000000e+03,1.450864751851811407e-01,0.000000000000000000e+00
1.390000000000000000e+03,1.809090809498470342e-01,0.000000000000000000e+00
1.391000000000000000e+03,1.526910482810344971e-01,0.000000000000000000e+00
1.392000000000000000e+03,1.587478997473648901e-01,0.000000000000000000e+00
1.393000000000000000e+03,2.154914276987971722e-01,0.000000000000000000e+00
1.394000000000000000e+03,2.109477375898076434e-01,0.000000000000000000e+00
1.395000000000000000e+03,4.906176842292978013e-01,0.000000000000000000e+00
1.396000000000000000e+03,6.029343467892779307e-01,0.000000000000000000e+00
1.397000000000000000e+03,3.279655816061052276e-01,0.000000000000000000e+00
1.398000000000000000e+03,1.834100868727994715e-01,0.000000000000000000e+00
1.399000000000000000e+03,-1.301594673744285169e-01,0.000000000000000000e+00
1.400000000000000000e+03,-1.424552358312399236e-01,0.000000000000000000e+00
1.401000000000000000e+03,-1.749436477794082956e-01,0.000000000000000000e+00
1.402000000000000000e+03,-1.190505375648669983e-01,0.000000000000000000e+00
1.403000000000000000e+03,5.862491652715571266e-01,0.000000000000000000e+00
1.404000000000000000e+03,5.435459738541213781e+00,0.000000000000000000e+00
1.405000000000000000e+03,3.270277891508623025e+00,0.000000000000000000e+00
1.406000000000000000e+03,-1.353781254726346583e+00,1.000000000000000000e+00
1.407000000000000000e+03,-2.422198694277273301e+00,0.000000000000000000e+00
1.408000000000000000e+03,-2.509942066667278482e+00,0.000000000000000000e+00
1.409000000000000000e+03,-1.336125388780552203e+00,0.000000000000000000e+00
1.410000000000000000e+03,-7.468414550314403932e-01,0.000000000000000000e+00
1.411000000000000000e+03,-4.235143487487437741e-01,0.000000000000000000e+00
1.412000000000000000e+03,-4.619498503874409634e-01,0.000000000000000000e+00
1.413000000000000000e+03,-2.242826397324526322e-01,0.000000000000000000e+00
1.414000000000000000e+03,-3.417355074932413306e-01,0.000000000000000000e+00
1.415000000000000000e+03,-1.828563608134251561e-01,0.000000000000000000e+00
1.416000000000000000e+03,-1.500337307130587272e-01,0.000000000000000000e+00
1.417000000000000000e+03,1.602891451904982223e-01,0.000000000000000000e+00
1.418000000000000000e+03,-2.261732682281793801e-03,0.000000000000000000e+00
1.419000000000000000e+03,3.743127936153078372e-01,0.000000000000000000e+00
1.420000000000000000e+03,4.144739694570814259e-01,0.000000000000000000e+00
1.421000000000000000e+03,7.587288900703998973e-01,0.000000000000000000e+00
1.422000000000000000e+03,9.257373132676962602e-01,0.000000000000000000e+00
1.423000000000000000e+03,1.006722049517304374e+00,0.000000000000000000e+00
1.424000000000000000e+03,6.532932990064600487e-01,0.000000000000000000e+00
1.425000000000000000e+03,-4.630000724656637215e-03,0.000000000000000000e+00
1.426000000000000000e+03,-4.791901973704019158e-01,0.000000000000000000e+00
1.427000000000000000e+03,-6.687274057559795537e-01,0.000000000000000000e+00
1.428000000000000000e+03,-7.793166777636302278e-01,0.000000000000000000e+00
1.429000000000000000e+03,-7.815130889410196735e-01,0.000000000000000000e+00
1.430000000000000000e+03,-7.465653974198549481e-01,0.000000000000000000e+00
1.431000000000000000e+03,-7.786429472660281181e-01,0.000000000000000000e+00
1.432000000000000000e+03,-6.463020379433501716e-01,0.000000000000000000e+00
1.433000000000000000e+03,-6.634997793937296162e-01,0.000000000000000000e+00
1.434000000000000000e+03,-6.027465648905548923e-01,0.000000000000000000e+00
1.435000000000000000e+03,-5.014066219051565021e-01,0.000000000000000000e+00
1.436000000000000000e+03,-4.301959549596714449e-01,0.000000000000000000e+00
1.437000000000000000e+03,-4.159197645303834845e-01,0.000000000000000000e+00
1.438000000000000000e+03,-3.189848527857618299e-01,0.000000000000000000e+00
1.439000000000000000e+03,-2.733091461563846858e-01,0.000000000000000000e+00
1.440000000000000000e+03,-2.033733923782881647e-01,0.000000000000000000e+00
1.441000000000000000e+03,-1.221451809690363710e-01,0.000000000000000000e+00
1.442000000000000000e+03,-1.165901252315151848e-01,0.000000000000000000e+00
1.443000000000000000e+03,-7.868972137211381612e-02,0.000000000000000000e+00
1.444000000000000000e+03,-1.151141867767331989e-01,0.000000000000000000e+00
1.445000000000000000e+03,-4.126730300917130084e-02,0.000000000000000000e+00
1.446000000000000000e+03,1.135291212199536883e-03,0.000000000000000000e+00
1.447000000000000000e+03,7.782339214580887010e-02,0.000000000000000000e+00
1.448000000000000000e+03,4.672038153426365248e-03,0.000000000000000000e+00
1.449000000000000000e+03,4.545364320476690673e-02,0.000000000000000000e+00
1.450000000000000000e+03,6.120014045218301335e-02,0.000000000000000000e+00
1.451000000000000000e+03,1.818416620441473119e-01,0.000000000000000000e+00
1.452000000000000000e+03,1.549008754945669364e-01,0.000000000000000000e+00
1.453000000000000000e+03,1.975301122706487056e-01,0.000000000000000000e+00
1.454000000000000000e+03,2.485085765401000291e-01,0.000000000000000000e+00
1.455000000000000000e+03,3.296788601007716868e-01,0.000000000000000000e+00
1.456000000000000000e+03,6.103655484447364499e-01,0.000000000000000000e+00
1.457000000000000000e+03,5.649284322169603190e-01,0.000000000000000000e+00
1.458000000000000000e+03,4.489196896347124044e-01,0.000000000000000000e+00
1.459000000000000000e+03,2.140192080187543477e-01,0.000000000000000000e+00
1.460000000000000000e+03,6.841311402622904728e-03,0.000000000000000000e+00
1.461000000000000000e+03,-3.243894807287502763e-02,0.000000000000000000e+00
1.462000000000000000e+03,-3.783360386488596183e-02,0.000000000000000000e+00
1.463000000000000000e+03,-6.195201643664173530e-02,0.000000000000000000e+00
1.464000000000000000e+03,1.397020190160543018e+00,0.000000000000000000e+00
1.465000000000000000e+03,5.770570532293809229e+00,0.000000000000000000e+00
1.466000000000000000e+03,2.161832879377743044e+00,1.000000000000000000e+00
1.467000000000000000e+03,-1.307351255358657705e+00,0.000000000000000000e+00
1.468000000000000000e+03,-2.201237113661406397e+00,0.000000000000000000e+00
1.469000000000000000e+03,-2.115610371061090067e+00,0.000000000000000000e+00
1.470000000000000000e+03,-1.003155055613344171e+00,0.000000000000000000e+00
1.471000000000000000e+03,-4.786374053519271698e-01,0.000000000000000000e+00
1.472000000000000000e+03,-2.485509817083010053e-01,0.000000000000000000e+00
1.473000000000000000e+03,-3.442687252441459789e-01,0.000000000000000000e+00
1.474000000000000000e+03,1.038318437068551890e-02,0.000000000000000000e+00
1.475000000000000000e+03,-1.529960920792058920e-01,0.000000000000000000e+00
1.476000000000000000e+03,5.638121620357791630e-02,0.000000000000000000e+00
1.477000000000000000e+03,1.522145503217617324e-01,0.000000000000000000e+00
1.478000000000000000e+03,1.369323427036790997e-01,0.000000000000000000e+00
1.479000000000000000e+03,1.387207339158783026e-01,0.000000000000000000e+00
1.480000000000000000e+03,4.238678561403840250e-01,0.000000000000000000e+00
1.481000000000000000e+03,6.230068106079403867e-01,0.000000000000000000e+00
1.482000000000000000e+03,9.374552680443341002e-01,0.000000000000000000e+00
1.483000000000000000e+03,1.057945184027983432e+00,0.000000000000000000e+00
1.484000000000000000e+03,9.607637557636047321e-01,0.000000000000000000e+00
1.485000000000000000e+03,5.337242993696174054e-01,0.000000000000000000e+00
1.486000000000000000e+03,-4.697976022597367962e-02,0.000000000000000000e+00
1.487000000000000000e+03,-5.373549253214739974e-01,0.000000000000000000e+00
1.488000000000000000e+03,-6.554795378229631986e-01,0.000000000000000000e+00
1.489000000000000000e+03,-7.026130244531402225e-01,0.000000000000000000e+00
1.490000000000000000e+03,-6.703277165416950956e-01,0.000000000000000000e+00
1.491000000000000000e+03,-6.416471314048260988e-01,0.000000000000000000e+00
1.492000000000000000e+03,-7.266082178572691452e-01,0.000000000000000000e+00
1.493000000000000000e+03,-6.098002938343998203e-01,0.000000000000000000e+00
1.494000000000000000e+03,-5.704178452208505945e-01,0.000000000000000000e+00
1.495000000000000000e+03,-5.051164529961593708e-01,0.000000000000000000e+00
1.496000000000000000e+03,-3.499052417100433354e-01,0.000000000000000000e+00
1.497000000000000000e+03,-3.758928871002489847e-01,0.000000000000000000e+00
1.498000000000000000e+03,-2.580436128337231794e-01,0.000000000000000000e+00
1.499000000000000000e+03,-2.113630827026491688e-01,0.000000000000000000e+00
1.500000000000000000e+03,-1.454463874818337776e-01,0.000000000000000000e+00
1.501000000000000000e+03,-3.676722591631847309e-02,0.000000000000000000e+00
1.502000000000000000e+03,-1.548821102915911019e-01,0.000000000000000000e+00
1.503000000000000000e+03,-7.212973158111606053e-02,0.000000000000000000e+00
1.504000000000000000e+03,-2.620011212869554490e-02,0.000000000000000000e+00
1.505000000000000000e+03,5.862431813809556441e-02,0.000000000000000000e+00
1.506000000000000000e+03,-1.336688589473733133e-02,0.000000000000000000e+00
1.507000000000000000e+03,1.457025006712916737e-01,0.000000000000000000e+00
1.508000000000000000e+03,4.512400888616500266e-02,0.000000000000000000e+00
1.509000000000000000e+03,5.922407190542377381e-02,0.000000000000000000e+00
1.510000000000000000e+03,2.414522231935202143e-02,0.000000000000000000e+00
1.511000000000000000e+03,1.213365440702683824e-02,0.000000000000000000e+00
1.512000000000000000e+03,1.075507612742544750e-01,0.000000000000000000e+00
1.513000000000000000e+03,-6.227755108470546530e-02,0.000000000000000000e+00
1.514000000000000000e+03,2.283022817804395976e-01,0.000000000000000000e+00
1.515000000000000000e+03,-1.153634627990600230e-02,0.000000000000000000e+00
1.516000000000000000e+03,1.302274229170524433e-01,0.000000000000000000e+00
1.517000000000000000e+03,2.141129869733081614e-01,0.000000000000000000e+00
1.518000000000000000e+03,1.124839748990921762e-01,0.000000000000000000e+00
1.519000000000000000e+03,1.583771354299566558e-01,0.000000000000000000e+00
1.520000000000000000e+03,2.178137172724414206e-01,0.000000000000000000e+00
1.521000000000000000e+03,3.900450617278350962e-01,0.000000000000000000e+00
1.522000000000000000e+03,5.409220778732071189e-01,0.000000000000000000e+00
1.523000000000000000e+03,4.501995583153338698e-01,0.000000000000000000e+00
1.524000000000000000e+03,3.630540781680807738e-01,0.000000000000000000e+00
1.525000000000000000e+03,-1.028553976759947614e-01,0.000000000000000000e+00
1.526000000000000000e+03,-8.425998532320849721e-02,0.000000000000000000e+00
1.527000000000000000e+03,-2.602909655435877156e-01,0.000000000000000000e+00
1.528000000000000000e+03,-1.578220459814340740e-02,0.000000000000000000e+00
1.529000000000000000e+03,-2.165657436459465790e-01,0.000000000000000000e+00
1.530000000000000000e+03,3.684939746599620314e+00,0.000000000000000000e+00
1.531000000000000000e+03,5.163647747207696703e+00,0.000000000000000000e+00
1.532000000000000000e+03,1.341877023402418025e-03,1.000000000000000000e+00
1.533000000000000000e+03,-2.044576613639921270e+00,0.000000000000000000e+00
1.534000000000000000e+03,-2.896303501383538759e+00,0.000000000000000000e+00
1.535000000000000000e+03,-1.675703517767141326e+00,0.000000000000000000e+00
1.536000000000000000e+03,-7.423013607882795739e-01,0.000000000000000000e+00
1.537000000000000000e+03,-4.413633228615009840e-01,0.000000000000000000e+00
1.538000000000000000e+03,-4.290674554017690490e-01,0.000000000000000000e+00
1.539000000000000000e+03,-2.938328242867347950e-01,0.000000000000000000e+00
1.540000000000000000e+03,-2.270371074435042491e-01,0.000000000000000000e+00
1.541000000000000000e+03,-2.407560586201961395e-01,0.000000000000000000e+00
1.542000000000000000e+03,-8.834926937157552840e-02,0.000000000000000000e+00
1.543000000000000000e+03,-8.263073628318279296e-02,0.000000000000000000e+00
1.544000000000000000e+03,-5.539709627161897021e-02,0.000000000000000000e+00
1.545000000000000000e+03,2.336590114029102883e-01,0.000000000000000000e+00
1.546000000000000000e+03,3.293840813300857318e-01,0.000000000000000000e+00
1.547000000000000000e+03,6.886610317212061849e-01,0.000000000000000000e+00
1.548000000000000000e+03,8.348395481652457484e-01,0.000000000000000000e+00
1.549000000000000000e+03,1.092245751025038292e+00,0.000000000000000000e+00
1.550000000000000000e+03,7.647233403750386405e-01,0.000000000000000000e+00
1.551000000000000000e+03,2.684125030357203956e-01,0.000000000000000000e+00
1.552000000000000000e+03,-3.142605666743909509e-01,0.000000000000000000e+00
1.553000000000000000e+03,-7.361031686149469566e-01,0.000000000000000000e+00
1.554000000000000000e+03,-7.811166915167179203e-01,0.000000000000000000e+00
1.555000000000000000e+03,-7.968384282196747659e-01,0.000000000000000000e+00
1.556000000000000000e+03,-6.196852414806017784e-01,0.000000000000000000e+00
1.557000000000000000e+03,-5.604814593866175310e-01,0.000000000000000000e+00
1.558000000000000000e+03,-6.454257981349050821e-01,0.000000000000000000e+00
1.559000000000000000e+03,-6.318321237871362683e-01,0.000000000000000000e+00
1.560000000000000000e+03,-5.539168817138678813e-01,0.000000000000000000e+00
1.561000000000000000e+03,-4.148512918368791880e-01,0.000000000000000000e+00
1.562000000000000000e+03,-4.199136938452544543e-01,0.000000000000000000e+00
1.563000000000000000e+03,-3.608751509195369800e-01,0.000000000000000000e+00
1.564000000000000000e+03,-3.411467375485273124e-01,0.000000000000000000e+00
1.565000000000000000e+03,-1.082903578049628363e-01,0.000000000000000000e+00
1.566000000000000000e+03,-2.363935544246373865e-01,0.000000000000000000e+00
1.567000000000000000e+03,4.962072421749141350e-03,0.000000000000000000e+00
1.568000000000000000e+03,-9.543908705003359416e-02,0.000000000000000000e+00
1.569000000000000000e+03,-5.466082243637763322e-02,0.000000000000000000e+00
1.570000000000000000e+03,-4.020282480652856427e-02,0.000000000000000000e+00
1.571000000000000000e+03,5.166328608227874208e-02,0.000000000000000000e+00
1.572000000000000000e+03,5.669078387292142071e-03,0.000000000000000000e+00
1.573000000000000000e+03,1.157429991581918755e-01,0.000000000000000000e+00
1.574000000000000000e+03,2.961199824453967719e-02,0.000000000000000000e+00
1.575000000000000000e+03,4.849970096669563302e-02,0.000000000000000000e+00
1.576000000000000000e+03,6.432528779108490080e-02,0.000000000000000000e+00
1.577000000000000000e+03,1.723883672963742730e-01,0.000000000000000000e+00
1.578000000000000000e+03,1.586253910239986409e-01,0.000000000000000000e+00
1.579000000000000000e+03,1.560441750216617907e-01,0.000000000000000000e+00
1.580000000000000000e+03,1.752731230673077456e-01,0.000000000000000000e+00
1.581000000000000000e+03,1.507250020392895129e-01,0.000000000000000000e+00
1.582000000000000000e+03,4.551005187859710061e-02,0.000000000000000000e+00
1.583000000000000000e+03,2.609806377303034997e-01,0.000000000000000000e+00
1.584000000000000000e+03,1.508859095329970479e-01,0.000000000000000000e+00
1.585000000000000000e+03,1.375247419139864202e-01,0.000000000000000000e+00
1.586000000000000000e+03,2.107645261484176469e-01,0.000000000000000000e+00
1.587000000000000000e+03,3.076644489829816198e-01,0.000000000000000000e+00
