timestamp,ecg_measurement,qrs_detected
0.000000000000000000e+00,1.244011225150949862e+00,0.000000000000000000e+00
1.000000000000000000e+00,6.578088561441809423e-01,0.000000000000000000e+00
2.000000000000000000e+00,-9.766265248271169264e-02,0.000000000000000000e+00
3.000000000000000000e+00,-9.657484843678543207e-01,0.000000000000000000e+00
4.000000000000000000e+00,-1.614316818869483416e+00,0.000000000000000000e+00
5.000000000000000000e+00,-1.516918110145098586e+00,0.000000000000000000e+00
6.000000000000000000e+00,-1.792069191870634626e+00,0.000000000000000000e+00
7.000000000000000000e+00,-1.481387348279325611e+00,0.000000000000000000e+00
8.000000000000000000e+00,-1.557429289891198998e+00,0.000000000000000000e+00
9.000000000000000000e+00,-1.138754927901519443e+00,0.000000000000000000e+00
1.000000000000000000e+01,-1.082704170521295861e+00,0.000000000000000000e+00
1.100000000000000000e+01,-9.181488364531066315e-01,0.000000000000000000e+00
1.200000000000000000e+01,-9.545161358651504946e-01,0.000000000000000000e+00
1.300000000000000000e+01,-6.621454746365496025e-01,0.000000000000000000e+00
1.400000000000000000e+01,-6.200107893207802423e-01,0.000000000000000000e+00
1.500000000000000000e+01,-3.730892034393526457e-01,0.000000000000000000e+00
1.600000000000000000e+01,-3.853316994889839919e-01,0.000000000000000000e+00
1.700000000000000000e+01,-2.219540447917479065e-01,0.000000000000000000e+00
1.800000000000000000e+01,-2.356214227598696087e-01,0.000000000000000000e+00
1.900000000000000000e+01,-1.070351094928009561e-01,0.000000000000000000e+00
2.000000000000000000e+01,-1.947597648768667478e-01,0.000000000000000000e+00
2.100000000000000000e+01,-3.883474040803854693e-02,0.000000000000000000e+00
2.200000000000000000e+01,-4.091602981893519703e-02,0.000000000000000000e+00
2.300000000000000000e+01,-6.392528165477480429e-02,0.000000000000000000e+00
2.400000000000000000e+01,1.451439292246292645e-01,0.000000000000000000e+00
2.500000000000000000e+01,1.148625625108079390e-01,0.000000000000000000e+00
2.600000000000000000e+01,1.861328470758605302e-01,0.000000000000000000e+00
2.700000000000000000e+01,5.837597193691007602e-02,0.000000000000000000e+00
2.800000000000000000e+01,1.989397296189414910e-01,0.000000000000000000e+00
2.900000000000000000e+01,3.628944849782674287e-01,0.000000000000000000e+00
3.000000000000000000e+01,2.305949187111682452e-01,0.000000000000000000e+00
3.100000000000000000e+01,3.509540784042882722e-01,0.000000000000000000e+00
3.200000000000000000e+01,3.939270385096654836e-01,0.000000000000000000e+00
3.300000000000000000e+01,2.191959778275253956e-01,0.000000000000000000e+00
3.400000000000000000e+01,4.254185379920774057e-01,0.000000000000000000e+00
3.500000000000000000e+01,3.464575678469866138e-01,0.000000000000000000e+00
3.600000000000000000e+01,2.254209670791732789e-01,0.000000000000000000e+00
3.700000000000000000e+01,4.489174117291986899e-01,0.000000000000000000e+00
3.800000000000000000e+01,3.555213295050894673e-01,0.000000000000000000e+00
3.900000000000000000e+01,3.160322294421141764e-01,0.000000000000000000e+00
4.000000000000000000e+01,3.469054687002882109e-01,0.000000000000000000e+00
4.100000000000000000e+01,5.505128229276092799e-01,0.000000000000000000e+00
4.200000000000000000e+01,3.966093655614057467e-01,0.000000000000000000e+00
4.300000000000000000e+01,5.315934946452193222e-01,0.000000000000000000e+00
4.400000000000000000e+01,4.215087477861432785e-01,0.000000000000000000e+00
4.500000000000000000e+01,1.665295224419868492e-01,0.000000000000000000e+00
4.600000000000000000e+01,1.304553083682456482e-01,0.000000000000000000e+00
4.700000000000000000e+01,1.110554213389608746e-01,0.000000000000000000e+00
4.800000000000000000e+01,-5.955088420652331765e-02,0.000000000000000000e+00
4.900000000000000000e+01,2.576227094910793491e-01,0.000000000000000000e+00
5.000000000000000000e+01,-5.815148422689448982e-01,0.000000000000000000e+00
5.100000000000000000e+01,1.783093769973736364e+00,0.000000000000000000e+00
5.200000000000000000e+01,5.317993229758966045e+00,0.000000000000000000e+00
5.300000000000000000e+01,3.253465479714519937e+00,1.000000000000000000e+00
5.400000000000000000e+01,-7.527242139105565222e-02,0.000000000000000000e+00
5.500000000000000000e+01,-1.012792036494752690e+00,0.000000000000000000e+00
5.600000000000000000e+01,-1.011839247344569426e+00,0.000000000000000000e+00
5.700000000000000000e+01,-1.088962147040718920e+00,0.000000000000000000e+00
5.800000000000000000e+01,-8.894522158310896875e-01,0.000000000000000000e+00
5.900000000000000000e+01,-7.822914696795331135e-01,0.000000000000000000e+00
6.000000000000000000e+01,-8.169490805398897937e-01,0.000000000000000000e+00
6.100000000000000000e+01,-5.428186362982755364e-01,0.000000000000000000e+00
6.200000000000000000e+01,-5.629016640062616261e-01,0.000000000000000000e+00
6.300000000000000000e+01,-2.414875697069025495e-01,0.000000000000000000e+00
6.400000000000000000e+01,-2.203044177350804433e-01,0.000000000000000000e+00
6.500000000000000000e+01,7.668169036233377089e-02,0.000000000000000000e+00
6.600000000000000000e+01,3.191460367397166986e-01,0.000000000000000000e+00
6.700000000000000000e+01,6.710576452490739641e-01,0.000000000000000000e+00
6.800000000000000000e+01,1.168954669417658243e+00,0.000000000000000000e+00
6.900000000000000000e+01,1.109808038172833466e+00,0.000000000000000000e+00
7.000000000000000000e+01,1.238787403423295519e+00,0.000000000000000000e+00
7.100000000000000000e+01,3.547280470692071308e-01,0.000000000000000000e+00
7.200000000000000000e+01,-5.248236548024473036e-01,0.000000000000000000e+00
7.300000000000000000e+01,-1.335179063833074498e+00,0.000000000000000000e+00
7.400000000000000000e+01,-1.675965987738030183e+00,0.000000000000000000e+00
7.500000000000000000e+01,-1.605072829875643814e+00,0.000000000000000000e+00
7.600000000000000000e+01,-1.504070829485371741e+00,0.000000000000000000e+00
7.700000000000000000e+01,-1.402351850659844912e+00,0.000000000000000000e+00
7.800000000000000000e+01,-1.312837638685316222e+00,0.000000000000000000e+00
7.900000000000000000e+01,-1.142904081446223685e+00,0.000000000000000000e+00
8.000000000000000000e+01,-9.980770449999504246e-01,0.000000000000000000e+00
8.100000000000000000e+01,-9.052291476721515684e-01,0.000000000000000000e+00
8.200000000000000000e+01,-6.102267399944431014e-01,0.000000000000000000e+00
8.300000000000000000e+01,-6.078122178081069027e-01,0.000000000000000000e+00
8.400000000000000000e+01,-4.768061035267237568e-01,0.000000000000000000e+00
8.500000000000000000e+01,-4.571820238437082629e-01,0.000000000000000000e+00
8.600000000000000000e+01,-3.474683799294399078e-01,0.000000000000000000e+00
8.700000000000000000e+01,-1.998517478378125101e-01,0.000000000000000000e+00
8.800000000000000000e+01,-2.523442717469966956e-01,0.000000000000000000e+00
8.900000000000000000e+01,-9.275448259933320033e-03,0.000000000000000000e+00
9.000000000000000000e+01,1.334437317062049481e-02,0.000000000000000000e+00
9.100000000000000000e+01,9.054574884473153007e-02,0.000000000000000000e+00
9.200000000000000000e+01,1.866557641698398523e-02,0.000000000000000000e+00
9.300000000000000000e+01,1.283743946321760920e-01,0.000000000000000000e+00
9.400000000000000000e+01,2.135558745087154930e-01,0.000000000000000000e+00
9.500000000000000000e+01,3.933607840066207229e-01,0.000000000000000000e+00
9.600000000000000000e+01,2.294438691101017558e-01,0.000000000000000000e+00
9.700000000000000000e+01,3.422617081358595992e-01,0.000000000000000000e+00
9.800000000000000000e+01,6.246132714857182133e-01,0.000000000000000000e+00
9.900000000000000000e+01,4.905119356112768170e-01,0.000000000000000000e+00
1.000000000000000000e+02,3.938304076627383021e-01,0.000000000000000000e+00
1.010000000000000000e+02,4.523961446397435360e-01,0.000000000000000000e+00
1.020000000000000000e+02,3.234223779036355384e-01,0.000000000000000000e+00
1.030000000000000000e+02,4.584171674731236656e-01,0.000000000000000000e+00
1.040000000000000000e+02,5.037021246934599850e-01,0.000000000000000000e+00
1.050000000000000000e+02,4.922272734996366306e-01,0.000000000000000000e+00
1.060000000000000000e+02,3.043684145181252965e-01,0.000000000000000000e+00
1.070000000000000000e+02,5.848607089799300329e-01,0.000000000000000000e+00
1.080000000000000000e+02,4.727048925957912928e-01,0.000000000000000000e+00
1.090000000000000000e+02,4.387083579715408410e-01,0.000000000000000000e+00
1.100000000000000000e+02,5.363133349602616784e-01,0.000000000000000000e+00
1.110000000000000000e+02,6.033980980714993558e-01,0.000000000000000000e+00
1.120000000000000000e+02,4.964256919339471441e-01,0.000000000000000000e+00
1.130000000000000000e+02,6.461261903857802302e-01,0.000000000000000000e+00
1.140000000000000000e+02,4.448236448005822297e-01,0.000000000000000000e+00
1.150000000000000000e+02,1.793184078404589377e-01,0.000000000000000000e+00
1.160000000000000000e+02,1.992021084518713278e-02,0.000000000000000000e+00
1.170000000000000000e+02,7.874767188787576422e-02,0.000000000000000000e+00
1.180000000000000000e+02,-8.485296981969179392e-03,0.000000000000000000e+00
1.190000000000000000e+02,1.381325663970358331e-01,0.000000000000000000e+00
1.200000000000000000e+02,-5.333057001353498361e-01,0.000000000000000000e+00
1.210000000000000000e+02,3.195920235365807383e+00,0.000000000000000000e+00
1.220000000000000000e+02,5.323628029714338794e+00,0.000000000000000000e+00
1.230000000000000000e+02,1.813897238936014178e+00,1.000000000000000000e+00
1.240000000000000000e+02,-7.496308256720466412e-01,0.000000000000000000e+00
1.250000000000000000e+02,-1.045703237860656998e+00,0.000000000000000000e+00
1.260000000000000000e+02,-1.160454488110773452e+00,0.000000000000000000e+00
1.270000000000000000e+02,-9.429548971721446460e-01,0.000000000000000000e+00
1.280000000000000000e+02,-8.216889997638702203e-01,0.000000000000000000e+00
1.290000000000000000e+02,-9.668471996259212498e-01,0.000000000000000000e+00
1.300000000000000000e+02,-6.093849699572144729e-01,0.000000000000000000e+00
1.310000000000000000e+02,-6.556129485945187962e-01,0.000000000000000000e+00
1.320000000000000000e+02,-3.672858464453029881e-01,0.000000000000000000e+00
1.330000000000000000e+02,-4.072530427647816920e-01,0.000000000000000000e+00
1.340000000000000000e+02,-2.917617025605022119e-01,0.000000000000000000e+00
1.350000000000000000e+02,1.122137749852469835e-01,0.000000000000000000e+00
1.360000000000000000e+02,4.120926344948773190e-01,0.000000000000000000e+00
1.370000000000000000e+02,8.268773178675822288e-01,0.000000000000000000e+00
1.380000000000000000e+02,1.107544919808587380e+00,0.000000000000000000e+00
1.390000000000000000e+02,1.137841166897495260e+00,0.000000000000000000e+00
1.400000000000000000e+02,6.995694806280310374e-01,0.000000000000000000e+00
1.410000000000000000e+02,-1.355380776913420460e-01,0.000000000000000000e+00
1.420000000000000000e+02,-1.012147684958100813e+00,0.000000000000000000e+00
1.430000000000000000e+02,-1.461527959877142679e+00,0.000000000000000000e+00
1.440000000000000000e+02,-1.727009903580624339e+00,0.000000000000000000e+00
1.450000000000000000e+02,-1.779006369970934864e+00,0.000000000000000000e+00
1.460000000000000000e+02,-1.617269124126882396e+00,0.000000000000000000e+00
1.470000000000000000e+02,-1.455858251065138331e+00,0.000000000000000000e+00
1.480000000000000000e+02,-1.486619149796273742e+00,0.000000000000000000e+00
1.490000000000000000e+02,-1.234501975194687962e+00,0.000000000000000000e+00
1.500000000000000000e+02,-1.103530856936877580e+00,0.000000000000000000e+00
1.510000000000000000e+02,-8.421494268316367382e-01,0.000000000000000000e+00
1.520000000000000000e+02,-8.165041679279286813e-01,0.000000000000000000e+00
1.530000000000000000e+02,-7.729656792545095412e-01,0.000000000000000000e+00
1.540000000000000000e+02,-6.419533131620002164e-01,0.000000000000000000e+00
1.550000000000000000e+02,-5.396078602486211739e-01,0.000000000000000000e+00
1.560000000000000000e+02,-4.752408049885346042e-01,0.000000000000000000e+00
1.570000000000000000e+02,-1.516153953195056581e-01,0.000000000000000000e+00
1.580000000000000000e+02,-3.501712172241620014e-01,0.000000000000000000e+00
1.590000000000000000e+02,-1.058729908940324177e-01,0.000000000000000000e+00
1.600000000000000000e+02,-1.758252958160705370e-01,0.000000000000000000e+00
1.610000000000000000e+02,1.871682410243701369e-02,0.000000000000000000e+00
1.620000000000000000e+02,-1.088637121264313980e-02,0.000000000000000000e+00
1.630000000000000000e+02,8.546261401879050312e-02,0.000000000000000000e+00
1.640000000000000000e+02,1.751881975387117041e-01,0.000000000000000000e+00
1.650000000000000000e+02,1.648742976201821864e-01,0.000000000000000000e+00
1.660000000000000000e+02,1.807473197335688342e-01,0.000000000000000000e+00
1.670000000000000000e+02,2.692809473830550804e-01,0.000000000000000000e+00
1.680000000000000000e+02,5.758064194848120376e-01,0.000000000000000000e+00
1.690000000000000000e+02,3.534256645239469696e-01,0.000000000000000000e+00
1.700000000000000000e+02,5.118980106938166852e-01,0.000000000000000000e+00
1.710000000000000000e+02,4.014028658331238453e-01,0.000000000000000000e+00
1.720000000000000000e+02,4.007233272641166355e-01,0.000000000000000000e+00
1.730000000000000000e+02,4.545253076635547007e-01,0.000000000000000000e+00
1.740000000000000000e+02,5.726629188072027699e-01,0.000000000000000000e+00
1.750000000000000000e+02,5.243605188707067821e-01,0.000000000000000000e+00
1.760000000000000000e+02,5.568392750724771023e-01,0.000000000000000000e+00
1.770000000000000000e+02,4.168619133115625819e-01,0.000000000000000000e+00
1.780000000000000000e+02,5.235264462800802709e-01,0.000000000000000000e+00
1.790000000000000000e+02,6.002617492517303699e-01,0.000000000000000000e+00
1.800000000000000000e+02,6.232254621088051394e-01,0.000000000000000000e+00
1.810000000000000000e+02,7.211321511709629650e-01,0.000000000000000000e+00
1.820000000000000000e+02,6.444064080050725396e-01,0.000000000000000000e+00
1.830000000000000000e+02,6.724707397972154999e-01,0.000000000000000000e+00
1.840000000000000000e+02,6.650012205809759935e-01,0.000000000000000000e+00
1.850000000000000000e+02,2.025570496347643412e-01,0.000000000000000000e+00
1.860000000000000000e+02,2.706086303813942662e-01,0.000000000000000000e+00
1.870000000000000000e+02,1.520734743710943915e-01,0.000000000000000000e+00
1.880000000000000000e+02,2.451017755626254957e-01,0.000000000000000000e+00
1.890000000000000000e+02,7.065166627389371512e-02,0.000000000000000000e+00
1.900000000000000000e+02,-4.247732397140548954e-01,0.000000000000000000e+00
1.910000000000000000e+02,3.509429272327484917e+00,0.000000000000000000e+00
1.920000000000000000e+02,5.171285240115279791e+00,0.000000000000000000e+00
1.930000000000000000e+02,1.924012727183354698e+00,1.000000000000000000e+00
1.940000000000000000e+02,-8.326083710186714670e-01,0.000000000000000000e+00
1.950000000000000000e+02,-1.029602035262253024e+00,0.000000000000000000e+00
1.960000000000000000e+02,-1.036442767051044767e+00,0.000000000000000000e+00
1.970000000000000000e+02,-9.741997954729205711e-01,0.000000000000000000e+00
1.980000000000000000e+02,-8.465549245034104109e-01,0.000000000000000000e+00
1.990000000000000000e+02,-7.465425613854473896e-01,0.000000000000000000e+00
2.000000000000000000e+02,-4.289217757555077726e-01,0.000000000000000000e+00
2.010000000000000000e+02,-3.277146103494087970e-01,0.000000000000000000e+00
2.020000000000000000e+02,-3.339554095475478213e-01,0.000000000000000000e+00
2.030000000000000000e+02,-5.894394886674307610e-02,0.000000000000000000e+00
2.040000000000000000e+02,1.054264796535337723e-01,0.000000000000000000e+00
2.050000000000000000e+02,2.784255541171311021e-01,0.000000000000000000e+00
2.060000000000000000e+02,6.409804929936584461e-01,0.000000000000000000e+00
2.070000000000000000e+02,1.176771987592246216e+00,0.000000000000000000e+00
2.080000000000000000e+02,1.113568381958620179e+00,0.000000000000000000e+00
2.090000000000000000e+02,1.397758588673294833e+00,0.000000000000000000e+00
2.100000000000000000e+02,9.961875304159418798e-01,0.000000000000000000e+00
2.110000000000000000e+02,-4.707663998114398896e-02,0.000000000000000000e+00
2.120000000000000000e+02,-8.984950864247976954e-01,0.000000000000000000e+00
2.130000000000000000e+02,-1.611878490269900377e+00,0.000000000000000000e+00
2.140000000000000000e+02,-1.912476687486548643e+00,0.000000000000000000e+00
2.150000000000000000e+02,-1.810385972469494842e+00,0.000000000000000000e+00
2.160000000000000000e+02,-1.689502647384172329e+00,0.000000000000000000e+00
2.170000000000000000e+02,-1.657753143281531338e+00,0.000000000000000000e+00
2.180000000000000000e+02,-1.399077091514818072e+00,0.000000000000000000e+00
2.190000000000000000e+02,-1.219488268094121697e+00,0.000000000000000000e+00
2.200000000000000000e+02,-1.196011490678205780e+00,0.000000000000000000e+00
2.210000000000000000e+02,-9.102326555712065836e-01,0.000000000000000000e+00
2.220000000000000000e+02,-8.918329512502893852e-01,0.000000000000000000e+00
2.230000000000000000e+02,-7.767841244068554030e-01,0.000000000000000000e+00
2.240000000000000000e+02,-7.288257522302562519e-01,0.000000000000000000e+00
2.250000000000000000e+02,-4.925497289717066796e-01,0.000000000000000000e+00
2.260000000000000000e+02,-5.419339181612218281e-01,0.000000000000000000e+00
2.270000000000000000e+02,-3.400645346708975336e-01,0.000000000000000000e+00
2.280000000000000000e+02,-4.192574038302008255e-01,0.000000000000000000e+00
2.290000000000000000e+02,-2.008753566635927690e-01,0.000000000000000000e+00
2.300000000000000000e+02,-9.891979449638453603e-02,0.000000000000000000e+00
2.310000000000000000e+02,-1.884326467399886906e-01,0.000000000000000000e+00
2.320000000000000000e+02,8.457569035614317943e-02,0.000000000000000000e+00
2.330000000000000000e+02,5.807578125207897742e-03,0.000000000000000000e+00
2.340000000000000000e+02,1.386542415245436144e-01,0.000000000000000000e+00
2.350000000000000000e+02,2.859171734409439170e-01,0.000000000000000000e+00
2.360000000000000000e+02,1.960757188488773950e-01,0.000000000000000000e+00
2.370000000000000000e+02,1.465722512673139910e-01,0.000000000000000000e+00
2.380000000000000000e+02,1.189548199356175728e-01,0.000000000000000000e+00
2.390000000000000000e+02,1.508871715462711260e-01,0.000000000000000000e+00
2.400000000000000000e+02,1.217464131715115666e-01,0.000000000000000000e+00
2.410000000000000000e+02,1.721527632503966343e-01,0.000000000000000000e+00
2.420000000000000000e+02,3.891853643158027509e-01,0.000000000000000000e+00
2.430000000000000000e+02,3.001130545544473671e-01,0.000000000000000000e+00
2.440000000000000000e+02,4.309738315927061914e-01,0.000000000000000000e+00
2.450000000000000000e+02,2.737009362534209012e-01,0.000000000000000000e+00
2.460000000000000000e+02,4.555310299043502931e-01,0.000000000000000000e+00
2.470000000000000000e+02,4.546524675148606587e-01,0.000000000000000000e+00
2.480000000000000000e+02,5.945614767592024563e-01,0.000000000000000000e+00
2.490000000000000000e+02,4.213625848000500107e-01,0.000000000000000000e+00
2.500000000000000000e+02,6.004719394788726738e-01,0.000000000000000000e+00
2.510000000000000000e+02,5.270866151605959615e-01,0.000000000000000000e+00
2.520000000000000000e+02,5.766953068242695046e-01,0.000000000000000000e+00
2.530000000000000000e+02,7.237842349340058989e-01,0.000000000000000000e+00
2.540000000000000000e+02,2.662253111737696853e-01,0.000000000000000000e+00
2.550000000000000000e+02,1.982856675730620966e-01,0.000000000000000000e+00
2.560000000000000000e+02,1.698356459883236247e-01,0.000000000000000000e+00
2.570000000000000000e+02,-7.407924946369569275e-02,0.000000000000000000e+00
2.580000000000000000e+02,3.056188731984825213e-01,0.000000000000000000e+00
2.590000000000000000e+02,-3.382424307336765468e-01,0.000000000000000000e+00
2.600000000000000000e+02,1.180567238853240886e+00,0.000000000000000000e+00
2.610000000000000000e+02,5.152513529729823460e+00,0.000000000000000000e+00
2.620000000000000000e+02,2.848734520665377357e+00,1.000000000000000000e+00
2.630000000000000000e+02,-4.948189041517754849e-01,0.000000000000000000e+00
2.640000000000000000e+02,-1.134146396764827092e+00,0.000000000000000000e+00
2.650000000000000000e+02,-9.389176160244312452e-01,0.000000000000000000e+00
2.660000000000000000e+02,-8.051838054202237194e-01,0.000000000000000000e+00
2.670000000000000000e+02,-7.359756140183346673e-01,0.000000000000000000e+00
2.680000000000000000e+02,-4.823427638708535081e-01,0.000000000000000000e+00
2.690000000000000000e+02,-5.634852799447344074e-01,0.000000000000000000e+00
2.700000000000000000e+02,-2.890268258175455185e-01,0.000000000000000000e+00
2.710000000000000000e+02,-1.631461229186298989e-01,0.000000000000000000e+00
2.720000000000000000e+02,4.323272096305769141e-02,0.000000000000000000e+00
2.730000000000000000e+02,8.325071479105353167e-02,0.000000000000000000e+00
2.740000000000000000e+02,3.603313420986732907e-01,0.000000000000000000e+00
2.750000000000000000e+02,6.467544995844306532e-01,0.000000000000000000e+00
2.760000000000000000e+02,9.556935885993997903e-01,0.000000000000000000e+00
2.770000000000000000e+02,1.486815974532193385e+00,0.000000000000000000e+00
2.780000000000000000e+02,1.378716184579944048e+00,0.000000000000000000e+00
2.790000000000000000e+02,1.511027929506323808e+00,0.000000000000000000e+00
2.800000000000000000e+02,7.385228742932088419e-01,0.000000000000000000e+00
2.810000000000000000e+02,-2.624630204955021306e-01,0.000000000000000000e+00
2.820000000000000000e+02,-1.026193337196152022e+00,0.000000000000000000e+00
2.830000000000000000e+02,-1.531751079143894190e+00,0.000000000000000000e+00
2.840000000000000000e+02,-1.696369356008175400e+00,0.000000000000000000e+00
2.850000000000000000e+02,-1.547293408136864112e+00,0.000000000000000000e+00
2.860000000000000000e+02,-1.313172681240192929e+00,0.000000000000000000e+00
2.870000000000000000e+02,-1.347699234028373549e+00,0.000000000000000000e+00
2.880000000000000000e+02,-1.030765222908218703e+00,0.000000000000000000e+00
2.890000000000000000e+02,-9.378107265364888923e-01,0.000000000000000000e+00
2.900000000000000000e+02,-1.001437124642852838e+00,0.000000000000000000e+00
2.910000000000000000e+02,-7.339947572947878029e-01,0.000000000000000000e+00
2.920000000000000000e+02,-6.018635390761833959e-01,0.000000000000000000e+00
2.930000000000000000e+02,-5.990587054491052221e-01,0.000000000000000000e+00
2.940000000000000000e+02,-4.706021691049363520e-01,0.000000000000000000e+00
2.950000000000000000e+02,-4.480349442712041608e-01,0.000000000000000000e+00
2.960000000000000000e+02,-5.048539027224627773e-01,0.000000000000000000e+00
2.970000000000000000e+02,-1.561377512978094906e-01,0.000000000000000000e+00
2.980000000000000000e+02,-2.281123777324177149e-01,0.000000000000000000e+00
2.990000000000000000e+02,-3.611181775157661922e-01,0.000000000000000000e+00
3.000000000000000000e+02,-1.306846045820819757e-01,0.000000000000000000e+00
3.010000000000000000e+02,-1.338444559417535928e-01,0.000000000000000000e+00
3.020000000000000000e+02,-1.423815622168981589e-02,0.000000000000000000e+00
3.030000000000000000e+02,7.051211223733039411e-04,0.000000000000000000e+00
3.040000000000000000e+02,-1.446977634534474255e-02,0.000000000000000000e+00
3.050000000000000000e+02,4.969799166927657032e-03,0.000000000000000000e+00
3.060000000000000000e+02,1.409248816341947957e-02,0.000000000000000000e+00
3.070000000000000000e+02,9.705574078006429239e-02,0.000000000000000000e+00
3.080000000000000000e+02,2.123650334188942890e-01,0.000000000000000000e+00
3.090000000000000000e+02,2.988235766022058759e-01,0.000000000000000000e+00
3.100000000000000000e+02,1.021707185799011625e-01,0.000000000000000000e+00
3.110000000000000000e+02,2.800392661513021464e-01,0.000000000000000000e+00
3.120000000000000000e+02,6.836085389551381508e-02,0.000000000000000000e+00
3.130000000000000000e+02,1.920264282741626638e-01,0.000000000000000000e+00
3.140000000000000000e+02,6.676484227739097610e-02,0.000000000000000000e+00
3.150000000000000000e+02,2.233838675368147175e-01,0.000000000000000000e+00
3.160000000000000000e+02,1.620841585071449431e-01,0.000000000000000000e+00
3.170000000000000000e+02,1.978690387875797763e-01,0.000000000000000000e+00
3.180000000000000000e+02,4.265966099907006481e-01,0.000000000000000000e+00
3.190000000000000000e+02,4.192491396501216716e-01,0.000000000000000000e+00
3.200000000000000000e+02,3.866589911202584773e-01,0.000000000000000000e+00
3.210000000000000000e+02,4.010632102808918686e-01,0.000000000000000000e+00
3.220000000000000000e+02,5.391047553265613246e-01,0.000000000000000000e+00
3.230000000000000000e+02,1.425779181560609399e-01,0.000000000000000000e+00
3.240000000000000000e+02,1.404611574408324848e-01,0.000000000000000000e+00
3.250000000000000000e+02,1.241258517599887895e-01,0.000000000000000000e+00
3.260000000000000000e+02,1.858707082590832227e-01,0.000000000000000000e+00
3.270000000000000000e+02,-9.558012955795315568e-03,0.000000000000000000e+00
3.280000000000000000e+02,-1.011787165999545740e-01,0.000000000000000000e+00
3.290000000000000000e+02,3.521656540404788149e+00,0.000000000000000000e+00
3.300000000000000000e+02,4.331126645446829571e+00,0.000000000000000000e+00
3.310000000000000000e+02,6.461312539554163736e-01,1.000000000000000000e+00
3.320000000000000000e+02,-1.100439983432451196e+00,0.000000000000000000e+00
3.330000000000000000e+02,-9.454926473455819158e-01,0.000000000000000000e+00
3.340000000000000000e+02,-5.721417663281040955e-01,0.000000000000000000e+00
3.350000000000000000e+02,-6.109437673472275510e-01,0.000000000000000000e+00
3.360000000000000000e+02,-5.794736584977411287e-01,0.000000000000000000e+00
3.370000000000000000e+02,-4.431009267513960070e-01,0.000000000000000000e+00
3.380000000000000000e+02,-3.323640395243814272e-01,0.000000000000000000e+00
3.390000000000000000e+02,-3.035632881620247692e-01,0.000000000000000000e+00
3.400000000000000000e+02,2.781785755840213495e-02,0.000000000000000000e+00
3.410000000000000000e+02,-1.719462310937761376e-02,0.000000000000000000e+00
3.420000000000000000e+02,1.016801047086442200e-01,0.000000000000000000e+00
3.430000000000000000e+02,4.860618725232162540e-01,0.000000000000000000e+00
3.440000000000000000e+02,6.211212260434335608e-01,0.000000000000000000e+00
3.450000000000000000e+02,1.109702353421049281e+00,0.000000000000000000e+00
3.460000000000000000e+02,1.347667093473326583e+00,0.000000000000000000e+00
3.470000000000000000e+02,1.349299831061633093e+00,0.000000000000000000e+00
3.480000000000000000e+02,8.685334847734389463e-01,0.000000000000000000e+00
3.490000000000000000e+02,4.607582074596649341e-02,0.000000000000000000e+00
3.500000000000000000e+02,-8.819060693524592986e-01,0.000000000000000000e+00
3.510000000000000000e+02,-1.282422895097554028e+00,0.000000000000000000e+00
3.520000000000000000e+02,-1.665057491080121022e+00,0.000000000000000000e+00
3.530000000000000000e+02,-1.630415735259072463e+00,0.000000000000000000e+00
3.540000000000000000e+02,-1.604242622154312015e+00,0.000000000000000000e+00
3.550000000000000000e+02,-1.479741639193354663e+00,0.000000000000000000e+00
3.560000000000000000e+02,-1.231903112388913257e+00,0.000000000000000000e+00
3.570000000000000000e+02,-1.016427191179435141e+00,0.000000000000000000e+00
3.580000000000000000e+02,-8.382991452544819033e-01,0.000000000000000000e+00
3.590000000000000000e+02,-7.794516906644241017e-01,0.000000000000000000e+00
3.600000000000000000e+02,-6.371097507887033551e-01,0.000000000000000000e+00
3.610000000000000000e+02,-6.343476246681265529e-01,0.000000000000000000e+00
3.620000000000000000e+02,-4.480728005213387433e-01,0.000000000000000000e+00
3.630000000000000000e+02,-3.395842386158637316e-01,0.000000000000000000e+00
3.640000000000000000e+02,-3.975889025360281881e-01,0.000000000000000000e+00
3.650000000000000000e+02,-1.443225425030718045e-01,0.000000000000000000e+00
3.660000000000000000e+02,-2.266921987093641899e-01,0.000000000000000000e+00
3.670000000000000000e+02,-8.055500462012513130e-02,0.000000000000000000e+00
3.680000000000000000e+02,-2.677769513766791940e-02,0.000000000000000000e+00
3.690000000000000000e+02,7.715956004342615837e-04,0.000000000000000000e+00
3.700000000000000000e+02,-1.239194124224822849e-02,0.000000000000000000e+00
3.710000000000000000e+02,9.999043685093339517e-02,0.000000000000000000e+00
3.720000000000000000e+02,2.874609289430879455e-01,0.000000000000000000e+00
3.730000000000000000e+02,1.559652185005872826e-01,0.000000000000000000e+00
3.740000000000000000e+02,4.321298884775855997e-01,0.000000000000000000e+00
3.750000000000000000e+02,3.946226754482725085e-01,0.000000000000000000e+00
3.760000000000000000e+02,3.601173169812217356e-01,0.000000000000000000e+00
3.770000000000000000e+02,4.821321333979698975e-01,0.000000000000000000e+00
3.780000000000000000e+02,4.431175610842888468e-01,0.000000000000000000e+00
3.790000000000000000e+02,5.482563859697747732e-01,0.000000000000000000e+00
3.800000000000000000e+02,6.016748898907412491e-01,0.000000000000000000e+00
3.810000000000000000e+02,4.284834806274172014e-01,0.000000000000000000e+00
3.820000000000000000e+02,2.960715526335170322e-01,0.000000000000000000e+00
3.830000000000000000e+02,5.942767562450463892e-01,0.000000000000000000e+00
3.840000000000000000e+02,3.742143921564584086e-01,0.000000000000000000e+00
3.850000000000000000e+02,3.130130478964643914e-01,0.000000000000000000e+00
3.860000000000000000e+02,3.493176043536490027e-01,0.000000000000000000e+00
3.870000000000000000e+02,6.064307239494182156e-01,0.000000000000000000e+00
3.880000000000000000e+02,5.011107555561071791e-01,0.000000000000000000e+00
3.890000000000000000e+02,5.297735309091875511e-01,0.000000000000000000e+00
3.900000000000000000e+02,5.307873930384637839e-01,0.000000000000000000e+00
3.910000000000000000e+02,3.009057580819031741e-01,0.000000000000000000e+00
3.920000000000000000e+02,9.149442123837669971e-02,0.000000000000000000e+00
3.930000000000000000e+02,2.719612795128050625e-02,0.000000000000000000e+00
3.940000000000000000e+02,-5.240419455070564198e-02,0.000000000000000000e+00
3.950000000000000000e+02,1.851683083659622087e-01,0.000000000000000000e+00
3.960000000000000000e+02,-4.390193976048132329e-01,0.000000000000000000e+00
3.970000000000000000e+02,4.996194471470672416e-01,0.000000000000000000e+00
3.980000000000000000e+02,4.553902777739176955e+00,0.000000000000000000e+00
3.990000000000000000e+02,3.783149199707420252e+00,1.000000000000000000e+00
4.000000000000000000e+02,8.590293394116241266e-02,0.000000000000000000e+00
4.010000000000000000e+02,-9.549718825779617282e-01,0.000000000000000000e+00
4.020000000000000000e+02,-1.066273079914788591e+00,0.000000000000000000e+00
4.030000000000000000e+02,-8.326573572859725658e-01,0.000000000000000000e+00
4.040000000000000000e+02,-7.770264826037116546e-01,0.000000000000000000e+00
4.050000000000000000e+02,-5.663079927317802298e-01,0.000000000000000000e+00
4.060000000000000000e+02,-5.803355591318631879e-01,0.000000000000000000e+00
4.070000000000000000e+02,-3.604404387259538267e-01,0.000000000000000000e+00
4.080000000000000000e+02,-4.090455712678671141e-01,0.000000000000000000e+00
4.090000000000000000e+02,-2.673023854625010687e-01,0.000000000000000000e+00
4.100000000000000000e+02,-3.886460203651673911e-02,0.000000000000000000e+00
4.110000000000000000e+02,-1.694412470267327164e-02,0.000000000000000000e+00
4.120000000000000000e+02,2.864144843495149972e-01,0.000000000000000000e+00
4.130000000000000000e+02,5.586216152197128748e-01,0.000000000000000000e+00
4.140000000000000000e+02,8.970335387695155260e-01,0.000000000000000000e+00
4.150000000000000000e+02,1.098128320191195995e+00,0.000000000000000000e+00
4.160000000000000000e+02,1.086313941489335466e+00,0.000000000000000000e+00
4.170000000000000000e+02,5.591370104242443517e-01,0.000000000000000000e+00
4.180000000000000000e+02,-3.386733817502094457e-01,0.000000000000000000e+00
4.190000000000000000e+02,-1.290222996833826796e+00,0.000000000000000000e+00
4.200000000000000000e+02,-1.553722867461722945e+00,0.000000000000000000e+00
4.210000000000000000e+02,-1.805514823909992073e+00,0.000000000000000000e+00
4.220000000000000000e+02,-1.580985328647523058e+00,0.000000000000000000e+00
4.230000000000000000e+02,-1.526242808477524138e+00,0.000000000000000000e+00
4.240000000000000000e+02,-1.127881409780399080e+00,0.000000000000000000e+00
4.250000000000000000e+02,-1.261922744075561154e+00,0.000000000000000000e+00
4.260000000000000000e+02,-9.933846389020996037e-01,0.000000000000000000e+00
4.270000000000000000e+02,-9.493308980524260976e-01,0.000000000000000000e+00
4.280000000000000000e+02,-6.477929888128272085e-01,0.000000000000000000e+00
4.290000000000000000e+02,-6.920216652815385228e-01,0.000000000000000000e+00
4.300000000000000000e+02,-7.060567144178051535e-01,0.000000000000000000e+00
4.310000000000000000e+02,-5.299750948996243549e-01,0.000000000000000000e+00
4.320000000000000000e+02,-4.401212177812129922e-01,0.000000000000000000e+00
4.330000000000000000e+02,-4.405389096245816982e-01,0.000000000000000000e+00
4.340000000000000000e+02,-3.831108373533920752e-01,0.000000000000000000e+00
4.350000000000000000e+02,-1.980551195046844348e-01,0.000000000000000000e+00
4.360000000000000000e+02,-2.007762904441304785e-01,0.000000000000000000e+00
4.370000000000000000e+02,-1.419509044142904242e-01,0.000000000000000000e+00
4.380000000000000000e+02,7.751686213613935561e-02,0.000000000000000000e+00
4.390000000000000000e+02,-7.513292825703279942e-02,0.000000000000000000e+00
4.400000000000000000e+02,1.253864722775543394e-01,0.000000000000000000e+00
4.410000000000000000e+02,1.052561333943117655e-01,0.000000000000000000e+00
4.420000000000000000e+02,1.348637383405007217e-01,0.000000000000000000e+00
4.430000000000000000e+02,2.554402012509827125e-01,0.000000000000000000e+00
4.440000000000000000e+02,3.447852966951547860e-01,0.000000000000000000e+00
4.450000000000000000e+02,2.743840995719066256e-01,0.000000000000000000e+00
4.460000000000000000e+02,2.783260768783986649e-01,0.000000000000000000e+00
4.470000000000000000e+02,3.141720007615397270e-01,0.000000000000000000e+00
4.480000000000000000e+02,2.857866571273380840e-01,0.000000000000000000e+00
4.490000000000000000e+02,2.595966879925989956e-01,0.000000000000000000e+00
4.500000000000000000e+02,4.058443433726015015e-01,0.000000000000000000e+00
4.510000000000000000e+02,2.877333684300384942e-01,0.000000000000000000e+00
4.520000000000000000e+02,4.653985971603857852e-01,0.000000000000000000e+00
4.530000000000000000e+02,3.272031352188749520e-01,0.000000000000000000e+00
4.540000000000000000e+02,4.643451992882511870e-01,0.000000000000000000e+00
4.550000000000000000e+02,5.390094537090527327e-01,0.000000000000000000e+00
4.560000000000000000e+02,6.090598515244408651e-01,0.000000000000000000e+00
4.570000000000000000e+02,5.381433013329234294e-01,0.000000000000000000e+00
4.580000000000000000e+02,5.361671293794971760e-01,0.000000000000000000e+00
4.590000000000000000e+02,4.615128667309587041e-01,0.000000000000000000e+00
4.600000000000000000e+02,2.156383540380366337e-01,0.000000000000000000e+00
4.610000000000000000e+02,1.450243324129873723e-01,0.000000000000000000e+00
4.620000000000000000e+02,1.296979988311985077e-01,0.000000000000000000e+00
4.630000000000000000e+02,8.924068108224592066e-02,0.000000000000000000e+00
4.640000000000000000e+02,6.567274749912258014e-02,0.000000000000000000e+00
4.650000000000000000e+02,-1.725749400531241262e-01,0.000000000000000000e+00
4.660000000000000000e+02,2.857074936052741432e+00,0.000000000000000000e+00
4.670000000000000000e+02,5.245632846626725687e+00,0.000000000000000000e+00
4.680000000000000000e+02,2.386758106270038038e+00,1.000000000000000000e+00
4.690000000000000000e+02,-4.678959824122921329e-01,0.000000000000000000e+00
4.700000000000000000e+02,-9.884557092359343988e-01,0.000000000000000000e+00
4.710000000000000000e+02,-9.965374792516030755e-01,0.000000000000000000e+00
4.720000000000000000e+02,-9.648720558329748620e-01,0.000000000000000000e+00
4.730000000000000000e+02,-8.749973375539732423e-01,0.000000000000000000e+00
4.740000000000000000e+02,-7.487756499233053642e-01,0.000000000000000000e+00
4.750000000000000000e+02,-6.664412535659816061e-01,0.000000000000000000e+00
4.760000000000000000e+02,-5.131829194140187234e-01,0.000000000000000000e+00
4.770000000000000000e+02,-5.060989478866322333e-01,0.000000000000000000e+00
4.780000000000000000e+02,-3.178276714819097126e-01,0.000000000000000000e+00
4.790000000000000000e+02,-2.515371362877127925e-01,0.000000000000000000e+00
4.800000000000000000e+02,1.246800451815066185e-01,0.000000000000000000e+00
4.810000000000000000e+02,5.643391460589665121e-01,0.000000000000000000e+00
4.820000000000000000e+02,7.950721764003670922e-01,0.000000000000000000e+00
4.830000000000000000e+02,1.067245452006194251e+00,0.000000000000000000e+00
4.840000000000000000e+02,1.031472849753238608e+00,0.000000000000000000e+00
4.850000000000000000e+02,8.011864980656093760e-01,0.000000000000000000e+00
4.860000000000000000e+02,-6.362750060518237993e-02,0.000000000000000000e+00
4.870000000000000000e+02,-8.580557312091489086e-01,0.000000000000000000e+00
4.880000000000000000e+02,-1.471413193187175450e+00,0.000000000000000000e+00
4.890000000000000000e+02,-1.549402714442766005e+00,0.000000000000000000e+00
4.900000000000000000e+02,-1.553066253807700470e+00,0.000000000000000000e+00
4.910000000000000000e+02,-1.429518088884058846e+00,0.000000000000000000e+00
4.920000000000000000e+02,-1.301270920379351326e+00,0.000000000000000000e+00
4.930000000000000000e+02,-1.048935900237232044e+00,0.000000000000000000e+00
4.940000000000000000e+02,-1.039431713343706098e+00,0.000000000000000000e+00
4.950000000000000000e+02,-8.158423133652218384e-01,0.000000000000000000e+00
4.960000000000000000e+02,-7.703590507217439320e-01,0.000000000000000000e+00
4.970000000000000000e+02,-6.383488251244789913e-01,0.000000000000000000e+00
4.980000000000000000e+02,-5.072214567975843469e-01,0.000000000000000000e+00
4.990000000000000000e+02,-5.527639413486880038e-01,0.000000000000000000e+00
5.000000000000000000e+02,-2.491232868258882738e-01,0.000000000000000000e+00
5.010000000000000000e+02,-1.679072659294898462e-01,0.000000000000000000e+00
5.020000000000000000e+02,-2.718888408934205247e-01,0.000000000000000000e+00
5.030000000000000000e+02,-1.250495309474030092e-01,0.000000000000000000e+00
5.040000000000000000e+02,-1.674318057380691227e-01,0.000000000000000000e+00
5.050000000000000000e+02,-1.607161378875617344e-02,0.000000000000000000e+00
5.060000000000000000e+02,9.437703575644754497e-03,0.000000000000000000e+00
5.070000000000000000e+02,1.654239581213780563e-01,0.000000000000000000e+00
5.080000000000000000e+02,-3.224863632752382470e-02,0.000000000000000000e+00
5.090000000000000000e+02,1.322485430972002440e-01,0.000000000000000000e+00
5.100000000000000000e+02,1.235537210506214706e-01,0.000000000000000000e+00
5.110000000000000000e+02,1.723669415746910405e-01,0.000000000000000000e+00
5.120000000000000000e+02,1.776001192601330547e-01,0.000000000000000000e+00
5.130000000000000000e+02,3.932419773008290487e-01,0.000000000000000000e+00
5.140000000000000000e+02,1.717973662503613774e-01,0.000000000000000000e+00
5.150000000000000000e+02,5.165540649025021080e-01,0.000000000000000000e+00
5.160000000000000000e+02,3.304303526362841192e-01,0.000000000000000000e+00
5.170000000000000000e+02,3.616627418688044826e-01,0.000000000000000000e+00
5.180000000000000000e+02,2.686445411861264621e-01,0.000000000000000000e+00
5.190000000000000000e+02,4.673789265703374163e-01,0.000000000000000000e+00
5.200000000000000000e+02,3.546172847646019144e-01,0.000000000000000000e+00
5.210000000000000000e+02,4.283672782328840634e-01,0.000000000000000000e+00
5.220000000000000000e+02,2.224694066719296037e-01,0.000000000000000000e+00
5.230000000000000000e+02,3.065865367515333006e-01,0.000000000000000000e+00
5.240000000000000000e+02,3.664286127313132191e-01,0.000000000000000000e+00
5.250000000000000000e+02,4.615366109256877070e-01,0.000000000000000000e+00
5.260000000000000000e+02,3.167931844864740887e-01,0.000000000000000000e+00
5.270000000000000000e+02,4.435774729776502667e-01,0.000000000000000000e+00
5.280000000000000000e+02,5.163301614985057464e-01,0.000000000000000000e+00
5.290000000000000000e+02,8.959726325290359727e-02,0.000000000000000000e+00
5.300000000000000000e+02,1.133744658830606600e-01,0.000000000000000000e+00
5.310000000000000000e+02,2.478190605657317191e-01,0.000000000000000000e+00
5.320000000000000000e+02,1.097136901161222533e-01,0.000000000000000000e+00
5.330000000000000000e+02,5.002244348810418878e-02,0.000000000000000000e+00
5.340000000000000000e+02,-4.838096331763745428e-01,0.000000000000000000e+00
5.350000000000000000e+02,2.351256166554389626e+00,0.000000000000000000e+00
5.360000000000000000e+02,5.340334588016998119e+00,0.000000000000000000e+00
5.370000000000000000e+02,3.065020504512937283e+00,1.000000000000000000e+00
5.380000000000000000e+02,-5.341259267119244369e-02,0.000000000000000000e+00
5.390000000000000000e+02,-9.359310272025491706e-01,0.000000000000000000e+00
5.400000000000000000e+02,-7.820333736144535752e-01,0.000000000000000000e+00
5.410000000000000000e+02,-9.626591731258492546e-01,0.000000000000000000e+00
5.420000000000000000e+02,-7.293327876802130350e-01,0.000000000000000000e+00
5.430000000000000000e+02,-6.278372159851656198e-01,0.000000000000000000e+00
5.440000000000000000e+02,-5.061741849670101656e-01,0.000000000000000000e+00
5.450000000000000000e+02,-5.171339763478848273e-01,0.000000000000000000e+00
5.460000000000000000e+02,-1.966433011240185935e-01,0.000000000000000000e+00
5.470000000000000000e+02,-2.008077209523735362e-01,0.000000000000000000e+00
5.480000000000000000e+02,-7.332828907252601607e-03,0.000000000000000000e+00
5.490000000000000000e+02,1.380447050502906781e-01,0.000000000000000000e+00
5.500000000000000000e+02,4.300440284044749761e-01,0.000000000000000000e+00
5.510000000000000000e+02,7.561136545588957869e-01,0.000000000000000000e+00
5.520000000000000000e+02,1.228607745527108941e+00,0.000000000000000000e+00
5.530000000000000000e+02,1.170618423236826189e+00,0.000000000000000000e+00
5.540000000000000000e+02,1.005017954664376933e+00,0.000000000000000000e+00
5.550000000000000000e+02,2.013214470820154645e-01,0.000000000000000000e+00
5.560000000000000000e+02,-7.934062021522904073e-01,0.000000000000000000e+00
5.570000000000000000e+02,-1.490023964742745566e+00,0.000000000000000000e+00
5.580000000000000000e+02,-1.700045670919467344e+00,0.000000000000000000e+00
5.590000000000000000e+02,-1.651429002914754030e+00,0.000000000000000000e+00
5.600000000000000000e+02,-1.616604992846077282e+00,0.000000000000000000e+00
5.610000000000000000e+02,-1.355434330445259627e+00,0.000000000000000000e+00
5.620000000000000000e+02,-1.353359384010621280e+00,0.000000000000000000e+00
5.630000000000000000e+02,-1.092424922151493227e+00,0.000000000000000000e+00
5.640000000000000000e+02,-1.024518165407862114e+00,0.000000000000000000e+00
5.650000000000000000e+02,-1.163097393519560985e+00,0.000000000000000000e+00
5.660000000000000000e+02,-8.190167880893483021e-01,0.000000000000000000e+00
5.670000000000000000e+02,-7.217138898510069289e-01,0.000000000000000000e+00
5.680000000000000000e+02,-6.048473076906702994e-01,0.000000000000000000e+00
5.690000000000000000e+02,-5.424712313274450137e-01,0.000000000000000000e+00
5.700000000000000000e+02,-5.514036632846955888e-01,0.000000000000000000e+00
5.710000000000000000e+02,-5.343972845023607920e-01,0.000000000000000000e+00
5.720000000000000000e+02,-2.679156137127499115e-01,0.000000000000000000e+00
5.730000000000000000e+02,-3.867508609270249864e-01,0.000000000000000000e+00
5.740000000000000000e+02,-5.095208928617019767e-02,0.000000000000000000e+00
5.750000000000000000e+02,-1.787299861942320267e-01,0.000000000000000000e+00
5.760000000000000000e+02,6.550995746403349973e-02,0.000000000000000000e+00
5.770000000000000000e+02,1.644914505716270001e-02,0.000000000000000000e+00
5.780000000000000000e+02,1.843660768125145177e-01,0.000000000000000000e+00
5.790000000000000000e+02,1.158086393960711669e-01,0.000000000000000000e+00
5.800000000000000000e+02,1.202568831615179468e-01,0.000000000000000000e+00
5.810000000000000000e+02,3.664462304857797337e-01,0.000000000000000000e+00
5.820000000000000000e+02,2.982637420185594301e-01,0.000000000000000000e+00
5.830000000000000000e+02,2.744651869520005616e-01,0.000000000000000000e+00
5.840000000000000000e+02,5.357265910396935560e-01,0.000000000000000000e+00
5.850000000000000000e+02,3.492198221050760165e-01,0.000000000000000000e+00
5.860000000000000000e+02,4.171041460089391362e-01,0.000000000000000000e+00
5.870000000000000000e+02,3.744093848107414857e-01,0.000000000000000000e+00
5.880000000000000000e+02,4.890074201581461888e-01,0.000000000000000000e+00
5.890000000000000000e+02,4.772358696971313874e-01,0.000000000000000000e+00
5.900000000000000000e+02,2.960704428516990894e-01,0.000000000000000000e+00
5.910000000000000000e+02,5.686068789490428266e-01,0.000000000000000000e+00
5.920000000000000000e+02,3.293045708155489248e-01,0.000000000000000000e+00
5.930000000000000000e+02,4.895092901903589921e-01,0.000000000000000000e+00
5.940000000000000000e+02,5.420676618205487740e-01,0.000000000000000000e+00
5.950000000000000000e+02,5.584528706922257113e-01,0.000000000000000000e+00
5.960000000000000000e+02,5.498176380328637647e-01,0.000000000000000000e+00
5.970000000000000000e+02,6.696160555839738571e-01,0.000000000000000000e+00
5.980000000000000000e+02,5.328012106576899276e-01,0.000000000000000000e+00
5.990000000000000000e+02,2.226112113281414340e-01,0.000000000000000000e+00
6.000000000000000000e+02,1.376222058738628962e-01,0.000000000000000000e+00
6.010000000000000000e+02,1.424857799025751603e-01,0.000000000000000000e+00
6.020000000000000000e+02,-6.507064015800827564e-03,0.000000000000000000e+00
6.030000000000000000e+02,1.733341961338788206e-01,0.000000000000000000e+00
6.040000000000000000e+02,-5.160576985529771177e-01,0.000000000000000000e+00
6.050000000000000000e+02,2.576633970379638594e+00,0.000000000000000000e+00
6.060000000000000000e+02,5.378441534206588770e+00,0.000000000000000000e+00
6.070000000000000000e+02,2.493264810157641787e+00,1.000000000000000000e+00
6.080000000000000000e+02,-4.270217947439597928e-01,0.000000000000000000e+00
6.090000000000000000e+02,-9.325534743544711125e-01,0.000000000000000000e+00
6.100000000000000000e+02,-1.063703105910089208e+00,0.000000000000000000e+00
6.110000000000000000e+02,-9.065941472561012127e-01,0.000000000000000000e+00
6.120000000000000000e+02,-7.546140949794526431e-01,0.000000000000000000e+00
6.130000000000000000e+02,-8.135502089755144439e-01,0.000000000000000000e+00
6.140000000000000000e+02,-6.962242376498963825e-01,0.000000000000000000e+00
6.150000000000000000e+02,-5.834599043208893443e-01,0.000000000000000000e+00
6.160000000000000000e+02,-4.246853228982094830e-01,0.000000000000000000e+00
6.170000000000000000e+02,-3.045994340586925531e-01,0.000000000000000000e+00
6.180000000000000000e+02,-5.843909056478703568e-02,0.000000000000000000e+00
6.190000000000000000e+02,2.297474732444411138e-01,0.000000000000000000e+00
6.200000000000000000e+02,3.607949084984607424e-01,0.000000000000000000e+00
6.210000000000000000e+02,8.431003781297707889e-01,0.000000000000000000e+00
6.220000000000000000e+02,1.095275583668562813e+00,0.000000000000000000e+00
6.230000000000000000e+02,1.134345082075927325e+00,0.000000000000000000e+00
6.240000000000000000e+02,8.494318042294797255e-01,0.000000000000000000e+00
6.250000000000000000e+02,1.021438831541844200e-01,0.000000000000000000e+00
6.260000000000000000e+02,-8.975588999870655060e-01,0.000000000000000000e+00
6.270000000000000000e+02,-1.599821735977354109e+00,0.000000000000000000e+00
6.280000000000000000e+02,-1.723218917336772016e+00,0.000000000000000000e+00
6.290000000000000000e+02,-1.758380724670238759e+00,0.000000000000000000e+00
6.300000000000000000e+02,-1.665349604095120561e+00,0.000000000000000000e+00
6.310000000000000000e+02,-1.592294232964107659e+00,0.000000000000000000e+00
6.320000000000000000e+02,-1.323613029355612092e+00,0.000000000000000000e+00
6.330000000000000000e+02,-1.178546111538357977e+00,0.000000000000000000e+00
6.340000000000000000e+02,-1.179058584833335255e+00,0.000000000000000000e+00
6.350000000000000000e+02,-1.001529948578454343e+00,0.000000000000000000e+00
6.360000000000000000e+02,-7.823544127355511746e-01,0.000000000000000000e+00
6.370000000000000000e+02,-6.096052559789079117e-01,0.000000000000000000e+00
6.380000000000000000e+02,-6.253346628911308214e-01,0.000000000000000000e+00
6.390000000000000000e+02,-3.691384661936024103e-01,0.000000000000000000e+00
6.400000000000000000e+02,-5.463180706831296529e-01,0.000000000000000000e+00
6.410000000000000000e+02,-2.364733268679296563e-01,0.000000000000000000e+00
6.420000000000000000e+02,-8.570251989303470652e-02,0.000000000000000000e+00
6.430000000000000000e+02,-2.368045704044892952e-01,0.000000000000000000e+00
6.440000000000000000e+02,-1.621407853964846463e-02,0.000000000000000000e+00
6.450000000000000000e+02,-7.417519291005036930e-02,0.000000000000000000e+00
6.460000000000000000e+02,1.191767750480078325e-01,0.000000000000000000e+00
6.470000000000000000e+02,1.242897743680277528e-01,0.000000000000000000e+00
6.480000000000000000e+02,1.876827518096737257e-01,0.000000000000000000e+00
6.490000000000000000e+02,1.158631072961041342e-01,0.000000000000000000e+00
6.500000000000000000e+02,2.749592788488827710e-01,0.000000000000000000e+00
6.510000000000000000e+02,2.453691573078787547e-01,0.000000000000000000e+00
6.520000000000000000e+02,3.786316946566015695e-01,0.000000000000000000e+00
6.530000000000000000e+02,3.179881231770444461e-01,0.000000000000000000e+00
6.540000000000000000e+02,3.384356840544126555e-01,0.000000000000000000e+00
6.550000000000000000e+02,4.258019007161131797e-01,0.000000000000000000e+00
6.560000000000000000e+02,3.329102411897114089e-01,0.000000000000000000e+00
6.570000000000000000e+02,5.411688878000603387e-01,0.000000000000000000e+00
6.580000000000000000e+02,3.733175503610244306e-01,0.000000000000000000e+00
6.590000000000000000e+02,4.999684654699648179e-01,0.000000000000000000e+00
6.600000000000000000e+02,5.035479550058246101e-01,0.000000000000000000e+00
6.610000000000000000e+02,4.968849169381912012e-01,0.000000000000000000e+00
6.620000000000000000e+02,5.120115328141238153e-01,0.000000000000000000e+00
6.630000000000000000e+02,4.615440330208408493e-01,0.000000000000000000e+00
6.640000000000000000e+02,5.216708950320724236e-01,0.000000000000000000e+00
6.650000000000000000e+02,6.219801638538398070e-01,0.000000000000000000e+00
6.660000000000000000e+02,5.749611697062552151e-01,0.000000000000000000e+00
6.670000000000000000e+02,5.922460416653906323e-01,0.000000000000000000e+00
6.680000000000000000e+02,5.581555112224512172e-01,0.000000000000000000e+00
6.690000000000000000e+02,1.394248689436712041e-01,0.000000000000000000e+00
6.700000000000000000e+02,5.727471533974191203e-02,0.000000000000000000e+00
6.710000000000000000e+02,1.678152777716191146e-01,0.000000000000000000e+00
6.720000000000000000e+02,4.282906034068564155e-02,0.000000000000000000e+00
6.730000000000000000e+02,1.382701042428931548e-01,0.000000000000000000e+00
6.740000000000000000e+02,-6.466128596445723797e-01,0.000000000000000000e+00
6.750000000000000000e+02,1.995393876667282296e+00,0.000000000000000000e+00
6.760000000000000000e+02,5.589105691476911275e+00,0.000000000000000000e+00
6.770000000000000000e+02,2.939247222370326096e+00,1.000000000000000000e+00
6.780000000000000000e+02,-3.773282452146781707e-01,0.000000000000000000e+00
6.790000000000000000e+02,-1.095926188533349555e+00,0.000000000000000000e+00
6.800000000000000000e+02,-8.814494784130677552e-01,0.000000000000000000e+00
6.810000000000000000e+02,-8.931038229893172309e-01,0.000000000000000000e+00
6.820000000000000000e+02,-7.493637491581010002e-01,0.000000000000000000e+00
6.830000000000000000e+02,-6.397641696328676408e-01,0.000000000000000000e+00
6.840000000000000000e+02,-4.418618425592455434e-01,0.000000000000000000e+00
6.850000000000000000e+02,-4.779142337382866201e-01,0.000000000000000000e+00
6.860000000000000000e+02,-3.496701356758489809e-01,0.000000000000000000e+00
6.870000000000000000e+02,-2.662626199623038259e-01,0.000000000000000000e+00
6.880000000000000000e+02,-7.293366320260522007e-02,0.000000000000000000e+00
6.890000000000000000e+02,1.514097438333771861e-01,0.000000000000000000e+00
6.900000000000000000e+02,4.837312053837060088e-01,0.000000000000000000e+00
6.910000000000000000e+02,1.041971019317705416e+00,0.000000000000000000e+00
6.920000000000000000e+02,1.243542723776992931e+00,0.000000000000000000e+00
6.930000000000000000e+02,1.281325610836585360e+00,0.000000000000000000e+00
6.940000000000000000e+02,1.203495882818924168e+00,0.000000000000000000e+00
6.950000000000000000e+02,2.600153171669439822e-01,0.000000000000000000e+00
6.960000000000000000e+02,-5.096508404810172754e-01,0.000000000000000000e+00
6.970000000000000000e+02,-1.392533226982130445e+00,0.000000000000000000e+00
6.980000000000000000e+02,-1.646562651751223960e+00,0.000000000000000000e+00
6.990000000000000000e+02,-1.693598083367412688e+00,0.000000000000000000e+00
7.000000000000000000e+02,-1.669481924236024595e+00,0.000000000000000000e+00
7.010000000000000000e+02,-1.545031353031942611e+00,0.000000000000000000e+00
7.020000000000000000e+02,-1.412915772943652115e+00,0.000000000000000000e+00
7.030000000000000000e+02,-1.267331408482651245e+00,0.000000000000000000e+00
7.040000000000000000e+02,-1.106829430973219397e+00,0.000000000000000000e+00
7.050000000000000000e+02,-9.310083002496544191e-01,0.000000000000000000e+00
7.060000000000000000e+02,-8.094662184325255305e-01,0.000000000000000000e+00
7.070000000000000000e+02,-7.405112624498166873e-01,0.000000000000000000e+00
7.080000000000000000e+02,-5.565188644315344213e-01,0.000000000000000000e+00
7.090000000000000000e+02,-6.490991619790146272e-01,0.000000000000000000e+00
7.100000000000000000e+02,-4.809577702965907031e-01,0.000000000000000000e+00
7.110000000000000000e+02,-3.367363094703605952e-01,0.000000000000000000e+00
7.120000000000000000e+02,-3.544938553845536910e-01,0.000000000000000000e+00
7.130000000000000000e+02,-1.097351415378921002e-01,0.000000000000000000e+00
7.140000000000000000e+02,-1.474856267624715667e-01,0.000000000000000000e+00
7.150000000000000000e+02,5.075479706189413992e-02,0.000000000000000000e+00
7.160000000000000000e+02,8.269576291407927660e-02,0.000000000000000000e+00
7.170000000000000000e+02,2.665752444949887612e-01,0.000000000000000000e+00
7.180000000000000000e+02,4.919475535720227444e-02,0.000000000000000000e+00
7.190000000000000000e+02,1.844396776831354612e-01,0.000000000000000000e+00
7.200000000000000000e+02,2.362547052089068733e-01,0.000000000000000000e+00
7.210000000000000000e+02,3.158334629585929920e-01,0.000000000000000000e+00
7.220000000000000000e+02,2.415249976338394722e-01,0.000000000000000000e+00
7.230000000000000000e+02,3.038199382687301053e-01,0.000000000000000000e+00
7.240000000000000000e+02,3.065207162095325844e-01,0.000000000000000000e+00
7.250000000000000000e+02,2.760228377522420118e-01,0.000000000000000000e+00
7.260000000000000000e+02,2.908762064007035519e-01,0.000000000000000000e+00
7.270000000000000000e+02,4.663637903074598912e-01,0.000000000000000000e+00
7.280000000000000000e+02,3.312938795629800648e-01,0.000000000000000000e+00
7.290000000000000000e+02,3.656243349516973828e-01,0.000000000000000000e+00
7.300000000000000000e+02,2.418797551093389564e-01,0.000000000000000000e+00
7.310000000000000000e+02,2.805982372135642500e-01,0.000000000000000000e+00
7.320000000000000000e+02,4.233035459850830740e-01,0.000000000000000000e+00
7.330000000000000000e+02,3.631605462176952237e-01,0.000000000000000000e+00
7.340000000000000000e+02,4.977288728212918012e-01,0.000000000000000000e+00
7.350000000000000000e+02,3.888250671912855672e-01,0.000000000000000000e+00
7.360000000000000000e+02,5.252781725249683342e-01,0.000000000000000000e+00
7.370000000000000000e+02,4.390696203465321856e-01,0.000000000000000000e+00
7.380000000000000000e+02,5.068800642060222739e-01,0.000000000000000000e+00
7.390000000000000000e+02,1.495816312085986310e-01,0.000000000000000000e+00
7.400000000000000000e+02,1.819704033454721537e-01,0.000000000000000000e+00
7.410000000000000000e+02,1.232719870530211842e-01,0.000000000000000000e+00
7.420000000000000000e+02,2.727306526242796458e-01,0.000000000000000000e+00
7.430000000000000000e+02,-1.107019964182501676e-01,0.000000000000000000e+00
7.440000000000000000e+02,1.213428945380760626e-01,0.000000000000000000e+00
7.450000000000000000e+02,4.414609563305641693e+00,0.000000000000000000e+00
7.460000000000000000e+02,3.899775733655939547e+00,0.000000000000000000e+00
7.470000000000000000e+02,-1.283256159136317472e-02,1.000000000000000000e+00
7.480000000000000000e+02,-1.046857059123345257e+00,0.000000000000000000e+00
7.490000000000000000e+02,-9.825204834465477433e-01,0.000000000000000000e+00
7.500000000000000000e+02,-8.058979598466561312e-01,0.000000000000000000e+00
7.510000000000000000e+02,-5.770216362159655832e-01,0.000000000000000000e+00
7.520000000000000000e+02,-6.583799605879606665e-01,0.000000000000000000e+00
7.530000000000000000e+02,-3.903180441165124415e-01,0.000000000000000000e+00
7.540000000000000000e+02,-4.178483701523684757e-01,0.000000000000000000e+00
7.550000000000000000e+02,-3.609869139359238033e-01,0.000000000000000000e+00
7.560000000000000000e+02,-2.542921110718008304e-01,0.000000000000000000e+00
7.570000000000000000e+02,-2.098681568611893700e-01,0.000000000000000000e+00
7.580000000000000000e+02,1.349006981694471918e-01,0.000000000000000000e+00
7.590000000000000000e+02,3.979108683678169722e-01,0.000000000000000000e+00
7.600000000000000000e+02,6.325906268786584130e-01,0.000000000000000000e+00
7.610000000000000000e+02,9.362108848337635791e-01,0.000000000000000000e+00
7.620000000000000000e+02,1.164446351101965371e+00,0.000000000000000000e+00
7.630000000000000000e+02,1.101530832485616118e+00,0.000000000000000000e+00
7.640000000000000000e+02,6.173782881295848401e-01,0.000000000000000000e+00
7.650000000000000000e+02,-3.794567752191362747e-02,0.000000000000000000e+00
7.660000000000000000e+02,-9.768712252734780277e-01,0.000000000000000000e+00
7.670000000000000000e+02,-1.454250285121434061e+00,0.000000000000000000e+00
7.680000000000000000e+02,-1.607300494908976196e+00,0.000000000000000000e+00
7.690000000000000000e+02,-1.599938895798664662e+00,0.000000000000000000e+00
7.700000000000000000e+02,-1.494591882848054665e+00,0.000000000000000000e+00
7.710000000000000000e+02,-1.337062752131035204e+00,0.000000000000000000e+00
7.720000000000000000e+02,-1.325040901923303593e+00,0.000000000000000000e+00
7.730000000000000000e+02,-9.217315871074877043e-01,0.000000000000000000e+00
7.740000000000000000e+02,-1.003751666031348133e+00,0.000000000000000000e+00
7.750000000000000000e+02,-8.160220915475278058e-01,0.000000000000000000e+00
7.760000000000000000e+02,-6.542483404261058011e-01,0.000000000000000000e+00
7.770000000000000000e+02,-7.873673520271348147e-01,0.000000000000000000e+00
7.780000000000000000e+02,-4.903738305394264030e-01,0.000000000000000000e+00
7.790000000000000000e+02,-3.794479585140337341e-01,0.000000000000000000e+00
7.800000000000000000e+02,-4.198802554809394350e-01,0.000000000000000000e+00
7.810000000000000000e+02,-3.867399321923292721e-01,0.000000000000000000e+00
7.820000000000000000e+02,-2.524002881039946189e-01,0.000000000000000000e+00
7.830000000000000000e+02,-1.185638515532164983e-01,0.000000000000000000e+00
7.840000000000000000e+02,-2.032254833727075161e-01,0.000000000000000000e+00
7.850000000000000000e+02,-1.154742144397374048e-01,0.000000000000000000e+00
7.860000000000000000e+02,1.748594526060670562e-01,0.000000000000000000e+00
7.870000000000000000e+02,-2.999756108670013216e-02,0.000000000000000000e+00
7.880000000000000000e+02,3.345751773146027341e-02,0.000000000000000000e+00
7.890000000000000000e+02,1.983821796024372031e-01,0.000000000000000000e+00
7.900000000000000000e+02,2.034157247001820712e-01,0.000000000000000000e+00
7.910000000000000000e+02,2.629421559132902320e-01,0.000000000000000000e+00
7.920000000000000000e+02,3.293941418313439673e-01,0.000000000000000000e+00
7.930000000000000000e+02,2.043137868802850643e-01,0.000000000000000000e+00
7.940000000000000000e+02,3.495955827200530885e-01,0.000000000000000000e+00
7.950000000000000000e+02,3.449786615562751013e-01,0.000000000000000000e+00
7.960000000000000000e+02,3.500232068220847093e-01,0.000000000000000000e+00
7.970000000000000000e+02,3.458225025030680078e-01,0.000000000000000000e+00
7.980000000000000000e+02,2.283756761147904824e-01,0.000000000000000000e+00
7.990000000000000000e+02,4.542120608655469405e-01,0.000000000000000000e+00
8.000000000000000000e+02,2.857993436476813365e-01,0.000000000000000000e+00
8.010000000000000000e+02,4.035745390849077019e-01,0.000000000000000000e+00
8.020000000000000000e+02,2.517488258962994885e-01,0.000000000000000000e+00
8.030000000000000000e+02,5.485851149830692775e-01,0.000000000000000000e+00
8.040000000000000000e+02,4.945356061298548656e-01,0.000000000000000000e+00
8.050000000000000000e+02,3.838373823640980342e-01,0.000000000000000000e+00
8.060000000000000000e+02,5.552822226146256757e-01,0.000000000000000000e+00
8.070000000000000000e+02,3.458185730967813787e-01,0.000000000000000000e+00
8.080000000000000000e+02,1.714811092896894318e-01,0.000000000000000000e+00
8.090000000000000000e+02,8.611556760674386746e-02,0.000000000000000000e+00
8.100000000000000000e+02,2.199380996862097815e-02,0.000000000000000000e+00
8.110000000000000000e+02,3.392568410965715042e-01,0.000000000000000000e+00
8.120000000000000000e+02,-3.346839241804355769e-01,0.000000000000000000e+00
8.130000000000000000e+02,3.382866731314981834e-01,0.000000000000000000e+00
8.140000000000000000e+02,4.309623201430722972e+00,0.000000000000000000e+00
8.150000000000000000e+02,3.694143066169287337e+00,0.000000000000000000e+00
8.160000000000000000e+02,6.110548995556378676e-02,1.000000000000000000e+00
8.170000000000000000e+02,-9.694239537346294178e-01,0.000000000000000000e+00
8.180000000000000000e+02,-7.590678965794462885e-01,0.000000000000000000e+00
8.190000000000000000e+02,-7.459003464679117013e-01,0.000000000000000000e+00
8.200000000000000000e+02,-5.680741869374956732e-01,0.000000000000000000e+00
8.210000000000000000e+02,-4.259200848176234455e-01,0.000000000000000000e+00
8.220000000000000000e+02,-3.829765940039215333e-01,0.000000000000000000e+00
8.230000000000000000e+02,-1.769063914229093426e-01,0.000000000000000000e+00
8.240000000000000000e+02,-2.257345152296655888e-01,0.000000000000000000e+00
8.250000000000000000e+02,-1.503951826845759399e-01,0.000000000000000000e+00
8.260000000000000000e+02,-4.929594244059701258e-02,0.000000000000000000e+00
8.270000000000000000e+02,5.840162226507224913e-02,0.000000000000000000e+00
8.280000000000000000e+02,4.629778342101630306e-01,0.000000000000000000e+00
8.290000000000000000e+02,8.746093991003208723e-01,0.000000000000000000e+00
8.300000000000000000e+02,1.053839846174354555e+00,0.000000000000000000e+00
8.310000000000000000e+02,1.043260372571031658e+00,0.000000000000000000e+00
8.320000000000000000e+02,1.318873215902430340e+00,0.000000000000000000e+00
8.330000000000000000e+02,8.912958798188260756e-01,0.000000000000000000e+00
8.340000000000000000e+02,2.269325031469232243e-02,0.000000000000000000e+00
8.350000000000000000e+02,-9.331812005434685364e-01,0.000000000000000000e+00
8.360000000000000000e+02,-1.493323815190669146e+00,0.000000000000000000e+00
8.370000000000000000e+02,-1.568111927010268802e+00,0.000000000000000000e+00
8.380000000000000000e+02,-1.515427333216371242e+00,0.000000000000000000e+00
8.390000000000000000e+02,-1.548309298153111246e+00,0.000000000000000000e+00
8.400000000000000000e+02,-1.248190953040933637e+00,0.000000000000000000e+00
8.410000000000000000e+02,-1.140026539895817148e+00,0.000000000000000000e+00
8.420000000000000000e+02,-1.037311506807993000e+00,0.000000000000000000e+00
8.430000000000000000e+02,-8.143947575674459483e-01,0.000000000000000000e+00
8.440000000000000000e+02,-6.667443052457510122e-01,0.000000000000000000e+00
8.450000000000000000e+02,-6.963686256019451237e-01,0.000000000000000000e+00
8.460000000000000000e+02,-5.989940623284435439e-01,0.000000000000000000e+00
8.470000000000000000e+02,-4.326072259528014330e-01,0.000000000000000000e+00
8.480000000000000000e+02,-4.591381712675107751e-01,0.000000000000000000e+00
8.490000000000000000e+02,-4.451478887195602918e-01,0.000000000000000000e+00
8.500000000000000000e+02,-2.480280624823818503e-01,0.000000000000000000e+00
8.510000000000000000e+02,-3.862847004430381564e-02,0.000000000000000000e+00
8.520000000000000000e+02,-1.610830986446149804e-01,0.000000000000000000e+00
8.530000000000000000e+02,-2.535285455964063350e-02,0.000000000000000000e+00
8.540000000000000000e+02,1.193510992379979707e-01,0.000000000000000000e+00
8.550000000000000000e+02,2.513592938661789525e-02,0.000000000000000000e+00
8.560000000000000000e+02,1.120021617261906938e-01,0.000000000000000000e+00
8.570000000000000000e+02,1.618617676779930958e-01,0.000000000000000000e+00
8.580000000000000000e+02,1.796974048041873884e-01,0.000000000000000000e+00
8.590000000000000000e+02,9.475224548594186891e-02,0.000000000000000000e+00
8.600000000000000000e+02,1.005526351455796052e-01,0.000000000000000000e+00
8.610000000000000000e+02,3.001839336988737506e-01,0.000000000000000000e+00
8.620000000000000000e+02,1.816314591246445953e-01,0.000000000000000000e+00
8.630000000000000000e+02,2.125445168910575500e-01,0.000000000000000000e+00
8.640000000000000000e+02,3.777656651204078786e-01,0.000000000000000000e+00
8.650000000000000000e+02,2.701513279976272552e-01,0.000000000000000000e+00
8.660000000000000000e+02,4.562142501025671648e-01,0.000000000000000000e+00
8.670000000000000000e+02,2.239984628921933285e-01,0.000000000000000000e+00
8.680000000000000000e+02,3.308152484807799221e-01,0.000000000000000000e+00
8.690000000000000000e+02,2.230630883892289473e-01,0.000000000000000000e+00
8.700000000000000000e+02,3.253472223642922545e-01,0.000000000000000000e+00
8.710000000000000000e+02,3.802492770766048857e-01,0.000000000000000000e+00
8.720000000000000000e+02,3.767871992549473026e-01,0.000000000000000000e+00
8.730000000000000000e+02,4.675024052424507359e-01,0.000000000000000000e+00
8.740000000000000000e+02,4.260404379093872262e-01,0.000000000000000000e+00
8.750000000000000000e+02,4.904525688838783926e-01,0.000000000000000000e+00
8.760000000000000000e+02,2.827051570963723948e-01,0.000000000000000000e+00
8.770000000000000000e+02,8.060791320651551628e-03,0.000000000000000000e+00
8.780000000000000000e+02,-3.312455579942845396e-02,0.000000000000000000e+00
8.790000000000000000e+02,-5.720797438522545048e-02,0.000000000000000000e+00
8.800000000000000000e+02,1.439775634217375644e-01,0.000000000000000000e+00
8.810000000000000000e+02,-4.017257407969235250e-01,0.000000000000000000e+00
8.820000000000000000e+02,3.091393551750152846e-01,0.000000000000000000e+00
8.830000000000000000e+02,4.231124732943897904e+00,0.000000000000000000e+00
8.840000000000000000e+02,3.991902162274081789e+00,0.000000000000000000e+00
8.850000000000000000e+02,3.331324439161816864e-01,1.000000000000000000e+00
8.860000000000000000e+02,-9.470038017064694724e-01,0.000000000000000000e+00
8.870000000000000000e+02,-9.696421900400746807e-01,0.000000000000000000e+00
8.880000000000000000e+02,-8.000257908027732512e-01,0.000000000000000000e+00
8.890000000000000000e+02,-7.759550253559253097e-01,0.000000000000000000e+00
8.900000000000000000e+02,-5.546477206429042406e-01,0.000000000000000000e+00
8.910000000000000000e+02,-5.653544157189790420e-01,0.000000000000000000e+00
8.920000000000000000e+02,-3.138957088421877040e-01,0.000000000000000000e+00
8.930000000000000000e+02,-2.769505090121170410e-01,0.000000000000000000e+00
8.940000000000000000e+02,-2.633138140521961712e-01,0.000000000000000000e+00
8.950000000000000000e+02,4.273553332998820259e-02,0.000000000000000000e+00
8.960000000000000000e+02,2.432875730181996710e-01,0.000000000000000000e+00
8.970000000000000000e+02,3.085052061290079473e-01,0.000000000000000000e+00
8.980000000000000000e+02,7.797946819033167998e-01,0.000000000000000000e+00
8.990000000000000000e+02,1.038890092771005191e+00,0.000000000000000000e+00
9.000000000000000000e+02,1.196385927141301542e+00,0.000000000000000000e+00
9.010000000000000000e+02,1.225294034419771139e+00,0.000000000000000000e+00
9.020000000000000000e+02,5.155957541210919315e-01,0.000000000000000000e+00
9.030000000000000000e+02,-2.098999573131654084e-01,0.000000000000000000e+00
9.040000000000000000e+02,-1.166383021270603226e+00,0.000000000000000000e+00
9.050000000000000000e+02,-1.572223004637339550e+00,0.000000000000000000e+00
9.060000000000000000e+02,-1.763917211170527022e+00,0.000000000000000000e+00
9.070000000000000000e+02,-1.584521725730112518e+00,0.000000000000000000e+00
9.080000000000000000e+02,-1.503278055856587692e+00,0.000000000000000000e+00
9.090000000000000000e+02,-1.316109761036057035e+00,0.000000000000000000e+00
9.100000000000000000e+02,-1.310814105981685129e+00,0.000000000000000000e+00
9.110000000000000000e+02,-1.000500843303770093e+00,0.000000000000000000e+00
9.120000000000000000e+02,-9.933963641309419002e-01,0.000000000000000000e+00
9.130000000000000000e+02,-7.816819250080044856e-01,0.000000000000000000e+00
9.140000000000000000e+02,-7.836032794266271084e-01,0.000000000000000000e+00
9.150000000000000000e+02,-6.573401380815743211e-01,0.000000000000000000e+00
9.160000000000000000e+02,-4.565895823069994752e-01,0.000000000000000000e+00
9.170000000000000000e+02,-5.765802573436138445e-01,0.000000000000000000e+00
9.180000000000000000e+02,-4.989568642875260585e-01,0.000000000000000000e+00
9.190000000000000000e+02,-3.183300910619013546e-01,0.000000000000000000e+00
9.200000000000000000e+02,-2.429115926239304724e-01,0.000000000000000000e+00
9.210000000000000000e+02,-8.565341957513927795e-02,0.000000000000000000e+00
9.220000000000000000e+02,2.800966140687145139e-02,0.000000000000000000e+00
9.230000000000000000e+02,-1.412804349326487671e-02,0.000000000000000000e+00
9.240000000000000000e+02,3.025524584514314164e-01,0.000000000000000000e+00
9.250000000000000000e+02,1.405427802541647786e-01,0.000000000000000000e+00
9.260000000000000000e+02,2.099565226492498826e-01,0.000000000000000000e+00
9.270000000000000000e+02,4.198307228005583314e-01,0.000000000000000000e+00
9.280000000000000000e+02,4.365628622811666970e-01,0.000000000000000000e+00
9.290000000000000000e+02,4.039996147491946021e-01,0.000000000000000000e+00
9.300000000000000000e+02,5.136715509921170320e-01,0.000000000000000000e+00
9.310000000000000000e+02,4.648234528573457758e-01,0.000000000000000000e+00
9.320000000000000000e+02,4.516155182315513827e-01,0.000000000000000000e+00
9.330000000000000000e+02,5.204107952452770025e-01,0.000000000000000000e+00
9.340000000000000000e+02,4.561643360385715384e-01,0.000000000000000000e+00
9.350000000000000000e+02,5.506193766442741833e-01,0.000000000000000000e+00
9.360000000000000000e+02,4.393434987289450699e-01,0.000000000000000000e+00
9.370000000000000000e+02,5.590411394553147506e-01,0.000000000000000000e+00
9.380000000000000000e+02,2.999760534813801782e-01,0.000000000000000000e+00
9.390000000000000000e+02,4.192140261645550536e-01,0.000000000000000000e+00
9.400000000000000000e+02,4.985904923521475296e-01,0.000000000000000000e+00
9.410000000000000000e+02,4.639307312828863106e-01,0.000000000000000000e+00
9.420000000000000000e+02,5.087293006028961173e-01,0.000000000000000000e+00
9.430000000000000000e+02,5.109050198803032350e-01,0.000000000000000000e+00
9.440000000000000000e+02,4.727977489009620449e-01,0.000000000000000000e+00
9.450000000000000000e+02,4.167206218429130304e-01,0.000000000000000000e+00
9.460000000000000000e+02,-1.235307998963786590e-02,0.000000000000000000e+00
9.470000000000000000e+02,1.307787678132628917e-01,0.000000000000000000e+00
9.480000000000000000e+02,1.323045969372997274e-02,0.000000000000000000e+00
9.490000000000000000e+02,1.902537695419769526e-01,0.000000000000000000e+00
9.500000000000000000e+02,-5.258617929862208218e-01,0.000000000000000000e+00
9.510000000000000000e+02,1.088066663733905148e+00,0.000000000000000000e+00
9.520000000000000000e+02,4.625741244053287460e+00,0.000000000000000000e+00
9.530000000000000000e+02,3.977707475453510888e+00,1.000000000000000000e+00
9.540000000000000000e+02,5.440346819693379077e-01,0.000000000000000000e+00
9.550000000000000000e+02,-8.592849909380928519e-01,0.000000000000000000e+00
9.560000000000000000e+02,-1.204171890834095038e+00,0.000000000000000000e+00
9.570000000000000000e+02,-1.088999989963292281e+00,0.000000000000000000e+00
9.580000000000000000e+02,-9.520218974449956573e-01,0.000000000000000000e+00
9.590000000000000000e+02,-8.651090400255648794e-01,0.000000000000000000e+00
9.600000000000000000e+02,-5.820888205249942216e-01,0.000000000000000000e+00
9.610000000000000000e+02,-5.851934898246752281e-01,0.000000000000000000e+00
9.620000000000000000e+02,-2.785756533060970153e-01,0.000000000000000000e+00
9.630000000000000000e+02,-4.194115836048322721e-01,0.000000000000000000e+00
9.640000000000000000e+02,-1.231183144520711474e-02,0.000000000000000000e+00
9.650000000000000000e+02,6.386369896385574174e-02,0.000000000000000000e+00
9.660000000000000000e+02,3.307027881689705295e-01,0.000000000000000000e+00
9.670000000000000000e+02,6.988514338420837024e-01,0.000000000000000000e+00
9.680000000000000000e+02,9.428528459054048572e-01,0.000000000000000000e+00
9.690000000000000000e+02,1.103252499395005248e+00,0.000000000000000000e+00
9.700000000000000000e+02,1.020280354494124575e+00,0.000000000000000000e+00
9.710000000000000000e+02,5.432004765657542089e-01,0.000000000000000000e+00
9.720000000000000000e+02,-4.738574085466209507e-01,0.000000000000000000e+00
9.730000000000000000e+02,-1.202005220978213051e+00,0.000000000000000000e+00
9.740000000000000000e+02,-1.564324243408724779e+00,0.000000000000000000e+00
9.750000000000000000e+02,-1.741619526905625381e+00,0.000000000000000000e+00
9.760000000000000000e+02,-1.489887475151467466e+00,0.000000000000000000e+00
9.770000000000000000e+02,-1.406982707297342428e+00,0.000000000000000000e+00
9.780000000000000000e+02,-1.191346857546667914e+00,0.000000000000000000e+00
9.790000000000000000e+02,-1.188342173129667056e+00,0.000000000000000000e+00
9.800000000000000000e+02,-1.053265831862898905e+00,0.000000000000000000e+00
9.810000000000000000e+02,-8.381015147117159003e-01,0.000000000000000000e+00
9.820000000000000000e+02,-7.883810324126224733e-01,0.000000000000000000e+00
9.830000000000000000e+02,-7.736846907368417625e-01,0.000000000000000000e+00
9.840000000000000000e+02,-4.793379994884970352e-01,0.000000000000000000e+00
9.850000000000000000e+02,-4.984226748141514229e-01,0.000000000000000000e+00
9.860000000000000000e+02,-3.413149668909392642e-01,0.000000000000000000e+00
9.870000000000000000e+02,-2.939230509349212705e-01,0.000000000000000000e+00
9.880000000000000000e+02,-3.782862096580129063e-01,0.000000000000000000e+00
9.890000000000000000e+02,-1.741614721881763472e-01,0.000000000000000000e+00
9.900000000000000000e+02,-7.143926525520447046e-02,0.000000000000000000e+00
9.910000000000000000e+02,1.398110302716228937e-01,0.000000000000000000e+00
9.920000000000000000e+02,-8.693170345801569388e-02,0.000000000000000000e+00
9.930000000000000000e+02,9.145728983898163134e-02,0.000000000000000000e+00
9.940000000000000000e+02,7.221947802081234158e-02,0.000000000000000000e+00
9.950000000000000000e+02,3.680453743279058637e-02,0.000000000000000000e+00
9.960000000000000000e+02,-1.056910695864038269e-01,0.000000000000000000e+00
9.970000000000000000e+02,3.174198981529799957e-01,0.000000000000000000e+00
9.980000000000000000e+02,1.727684115694690659e-01,0.000000000000000000e+00
9.990000000000000000e+02,2.915650073876217552e-01,0.000000000000000000e+00
1.000000000000000000e+03,2.984343543761295292e-01,0.000000000000000000e+00
1.001000000000000000e+03,2.753423048602813838e-01,0.000000000000000000e+00
1.002000000000000000e+03,2.173638854623550776e-01,0.000000000000000000e+00
1.003000000000000000e+03,3.652684998171994990e-01,0.000000000000000000e+00
1.004000000000000000e+03,4.058370379751201629e-01,0.000000000000000000e+00
1.005000000000000000e+03,3.746782573542184469e-01,0.000000000000000000e+00
1.006000000000000000e+03,5.569859609271529122e-01,0.000000000000000000e+00
1.007000000000000000e+03,4.163609466546321913e-01,0.000000000000000000e+00
1.008000000000000000e+03,4.334269882422482345e-01,0.000000000000000000e+00
1.009000000000000000e+03,5.194381954216421571e-01,0.000000000000000000e+00
1.010000000000000000e+03,4.747777471677027683e-01,0.000000000000000000e+00
1.011000000000000000e+03,5.542274458762317391e-01,0.000000000000000000e+00
1.012000000000000000e+03,5.245582766497675076e-01,0.000000000000000000e+00
1.013000000000000000e+03,5.796178655762171950e-01,0.000000000000000000e+00
1.014000000000000000e+03,4.367997785549404544e-01,0.000000000000000000e+00
1.015000000000000000e+03,1.506374316601199748e-01,0.000000000000000000e+00
1.016000000000000000e+03,1.028646714771755399e-01,0.000000000000000000e+00
1.017000000000000000e+03,1.846018304389643316e-02,0.000000000000000000e+00
1.018000000000000000e+03,8.066387599841913503e-02,0.000000000000000000e+00
1.019000000000000000e+03,3.372777695719592073e-02,0.000000000000000000e+00
1.020000000000000000e+03,-5.721078598438237295e-01,0.000000000000000000e+00
1.021000000000000000e+03,2.591904300988695731e+00,0.000000000000000000e+00
1.022000000000000000e+03,5.114466892782857599e+00,0.000000000000000000e+00
1.023000000000000000e+03,2.279165152793261928e+00,1.000000000000000000e+00
1.024000000000000000e+03,-4.448792520413132889e-01,0.000000000000000000e+00
1.025000000000000000e+03,-9.889871761703690201e-01,0.000000000000000000e+00
1.026000000000000000e+03,-1.166142315960122300e+00,0.000000000000000000e+00
1.027000000000000000e+03,-9.309668260971442066e-01,0.000000000000000000e+00
1.028000000000000000e+03,-8.064613523749164514e-01,0.000000000000000000e+00
1.029000000000000000e+03,-8.077945321048117799e-01,0.000000000000000000e+00
1.030000000000000000e+03,-5.706810075785938574e-01,0.000000000000000000e+00
1.031000000000000000e+03,-6.171883115772459627e-01,0.000000000000000000e+00
1.032000000000000000e+03,-4.782963864199697990e-01,0.000000000000000000e+00
1.033000000000000000e+03,-1.152999689659565674e-01,0.000000000000000000e+00
1.034000000000000000e+03,-1.360777208115985237e-01,0.000000000000000000e+00
1.035000000000000000e+03,3.374847046293419361e-02,0.000000000000000000e+00
1.036000000000000000e+03,4.512805491563361970e-01,0.000000000000000000e+00
1.037000000000000000e+03,8.889194453381108474e-01,0.000000000000000000e+00
1.038000000000000000e+03,1.073196276692072626e+00,0.000000000000000000e+00
1.039000000000000000e+03,1.039628169709333472e+00,0.000000000000000000e+00
1.040000000000000000e+03,8.605076706581291646e-01,0.000000000000000000e+00
1.041000000000000000e+03,-2.196046703643161624e-01,0.000000000000000000e+00
1.042000000000000000e+03,-9.701888852568069099e-01,0.000000000000000000e+00
1.043000000000000000e+03,-1.720056804789172222e+00,0.000000000000000000e+00
1.044000000000000000e+03,-1.794473236051139509e+00,0.000000000000000000e+00
1.045000000000000000e+03,-1.753036427972320954e+00,0.000000000000000000e+00
1.046000000000000000e+03,-1.556884058619647959e+00,0.000000000000000000e+00
1.047000000000000000e+03,-1.533956696670190079e+00,0.000000000000000000e+00
1.048000000000000000e+03,-1.226648791528448967e+00,0.000000000000000000e+00
1.049000000000000000e+03,-1.155877006983893729e+00,0.000000000000000000e+00
1.050000000000000000e+03,-1.025450155839647159e+00,0.000000000000000000e+00
1.051000000000000000e+03,-8.924464283399011766e-01,0.000000000000000000e+00
1.052000000000000000e+03,-7.217916150924000851e-01,0.000000000000000000e+00
1.053000000000000000e+03,-5.575316114246722243e-01,0.000000000000000000e+00
1.054000000000000000e+03,-6.262418234875825052e-01,0.000000000000000000e+00
1.055000000000000000e+03,-3.568195606776714546e-01,0.000000000000000000e+00
1.056000000000000000e+03,-2.468590356362832250e-01,0.000000000000000000e+00
1.057000000000000000e+03,-2.672160609625340300e-01,0.000000000000000000e+00
1.058000000000000000e+03,-3.473400012133021769e-02,0.000000000000000000e+00
1.059000000000000000e+03,-1.047464632140733126e-01,0.000000000000000000e+00
1.060000000000000000e+03,-3.031632397712914415e-02,0.000000000000000000e+00
1.061000000000000000e+03,1.245116493082689402e-01,0.000000000000000000e+00
1.062000000000000000e+03,3.625210147975879704e-01,0.000000000000000000e+00
1.063000000000000000e+03,2.395465839666155727e-01,0.000000000000000000e+00
1.064000000000000000e+03,2.913272933468767367e-01,0.000000000000000000e+00
1.065000000000000000e+03,4.129851386020015891e-01,0.000000000000000000e+00
1.066000000000000000e+03,3.813248202821284405e-01,0.000000000000000000e+00
1.067000000000000000e+03,4.035185863004205342e-01,0.000000000000000000e+00
1.068000000000000000e+03,4.852722648877595413e-01,0.000000000000000000e+00
1.069000000000000000e+03,3.315726597861171077e-01,0.000000000000000000e+00
1.070000000000000000e+03,4.067925943690932078e-01,0.000000000000000000e+00
1.071000000000000000e+03,5.998875931098114345e-01,0.000000000000000000e+00
1.072000000000000000e+03,4.584748445916135284e-01,0.000000000000000000e+00
1.073000000000000000e+03,3.380906777426622711e-01,0.000000000000000000e+00
1.074000000000000000e+03,4.331957827764306712e-01,0.000000000000000000e+00
1.075000000000000000e+03,5.740781428223155070e-01,0.000000000000000000e+00
1.076000000000000000e+03,5.548526521059342631e-01,0.000000000000000000e+00
1.077000000000000000e+03,5.097522802055628466e-01,0.000000000000000000e+00
1.078000000000000000e+03,4.964431587550510727e-01,0.000000000000000000e+00
1.079000000000000000e+03,5.953999636549882624e-01,0.000000000000000000e+00
1.080000000000000000e+03,5.454065485107333355e-01,0.000000000000000000e+00
1.081000000000000000e+03,5.821518936509069153e-01,0.000000000000000000e+00
1.082000000000000000e+03,5.919413022116161160e-01,0.000000000000000000e+00
1.083000000000000000e+03,6.279383444670409986e-01,0.000000000000000000e+00
1.084000000000000000e+03,3.989899817248344638e-01,0.000000000000000000e+00
1.085000000000000000e+03,1.480776993426011212e-01,0.000000000000000000e+00
1.086000000000000000e+03,1.452304441310938721e-01,0.000000000000000000e+00
1.087000000000000000e+03,1.343375558620896713e-02,0.000000000000000000e+00
1.088000000000000000e+03,2.788570822116312464e-01,0.000000000000000000e+00
1.089000000000000000e+03,-3.979807880179050406e-01,0.000000000000000000e+00
1.090000000000000000e+03,3.775325131703154979e-01,0.000000000000000000e+00
1.091000000000000000e+03,4.436060436546932273e+00,0.000000000000000000e+00
1.092000000000000000e+03,4.568283024236342804e+00,0.000000000000000000e+00
1.093000000000000000e+03,9.298496421896286224e-01,1.000000000000000000e+00
1.094000000000000000e+03,-8.903878581259883074e-01,0.000000000000000000e+00
1.095000000000000000e+03,-1.163533549535246125e+00,0.000000000000000000e+00
1.096000000000000000e+03,-9.466441182984721703e-01,0.000000000000000000e+00
1.097000000000000000e+03,-9.336443015149903379e-01,0.000000000000000000e+00
1.098000000000000000e+03,-9.052297483777755893e-01,0.000000000000000000e+00
1.099000000000000000e+03,-6.273379432748170670e-01,0.000000000000000000e+00
1.100000000000000000e+03,-6.928208505495087044e-01,0.000000000000000000e+00
1.101000000000000000e+03,-5.306112310379588193e-01,0.000000000000000000e+00
1.102000000000000000e+03,-3.333800241219400662e-01,0.000000000000000000e+00
1.103000000000000000e+03,-2.178131070537132896e-01,0.000000000000000000e+00
1.104000000000000000e+03,-2.846129956312496920e-02,0.000000000000000000e+00
1.105000000000000000e+03,2.460246251887205082e-01,0.000000000000000000e+00
1.106000000000000000e+03,5.282104263902414054e-01,0.000000000000000000e+00
1.107000000000000000e+03,1.027156205635334496e+00,0.000000000000000000e+00
1.108000000000000000e+03,9.912801117042200350e-01,0.000000000000000000e+00
1.109000000000000000e+03,1.172249017902623702e+00,0.000000000000000000e+00
1.110000000000000000e+03,5.813552304016470496e-01,0.000000000000000000e+00
1.111000000000000000e+03,-2.643638352080631138e-01,0.000000000000000000e+00
1.112000000000000000e+03,-1.205447006949323496e+00,0.000000000000000000e+00
1.113000000000000000e+03,-1.606196734366833967e+00,0.000000000000000000e+00
1.114000000000000000e+03,-1.719487203928045771e+00,0.000000000000000000e+00
1.115000000000000000e+03,-1.603929021220857454e+00,0.000000000000000000e+00
1.116000000000000000e+03,-1.450090099118169329e+00,0.000000000000000000e+00
1.117000000000000000e+03,-1.320441292439438863e+00,0.000000000000000000e+00
1.118000000000000000e+03,-1.203658819131180779e+00,0.000000000000000000e+00
1.119000000000000000e+03,-1.212620174170397025e+00,0.000000000000000000e+00
1.120000000000000000e+03,-1.070628234706487270e+00,0.000000000000000000e+00
1.121000000000000000e+03,-8.074147046003631312e-01,0.000000000000000000e+00
1.122000000000000000e+03,-8.128820890228071194e-01,0.000000000000000000e+00
1.123000000000000000e+03,-5.436368456157779638e-01,0.000000000000000000e+00
1.124000000000000000e+03,-5.273866867687587723e-01,0.000000000000000000e+00
1.125000000000000000e+03,-5.414019575809294604e-01,0.000000000000000000e+00
1.126000000000000000e+03,-3.964379822932208586e-01,0.000000000000000000e+00
1.127000000000000000e+03,-2.159228749945958925e-01,0.000000000000000000e+00
1.128000000000000000e+03,-2.492371912882392904e-01,0.000000000000000000e+00
1.129000000000000000e+03,-1.823457739643221942e-01,0.000000000000000000e+00
1.130000000000000000e+03,-1.370376307966979235e-02,0.000000000000000000e+00
1.131000000000000000e+03,-8.257295522067838178e-02,0.000000000000000000e+00
1.132000000000000000e+03,1.245392502305150972e-01,0.000000000000000000e+00
1.133000000000000000e+03,7.022110449729218606e-02,0.000000000000000000e+00
1.134000000000000000e+03,-5.412024404991310628e-02,0.000000000000000000e+00
1.135000000000000000e+03,2.306115589196464088e-01,0.000000000000000000e+00
1.136000000000000000e+03,9.750272298510455349e-02,0.000000000000000000e+00
1.137000000000000000e+03,1.669867549687865105e-01,0.000000000000000000e+00
1.138000000000000000e+03,3.019927861627565990e-01,0.000000000000000000e+00
1.139000000000000000e+03,1.926463753046854244e-01,0.000000000000000000e+00
1.140000000000000000e+03,2.146834506267951415e-01,0.000000000000000000e+00
1.141000000000000000e+03,3.725690306437343113e-01,0.000000000000000000e+00
1.142000000000000000e+03,3.291311399367292112e-01,0.000000000000000000e+00
1.143000000000000000e+03,4.458210629400349845e-01,0.000000000000000000e+00
1.144000000000000000e+03,2.556023648991029851e-01,0.000000000000000000e+00
1.145000000000000000e+03,4.728269355061211487e-01,0.000000000000000000e+00
1.146000000000000000e+03,3.365147738102391428e-01,0.000000000000000000e+00
1.147000000000000000e+03,4.852350167377380563e-01,0.000000000000000000e+00
1.148000000000000000e+03,4.508872388318465041e-01,0.000000000000000000e+00
1.149000000000000000e+03,5.309676492637684930e-01,0.000000000000000000e+00
1.150000000000000000e+03,4.705659223647448708e-01,0.000000000000000000e+00
1.151000000000000000e+03,4.800556712591794173e-01,0.000000000000000000e+00
1.152000000000000000e+03,6.464573079416260359e-01,0.000000000000000000e+00
1.153000000000000000e+03,6.400742443051745667e-01,0.000000000000000000e+00
1.154000000000000000e+03,2.151476043079605105e-01,0.000000000000000000e+00
1.155000000000000000e+03,2.344608772399698615e-01,0.000000000000000000e+00
1.156000000000000000e+03,2.461535042040233767e-01,0.000000000000000000e+00
1.157000000000000000e+03,4.119671793622210476e-01,0.000000000000000000e+00
1.158000000000000000e+03,-5.418083735144219731e-02,0.000000000000000000e+00
1.159000000000000000e+03,-6.251677769655314409e-02,0.000000000000000000e+00
1.160000000000000000e+03,4.193287893564825453e+00,0.000000000000000000e+00
1.161000000000000000e+03,4.432003803412019494e+00,0.000000000000000000e+00
1.162000000000000000e+03,7.344033335430082410e-01,1.000000000000000000e+00
1.163000000000000000e+03,-1.082961627572142760e+00,0.000000000000000000e+00
1.164000000000000000e+03,-1.027861171050296285e+00,0.000000000000000000e+00
1.165000000000000000e+03,-7.636257335801648338e-01,0.000000000000000000e+00
1.166000000000000000e+03,-7.176819084361973911e-01,0.000000000000000000e+00
1.167000000000000000e+03,-6.110112986587068473e-01,0.000000000000000000e+00
1.168000000000000000e+03,-4.903602789588881739e-01,0.000000000000000000e+00
1.169000000000000000e+03,-2.445359998376680777e-01,0.000000000000000000e+00
1.170000000000000000e+03,-3.863910368004661589e-01,0.000000000000000000e+00
1.171000000000000000e+03,-2.603958324570196936e-01,0.000000000000000000e+00
1.172000000000000000e+03,6.971166179087970316e-02,0.000000000000000000e+00
1.173000000000000000e+03,-1.172202132222880874e-02,0.000000000000000000e+00
1.174000000000000000e+03,2.168953052215035759e-01,0.000000000000000000e+00
1.175000000000000000e+03,7.341932307207870156e-01,0.000000000000000000e+00
1.176000000000000000e+03,1.132909853804353606e+00,0.000000000000000000e+00
1.177000000000000000e+03,1.353343611532912050e+00,0.000000000000000000e+00
1.178000000000000000e+03,1.257366381209028328e+00,0.000000000000000000e+00
1.179000000000000000e+03,8.546157885722480696e-01,0.000000000000000000e+00
1.180000000000000000e+03,-2.798352474309945825e-01,0.000000000000000000e+00
1.181000000000000000e+03,-1.140340424047693535e+00,0.000000000000000000e+00
1.182000000000000000e+03,-1.660659096087494735e+00,0.000000000000000000e+00
1.183000000000000000e+03,-1.768661548620193980e+00,0.000000000000000000e+00
1.184000000000000000e+03,-1.661003389629650773e+00,0.000000000000000000e+00
1.185000000000000000e+03,-1.549901974334009225e+00,0.000000000000000000e+00
1.186000000000000000e+03,-1.502145494596999642e+00,0.000000000000000000e+00
1.187000000000000000e+03,-1.262943600718091641e+00,0.000000000000000000e+00
1.188000000000000000e+03,-1.104123209981539011e+00,0.000000000000000000e+00
1.189000000000000000e+03,-1.002241803273375309e+00,0.000000000000000000e+00
1.190000000000000000e+03,-6.962905867933122384e-01,0.000000000000000000e+00
1.191000000000000000e+03,-5.236949337015904815e-01,0.000000000000000000e+00
1.192000000000000000e+03,-5.415414998203983421e-01,0.000000000000000000e+00
1.193000000000000000e+03,-5.510610217965524749e-01,0.000000000000000000e+00
1.194000000000000000e+03,-4.805080521587380971e-01,0.000000000000000000e+00
1.195000000000000000e+03,-4.730432445880488612e-01,0.000000000000000000e+00
1.196000000000000000e+03,-2.139005156749737846e-01,0.000000000000000000e+00
1.197000000000000000e+03,-1.795005399234786969e-01,0.000000000000000000e+00
1.198000000000000000e+03,-1.619499298112840602e-01,0.000000000000000000e+00
1.199000000000000000e+03,-3.527756217067925387e-02,0.000000000000000000e+00
1.200000000000000000e+03,-1.262308379284544646e-01,0.000000000000000000e+00
1.201000000000000000e+03,7.225933568444475874e-02,0.000000000000000000e+00
1.202000000000000000e+03,1.234795820848161307e-01,0.000000000000000000e+00
1.203000000000000000e+03,1.186090750167270724e-02,0.000000000000000000e+00
1.204000000000000000e+03,1.010042013651095139e-01,0.000000000000000000e+00
1.205000000000000000e+03,3.463236219474397776e-02,0.000000000000000000e+00
1.206000000000000000e+03,2.259083720355592739e-01,0.000000000000000000e+00
1.207000000000000000e+03,1.694210038304295729e-01,0.000000000000000000e+00
1.208000000000000000e+03,2.830927341928838881e-01,0.000000000000000000e+00
1.209000000000000000e+03,2.705970256790659612e-01,0.000000000000000000e+00
1.210000000000000000e+03,2.421278164037375946e-01,0.000000000000000000e+00
1.211000000000000000e+03,1.602487934429214500e-01,0.000000000000000000e+00
1.212000000000000000e+03,3.857368668372607723e-01,0.000000000000000000e+00
1.213000000000000000e+03,3.935343135850286056e-01,0.000000000000000000e+00
1.214000000000000000e+03,3.077946015915291045e-01,0.000000000000000000e+00
1.215000000000000000e+03,3.592866221353449574e-01,0.000000000000000000e+00
1.216000000000000000e+03,5.307627345742180758e-01,0.000000000000000000e+00
1.217000000000000000e+03,3.332243349359504392e-01,0.000000000000000000e+00
1.218000000000000000e+03,5.142106283761704866e-01,0.000000000000000000e+00
1.219000000000000000e+03,4.416853100121402864e-01,0.000000000000000000e+00
1.220000000000000000e+03,3.486881030759646505e-01,0.000000000000000000e+00
1.221000000000000000e+03,2.454032556205580362e-01,0.000000000000000000e+00
1.222000000000000000e+03,2.204802361609148054e-01,0.000000000000000000e+00
1.223000000000000000e+03,-6.082264380458502623e-02,0.000000000000000000e+00
1.224000000000000000e+03,2.267062979718410254e-01,0.000000000000000000e+00
1.225000000000000000e+03,-4.222934174465675650e-01,0.000000000000000000e+00
1.226000000000000000e+03,1.154303372645641090e+00,0.000000000000000000e+00
1.227000000000000000e+03,4.886198565902056146e+00,0.000000000000000000e+00
1.228000000000000000e+03,2.547076408574142636e+00,1.000000000000000000e+00
1.229000000000000000e+03,-6.191463405561707933e-01,0.000000000000000000e+00
1.230000000000000000e+03,-9.973617995778306655e-01,0.000000000000000000e+00
1.231000000000000000e+03,-6.132182379636907932e-01,0.000000000000000000e+00
1.232000000000000000e+03,-6.206967386437468592e-01,0.000000000000000000e+00
1.233000000000000000e+03,-4.714728102859621073e-01,0.000000000000000000e+00
1.234000000000000000e+03,-2.342262828462993718e-01,0.000000000000000000e+00
1.235000000000000000e+03,-2.811286736825662214e-01,0.000000000000000000e+00
1.236000000000000000e+03,-2.675098285455634883e-01,0.000000000000000000e+00
1.237000000000000000e+03,-3.100813884467792936e-01,0.000000000000000000e+00
1.238000000000000000e+03,-6.262138179130581628e-02,0.000000000000000000e+00
1.239000000000000000e+03,6.508078580923201684e-02,0.000000000000000000e+00
1.240000000000000000e+03,3.327640457021053266e-01,0.000000000000000000e+00
1.241000000000000000e+03,3.949990434162733988e-01,0.000000000000000000e+00
1.242000000000000000e+03,8.753273135574245467e-01,0.000000000000000000e+00
1.243000000000000000e+03,1.231811000718636251e+00,0.000000000000000000e+00
1.244000000000000000e+03,1.214788625506656228e+00,0.000000000000000000e+00
1.245000000000000000e+03,1.223570455214942232e+00,0.000000000000000000e+00
1.246000000000000000e+03,5.243773686258508260e-01,0.000000000000000000e+00
1.247000000000000000e+03,-4.074214886164373439e-01,0.000000000000000000e+00
1.248000000000000000e+03,-1.138806991454657247e+00,0.000000000000000000e+00
1.249000000000000000e+03,-1.528677407985699510e+00,0.000000000000000000e+00
1.250000000000000000e+03,-1.591892026452970343e+00,0.000000000000000000e+00
1.251000000000000000e+03,-1.349159063091226685e+00,0.000000000000000000e+00
1.252000000000000000e+03,-1.252267103396047521e+00,0.000000000000000000e+00
1.253000000000000000e+03,-1.113523033588726729e+00,0.000000000000000000e+00
1.254000000000000000e+03,-9.909619924472745645e-01,0.000000000000000000e+00
1.255000000000000000e+03,-1.015993372559358177e+00,0.000000000000000000e+00
1.256000000000000000e+03,-8.736592517048222817e-01,0.000000000000000000e+00
1.257000000000000000e+03,-6.010177037061460448e-01,0.000000000000000000e+00
1.258000000000000000e+03,-5.734154511132097953e-01,0.000000000000000000e+00
1.259000000000000000e+03,-3.115576798369143474e-01,0.000000000000000000e+00
1.260000000000000000e+03,-2.647613361544116639e-01,0.000000000000000000e+00
1.261000000000000000e+03,-4.814736913060307377e-01,0.000000000000000000e+00
1.262000000000000000e+03,-1.210913644647443888e-01,0.000000000000000000e+00
1.263000000000000000e+03,-1.982100569588597372e-01,0.000000000000000000e+00
1.264000000000000000e+03,-1.855578673935184275e-01,0.000000000000000000e+00
1.265000000000000000e+03,-6.669681118224538019e-02,0.000000000000000000e+00
1.266000000000000000e+03,1.380372428671561291e-02,0.000000000000000000e+00
1.267000000000000000e+03,1.660128956153787416e-01,0.000000000000000000e+00
1.268000000000000000e+03,1.901437637860681207e-01,0.000000000000000000e+00
1.269000000000000000e+03,2.012179921555858619e-01,0.000000000000000000e+00
1.270000000000000000e+03,7.935403084372698312e-02,0.000000000000000000e+00
1.271000000000000000e+03,3.854050979863409832e-01,0.000000000000000000e+00
1.272000000000000000e+03,1.186192197304415247e-01,0.000000000000000000e+00
1.273000000000000000e+03,3.398050928340555776e-01,0.000000000000000000e+00
1.274000000000000000e+03,2.521511649625430285e-01,0.000000000000000000e+00
1.275000000000000000e+03,2.632606474845703981e-01,0.000000000000000000e+00
1.276000000000000000e+03,4.361318809402681129e-01,0.000000000000000000e+00
1.277000000000000000e+03,3.330624893559296362e-01,0.000000000000000000e+00
1.278000000000000000e+03,5.203260323876477411e-01,0.000000000000000000e+00
1.279000000000000000e+03,5.328533099049218569e-01,0.000000000000000000e+00
1.280000000000000000e+03,6.575436928432986106e-01,0.000000000000000000e+00
1.281000000000000000e+03,5.276634025978726994e-01,0.000000000000000000e+00
1.282000000000000000e+03,5.579109308916775367e-01,0.000000000000000000e+00
1.283000000000000000e+03,1.964887592829348273e-01,0.000000000000000000e+00
1.284000000000000000e+03,-6.920257897573815591e-03,0.000000000000000000e+00
1.285000000000000000e+03,1.303244349459338758e-01,0.000000000000000000e+00
1.286000000000000000e+03,2.448180704693682652e-01,0.000000000000000000e+00
1.287000000000000000e+03,-6.672230708458430637e-02,0.000000000000000000e+00
1.288000000000000000e+03,-3.398842872342299204e-01,0.000000000000000000e+00
1.289000000000000000e+03,3.187087962079310000e+00,0.000000000000000000e+00
1.290000000000000000e+03,4.288957347058884650e+00,0.000000000000000000e+00
1.291000000000000000e+03,8.100107741246919124e-01,1.000000000000000000e+00
1.292000000000000000e+03,-8.208040938240631634e-01,0.000000000000000000e+00
1.293000000000000000e+03,-9.208722559595565738e-01,0.000000000000000000e+00
1.294000000000000000e+03,-8.761886536734135866e-01,0.000000000000000000e+00
1.295000000000000000e+03,-7.365624694324571786e-01,0.000000000000000000e+00
1.296000000000000000e+03,-6.753716481830651652e-01,0.000000000000000000e+00
1.297000000000000000e+03,-3.555043388971297902e-01,0.000000000000000000e+00
1.298000000000000000e+03,-3.450551793533381817e-01,0.000000000000000000e+00
1.299000000000000000e+03,-2.921206770666193719e-01,0.000000000000000000e+00
1.300000000000000000e+03,-1.194192350150486276e-01,0.000000000000000000e+00
1.301000000000000000e+03,-8.386898091597723426e-02,0.000000000000000000e+00
1.302000000000000000e+03,2.077647038526319878e-01,0.000000000000000000e+00
1.303000000000000000e+03,3.144632069028079346e-01,0.000000000000000000e+00
1.304000000000000000e+03,5.866246437492533827e-01,0.000000000000000000e+00
1.305000000000000000e+03,1.079483249636736808e+00,0.000000000000000000e+00
1.306000000000000000e+03,1.154738336576473845e+00,0.000000000000000000e+00
1.307000000000000000e+03,1.201393689658635688e+00,0.000000000000000000e+00
1.308000000000000000e+03,7.044288768014396185e-01,0.000000000000000000e+00
1.309000000000000000e+03,-1.265608340078123450e-01,0.000000000000000000e+00
1.310000000000000000e+03,-9.017617350801769849e-01,0.000000000000000000e+00
1.311000000000000000e+03,-1.474904944328207401e+00,0.000000000000000000e+00
1.312000000000000000e+03,-1.561956100598313357e+00,0.000000000000000000e+00
1.313000000000000000e+03,-1.487277569478843153e+00,0.000000000000000000e+00
1.314000000000000000e+03,-1.390907863980043846e+00,0.000000000000000000e+00
1.315000000000000000e+03,-1.225386841051336884e+00,0.000000000000000000e+00
1.316000000000000000e+03,-1.279283330576271860e+00,0.000000000000000000e+00
1.317000000000000000e+03,-1.125866263870659800e+00,0.000000000000000000e+00
1.318000000000000000e+03,-1.066321528704164745e+00,0.000000000000000000e+00
1.319000000000000000e+03,-7.771689386491790197e-01,0.000000000000000000e+00
1.320000000000000000e+03,-6.931037565975389780e-01,0.000000000000000000e+00
1.321000000000000000e+03,-6.705445226312922724e-01,0.000000000000000000e+00
1.322000000000000000e+03,-6.873250290689354447e-01,0.000000000000000000e+00
1.323000000000000000e+03,-2.865953951898271845e-01,0.000000000000000000e+00
1.324000000000000000e+03,-4.098595103144961893e-01,0.000000000000000000e+00
1.325000000000000000e+03,-2.687410462069466099e-01,0.000000000000000000e+00
1.326000000000000000e+03,-3.433441088405578268e-01,0.000000000000000000e+00
1.327000000000000000e+03,-1.971892627980755264e-01,0.000000000000000000e+00
1.328000000000000000e+03,-1.394043723549873715e-01,0.000000000000000000e+00
1.329000000000000000e+03,-1.678915596283847567e-01,0.000000000000000000e+00
1.330000000000000000e+03,-9.932559636328995578e-02,0.000000000000000000e+00
1.331000000000000000e+03,1.868028198139269069e-01,0.000000000000000000e+00
1.332000000000000000e+03,3.920605432140149282e-02,0.000000000000000000e+00
1.333000000000000000e+03,2.358695357320116648e-01,0.000000000000000000e+00
1.334000000000000000e+03,3.026081609678042961e-01,0.000000000000000000e+00
1.335000000000000000e+03,1.564422337538524388e-01,0.000000000000000000e+00
1.336000000000000000e+03,2.274460082393792992e-01,0.000000000000000000e+00
1.337000000000000000e+03,3.716639804540254888e-01,0.000000000000000000e+00
1.338000000000000000e+03,4.473960612603128939e-01,0.000000000000000000e+00
1.339000000000000000e+03,4.810719590760011988e-01,0.000000000000000000e+00
1.340000000000000000e+03,3.416916584937995660e-01,0.000000000000000000e+00
1.341000000000000000e+03,4.751526884591357747e-01,0.000000000000000000e+00
1.342000000000000000e+03,4.178928599138195255e-01,0.000000000000000000e+00
1.343000000000000000e+03,4.370967643119939017e-01,0.000000000000000000e+00
1.344000000000000000e+03,4.984934950790780861e-01,0.000000000000000000e+00
1.345000000000000000e+03,5.231660737980482478e-01,0.000000000000000000e+00
1.346000000000000000e+03,2.327915356135589475e-01,0.000000000000000000e+00
1.347000000000000000e+03,4.524853849338799638e-01,0.000000000000000000e+00
1.348000000000000000e+03,3.945381190113030900e-01,0.000000000000000000e+00
1.349000000000000000e+03,4.251573342970186853e-01,0.000000000000000000e+00
1.350000000000000000e+03,5.202092082020989272e-01,0.000000000000000000e+00
1.351000000000000000e+03,4.860918164535880659e-01,0.000000000000000000e+00
1.352000000000000000e+03,5.470779047477269952e-01,0.000000000000000000e+00
1.353000000000000000e+03,4.992351651251539235e-01,0.000000000000000000e+00
1.354000000000000000e+03,5.062226939800703596e-01,0.000000000000000000e+00
1.355000000000000000e+03,3.074295317994145682e-01,0.000000000000000000e+00
1.356000000000000000e+03,1.922207817286150644e-01,0.000000000000000000e+00
1.357000000000000000e+03,6.018173553795719277e-02,0.000000000000000000e+00
1.358000000000000000e+03,1.361041324193849045e-01,0.000000000000000000e+00
1.359000000000000000e+03,2.244853826631181687e-02,0.000000000000000000e+00
1.360000000000000000e+03,-5.546893746906859102e-01,0.000000000000000000e+00
1.361000000000000000e+03,1.524167350717942737e+00,0.000000000000000000e+00
1.362000000000000000e+03,4.971331997204266884e+00,0.000000000000000000e+00
1.363000000000000000e+03,2.909138657557294838e+00,1.000000000000000000e+00
1.364000000000000000e+03,-1.167281388507687562e-01,0.000000000000000000e+00
1.365000000000000000e+03,-1.085607367576543414e+00,0.000000000000000000e+00
1.366000000000000000e+03,-1.146180022870922244e+00,0.000000000000000000e+00
1.367000000000000000e+03,-9.619752189521586505e-01,0.000000000000000000e+00
1.368000000000000000e+03,-9.285191518723415749e-01,0.000000000000000000e+00
1.369000000000000000e+03,-7.453880952610969501e-01,0.000000000000000000e+00
1.370000000000000000e+03,-6.521963309560308009e-01,0.000000000000000000e+00
1.371000000000000000e+03,-7.802005578612279946e-01,0.000000000000000000e+00
1.372000000000000000e+03,-4.942389152287260390e-01,0.000000000000000000e+00
1.373000000000000000e+03,-4.276622538300813292e-01,0.000000000000000000e+00
1.374000000000000000e+03,-1.648185834163554409e-01,0.000000000000000000e+00
1.375000000000000000e+03,-1.053474186448308675e-01,0.000000000000000000e+00
1.376000000000000000e+03,1.996243631668347396e-01,0.000000000000000000e+00
1.377000000000000000e+03,5.296378491195736782e-01,0.000000000000000000e+00
1.378000000000000000e+03,8.924238497431533634e-01,0.000000000000000000e+00
1.379000000000000000e+03,1.160006323229414438e+00,0.000000000000000000e+00
1.380000000000000000e+03,9.774824381092084291e-01,0.000000000000000000e+00
1.381000000000000000e+03,3.804504611730940011e-01,0.000000000000000000e+00
1.382000000000000000e+03,-7.512100247889902382e-01,0.000000000000000000e+00
1.383000000000000000e+03,-1.362038485862302029e+00,0.000000000000000000e+00
1.384000000000000000e+03,-1.531014698636816274e+00,0.000000000000000000e+00
1.385000000000000000e+03,-1.627008315970717822e+00,0.000000000000000000e+00
1.386000000000000000e+03,-1.506751617047950464e+00,0.000000000000000000e+00
1.387000000000000000e+03,-1.346345858875433787e+00,0.000000000000000000e+00
1.388000000000000000e+03,-1.148223939911440450e+00,0.000000000000000000e+00
1.389000000000000000e+03,-1.031622113444937705e+00,0.000000000000000000e+00
1.390000000000000000e+03,-8.312127890692240229e-01,0.000000000000000000e+00
1.391000000000000000e+03,-6.886387057899804320e-01,0.000000000000000000e+00
1.392000000000000000e+03,-6.250507747823315086e-01,0.000000000000000000e+00
1.393000000000000000e+03,-5.572188758039283707e-01,0.000000000000000000e+00
1.394000000000000000e+03,-4.217943018496673746e-01,0.000000000000000000e+00
1.395000000000000000e+03,-4.612540020080816427e-01,0.000000000000000000e+00
1.396000000000000000e+03,-1.807399967353424119e-01,0.000000000000000000e+00
1.397000000000000000e+03,-2.561847543688786644e-01,0.000000000000000000e+00
1.398000000000000000e+03,-8.039726451728353152e-02,0.000000000000000000e+00
1.399000000000000000e+03,-7.270860237652937430e-02,0.000000000000000000e+00
1.400000000000000000e+03,-5.280326227274699524e-02,0.000000000000000000e+00
1.401000000000000000e+03,-2.491908634972949885e-02,0.000000000000000000e+00
1.402000000000000000e+03,2.120460449814874915e-01,0.000000000000000000e+00
1.403000000000000000e+03,4.411864935764508999e-02,0.000000000000000000e+00
1.404000000000000000e+03,1.097053862892719694e-01,0.000000000000000000e+00
1.405000000000000000e+03,2.210330134637661093e-01,0.000000000000000000e+00
1.406000000000000000e+03,1.935929074288092189e-01,0.000000000000000000e+00
1.407000000000000000e+03,-2.380328202524855871e-02,0.000000000000000000e+00
1.408000000000000000e+03,1.779267106990582992e-01,0.000000000000000000e+00
1.409000000000000000e+03,2.699691088096716207e-01,0.000000000000000000e+00
1.410000000000000000e+03,3.211126985040189674e-01,0.000000000000000000e+00
1.411000000000000000e+03,3.033215679952662169e-01,0.000000000000000000e+00
1.412000000000000000e+03,3.901168106631394128e-01,0.000000000000000000e+00
1.413000000000000000e+03,3.020338135020567694e-01,0.000000000000000000e+00
1.414000000000000000e+03,4.701885653972817103e-01,0.000000000000000000e+00
1.415000000000000000e+03,4.195072738529092571e-01,0.000000000000000000e+00
1.416000000000000000e+03,4.848253664913041994e-01,0.000000000000000000e+00
1.417000000000000000e+03,6.470648443421349594e-01,0.000000000000000000e+00
1.418000000000000000e+03,5.303719133425651711e-01,0.000000000000000000e+00
1.419000000000000000e+03,5.675513751130190077e-01,0.000000000000000000e+00
1.420000000000000000e+03,6.324638250252984095e-01,0.000000000000000000e+00
1.421000000000000000e+03,3.588999524076023628e-01,0.000000000000000000e+00
1.422000000000000000e+03,1.106947703705510044e-01,0.000000000000000000e+00
1.423000000000000000e+03,2.544824422913866679e-01,0.000000000000000000e+00
1.424000000000000000e+03,2.864082637968008438e-01,0.000000000000000000e+00
1.425000000000000000e+03,3.521164379719172177e-01,0.000000000000000000e+00
1.426000000000000000e+03,-3.250785213461485079e-01,0.000000000000000000e+00
1.427000000000000000e+03,5.494790578655479596e-01,0.000000000000000000e+00
1.428000000000000000e+03,4.167225934669382070e+00,0.000000000000000000e+00
1.429000000000000000e+03,4.533264369538680505e+00,0.000000000000000000e+00
1.430000000000000000e+03,1.060541781428181674e+00,1.000000000000000000e+00
1.431000000000000000e+03,-5.900101278931897397e-01,0.000000000000000000e+00
1.432000000000000000e+03,-1.001575992191815256e+00,0.000000000000000000e+00
1.433000000000000000e+03,-8.392331700872248668e-01,0.000000000000000000e+00
1.434000000000000000e+03,-8.068209510096207016e-01,0.000000000000000000e+00
1.435000000000000000e+03,-6.838601424758453673e-01,0.000000000000000000e+00
1.436000000000000000e+03,-7.261472999884303059e-01,0.000000000000000000e+00
1.437000000000000000e+03,-6.954670518095813492e-01,0.000000000000000000e+00
1.438000000000000000e+03,-4.111323724041861527e-01,0.000000000000000000e+00
1.439000000000000000e+03,-4.463065115155702145e-01,0.000000000000000000e+00
1.440000000000000000e+03,-2.395300825787022581e-01,0.000000000000000000e+00
1.441000000000000000e+03,-5.002199738441901605e-02,0.000000000000000000e+00
1.442000000000000000e+03,2.335992686129113316e-01,0.000000000000000000e+00
1.443000000000000000e+03,4.857017338763174874e-01,0.000000000000000000e+00
1.444000000000000000e+03,1.027791752715733864e+00,0.000000000000000000e+00
1.445000000000000000e+03,1.044749643257305127e+00,0.000000000000000000e+00
1.446000000000000000e+03,9.720129541758073533e-01,0.000000000000000000e+00
1.447000000000000000e+03,4.826947753108080108e-01,0.000000000000000000e+00
1.448000000000000000e+03,-5.094239454200701900e-01,0.000000000000000000e+00
1.449000000000000000e+03,-1.445427832764500042e+00,0.000000000000000000e+00
1.450000000000000000e+03,-1.636766243240669771e+00,0.000000000000000000e+00
1.451000000000000000e+03,-1.589422347277372083e+00,0.000000000000000000e+00
1.452000000000000000e+03,-1.639532053870281558e+00,0.000000000000000000e+00
1.453000000000000000e+03,-1.529776858029265885e+00,0.000000000000000000e+00
1.454000000000000000e+03,-1.382740568977929518e+00,0.000000000000000000e+00
1.455000000000000000e+03,-1.260355489422937181e+00,0.000000000000000000e+00
1.456000000000000000e+03,-1.107398184607804037e+00,0.000000000000000000e+00
1.457000000000000000e+03,-9.500980611898405259e-01,0.000000000000000000e+00
1.458000000000000000e+03,-8.759208621044178855e-01,0.000000000000000000e+00
1.459000000000000000e+03,-6.635635570363905833e-01,0.000000000000000000e+00
1.460000000000000000e+03,-6.407870102503264720e-01,0.000000000000000000e+00
1.461000000000000000e+03,-5.648160126700302319e-01,0.000000000000000000e+00
1.462000000000000000e+03,-3.865804065079372909e-01,0.000000000000000000e+00
1.463000000000000000e+03,-2.924230058114133946e-01,0.000000000000000000e+00
1.464000000000000000e+03,-3.172549037147361917e-01,0.000000000000000000e+00
1.465000000000000000e+03,-7.076347425760211307e-02,0.000000000000000000e+00
1.466000000000000000e+03,-1.387718341302746350e-01,0.000000000000000000e+00
1.467000000000000000e+03,-2.203481701991023139e-02,0.000000000000000000e+00
1.468000000000000000e+03,2.050750753193898712e-01,0.000000000000000000e+00
1.469000000000000000e+03,1.529618712841527561e-01,0.000000000000000000e+00
1.470000000000000000e+03,1.108095062406545539e-01,0.000000000000000000e+00
1.471000000000000000e+03,1.094740506013494041e-01,0.000000000000000000e+00
1.472000000000000000e+03,6.837482064318987918e-02,0.000000000000000000e+00
1.473000000000000000e+03,3.068692237061954597e-01,0.000000000000000000e+00
1.474000000000000000e+03,2.683436425924135560e-01,0.000000000000000000e+00
1.475000000000000000e+03,3.311496754677384358e-01,0.000000000000000000e+00
1.476000000000000000e+03,4.320708869161934418e-01,0.000000000000000000e+00
1.477000000000000000e+03,2.739295475513359723e-01,0.000000000000000000e+00
1.478000000000000000e+03,3.037161424126203491e-01,0.000000000000000000e+00
1.479000000000000000e+03,3.242100363050188228e-01,0.000000000000000000e+00
1.480000000000000000e+03,3.503308864849778437e-01,0.000000000000000000e+00
1.481000000000000000e+03,2.847546082954857671e-01,0.000000000000000000e+00
1.482000000000000000e+03,4.101517427871191335e-01,0.000000000000000000e+00
1.483000000000000000e+03,4.224878383248190650e-01,0.000000000000000000e+00
1.484000000000000000e+03,4.204798424518464972e-01,0.000000000000000000e+00
1.485000000000000000e+03,6.456606184721327413e-01,0.000000000000000000e+00
1.486000000000000000e+03,5.104543652552000488e-01,0.000000000000000000e+00
1.487000000000000000e+03,6.844143361685295357e-01,0.000000000000000000e+00
1.488000000000000000e+03,6.825312351301053848e-01,0.000000000000000000e+00
1.489000000000000000e+03,8.313625970733569404e-02,0.000000000000000000e+00
1.490000000000000000e+03,2.203589860132407208e-01,0.000000000000000000e+00
1.491000000000000000e+03,1.583891623133190374e-01,0.000000000000000000e+00
1.492000000000000000e+03,2.164683202713967303e-01,0.000000000000000000e+00
1.493000000000000000e+03,1.814897887525306064e-01,0.000000000000000000e+00
1.494000000000000000e+03,-2.142943236220177239e-01,0.000000000000000000e+00
1.495000000000000000e+03,2.458558686102093827e+00,0.000000000000000000e+00
1.496000000000000000e+03,5.526415441082433766e+00,0.000000000000000000e+00
1.497000000000000000e+03,2.970759238378872347e+00,1.000000000000000000e+00
1.498000000000000000e+03,-8.551327248774220902e-02,0.000000000000000000e+00
1.499000000000000000e+03,-8.548948695890943306e-01,0.000000000000000000e+00
1.500000000000000000e+03,-9.257821009282922731e-01,0.000000000000000000e+00
1.501000000000000000e+03,-7.969180533054572857e-01,0.000000000000000000e+00
1.502000000000000000e+03,-6.636939107831067997e-01,0.000000000000000000e+00
1.503000000000000000e+03,-6.790850028225489110e-01,0.000000000000000000e+00
1.504000000000000000e+03,-4.893357213248821780e-01,0.000000000000000000e+00
1.505000000000000000e+03,-4.514507652729655707e-01,0.000000000000000000e+00
1.506000000000000000e+03,-3.792564627897144214e-01,0.000000000000000000e+00
1.507000000000000000e+03,-1.999600696404381928e-01,0.000000000000000000e+00
1.508000000000000000e+03,7.362746724423256672e-02,0.000000000000000000e+00
1.509000000000000000e+03,6.653199905388140767e-02,0.000000000000000000e+00
1.510000000000000000e+03,5.862944073652154309e-01,0.000000000000000000e+00
1.511000000000000000e+03,9.658313972422727378e-01,0.000000000000000000e+00
1.512000000000000000e+03,1.160941147504060966e+00,0.000000000000000000e+00
1.513000000000000000e+03,1.417661039495848430e+00,0.000000000000000000e+00
1.514000000000000000e+03,1.002758836999558811e+00,0.000000000000000000e+00
1.515000000000000000e+03,3.547737794260893973e-01,0.000000000000000000e+00
1.516000000000000000e+03,-7.500503704617230705e-01,0.000000000000000000e+00
1.517000000000000000e+03,-1.427112468029762660e+00,0.000000000000000000e+00
1.518000000000000000e+03,-1.672105040176725899e+00,0.000000000000000000e+00
1.519000000000000000e+03,-1.578443708753392904e+00,0.000000000000000000e+00
1.520000000000000000e+03,-1.410384755266818058e+00,0.000000000000000000e+00
1.521000000000000000e+03,-1.378095268112412120e+00,0.000000000000000000e+00
1.522000000000000000e+03,-1.213328482466459857e+00,0.000000000000000000e+00
1.523000000000000000e+03,-1.042529899130349325e+00,0.000000000000000000e+00
1.524000000000000000e+03,-1.057699670036966078e+00,0.000000000000000000e+00
1.525000000000000000e+03,-9.942513607934642117e-01,0.000000000000000000e+00
1.526000000000000000e+03,-6.978316380132431052e-01,0.000000000000000000e+00
1.527000000000000000e+03,-7.854121537346127058e-01,0.000000000000000000e+00
1.528000000000000000e+03,-5.078273905546875078e-01,0.000000000000000000e+00
1.529000000000000000e+03,-3.352239746116189023e-01,0.000000000000000000e+00
1.530000000000000000e+03,-4.401966788566482047e-01,0.000000000000000000e+00
1.531000000000000000e+03,-4.019707534890102907e-01,0.000000000000000000e+00
1.532000000000000000e+03,-3.565810209774563089e-01,0.000000000000000000e+00
1.533000000000000000e+03,-2.146177193935985272e-01,0.000000000000000000e+00
1.534000000000000000e+03,-9.899593515824242629e-02,0.000000000000000000e+00
1.535000000000000000e+03,-9.295945196510818631e-02,0.000000000000000000e+00
1.536000000000000000e+03,-2.930188518535534539e-02,0.000000000000000000e+00
1.537000000000000000e+03,-1.467429385245466456e-01,0.000000000000000000e+00
1.538000000000000000e+03,1.151161250915839346e-02,0.000000000000000000e+00
1.539000000000000000e+03,2.119280630742067517e-01,0.000000000000000000e+00
1.540000000000000000e+03,5.896589164801312177e-02,0.000000000000000000e+00
1.541000000000000000e+03,1.587369571711832184e-01,0.000000000000000000e+00
1.542000000000000000e+03,2.681384045429038299e-01,0.000000000000000000e+00
1.543000000000000000e+03,2.209175877918221897e-01,0.000000000000000000e+00
1.544000000000000000e+03,3.387965898315408175e-01,0.000000000000000000e+00
1.545000000000000000e+03,2.023108088080778355e-01,0.000000000000000000e+00
1.546000000000000000e+03,2.629932036364847070e-01,0.000000000000000000e+00
1.547000000000000000e+03,3.063157335675913417e-01,0.000000000000000000e+00
1.548000000000000000e+03,2.788332939473304739e-01,0.000000000000000000e+00
1.549000000000000000e+03,4.281977983445451330e-01,0.000000000000000000e+00
1.550000000000000000e+03,2.273110551897803977e-01,0.000000000000000000e+00
1.551000000000000000e+03,3.697797064317900895e-01,0.000000000000000000e+00
1.552000000000000000e+03,5.569572914862335189e-01,0.000000000000000000e+00
1.553000000000000000e+03,4.403312200264695719e-01,0.000000000000000000e+00
1.554000000000000000e+03,4.898356516612966671e-01,0.000000000000000000e+00
1.555000000000000000e+03,5.796204374927356184e-01,0.000000000000000000e+00
1.556000000000000000e+03,3.559340334859581456e-01,0.000000000000000000e+00
1.557000000000000000e+03,3.438995781603451651e-01,0.000000000000000000e+00
1.558000000000000000e+03,7.234325479442269002e-02,0.000000000000000000e+00
1.559000000000000000e+03,1.086930412405722746e-01,0.000000000000000000e+00
1.560000000000000000e+03,2.856328583439105354e-02,0.000000000000000000e+00
1.561000000000000000e+03,-8.158089607074493765e-02,0.000000000000000000e+00
1.562000000000000000e+03,-4.067049497777325828e-01,0.000000000000000000e+00
1.563000000000000000e+03,3.659818391862713849e+00,0.000000000000000000e+00
1.564000000000000000e+03,5.298402170682680712e+00,0.000000000000000000e+00
1.565000000000000000e+03,1.808848813052914339e+00,1.000000000000000000e+00
1.566000000000000000e+03,-7.335952615816320188e-01,0.000000000000000000e+00
1.567000000000000000e+03,-1.073239047582899230e+00,0.000000000000000000e+00
1.568000000000000000e+03,-9.284239412477187647e-01,0.000000000000000000e+00
1.569000000000000000e+03,-9.542426781484242282e-01,0.000000000000000000e+00
1.570000000000000000e+03,-9.050305256199093762e-01,0.000000000000000000e+00
1.571000000000000000e+03,-7.772526830874607606e-01,0.000000000000000000e+00
1.572000000000000000e+03,-7.218631782645644757e-01,0.000000000000000000e+00
1.573000000000000000e+03,-5.015548920554839807e-01,0.000000000000000000e+00
1.574000000000000000e+03,-3.833204773808391308e-01,0.000000000000000000e+00
1.575000000000000000e+03,-1.096666437504614372e-01,0.000000000000000000e+00
1.576000000000000000e+03,-3.224466724560515196e-02,0.000000000000000000e+00
1.577000000000000000e+03,1.908679250080834722e-01,0.000000000000000000e+00
1.578000000000000000e+03,7.082539741952608159e-01,0.000000000000000000e+00
1.579000000000000000e+03,9.755524512332470755e-01,0.000000000000000000e+00
1.580000000000000000e+03,1.242295227152306669e+00,0.000000000000000000e+00
1.581000000000000000e+03,1.392120883525431951e+00,0.000000000000000000e+00
1.582000000000000000e+03,9.712642473977712854e-01,0.000000000000000000e+00
1.583000000000000000e+03,1.050477166862365946e-01,0.000000000000000000e+00
1.584000000000000000e+03,-8.693165664980664342e-01,0.000000000000000000e+00
1.585000000000000000e+03,-1.545735137064349951e+00,0.000000000000000000e+00
1.586000000000000000e+03,-1.690888563048991600e+00,0.000000000000000000e+00
1.587000000000000000e+03,-1.631007241963804200e+00,0.000000000000000000e+00
1.588000000000000000e+03,-1.426610465379592796e+00,0.000000000000000000e+00
