timestamp,ecg_measurement,qrs_detected
0.000000000000000000e+00,3.007330844240589940e-01,0.000000000000000000e+00
1.000000000000000000e+00,2.572573803070929976e-01,0.000000000000000000e+00
2.000000000000000000e+00,4.000419844954080650e-01,0.000000000000000000e+00
3.000000000000000000e+00,3.869779926206572407e-01,0.000000000000000000e+00
4.000000000000000000e+00,3.819335866528184020e-01,0.000000000000000000e+00
5.000000000000000000e+00,4.555239485236675101e-01,0.000000000000000000e+00
6.000000000000000000e+00,3.990131567794345524e-01,0.000000000000000000e+00
7.000000000000000000e+00,6.060455208396264837e-01,0.000000000000000000e+00
8.000000000000000000e+00,6.856292999204498528e-01,0.000000000000000000e+00
9.000000000000000000e+00,6.277057068126234984e-01,0.000000000000000000e+00
1.000000000000000000e+01,5.022984232673085581e-01,0.000000000000000000e+00
1.100000000000000000e+01,2.943351989293699900e-01,0.000000000000000000e+00
1.200000000000000000e+01,2.251127843907778370e-01,0.000000000000000000e+00
1.300000000000000000e+01,3.630771605659756651e-01,0.000000000000000000e+00
1.400000000000000000e+01,3.598142738447693278e-01,0.000000000000000000e+00
1.500000000000000000e+01,3.606886323606515315e-02,0.000000000000000000e+00
1.600000000000000000e+01,9.022244635487569608e-02,0.000000000000000000e+00
1.700000000000000000e+01,4.044608458116475624e+00,0.000000000000000000e+00
1.800000000000000000e+01,4.039071455774886132e+00,0.000000000000000000e+00
1.900000000000000000e+01,2.432255500116921598e-01,1.000000000000000000e+00
2.000000000000000000e+01,-9.946097168237121311e-01,0.000000000000000000e+00
2.100000000000000000e+01,-7.207994745958510308e-01,0.000000000000000000e+00
2.200000000000000000e+01,-5.378996447343724618e-01,0.000000000000000000e+00
2.300000000000000000e+01,-3.472512033558400879e-01,0.000000000000000000e+00
2.400000000000000000e+01,-3.095318374205895950e-01,0.000000000000000000e+00
2.500000000000000000e+01,-3.035692271221644423e-01,0.000000000000000000e+00
2.600000000000000000e+01,-9.179350465656715974e-02,0.000000000000000000e+00
2.700000000000000000e+01,-8.700812192318450877e-02,0.000000000000000000e+00
2.800000000000000000e+01,-9.753609222312191115e-03,0.000000000000000000e+00
2.900000000000000000e+01,2.278230423857147968e-01,0.000000000000000000e+00
3.000000000000000000e+01,2.489544593150237461e-01,0.000000000000000000e+00
3.100000000000000000e+01,4.301884961244478167e-01,0.000000000000000000e+00
3.200000000000000000e+01,8.353866413045681893e-01,0.000000000000000000e+00
3.300000000000000000e+01,1.060846807930419633e+00,0.000000000000000000e+00
3.400000000000000000e+01,1.377859671209029635e+00,0.000000000000000000e+00
3.500000000000000000e+01,1.073412240860084577e+00,0.000000000000000000e+00
3.600000000000000000e+01,9.387700113969817961e-01,0.000000000000000000e+00
3.700000000000000000e+01,-5.386583765410679625e-02,0.000000000000000000e+00
3.800000000000000000e+01,-9.662777869349166160e-01,0.000000000000000000e+00
3.900000000000000000e+01,-1.448456249706923105e+00,0.000000000000000000e+00
4.000000000000000000e+01,-1.718347734851710884e+00,0.000000000000000000e+00
4.100000000000000000e+01,-1.452077191464427930e+00,0.000000000000000000e+00
4.200000000000000000e+01,-1.562126805306059740e+00,0.000000000000000000e+00
4.300000000000000000e+01,-1.421881594734737408e+00,0.000000000000000000e+00
4.400000000000000000e+01,-1.286445185634837562e+00,0.000000000000000000e+00
4.500000000000000000e+01,-1.281768475227971660e+00,0.000000000000000000e+00
4.600000000000000000e+01,-8.670571441275796154e-01,0.000000000000000000e+00
4.700000000000000000e+01,-8.847624191118148573e-01,0.000000000000000000e+00
4.800000000000000000e+01,-7.287183398204907236e-01,0.000000000000000000e+00
4.900000000000000000e+01,-6.971764785185438074e-01,0.000000000000000000e+00
5.000000000000000000e+01,-6.864559635992947273e-01,0.000000000000000000e+00
5.100000000000000000e+01,-5.251042188830797874e-01,0.000000000000000000e+00
5.200000000000000000e+01,-3.323727018508149667e-01,0.000000000000000000e+00
5.300000000000000000e+01,-3.292499060229441277e-01,0.000000000000000000e+00
5.400000000000000000e+01,-2.509681118545334377e-01,0.000000000000000000e+00
5.500000000000000000e+01,-2.213449029751681785e-01,0.000000000000000000e+00
5.600000000000000000e+01,-1.022617809095077018e-01,0.000000000000000000e+00
5.700000000000000000e+01,-8.572892595785567942e-04,0.000000000000000000e+00
5.800000000000000000e+01,-1.357872225032668578e-01,0.000000000000000000e+00
5.900000000000000000e+01,-1.850745603496824210e-02,0.000000000000000000e+00
6.000000000000000000e+01,1.948297130709527869e-01,0.000000000000000000e+00
6.100000000000000000e+01,1.973029218901519583e-02,0.000000000000000000e+00
6.200000000000000000e+01,2.372719947546870767e-01,0.000000000000000000e+00
6.300000000000000000e+01,1.808430647193838003e-01,0.000000000000000000e+00
6.400000000000000000e+01,2.322518363738667602e-01,0.000000000000000000e+00
6.500000000000000000e+01,2.711418853588821731e-01,0.000000000000000000e+00
6.600000000000000000e+01,1.699492345913764524e-01,0.000000000000000000e+00
6.700000000000000000e+01,3.061518553938178955e-01,0.000000000000000000e+00
6.800000000000000000e+01,2.419116547395130101e-01,0.000000000000000000e+00
6.900000000000000000e+01,2.836895969459725109e-01,0.000000000000000000e+00
7.000000000000000000e+01,4.240397155813626640e-01,0.000000000000000000e+00
7.100000000000000000e+01,3.248490280011149811e-01,0.000000000000000000e+00
7.200000000000000000e+01,2.256047479568125125e-01,0.000000000000000000e+00
7.300000000000000000e+01,3.997730593585409609e-01,0.000000000000000000e+00
7.400000000000000000e+01,4.514464142866864704e-01,0.000000000000000000e+00
7.500000000000000000e+01,4.834750527184788482e-01,0.000000000000000000e+00
7.600000000000000000e+01,4.964820716092903097e-01,0.000000000000000000e+00
7.700000000000000000e+01,3.840043276269130001e-01,0.000000000000000000e+00
7.800000000000000000e+01,4.848062854353665796e-01,0.000000000000000000e+00
7.900000000000000000e+01,6.829445817761713167e-02,0.000000000000000000e+00
8.000000000000000000e+01,1.598730658070190436e-01,0.000000000000000000e+00
8.100000000000000000e+01,8.413980061499928831e-02,0.000000000000000000e+00
8.200000000000000000e+01,1.031252187156450756e-01,0.000000000000000000e+00
8.300000000000000000e+01,-1.835216267044119109e-01,0.000000000000000000e+00
8.400000000000000000e+01,-1.763964431401924826e-01,0.000000000000000000e+00
8.500000000000000000e+01,3.584103217460574253e+00,0.000000000000000000e+00
8.600000000000000000e+01,4.151037107664049763e+00,0.000000000000000000e+00
8.700000000000000000e+01,6.875133038782840211e-01,1.000000000000000000e+00
8.800000000000000000e+01,-1.051495236000467681e+00,0.000000000000000000e+00
8.900000000000000000e+01,-9.489925185282377385e-01,0.000000000000000000e+00
9.000000000000000000e+01,-7.166737543265477850e-01,0.000000000000000000e+00
9.100000000000000000e+01,-8.269736782270822317e-01,0.000000000000000000e+00
9.200000000000000000e+01,-4.855977160505413059e-01,0.000000000000000000e+00
9.300000000000000000e+01,-5.877710249058557546e-01,0.000000000000000000e+00
9.400000000000000000e+01,-3.329605683966733731e-01,0.000000000000000000e+00
9.500000000000000000e+01,-3.666916051239543783e-01,0.000000000000000000e+00
9.600000000000000000e+01,-2.714122276929457067e-01,0.000000000000000000e+00
9.700000000000000000e+01,3.652251516085793653e-02,0.000000000000000000e+00
9.800000000000000000e+01,5.388238146898819553e-02,0.000000000000000000e+00
9.900000000000000000e+01,2.136383716312389713e-01,0.000000000000000000e+00
1.000000000000000000e+02,6.148078924898486841e-01,0.000000000000000000e+00
1.010000000000000000e+02,9.685555374846327448e-01,0.000000000000000000e+00
1.020000000000000000e+02,1.342529838101528483e+00,0.000000000000000000e+00
1.030000000000000000e+02,1.168781985654207434e+00,0.000000000000000000e+00
1.040000000000000000e+02,8.417655885822132866e-01,0.000000000000000000e+00
1.050000000000000000e+02,1.182061284553264091e-01,0.000000000000000000e+00
1.060000000000000000e+02,-8.450809701085806314e-01,0.000000000000000000e+00
1.070000000000000000e+02,-1.471978271353109768e+00,0.000000000000000000e+00
1.080000000000000000e+02,-1.548079673140377421e+00,0.000000000000000000e+00
1.090000000000000000e+02,-1.541039399025346590e+00,0.000000000000000000e+00
1.100000000000000000e+02,-1.302548186865305935e+00,0.000000000000000000e+00
1.110000000000000000e+02,-1.210769428925208668e+00,0.000000000000000000e+00
1.120000000000000000e+02,-1.226739813563733739e+00,0.000000000000000000e+00
1.130000000000000000e+02,-1.053711466984069256e+00,0.000000000000000000e+00
1.140000000000000000e+02,-8.017693015405866763e-01,0.000000000000000000e+00
1.150000000000000000e+02,-7.189843368390536060e-01,0.000000000000000000e+00
1.160000000000000000e+02,-6.332145786699158174e-01,0.000000000000000000e+00
1.170000000000000000e+02,-5.257574303075931432e-01,0.000000000000000000e+00
1.180000000000000000e+02,-4.553330631291384045e-01,0.000000000000000000e+00
1.190000000000000000e+02,-3.658309118955077044e-01,0.000000000000000000e+00
1.200000000000000000e+02,-3.431946134347049204e-01,0.000000000000000000e+00
1.210000000000000000e+02,-2.629623012498606971e-01,0.000000000000000000e+00
1.220000000000000000e+02,-8.310041262176257049e-02,0.000000000000000000e+00
1.230000000000000000e+02,-2.748413697599936395e-02,0.000000000000000000e+00
1.240000000000000000e+02,-8.585912125810173101e-02,0.000000000000000000e+00
1.250000000000000000e+02,-1.874185606825778949e-02,0.000000000000000000e+00
1.260000000000000000e+02,6.999181785998673244e-02,0.000000000000000000e+00
1.270000000000000000e+02,1.417016271744170053e-01,0.000000000000000000e+00
1.280000000000000000e+02,2.079909473632496619e-01,0.000000000000000000e+00
1.290000000000000000e+02,1.611517111048404449e-01,0.000000000000000000e+00
1.300000000000000000e+02,2.523360649462011440e-01,0.000000000000000000e+00
1.310000000000000000e+02,2.136546039902128824e-01,0.000000000000000000e+00
1.320000000000000000e+02,2.509507997960278014e-01,0.000000000000000000e+00
1.330000000000000000e+02,1.900687212811841553e-01,0.000000000000000000e+00
1.340000000000000000e+02,3.298334535421381108e-01,0.000000000000000000e+00
1.350000000000000000e+02,3.175274100059235494e-01,0.000000000000000000e+00
1.360000000000000000e+02,2.968690855550898400e-01,0.000000000000000000e+00
1.370000000000000000e+02,2.312811009948708973e-01,0.000000000000000000e+00
1.380000000000000000e+02,3.626776486948957712e-01,0.000000000000000000e+00
1.390000000000000000e+02,3.297219372977859830e-01,0.000000000000000000e+00
1.400000000000000000e+02,4.121153011529177790e-01,0.000000000000000000e+00
1.410000000000000000e+02,4.297132995733967675e-01,0.000000000000000000e+00
1.420000000000000000e+02,4.108658957826264446e-01,0.000000000000000000e+00
1.430000000000000000e+02,5.068294625407752108e-01,0.000000000000000000e+00
1.440000000000000000e+02,4.894505128114756132e-01,0.000000000000000000e+00
1.450000000000000000e+02,4.966343576183312458e-01,0.000000000000000000e+00
1.460000000000000000e+02,5.985870815206357776e-01,0.000000000000000000e+00
1.470000000000000000e+02,1.673040796539750352e-01,0.000000000000000000e+00
1.480000000000000000e+02,1.617329700878318843e-01,0.000000000000000000e+00
1.490000000000000000e+02,6.440336540658651854e-02,0.000000000000000000e+00
1.500000000000000000e+02,1.888793559527599530e-01,0.000000000000000000e+00
1.510000000000000000e+02,-1.249026919666740426e-01,0.000000000000000000e+00
1.520000000000000000e+02,-3.466900891522335937e-01,0.000000000000000000e+00
1.530000000000000000e+02,3.319843677255327474e+00,0.000000000000000000e+00
1.540000000000000000e+02,4.668771944651543215e+00,0.000000000000000000e+00
1.550000000000000000e+02,1.218830034091106462e+00,1.000000000000000000e+00
1.560000000000000000e+02,-6.809861823781520052e-01,0.000000000000000000e+00
1.570000000000000000e+02,-1.094681515896741342e+00,0.000000000000000000e+00
1.580000000000000000e+02,-8.118073953138837950e-01,0.000000000000000000e+00
1.590000000000000000e+02,-8.286165636405379287e-01,0.000000000000000000e+00
1.600000000000000000e+02,-6.661697971421697284e-01,0.000000000000000000e+00
1.610000000000000000e+02,-6.272152393956780259e-01,0.000000000000000000e+00
1.620000000000000000e+02,-4.875428899145747286e-01,0.000000000000000000e+00
1.630000000000000000e+02,-3.955378736044047328e-01,0.000000000000000000e+00
1.640000000000000000e+02,-1.614213781957239968e-01,0.000000000000000000e+00
1.650000000000000000e+02,-2.209668166998431937e-01,0.000000000000000000e+00
1.660000000000000000e+02,6.844476428664535150e-02,0.000000000000000000e+00
1.670000000000000000e+02,1.586762254219726276e-01,0.000000000000000000e+00
1.680000000000000000e+02,5.481372512131684749e-01,0.000000000000000000e+00
1.690000000000000000e+02,8.394509451118595811e-01,0.000000000000000000e+00
1.700000000000000000e+02,1.080899586824975556e+00,0.000000000000000000e+00
1.710000000000000000e+02,1.063858141448444483e+00,0.000000000000000000e+00
1.720000000000000000e+02,6.989994570590417622e-01,0.000000000000000000e+00
1.730000000000000000e+02,-1.362106933471077252e-01,0.000000000000000000e+00
1.740000000000000000e+02,-1.091697376876062275e+00,0.000000000000000000e+00
1.750000000000000000e+02,-1.540567258130149275e+00,0.000000000000000000e+00
1.760000000000000000e+02,-1.685916089162181830e+00,0.000000000000000000e+00
1.770000000000000000e+02,-1.688349597818956882e+00,0.000000000000000000e+00
1.780000000000000000e+02,-1.483332628450520607e+00,0.000000000000000000e+00
1.790000000000000000e+02,-1.415676143578032731e+00,0.000000000000000000e+00
1.800000000000000000e+02,-1.278431111718415059e+00,0.000000000000000000e+00
1.810000000000000000e+02,-1.168144215296624822e+00,0.000000000000000000e+00
1.820000000000000000e+02,-9.949966022043587044e-01,0.000000000000000000e+00
1.830000000000000000e+02,-8.850861751175046477e-01,0.000000000000000000e+00
1.840000000000000000e+02,-6.764027243280923418e-01,0.000000000000000000e+00
1.850000000000000000e+02,-6.215832968114664014e-01,0.000000000000000000e+00
1.860000000000000000e+02,-4.857434881831819706e-01,0.000000000000000000e+00
1.870000000000000000e+02,-4.410366608894802365e-01,0.000000000000000000e+00
1.880000000000000000e+02,-3.923895080716119366e-01,0.000000000000000000e+00
1.890000000000000000e+02,-2.587678849856305807e-01,0.000000000000000000e+00
1.900000000000000000e+02,-2.921835716772981928e-01,0.000000000000000000e+00
1.910000000000000000e+02,-1.208127933402007442e-01,0.000000000000000000e+00
1.920000000000000000e+02,-1.012816301843042915e-01,0.000000000000000000e+00
1.930000000000000000e+02,-8.667225522888781508e-02,0.000000000000000000e+00
1.940000000000000000e+02,1.912955831850086941e-02,0.000000000000000000e+00
1.950000000000000000e+02,7.788480925405406874e-02,0.000000000000000000e+00
1.960000000000000000e+02,1.999336155853301822e-01,0.000000000000000000e+00
1.970000000000000000e+02,2.234491269088232923e-01,0.000000000000000000e+00
1.980000000000000000e+02,3.169570696992305980e-01,0.000000000000000000e+00
1.990000000000000000e+02,3.379550543242753613e-01,0.000000000000000000e+00
2.000000000000000000e+02,2.482832819812542391e-01,0.000000000000000000e+00
2.010000000000000000e+02,4.500325128617216897e-01,0.000000000000000000e+00
2.020000000000000000e+02,4.565760656579678223e-01,0.000000000000000000e+00
2.030000000000000000e+02,4.409077950624311071e-01,0.000000000000000000e+00
2.040000000000000000e+02,4.868312937577088384e-01,0.000000000000000000e+00
2.050000000000000000e+02,4.749137220872707288e-01,0.000000000000000000e+00
2.060000000000000000e+02,5.744105924231847071e-01,0.000000000000000000e+00
2.070000000000000000e+02,5.341561316479197519e-01,0.000000000000000000e+00
2.080000000000000000e+02,5.101751030780368179e-01,0.000000000000000000e+00
2.090000000000000000e+02,4.736086219166535383e-01,0.000000000000000000e+00
2.100000000000000000e+02,5.279629078620489135e-01,0.000000000000000000e+00
2.110000000000000000e+02,5.443163220675991676e-01,0.000000000000000000e+00
2.120000000000000000e+02,6.201333248738802872e-01,0.000000000000000000e+00
2.130000000000000000e+02,5.926559319952765525e-01,0.000000000000000000e+00
2.140000000000000000e+02,6.444466593525235432e-01,0.000000000000000000e+00
2.150000000000000000e+02,4.453269802662616628e-01,0.000000000000000000e+00
2.160000000000000000e+02,2.426756043554851860e-01,0.000000000000000000e+00
2.170000000000000000e+02,3.510029930191984615e-01,0.000000000000000000e+00
2.180000000000000000e+02,2.248790233760235013e-01,0.000000000000000000e+00
2.190000000000000000e+02,3.042039247779174116e-01,0.000000000000000000e+00
2.200000000000000000e+02,-4.337768061365599587e-02,0.000000000000000000e+00
2.210000000000000000e+02,1.339608068087768944e-01,0.000000000000000000e+00
2.220000000000000000e+02,3.536212291282334608e+00,0.000000000000000000e+00
2.230000000000000000e+02,4.779955980003060212e+00,0.000000000000000000e+00
2.240000000000000000e+02,1.591811424640912964e+00,1.000000000000000000e+00
2.250000000000000000e+02,-4.571228212207085750e-01,0.000000000000000000e+00
2.260000000000000000e+02,-7.998766999592928917e-01,0.000000000000000000e+00
2.270000000000000000e+02,-8.330754694029124385e-01,0.000000000000000000e+00
2.280000000000000000e+02,-8.107125350940436181e-01,0.000000000000000000e+00
2.290000000000000000e+02,-7.264979102977824343e-01,0.000000000000000000e+00
2.300000000000000000e+02,-6.657349128367313629e-01,0.000000000000000000e+00
2.310000000000000000e+02,-5.931728985515061225e-01,0.000000000000000000e+00
2.320000000000000000e+02,-5.153209643295327824e-01,0.000000000000000000e+00
2.330000000000000000e+02,-4.382984243186333062e-01,0.000000000000000000e+00
2.340000000000000000e+02,-2.052723918352613031e-01,0.000000000000000000e+00
2.350000000000000000e+02,-1.371543563947171251e-01,0.000000000000000000e+00
2.360000000000000000e+02,1.320505269165570816e-01,0.000000000000000000e+00
2.370000000000000000e+02,4.723883631022655627e-01,0.000000000000000000e+00
2.380000000000000000e+02,7.606054501535524093e-01,0.000000000000000000e+00
2.390000000000000000e+02,1.158179535221095069e+00,0.000000000000000000e+00
2.400000000000000000e+02,8.932487047511314948e-01,0.000000000000000000e+00
2.410000000000000000e+02,5.699709956271576949e-01,0.000000000000000000e+00
2.420000000000000000e+02,-3.603229713250509780e-01,0.000000000000000000e+00
2.430000000000000000e+02,-1.088157953912463505e+00,0.000000000000000000e+00
2.440000000000000000e+02,-1.637540245199369471e+00,0.000000000000000000e+00
2.450000000000000000e+02,-1.591961025958052112e+00,0.000000000000000000e+00
2.460000000000000000e+02,-1.543959299506717731e+00,0.000000000000000000e+00
2.470000000000000000e+02,-1.538670776768048531e+00,0.000000000000000000e+00
2.480000000000000000e+02,-1.201481475843581226e+00,0.000000000000000000e+00
2.490000000000000000e+02,-1.277854380876083384e+00,0.000000000000000000e+00
2.500000000000000000e+02,-1.025145183219518419e+00,0.000000000000000000e+00
2.510000000000000000e+02,-9.777025399953128693e-01,0.000000000000000000e+00
2.520000000000000000e+02,-8.880507189470158158e-01,0.000000000000000000e+00
2.530000000000000000e+02,-7.378363734876021152e-01,0.000000000000000000e+00
2.540000000000000000e+02,-6.270116548109166965e-01,0.000000000000000000e+00
2.550000000000000000e+02,-4.449363957021787441e-01,0.000000000000000000e+00
2.560000000000000000e+02,-3.887355436900028494e-01,0.000000000000000000e+00
2.570000000000000000e+02,-3.322646568267185740e-01,0.000000000000000000e+00
2.580000000000000000e+02,-2.397188888009668117e-01,0.000000000000000000e+00
2.590000000000000000e+02,-2.079255264244220802e-01,0.000000000000000000e+00
2.600000000000000000e+02,-1.908083061542605319e-01,0.000000000000000000e+00
2.610000000000000000e+02,-1.501207218015387750e-02,0.000000000000000000e+00
2.620000000000000000e+02,5.847382747393280178e-02,0.000000000000000000e+00
2.630000000000000000e+02,-2.085089354137415266e-02,0.000000000000000000e+00
2.640000000000000000e+02,6.443072122637637233e-02,0.000000000000000000e+00
2.650000000000000000e+02,1.457164865456825886e-01,0.000000000000000000e+00
2.660000000000000000e+02,2.195781775527406998e-01,0.000000000000000000e+00
2.670000000000000000e+02,3.009683957505243090e-01,0.000000000000000000e+00
2.680000000000000000e+02,3.385156410631868229e-01,0.000000000000000000e+00
2.690000000000000000e+02,2.345622225057952259e-01,0.000000000000000000e+00
2.700000000000000000e+02,3.770414526912459485e-01,0.000000000000000000e+00
2.710000000000000000e+02,3.438579411965996258e-01,0.000000000000000000e+00
2.720000000000000000e+02,4.299404538000957121e-01,0.000000000000000000e+00
2.730000000000000000e+02,3.562194906048658516e-01,0.000000000000000000e+00
2.740000000000000000e+02,2.536270623029368565e-01,0.000000000000000000e+00
2.750000000000000000e+02,4.284244962371122623e-01,0.000000000000000000e+00
2.760000000000000000e+02,1.699156371840674917e-01,0.000000000000000000e+00
2.770000000000000000e+02,4.205542215119005278e-01,0.000000000000000000e+00
2.780000000000000000e+02,3.438642683967300662e-01,0.000000000000000000e+00
2.790000000000000000e+02,3.891157138548544392e-01,0.000000000000000000e+00
2.800000000000000000e+02,3.500513746783223690e-01,0.000000000000000000e+00
2.810000000000000000e+02,5.462812278839555002e-01,0.000000000000000000e+00
2.820000000000000000e+02,2.450841172799264889e-01,0.000000000000000000e+00
2.830000000000000000e+02,4.257468084622758053e-01,0.000000000000000000e+00
2.840000000000000000e+02,4.963560959550991081e-01,0.000000000000000000e+00
2.850000000000000000e+02,1.272449551386848066e-01,0.000000000000000000e+00
2.860000000000000000e+02,6.153737714538743547e-02,0.000000000000000000e+00
2.870000000000000000e+02,1.670744930903292624e-01,0.000000000000000000e+00
2.880000000000000000e+02,5.048734993043663133e-02,0.000000000000000000e+00
2.890000000000000000e+02,7.854335279939045344e-02,0.000000000000000000e+00
2.900000000000000000e+02,-5.697091539173599894e-01,0.000000000000000000e+00
2.910000000000000000e+02,1.188650773355812262e+00,0.000000000000000000e+00
2.920000000000000000e+02,4.734602152206875303e+00,0.000000000000000000e+00
2.930000000000000000e+02,3.342514867632259801e+00,1.000000000000000000e+00
2.940000000000000000e+02,8.486077503338279593e-02,0.000000000000000000e+00
2.950000000000000000e+02,-8.753831204838936619e-01,0.000000000000000000e+00
2.960000000000000000e+02,-9.158811988405023419e-01,0.000000000000000000e+00
2.970000000000000000e+02,-1.005319952672127037e+00,0.000000000000000000e+00
2.980000000000000000e+02,-6.962327546697318903e-01,0.000000000000000000e+00
2.990000000000000000e+02,-7.548307799685389785e-01,0.000000000000000000e+00
3.000000000000000000e+02,-4.035692094135141517e-01,0.000000000000000000e+00
3.010000000000000000e+02,-6.444242883507398378e-01,0.000000000000000000e+00
3.020000000000000000e+02,-3.179451453484534174e-01,0.000000000000000000e+00
3.030000000000000000e+02,-3.024851728071074053e-01,0.000000000000000000e+00
3.040000000000000000e+02,-7.709974019474986895e-02,0.000000000000000000e+00
3.050000000000000000e+02,2.468355485622903897e-02,0.000000000000000000e+00
3.060000000000000000e+02,3.976120057646430062e-01,0.000000000000000000e+00
3.070000000000000000e+02,7.941444447040941768e-01,0.000000000000000000e+00
3.080000000000000000e+02,9.269342052262790066e-01,0.000000000000000000e+00
3.090000000000000000e+02,1.160333569199864634e+00,0.000000000000000000e+00
3.100000000000000000e+02,9.922213939176005582e-01,0.000000000000000000e+00
3.110000000000000000e+02,3.138454230089983699e-01,0.000000000000000000e+00
3.120000000000000000e+02,-5.949206121455911100e-01,0.000000000000000000e+00
3.130000000000000000e+02,-1.361928670390511797e+00,0.000000000000000000e+00
3.140000000000000000e+02,-1.663148391286970007e+00,0.000000000000000000e+00
3.150000000000000000e+02,-1.549511827365358085e+00,0.000000000000000000e+00
3.160000000000000000e+02,-1.567655152855686129e+00,0.000000000000000000e+00
3.170000000000000000e+02,-1.400327171742693722e+00,0.000000000000000000e+00
3.180000000000000000e+02,-1.195756869799315059e+00,0.000000000000000000e+00
3.190000000000000000e+02,-1.055767244902225732e+00,0.000000000000000000e+00
3.200000000000000000e+02,-9.179903206651039982e-01,0.000000000000000000e+00
3.210000000000000000e+02,-9.382581388183813820e-01,0.000000000000000000e+00
3.220000000000000000e+02,-7.997683646656750245e-01,0.000000000000000000e+00
3.230000000000000000e+02,-6.515599891923928855e-01,0.000000000000000000e+00
3.240000000000000000e+02,-4.303979727658469034e-01,0.000000000000000000e+00
3.250000000000000000e+02,-4.831855489741420651e-01,0.000000000000000000e+00
3.260000000000000000e+02,-4.292503095904843802e-01,0.000000000000000000e+00
3.270000000000000000e+02,-3.718113831228896937e-01,0.000000000000000000e+00
3.280000000000000000e+02,-2.451759360908224716e-01,0.000000000000000000e+00
3.290000000000000000e+02,-1.238120569474569638e-01,0.000000000000000000e+00
3.300000000000000000e+02,-4.860373590138850064e-02,0.000000000000000000e+00
3.310000000000000000e+02,-3.717729595663171478e-03,0.000000000000000000e+00
3.320000000000000000e+02,3.843720677698393706e-02,0.000000000000000000e+00
3.330000000000000000e+02,7.612457863191739171e-02,0.000000000000000000e+00
3.340000000000000000e+02,1.128433072996530562e-01,0.000000000000000000e+00
3.350000000000000000e+02,2.864906120824604052e-01,0.000000000000000000e+00
3.360000000000000000e+02,2.485252929534862154e-01,0.000000000000000000e+00
3.370000000000000000e+02,7.868169232680866099e-02,0.000000000000000000e+00
3.380000000000000000e+02,3.715761172731659734e-01,0.000000000000000000e+00
3.390000000000000000e+02,3.616672309996512569e-01,0.000000000000000000e+00
3.400000000000000000e+02,3.975383191727031029e-01,0.000000000000000000e+00
3.410000000000000000e+02,4.478724369948973161e-01,0.000000000000000000e+00
3.420000000000000000e+02,4.189420667663891762e-01,0.000000000000000000e+00
3.430000000000000000e+02,3.597510564404260425e-01,0.000000000000000000e+00
3.440000000000000000e+02,4.128243408742240383e-01,0.000000000000000000e+00
3.450000000000000000e+02,3.739556634789721334e-01,0.000000000000000000e+00
3.460000000000000000e+02,4.764997641987250288e-01,0.000000000000000000e+00
3.470000000000000000e+02,4.016811910422111165e-01,0.000000000000000000e+00
3.480000000000000000e+02,4.464004541859010744e-01,0.000000000000000000e+00
3.490000000000000000e+02,4.210316666043177336e-01,0.000000000000000000e+00
3.500000000000000000e+02,6.451133279457629266e-01,0.000000000000000000e+00
3.510000000000000000e+02,5.549769435436224807e-01,0.000000000000000000e+00
3.520000000000000000e+02,6.229831031312993428e-01,0.000000000000000000e+00
3.530000000000000000e+02,4.961546875770685983e-01,0.000000000000000000e+00
3.540000000000000000e+02,6.831244598393099166e-01,0.000000000000000000e+00
3.550000000000000000e+02,3.992908008026141986e-01,0.000000000000000000e+00
3.560000000000000000e+02,2.049395428005846842e-01,0.000000000000000000e+00
3.570000000000000000e+02,2.343885585999635757e-01,0.000000000000000000e+00
3.580000000000000000e+02,6.408397410629050606e-02,0.000000000000000000e+00
3.590000000000000000e+02,2.632263861056939880e-01,0.000000000000000000e+00
3.600000000000000000e+02,-3.896008910943961623e-01,0.000000000000000000e+00
3.610000000000000000e+02,4.740308347969324210e-01,0.000000000000000000e+00
3.620000000000000000e+02,4.394074219074784793e+00,0.000000000000000000e+00
3.630000000000000000e+02,4.129107285068964295e+00,0.000000000000000000e+00
3.640000000000000000e+02,5.072344132444795983e-01,1.000000000000000000e+00
3.650000000000000000e+02,-8.976425206751083019e-01,0.000000000000000000e+00
3.660000000000000000e+02,-1.009308059694592030e+00,0.000000000000000000e+00
3.670000000000000000e+02,-9.906929909819849334e-01,0.000000000000000000e+00
3.680000000000000000e+02,-7.845513028580313186e-01,0.000000000000000000e+00
3.690000000000000000e+02,-7.583522575990599979e-01,0.000000000000000000e+00
3.700000000000000000e+02,-6.211971490251946282e-01,0.000000000000000000e+00
3.710000000000000000e+02,-5.543999120182143692e-01,0.000000000000000000e+00
3.720000000000000000e+02,-2.433988167162116079e-01,0.000000000000000000e+00
3.730000000000000000e+02,-3.810048552602919303e-01,0.000000000000000000e+00
3.740000000000000000e+02,-5.399536878832996573e-02,0.000000000000000000e+00
3.750000000000000000e+02,-2.157568246804528536e-02,0.000000000000000000e+00
3.760000000000000000e+02,2.770836309988352064e-01,0.000000000000000000e+00
3.770000000000000000e+02,8.964178829905778967e-01,0.000000000000000000e+00
3.780000000000000000e+02,9.775813268338524598e-01,0.000000000000000000e+00
3.790000000000000000e+02,1.115756761094698790e+00,0.000000000000000000e+00
3.800000000000000000e+02,1.187015549328135355e+00,0.000000000000000000e+00
3.810000000000000000e+02,4.887968103318452995e-01,0.000000000000000000e+00
3.820000000000000000e+02,-5.625297574913088461e-01,0.000000000000000000e+00
3.830000000000000000e+02,-1.105632254329154129e+00,0.000000000000000000e+00
3.840000000000000000e+02,-1.590536219411167407e+00,0.000000000000000000e+00
3.850000000000000000e+02,-1.732176597329311285e+00,0.000000000000000000e+00
3.860000000000000000e+02,-1.543044628688215569e+00,0.000000000000000000e+00
3.870000000000000000e+02,-1.603926149796014666e+00,0.000000000000000000e+00
3.880000000000000000e+02,-1.494792370624324462e+00,0.000000000000000000e+00
3.890000000000000000e+02,-1.185445565319956707e+00,0.000000000000000000e+00
3.900000000000000000e+02,-1.075853315153035394e+00,0.000000000000000000e+00
3.910000000000000000e+02,-1.087436982132690799e+00,0.000000000000000000e+00
3.920000000000000000e+02,-8.708007620464287557e-01,0.000000000000000000e+00
3.930000000000000000e+02,-7.652541295276223954e-01,0.000000000000000000e+00
3.940000000000000000e+02,-5.444576624203987247e-01,0.000000000000000000e+00
3.950000000000000000e+02,-6.173227409179024017e-01,0.000000000000000000e+00
3.960000000000000000e+02,-4.860434240767451675e-01,0.000000000000000000e+00
3.970000000000000000e+02,-4.189524804500763255e-01,0.000000000000000000e+00
3.980000000000000000e+02,-2.174576848628792247e-01,0.000000000000000000e+00
3.990000000000000000e+02,-1.854993335374602870e-01,0.000000000000000000e+00
4.000000000000000000e+02,-1.054485719040220149e-01,0.000000000000000000e+00
4.010000000000000000e+02,-1.800296943155468288e-01,0.000000000000000000e+00
4.020000000000000000e+02,-4.857627376808652808e-02,0.000000000000000000e+00
4.030000000000000000e+02,-2.120388676807815481e-02,0.000000000000000000e+00
4.040000000000000000e+02,1.590319371208457622e-01,0.000000000000000000e+00
4.050000000000000000e+02,3.713516975143527771e-02,0.000000000000000000e+00
4.060000000000000000e+02,1.744443211934912086e-01,0.000000000000000000e+00
4.070000000000000000e+02,3.065287232187864919e-01,0.000000000000000000e+00
4.080000000000000000e+02,3.212452921875235123e-01,0.000000000000000000e+00
4.090000000000000000e+02,2.241626314154694100e-01,0.000000000000000000e+00
4.100000000000000000e+02,3.585137446121928750e-01,0.000000000000000000e+00
4.110000000000000000e+02,2.272817977595370520e-01,0.000000000000000000e+00
4.120000000000000000e+02,2.859493164612459948e-01,0.000000000000000000e+00
4.130000000000000000e+02,4.909230599843509846e-01,0.000000000000000000e+00
4.140000000000000000e+02,3.494569643761946676e-01,0.000000000000000000e+00
4.150000000000000000e+02,3.948899082384292325e-01,0.000000000000000000e+00
4.160000000000000000e+02,3.960229093434709524e-01,0.000000000000000000e+00
4.170000000000000000e+02,4.392513011040801163e-01,0.000000000000000000e+00
4.180000000000000000e+02,3.996648468903767903e-01,0.000000000000000000e+00
4.190000000000000000e+02,4.866182671646980817e-01,0.000000000000000000e+00
4.200000000000000000e+02,3.696918612878909438e-01,0.000000000000000000e+00
4.210000000000000000e+02,6.331632543884276876e-01,0.000000000000000000e+00
4.220000000000000000e+02,6.002398760540965661e-01,0.000000000000000000e+00
4.230000000000000000e+02,5.050762282060367037e-01,0.000000000000000000e+00
4.240000000000000000e+02,5.900621236272721726e-01,0.000000000000000000e+00
4.250000000000000000e+02,3.946713019299861736e-01,0.000000000000000000e+00
4.260000000000000000e+02,1.767542484671821013e-01,0.000000000000000000e+00
4.270000000000000000e+02,1.192065833514054929e-01,0.000000000000000000e+00
4.280000000000000000e+02,8.662777334721383227e-02,0.000000000000000000e+00
4.290000000000000000e+02,2.013488278550305821e-01,0.000000000000000000e+00
4.300000000000000000e+02,-3.728887435548446372e-01,0.000000000000000000e+00
4.310000000000000000e+02,8.157426281556622305e-01,0.000000000000000000e+00
4.320000000000000000e+02,5.178306155966809321e+00,0.000000000000000000e+00
4.330000000000000000e+02,3.787680902459996002e+00,1.000000000000000000e+00
4.340000000000000000e+02,1.047893200635825195e-01,0.000000000000000000e+00
4.350000000000000000e+02,-1.076186930220477400e+00,0.000000000000000000e+00
4.360000000000000000e+02,-9.377559087310115560e-01,0.000000000000000000e+00
4.370000000000000000e+02,-8.328702142751209792e-01,0.000000000000000000e+00
4.380000000000000000e+02,-7.866332525552132138e-01,0.000000000000000000e+00
4.390000000000000000e+02,-6.456418979944084091e-01,0.000000000000000000e+00
4.400000000000000000e+02,-4.861905882677502455e-01,0.000000000000000000e+00
4.410000000000000000e+02,-5.988684899040119802e-01,0.000000000000000000e+00
4.420000000000000000e+02,-2.822836417772000561e-01,0.000000000000000000e+00
4.430000000000000000e+02,-3.088621987534891922e-01,0.000000000000000000e+00
4.440000000000000000e+02,-3.295279301049074128e-02,0.000000000000000000e+00
4.450000000000000000e+02,-1.374671594301590805e-02,0.000000000000000000e+00
4.460000000000000000e+02,2.943563267465463262e-01,0.000000000000000000e+00
4.470000000000000000e+02,6.146657022886304889e-01,0.000000000000000000e+00
4.480000000000000000e+02,1.079441708389551113e+00,0.000000000000000000e+00
4.490000000000000000e+02,1.063769224178128248e+00,0.000000000000000000e+00
4.500000000000000000e+02,1.093628836227028334e+00,0.000000000000000000e+00
4.510000000000000000e+02,5.682083423445681847e-01,0.000000000000000000e+00
4.520000000000000000e+02,-4.931568778770162864e-01,0.000000000000000000e+00
4.530000000000000000e+02,-1.327705366036347812e+00,0.000000000000000000e+00
4.540000000000000000e+02,-1.743340434271482442e+00,0.000000000000000000e+00
4.550000000000000000e+02,-1.789998472671045615e+00,0.000000000000000000e+00
4.560000000000000000e+02,-1.780617796656233542e+00,0.000000000000000000e+00
4.570000000000000000e+02,-1.541256504574975539e+00,0.000000000000000000e+00
4.580000000000000000e+02,-1.461706776610423919e+00,0.000000000000000000e+00
4.590000000000000000e+02,-1.401185957746464483e+00,0.000000000000000000e+00
4.600000000000000000e+02,-9.422461293736915655e-01,0.000000000000000000e+00
4.610000000000000000e+02,-1.018010459000018519e+00,0.000000000000000000e+00
4.620000000000000000e+02,-1.011959277624598252e+00,0.000000000000000000e+00
4.630000000000000000e+02,-5.810029600990473941e-01,0.000000000000000000e+00
4.640000000000000000e+02,-7.452252042234118745e-01,0.000000000000000000e+00
4.650000000000000000e+02,-5.142918297109431158e-01,0.000000000000000000e+00
4.660000000000000000e+02,-6.129088471499999358e-01,0.000000000000000000e+00
4.670000000000000000e+02,-2.452025114322703148e-01,0.000000000000000000e+00
4.680000000000000000e+02,-3.822285281271873836e-01,0.000000000000000000e+00
4.690000000000000000e+02,-2.442458464485933733e-01,0.000000000000000000e+00
4.700000000000000000e+02,-1.147036349278272027e-01,0.000000000000000000e+00
4.710000000000000000e+02,-2.069666140826818546e-01,0.000000000000000000e+00
4.720000000000000000e+02,-1.461423946738255909e-02,0.000000000000000000e+00
4.730000000000000000e+02,-1.000519544084962529e-04,0.000000000000000000e+00
4.740000000000000000e+02,-8.306899385901608812e-03,0.000000000000000000e+00
4.750000000000000000e+02,1.978235559112072606e-01,0.000000000000000000e+00
4.760000000000000000e+02,9.853607640290200365e-02,0.000000000000000000e+00
4.770000000000000000e+02,2.711756843610559908e-01,0.000000000000000000e+00
4.780000000000000000e+02,3.669702843125997593e-01,0.000000000000000000e+00
4.790000000000000000e+02,3.167163446249544045e-01,0.000000000000000000e+00
4.800000000000000000e+02,3.937216834052095771e-01,0.000000000000000000e+00
4.810000000000000000e+02,3.028873837740456154e-01,0.000000000000000000e+00
4.820000000000000000e+02,4.008492775036154865e-01,0.000000000000000000e+00
4.830000000000000000e+02,4.153512809172060227e-01,0.000000000000000000e+00
4.840000000000000000e+02,5.859024048552607944e-01,0.000000000000000000e+00
4.850000000000000000e+02,5.239327804852704773e-01,0.000000000000000000e+00
4.860000000000000000e+02,4.919852536732945425e-01,0.000000000000000000e+00
4.870000000000000000e+02,4.835306674291809936e-01,0.000000000000000000e+00
4.880000000000000000e+02,5.565785273150790635e-01,0.000000000000000000e+00
4.890000000000000000e+02,6.599075019605714632e-01,0.000000000000000000e+00
4.900000000000000000e+02,5.862984636241108660e-01,0.000000000000000000e+00
4.910000000000000000e+02,5.648509234227422349e-01,0.000000000000000000e+00
4.920000000000000000e+02,5.722275390961516495e-01,0.000000000000000000e+00
4.930000000000000000e+02,5.361150651837067738e-01,0.000000000000000000e+00
4.940000000000000000e+02,2.498388322375713344e-01,0.000000000000000000e+00
4.950000000000000000e+02,2.792734674948517681e-01,0.000000000000000000e+00
4.960000000000000000e+02,1.020819426655592277e-01,0.000000000000000000e+00
4.970000000000000000e+02,3.460793289694314434e-01,0.000000000000000000e+00
4.980000000000000000e+02,-1.154774976928742425e-01,0.000000000000000000e+00
4.990000000000000000e+02,7.130346293956347781e-01,0.000000000000000000e+00
5.000000000000000000e+02,4.914366843286337883e+00,0.000000000000000000e+00
5.010000000000000000e+02,3.279425077060095450e+00,1.000000000000000000e+00
5.020000000000000000e+02,-3.184140240038064174e-01,0.000000000000000000e+00
5.030000000000000000e+02,-1.022544425889805098e+00,0.000000000000000000e+00
5.040000000000000000e+02,-6.981375857702099008e-01,0.000000000000000000e+00
5.050000000000000000e+02,-4.637805179851552939e-01,0.000000000000000000e+00
5.060000000000000000e+02,-4.440736125527360301e-01,0.000000000000000000e+00
5.070000000000000000e+02,-3.376300507924283045e-01,0.000000000000000000e+00
5.080000000000000000e+02,-2.520810186624410920e-01,0.000000000000000000e+00
5.090000000000000000e+02,-1.947498986903847262e-01,0.000000000000000000e+00
5.100000000000000000e+02,7.078266851928622858e-03,0.000000000000000000e+00
5.110000000000000000e+02,-6.027136294335687372e-02,0.000000000000000000e+00
5.120000000000000000e+02,1.874271219041592773e-01,0.000000000000000000e+00
5.130000000000000000e+02,2.167669467347785039e-01,0.000000000000000000e+00
5.140000000000000000e+02,5.225170169346678994e-01,0.000000000000000000e+00
5.150000000000000000e+02,8.185511476052699242e-01,0.000000000000000000e+00
5.160000000000000000e+02,1.140840282522700644e+00,0.000000000000000000e+00
5.170000000000000000e+02,1.258799815210213335e+00,0.000000000000000000e+00
5.180000000000000000e+02,1.234702681301427241e+00,0.000000000000000000e+00
5.190000000000000000e+02,6.361274551898873364e-01,0.000000000000000000e+00
5.200000000000000000e+02,-3.590431821165545601e-01,0.000000000000000000e+00
5.210000000000000000e+02,-1.134221168462357765e+00,0.000000000000000000e+00
5.220000000000000000e+02,-1.686830323167165968e+00,0.000000000000000000e+00
5.230000000000000000e+02,-1.811805721857496110e+00,0.000000000000000000e+00
5.240000000000000000e+02,-1.704928204115797596e+00,0.000000000000000000e+00
5.250000000000000000e+02,-1.567647143697251888e+00,0.000000000000000000e+00
5.260000000000000000e+02,-1.411890785347497790e+00,0.000000000000000000e+00
5.270000000000000000e+02,-1.259246176429174469e+00,0.000000000000000000e+00
5.280000000000000000e+02,-1.124406967539525848e+00,0.000000000000000000e+00
5.290000000000000000e+02,-9.206034290813819299e-01,0.000000000000000000e+00
5.300000000000000000e+02,-9.864891447758620258e-01,0.000000000000000000e+00
5.310000000000000000e+02,-7.651632299704740348e-01,0.000000000000000000e+00
5.320000000000000000e+02,-7.691214994390024318e-01,0.000000000000000000e+00
5.330000000000000000e+02,-6.729216999284989287e-01,0.000000000000000000e+00
5.340000000000000000e+02,-5.559509318589506144e-01,0.000000000000000000e+00
5.350000000000000000e+02,-5.374603333459939680e-01,0.000000000000000000e+00
5.360000000000000000e+02,-2.970461061355952892e-01,0.000000000000000000e+00
5.370000000000000000e+02,-4.362621268974128941e-01,0.000000000000000000e+00
5.380000000000000000e+02,-1.596269694548688722e-01,0.000000000000000000e+00
5.390000000000000000e+02,-1.917938459291111397e-01,0.000000000000000000e+00
5.400000000000000000e+02,-1.127701420707948043e-01,0.000000000000000000e+00
5.410000000000000000e+02,-4.509344422311292039e-03,0.000000000000000000e+00
5.420000000000000000e+02,5.148891473797430340e-02,0.000000000000000000e+00
5.430000000000000000e+02,-2.928569375756745821e-02,0.000000000000000000e+00
5.440000000000000000e+02,1.567745053371346342e-01,0.000000000000000000e+00
5.450000000000000000e+02,1.539577021612800745e-01,0.000000000000000000e+00
5.460000000000000000e+02,2.026162523730175857e-01,0.000000000000000000e+00
5.470000000000000000e+02,2.558647318504752577e-01,0.000000000000000000e+00
5.480000000000000000e+02,2.709983615024891268e-01,0.000000000000000000e+00
5.490000000000000000e+02,3.912902504774465329e-01,0.000000000000000000e+00
5.500000000000000000e+02,2.649794848851259599e-01,0.000000000000000000e+00
5.510000000000000000e+02,3.776465825502728357e-01,0.000000000000000000e+00
5.520000000000000000e+02,3.508383185261008674e-01,0.000000000000000000e+00
5.530000000000000000e+02,4.758144821314241324e-01,0.000000000000000000e+00
5.540000000000000000e+02,5.530589127716315501e-01,0.000000000000000000e+00
5.550000000000000000e+02,6.264498364724249146e-01,0.000000000000000000e+00
5.560000000000000000e+02,5.972477005764664781e-01,0.000000000000000000e+00
5.570000000000000000e+02,4.262486136211672272e-01,0.000000000000000000e+00
5.580000000000000000e+02,2.027194363322517012e-01,0.000000000000000000e+00
5.590000000000000000e+02,7.045914609085407454e-02,0.000000000000000000e+00
5.600000000000000000e+02,3.542127089589928723e-01,0.000000000000000000e+00
5.610000000000000000e+02,1.113487104790941706e-01,0.000000000000000000e+00
5.620000000000000000e+02,-1.320051875197717495e-01,0.000000000000000000e+00
5.630000000000000000e+02,2.947769725221516257e-01,0.000000000000000000e+00
5.640000000000000000e+02,4.271241030260021887e+00,0.000000000000000000e+00
5.650000000000000000e+02,3.661159429343971983e+00,0.000000000000000000e+00
5.660000000000000000e+02,2.452511051838084100e-02,1.000000000000000000e+00
5.670000000000000000e+02,-1.029657208805903057e+00,0.000000000000000000e+00
5.680000000000000000e+02,-6.886500885521662507e-01,0.000000000000000000e+00
5.690000000000000000e+02,-5.472953473087025511e-01,0.000000000000000000e+00
5.700000000000000000e+02,-5.322298430559424531e-01,0.000000000000000000e+00
5.710000000000000000e+02,-3.905954656916680867e-01,0.000000000000000000e+00
5.720000000000000000e+02,-3.750729173552801443e-01,0.000000000000000000e+00
5.730000000000000000e+02,-1.489721676956559104e-01,0.000000000000000000e+00
5.740000000000000000e+02,-1.411309241442878504e-01,0.000000000000000000e+00
5.750000000000000000e+02,1.804352497589323603e-02,0.000000000000000000e+00
5.760000000000000000e+02,5.341165019884270421e-02,0.000000000000000000e+00
5.770000000000000000e+02,4.070849631177355654e-01,0.000000000000000000e+00
5.780000000000000000e+02,4.149230704238502376e-01,0.000000000000000000e+00
5.790000000000000000e+02,9.384964760004573803e-01,0.000000000000000000e+00
5.800000000000000000e+02,1.078144167351851923e+00,0.000000000000000000e+00
5.810000000000000000e+02,1.340646067144269926e+00,0.000000000000000000e+00
5.820000000000000000e+02,1.274331900810754981e+00,0.000000000000000000e+00
5.830000000000000000e+02,7.109339338047636625e-01,0.000000000000000000e+00
5.840000000000000000e+02,-1.230159475326941393e-01,0.000000000000000000e+00
5.850000000000000000e+02,-1.049599876548469757e+00,0.000000000000000000e+00
5.860000000000000000e+02,-1.431541583709676546e+00,0.000000000000000000e+00
5.870000000000000000e+02,-1.692630460608523846e+00,0.000000000000000000e+00
5.880000000000000000e+02,-1.409506690512454030e+00,0.000000000000000000e+00
5.890000000000000000e+02,-1.569968435986996758e+00,0.000000000000000000e+00
5.900000000000000000e+02,-1.238636377190167837e+00,0.000000000000000000e+00
5.910000000000000000e+02,-1.220492946744976992e+00,0.000000000000000000e+00
5.920000000000000000e+02,-1.009960562014156293e+00,0.000000000000000000e+00
5.930000000000000000e+02,-9.465675782509599401e-01,0.000000000000000000e+00
5.940000000000000000e+02,-8.478525207755330806e-01,0.000000000000000000e+00
5.950000000000000000e+02,-6.406285588728126701e-01,0.000000000000000000e+00
5.960000000000000000e+02,-6.485123451256713523e-01,0.000000000000000000e+00
5.970000000000000000e+02,-5.008188648730528270e-01,0.000000000000000000e+00
5.980000000000000000e+02,-5.083840925940026345e-01,0.000000000000000000e+00
5.990000000000000000e+02,-3.972344423773617739e-01,0.000000000000000000e+00
6.000000000000000000e+02,-2.212963904402802107e-01,0.000000000000000000e+00
6.010000000000000000e+02,-1.420540819274623556e-01,0.000000000000000000e+00
6.020000000000000000e+02,-2.683477763088870094e-01,0.000000000000000000e+00
6.030000000000000000e+02,2.783352262151842990e-02,0.000000000000000000e+00
6.040000000000000000e+02,-1.424265143514484022e-01,0.000000000000000000e+00
6.050000000000000000e+02,6.206250185089446335e-03,0.000000000000000000e+00
6.060000000000000000e+02,9.511776216214067048e-02,0.000000000000000000e+00
6.070000000000000000e+02,2.306447056706927845e-01,0.000000000000000000e+00
6.080000000000000000e+02,9.473031369124204626e-02,0.000000000000000000e+00
6.090000000000000000e+02,1.470487736996993200e-01,0.000000000000000000e+00
6.100000000000000000e+02,2.194512837090646651e-01,0.000000000000000000e+00
6.110000000000000000e+02,3.349403154731521726e-01,0.000000000000000000e+00
6.120000000000000000e+02,2.496629466723519764e-01,0.000000000000000000e+00
6.130000000000000000e+02,3.091456460598108191e-01,0.000000000000000000e+00
6.140000000000000000e+02,2.148732005639761300e-01,0.000000000000000000e+00
6.150000000000000000e+02,3.933105914417435178e-01,0.000000000000000000e+00
6.160000000000000000e+02,3.995693102228327631e-01,0.000000000000000000e+00
6.170000000000000000e+02,2.921590347422041156e-01,0.000000000000000000e+00
6.180000000000000000e+02,4.198058776112065238e-01,0.000000000000000000e+00
6.190000000000000000e+02,2.614618803615320619e-01,0.000000000000000000e+00
6.200000000000000000e+02,3.974546331368800089e-01,0.000000000000000000e+00
6.210000000000000000e+02,5.044212276486338409e-01,0.000000000000000000e+00
6.220000000000000000e+02,2.898616624097336003e-01,0.000000000000000000e+00
6.230000000000000000e+02,4.887969981879763948e-01,0.000000000000000000e+00
6.240000000000000000e+02,4.172832050493009426e-01,0.000000000000000000e+00
6.250000000000000000e+02,4.635595741061093178e-01,0.000000000000000000e+00
6.260000000000000000e+02,5.749245792009145539e-01,0.000000000000000000e+00
6.270000000000000000e+02,4.139454138561698415e-01,0.000000000000000000e+00
6.280000000000000000e+02,5.984417533243563403e-01,0.000000000000000000e+00
6.290000000000000000e+02,3.236461964325779705e-01,0.000000000000000000e+00
6.300000000000000000e+02,2.159498495248466376e-01,0.000000000000000000e+00
6.310000000000000000e+02,8.275162152620205158e-02,0.000000000000000000e+00
6.320000000000000000e+02,9.619859465068107685e-02,0.000000000000000000e+00
6.330000000000000000e+02,1.637747727337923176e-01,0.000000000000000000e+00
6.340000000000000000e+02,-3.373306093157449337e-01,0.000000000000000000e+00
6.350000000000000000e+02,8.135537912641609415e-01,0.000000000000000000e+00
6.360000000000000000e+02,4.509393157791786955e+00,0.000000000000000000e+00
6.370000000000000000e+02,3.130484288015030092e+00,1.000000000000000000e+00
6.380000000000000000e+02,-9.333606752366767345e-02,0.000000000000000000e+00
6.390000000000000000e+02,-1.080849108592759178e+00,0.000000000000000000e+00
6.400000000000000000e+02,-8.998196421512323351e-01,0.000000000000000000e+00
6.410000000000000000e+02,-8.150903779031558605e-01,0.000000000000000000e+00
6.420000000000000000e+02,-7.247966825728608953e-01,0.000000000000000000e+00
6.430000000000000000e+02,-6.419284373468963079e-01,0.000000000000000000e+00
6.440000000000000000e+02,-5.353438871042914826e-01,0.000000000000000000e+00
6.450000000000000000e+02,-3.151065980648557474e-01,0.000000000000000000e+00
6.460000000000000000e+02,-3.605946514693300631e-01,0.000000000000000000e+00
6.470000000000000000e+02,-1.761793743963522285e-01,0.000000000000000000e+00
6.480000000000000000e+02,-1.103769554993142832e-01,0.000000000000000000e+00
6.490000000000000000e+02,1.090174408061908851e-01,0.000000000000000000e+00
6.500000000000000000e+02,3.476594407567492606e-01,0.000000000000000000e+00
6.510000000000000000e+02,6.858678398232441742e-01,0.000000000000000000e+00
6.520000000000000000e+02,1.054947862166871309e+00,0.000000000000000000e+00
6.530000000000000000e+02,1.151937505921261540e+00,0.000000000000000000e+00
6.540000000000000000e+02,1.036216683620481360e+00,0.000000000000000000e+00
6.550000000000000000e+02,6.271800806884323398e-01,0.000000000000000000e+00
6.560000000000000000e+02,-3.708435910255978851e-01,0.000000000000000000e+00
6.570000000000000000e+02,-1.181513717016108078e+00,0.000000000000000000e+00
6.580000000000000000e+02,-1.520167399858729507e+00,0.000000000000000000e+00
6.590000000000000000e+02,-1.740128009707575973e+00,0.000000000000000000e+00
6.600000000000000000e+02,-1.612619117133073710e+00,0.000000000000000000e+00
6.610000000000000000e+02,-1.547717203238280215e+00,0.000000000000000000e+00
6.620000000000000000e+02,-1.329818076064464449e+00,0.000000000000000000e+00
6.630000000000000000e+02,-1.251277535747289171e+00,0.000000000000000000e+00
6.640000000000000000e+02,-1.104570495730166968e+00,0.000000000000000000e+00
6.650000000000000000e+02,-1.043882155574433090e+00,0.000000000000000000e+00
6.660000000000000000e+02,-8.933706981183926477e-01,0.000000000000000000e+00
6.670000000000000000e+02,-7.573443241203279275e-01,0.000000000000000000e+00
6.680000000000000000e+02,-6.352506847901177034e-01,0.000000000000000000e+00
6.690000000000000000e+02,-6.286096771854832177e-01,0.000000000000000000e+00
6.700000000000000000e+02,-4.618474799440588918e-01,0.000000000000000000e+00
6.710000000000000000e+02,-4.224042362104510895e-01,0.000000000000000000e+00
6.720000000000000000e+02,-3.234906660737397743e-01,0.000000000000000000e+00
6.730000000000000000e+02,-2.046980521701119160e-01,0.000000000000000000e+00
6.740000000000000000e+02,-3.455480446678407813e-01,0.000000000000000000e+00
6.750000000000000000e+02,-1.042250303013254609e-01,0.000000000000000000e+00
6.760000000000000000e+02,-1.004971466249817841e-01,0.000000000000000000e+00
6.770000000000000000e+02,-6.848182072242663121e-02,0.000000000000000000e+00
6.780000000000000000e+02,-1.911632377902621610e-02,0.000000000000000000e+00
6.790000000000000000e+02,3.485433999841507091e-02,0.000000000000000000e+00
6.800000000000000000e+02,1.875741460906260871e-01,0.000000000000000000e+00
6.810000000000000000e+02,9.485873801761407487e-02,0.000000000000000000e+00
6.820000000000000000e+02,2.096020351368740042e-01,0.000000000000000000e+00
6.830000000000000000e+02,1.688133586477126857e-01,0.000000000000000000e+00
6.840000000000000000e+02,3.935765792672660246e-01,0.000000000000000000e+00
6.850000000000000000e+02,2.394432067018402721e-01,0.000000000000000000e+00
6.860000000000000000e+02,3.288630911550420866e-01,0.000000000000000000e+00
6.870000000000000000e+02,3.368996384898513829e-01,0.000000000000000000e+00
6.880000000000000000e+02,3.750459926423614365e-01,0.000000000000000000e+00
6.890000000000000000e+02,3.785970145230515560e-01,0.000000000000000000e+00
6.900000000000000000e+02,3.510294019881996519e-01,0.000000000000000000e+00
6.910000000000000000e+02,3.578297341071854931e-01,0.000000000000000000e+00
6.920000000000000000e+02,5.057406151812404715e-01,0.000000000000000000e+00
6.930000000000000000e+02,5.459776321534126620e-01,0.000000000000000000e+00
6.940000000000000000e+02,5.283634745711232039e-01,0.000000000000000000e+00
6.950000000000000000e+02,4.913837584105864020e-01,0.000000000000000000e+00
6.960000000000000000e+02,5.739885063342949900e-01,0.000000000000000000e+00
6.970000000000000000e+02,4.757719516429965156e-01,0.000000000000000000e+00
6.980000000000000000e+02,2.811889188340053747e-01,0.000000000000000000e+00
6.990000000000000000e+02,1.613881740084698868e-01,0.000000000000000000e+00
7.000000000000000000e+02,2.093644759098750863e-01,0.000000000000000000e+00
7.010000000000000000e+02,2.627146762058617524e-01,0.000000000000000000e+00
7.020000000000000000e+02,-3.565534905654962200e-02,0.000000000000000000e+00
7.030000000000000000e+02,1.461064164763988260e-01,0.000000000000000000e+00
7.040000000000000000e+02,4.212844720934143083e+00,0.000000000000000000e+00
7.050000000000000000e+02,4.347360880428542629e+00,0.000000000000000000e+00
7.060000000000000000e+02,1.033220072035198500e+00,1.000000000000000000e+00
7.070000000000000000e+02,-6.494354008066380857e-01,0.000000000000000000e+00
7.080000000000000000e+02,-8.791143038484193761e-01,0.000000000000000000e+00
7.090000000000000000e+02,-8.946209286238684388e-01,0.000000000000000000e+00
7.100000000000000000e+02,-7.279189664722396369e-01,0.000000000000000000e+00
7.110000000000000000e+02,-5.931906102409538750e-01,0.000000000000000000e+00
7.120000000000000000e+02,-4.634184635406470854e-01,0.000000000000000000e+00
7.130000000000000000e+02,-4.211051481716382994e-01,0.000000000000000000e+00
7.140000000000000000e+02,-2.920653923076375058e-01,0.000000000000000000e+00
7.150000000000000000e+02,-1.988733206004627829e-01,0.000000000000000000e+00
7.160000000000000000e+02,1.223006701124497442e-03,0.000000000000000000e+00
7.170000000000000000e+02,2.146863366442075816e-01,0.000000000000000000e+00
7.180000000000000000e+02,4.017320973804658912e-01,0.000000000000000000e+00
7.190000000000000000e+02,7.999335390109861832e-01,0.000000000000000000e+00
7.200000000000000000e+02,1.155901961702516578e+00,0.000000000000000000e+00
7.210000000000000000e+02,1.225482471783635896e+00,0.000000000000000000e+00
7.220000000000000000e+02,1.351739622447818201e+00,0.000000000000000000e+00
7.230000000000000000e+02,7.061426596037124748e-01,0.000000000000000000e+00
7.240000000000000000e+02,-1.514707031131727610e-01,0.000000000000000000e+00
7.250000000000000000e+02,-1.021662520412971453e+00,0.000000000000000000e+00
7.260000000000000000e+02,-1.363340348451874906e+00,0.000000000000000000e+00
7.270000000000000000e+02,-1.637276461063667199e+00,0.000000000000000000e+00
7.280000000000000000e+02,-1.497871046177417176e+00,0.000000000000000000e+00
7.290000000000000000e+02,-1.460286785424310230e+00,0.000000000000000000e+00
7.300000000000000000e+02,-1.351682158790498578e+00,0.000000000000000000e+00
7.310000000000000000e+02,-1.186310761342164177e+00,0.000000000000000000e+00
7.320000000000000000e+02,-1.155970077422596276e+00,0.000000000000000000e+00
7.330000000000000000e+02,-1.043450780555901014e+00,0.000000000000000000e+00
7.340000000000000000e+02,-7.775417763825578366e-01,0.000000000000000000e+00
7.350000000000000000e+02,-7.925279309739918787e-01,0.000000000000000000e+00
7.360000000000000000e+02,-5.989484792624398812e-01,0.000000000000000000e+00
7.370000000000000000e+02,-4.722579050693372915e-01,0.000000000000000000e+00
7.380000000000000000e+02,-5.447762152781925327e-01,0.000000000000000000e+00
7.390000000000000000e+02,-2.936191522976622781e-01,0.000000000000000000e+00
7.400000000000000000e+02,-2.499571744455237610e-01,0.000000000000000000e+00
7.410000000000000000e+02,-2.065400997147720796e-01,0.000000000000000000e+00
7.420000000000000000e+02,-1.933016637151516726e-01,0.000000000000000000e+00
7.430000000000000000e+02,-1.847118027081276204e-01,0.000000000000000000e+00
7.440000000000000000e+02,-4.096045147984403445e-02,0.000000000000000000e+00
7.450000000000000000e+02,8.174066713471299372e-02,0.000000000000000000e+00
7.460000000000000000e+02,5.331601864756835285e-02,0.000000000000000000e+00
7.470000000000000000e+02,1.980827159103222546e-01,0.000000000000000000e+00
7.480000000000000000e+02,5.522299097303191850e-02,0.000000000000000000e+00
7.490000000000000000e+02,1.193531659050719174e-01,0.000000000000000000e+00
7.500000000000000000e+02,2.378729228125798512e-01,0.000000000000000000e+00
7.510000000000000000e+02,2.342310781246931262e-01,0.000000000000000000e+00
7.520000000000000000e+02,3.641326782572926191e-01,0.000000000000000000e+00
7.530000000000000000e+02,2.050399476898948081e-01,0.000000000000000000e+00
7.540000000000000000e+02,1.255515452119396191e-01,0.000000000000000000e+00
7.550000000000000000e+02,2.763481469413269775e-01,0.000000000000000000e+00
7.560000000000000000e+02,2.832056068179264474e-01,0.000000000000000000e+00
7.570000000000000000e+02,3.876984884105117990e-01,0.000000000000000000e+00
7.580000000000000000e+02,3.074334167298444220e-01,0.000000000000000000e+00
7.590000000000000000e+02,2.201971716352581487e-01,0.000000000000000000e+00
7.600000000000000000e+02,4.402010686442167642e-01,0.000000000000000000e+00
7.610000000000000000e+02,5.436788495488562578e-01,0.000000000000000000e+00
7.620000000000000000e+02,5.144850059269429066e-01,0.000000000000000000e+00
7.630000000000000000e+02,4.595015883893370234e-01,0.000000000000000000e+00
7.640000000000000000e+02,3.766859116984899725e-01,0.000000000000000000e+00
7.650000000000000000e+02,5.862746493127237724e-01,0.000000000000000000e+00
7.660000000000000000e+02,2.442886618483306460e-01,0.000000000000000000e+00
7.670000000000000000e+02,2.203160545097777867e-01,0.000000000000000000e+00
7.680000000000000000e+02,1.286165614891787157e-01,0.000000000000000000e+00
7.690000000000000000e+02,1.395655863591244161e-01,0.000000000000000000e+00
7.700000000000000000e+02,1.141768797514216560e-01,0.000000000000000000e+00
7.710000000000000000e+02,-2.639007830950588773e-01,0.000000000000000000e+00
7.720000000000000000e+02,2.246328191851571177e+00,0.000000000000000000e+00
7.730000000000000000e+02,4.862900145039136035e+00,0.000000000000000000e+00
7.740000000000000000e+02,2.584494637608265144e+00,1.000000000000000000e+00
7.750000000000000000e+02,-2.931234465177230408e-01,0.000000000000000000e+00
7.760000000000000000e+02,-7.049127740825256172e-01,0.000000000000000000e+00
7.770000000000000000e+02,-1.009641778398277845e+00,0.000000000000000000e+00
7.780000000000000000e+02,-7.515200844562986982e-01,0.000000000000000000e+00
7.790000000000000000e+02,-7.956622434483826556e-01,0.000000000000000000e+00
7.800000000000000000e+02,-7.047291569564448910e-01,0.000000000000000000e+00
7.810000000000000000e+02,-4.879213316840155801e-01,0.000000000000000000e+00
7.820000000000000000e+02,-4.094559296939370707e-01,0.000000000000000000e+00
7.830000000000000000e+02,-3.564188787929638558e-01,0.000000000000000000e+00
7.840000000000000000e+02,-1.659505670572197222e-01,0.000000000000000000e+00
7.850000000000000000e+02,-1.588317961758898417e-02,0.000000000000000000e+00
7.860000000000000000e+02,1.798359802494869097e-01,0.000000000000000000e+00
7.870000000000000000e+02,4.333737307861513788e-01,0.000000000000000000e+00
7.880000000000000000e+02,8.574649521775359329e-01,0.000000000000000000e+00
7.890000000000000000e+02,9.964995861295771196e-01,0.000000000000000000e+00
7.900000000000000000e+02,1.082242358886455369e+00,0.000000000000000000e+00
7.910000000000000000e+02,8.232720544235615501e-01,0.000000000000000000e+00
7.920000000000000000e+02,-4.666200671376019571e-03,0.000000000000000000e+00
7.930000000000000000e+02,-7.676881974737176373e-01,0.000000000000000000e+00
7.940000000000000000e+02,-1.501429204151055963e+00,0.000000000000000000e+00
7.950000000000000000e+02,-1.743092912888567270e+00,0.000000000000000000e+00
7.960000000000000000e+02,-1.623416329769842736e+00,0.000000000000000000e+00
7.970000000000000000e+02,-1.512721646262096042e+00,0.000000000000000000e+00
7.980000000000000000e+02,-1.374650856195044790e+00,0.000000000000000000e+00
7.990000000000000000e+02,-1.349472196921587264e+00,0.000000000000000000e+00
8.000000000000000000e+02,-1.200067612009971363e+00,0.000000000000000000e+00
8.010000000000000000e+02,-1.020941851400376299e+00,0.000000000000000000e+00
8.020000000000000000e+02,-8.279328418197210437e-01,0.000000000000000000e+00
8.030000000000000000e+02,-8.027151196009927325e-01,0.000000000000000000e+00
8.040000000000000000e+02,-6.518571184449348799e-01,0.000000000000000000e+00
8.050000000000000000e+02,-4.832283239963182098e-01,0.000000000000000000e+00
8.060000000000000000e+02,-5.276158734864289102e-01,0.000000000000000000e+00
8.070000000000000000e+02,-2.460836634547969304e-01,0.000000000000000000e+00
8.080000000000000000e+02,-2.989074634758719373e-01,0.000000000000000000e+00
8.090000000000000000e+02,-1.076838230447993983e-01,0.000000000000000000e+00
8.100000000000000000e+02,-2.241591918122805005e-01,0.000000000000000000e+00
8.110000000000000000e+02,-1.110722159074135490e-01,0.000000000000000000e+00
8.120000000000000000e+02,8.316367642641982888e-03,0.000000000000000000e+00
8.130000000000000000e+02,3.937965099118470591e-02,0.000000000000000000e+00
8.140000000000000000e+02,1.314584900969203440e-01,0.000000000000000000e+00
8.150000000000000000e+02,9.691123607676307983e-02,0.000000000000000000e+00
8.160000000000000000e+02,1.864157075896677174e-01,0.000000000000000000e+00
8.170000000000000000e+02,1.525933944109677809e-01,0.000000000000000000e+00
8.180000000000000000e+02,2.434318510606644781e-01,0.000000000000000000e+00
8.190000000000000000e+02,2.016431781273576584e-01,0.000000000000000000e+00
8.200000000000000000e+02,3.288657936435255835e-01,0.000000000000000000e+00
8.210000000000000000e+02,2.957693947432668558e-01,0.000000000000000000e+00
8.220000000000000000e+02,2.747704305907506805e-01,0.000000000000000000e+00
8.230000000000000000e+02,4.053248660005412396e-01,0.000000000000000000e+00
8.240000000000000000e+02,4.036488515769088847e-01,0.000000000000000000e+00
8.250000000000000000e+02,3.928266676198862162e-01,0.000000000000000000e+00
8.260000000000000000e+02,5.063233927336530105e-01,0.000000000000000000e+00
8.270000000000000000e+02,4.493664301520275961e-01,0.000000000000000000e+00
8.280000000000000000e+02,4.484711357140616084e-01,0.000000000000000000e+00
8.290000000000000000e+02,4.602744354584586972e-01,0.000000000000000000e+00
8.300000000000000000e+02,5.069095441784891021e-01,0.000000000000000000e+00
8.310000000000000000e+02,6.482375697873473674e-01,0.000000000000000000e+00
8.320000000000000000e+02,6.257697003656373935e-01,0.000000000000000000e+00
8.330000000000000000e+02,4.750746641124892200e-01,0.000000000000000000e+00
8.340000000000000000e+02,6.461891378055538704e-01,0.000000000000000000e+00
8.350000000000000000e+02,5.028762196137431806e-01,0.000000000000000000e+00
8.360000000000000000e+02,1.892744344555765679e-01,0.000000000000000000e+00
8.370000000000000000e+02,2.612057301830231215e-01,0.000000000000000000e+00
8.380000000000000000e+02,1.313522008479600378e-01,0.000000000000000000e+00
8.390000000000000000e+02,1.158871485797425133e-01,0.000000000000000000e+00
8.400000000000000000e+02,-5.444301047257740084e-02,0.000000000000000000e+00
8.410000000000000000e+02,-6.621801840812820139e-02,0.000000000000000000e+00
8.420000000000000000e+02,3.598641588212267095e+00,0.000000000000000000e+00
8.430000000000000000e+02,4.770178114249683965e+00,0.000000000000000000e+00
8.440000000000000000e+02,1.563555259069920433e+00,1.000000000000000000e+00
8.450000000000000000e+02,-7.655417543044972239e-01,0.000000000000000000e+00
8.460000000000000000e+02,-8.966205335693009371e-01,0.000000000000000000e+00
8.470000000000000000e+02,-9.503068065548451182e-01,0.000000000000000000e+00
8.480000000000000000e+02,-8.000101940864584593e-01,0.000000000000000000e+00
8.490000000000000000e+02,-7.574107739400037786e-01,0.000000000000000000e+00
8.500000000000000000e+02,-6.321856923929269900e-01,0.000000000000000000e+00
8.510000000000000000e+02,-6.079453610647542749e-01,0.000000000000000000e+00
8.520000000000000000e+02,-5.331290906833913157e-01,0.000000000000000000e+00
8.530000000000000000e+02,-3.452812451031910812e-01,0.000000000000000000e+00
8.540000000000000000e+02,-1.660808666875228656e-01,0.000000000000000000e+00
8.550000000000000000e+02,-5.548088003027259324e-02,0.000000000000000000e+00
8.560000000000000000e+02,1.955913496905399562e-01,0.000000000000000000e+00
8.570000000000000000e+02,5.458412082171939517e-01,0.000000000000000000e+00
8.580000000000000000e+02,8.731521542989966189e-01,0.000000000000000000e+00
8.590000000000000000e+02,1.049690840429001737e+00,0.000000000000000000e+00
8.600000000000000000e+02,1.050880075209932096e+00,0.000000000000000000e+00
8.610000000000000000e+02,6.432744435146928730e-01,0.000000000000000000e+00
8.620000000000000000e+02,-4.117890466337578714e-01,0.000000000000000000e+00
8.630000000000000000e+02,-1.097927601670202646e+00,0.000000000000000000e+00
8.640000000000000000e+02,-1.753507870770680377e+00,0.000000000000000000e+00
8.650000000000000000e+02,-1.741407746033037940e+00,0.000000000000000000e+00
8.660000000000000000e+02,-1.725761749695300162e+00,0.000000000000000000e+00
8.670000000000000000e+02,-1.560614668053767584e+00,0.000000000000000000e+00
8.680000000000000000e+02,-1.461503267719052035e+00,0.000000000000000000e+00
8.690000000000000000e+02,-1.291692842258068019e+00,0.000000000000000000e+00
8.700000000000000000e+02,-1.165093290948536531e+00,0.000000000000000000e+00
8.710000000000000000e+02,-1.010782078846746534e+00,0.000000000000000000e+00
8.720000000000000000e+02,-9.241332776371954383e-01,0.000000000000000000e+00
8.730000000000000000e+02,-8.091150868112753081e-01,0.000000000000000000e+00
8.740000000000000000e+02,-6.061322165763142200e-01,0.000000000000000000e+00
8.750000000000000000e+02,-5.265735905716075749e-01,0.000000000000000000e+00
8.760000000000000000e+02,-5.003013269638272309e-01,0.000000000000000000e+00
8.770000000000000000e+02,-3.133010376533475472e-01,0.000000000000000000e+00
8.780000000000000000e+02,-2.914217676911778354e-01,0.000000000000000000e+00
8.790000000000000000e+02,-2.559530423462424431e-01,0.000000000000000000e+00
8.800000000000000000e+02,-1.660546757629732528e-01,0.000000000000000000e+00
8.810000000000000000e+02,-1.459745030167278537e-02,0.000000000000000000e+00
8.820000000000000000e+02,-5.595081271595732375e-02,0.000000000000000000e+00
8.830000000000000000e+02,1.275332570789998732e-01,0.000000000000000000e+00
8.840000000000000000e+02,1.263440835341068103e-01,0.000000000000000000e+00
8.850000000000000000e+02,1.074947209220461775e-01,0.000000000000000000e+00
8.860000000000000000e+02,1.180740705475578356e-01,0.000000000000000000e+00
8.870000000000000000e+02,3.765971278959651114e-01,0.000000000000000000e+00
8.880000000000000000e+02,3.529251392311770208e-01,0.000000000000000000e+00
8.890000000000000000e+02,4.036712780193215666e-01,0.000000000000000000e+00
8.900000000000000000e+02,3.844017871999062530e-01,0.000000000000000000e+00
8.910000000000000000e+02,4.288735341363482667e-01,0.000000000000000000e+00
8.920000000000000000e+02,4.285916351399008395e-01,0.000000000000000000e+00
8.930000000000000000e+02,3.984594948132514358e-01,0.000000000000000000e+00
8.940000000000000000e+02,4.040552841106659909e-01,0.000000000000000000e+00
8.950000000000000000e+02,5.096349702432573237e-01,0.000000000000000000e+00
8.960000000000000000e+02,4.459572689520103217e-01,0.000000000000000000e+00
8.970000000000000000e+02,4.853944005767041880e-01,0.000000000000000000e+00
8.980000000000000000e+02,3.902349771380488330e-01,0.000000000000000000e+00
8.990000000000000000e+02,4.670866597014890487e-01,0.000000000000000000e+00
9.000000000000000000e+02,5.931122458774222839e-01,0.000000000000000000e+00
9.010000000000000000e+02,5.189476149616651934e-01,0.000000000000000000e+00
9.020000000000000000e+02,6.098036076389083959e-01,0.000000000000000000e+00
9.030000000000000000e+02,5.482579242641527628e-01,0.000000000000000000e+00
9.040000000000000000e+02,6.327291429883058482e-01,0.000000000000000000e+00
9.050000000000000000e+02,5.189997174689489068e-01,0.000000000000000000e+00
9.060000000000000000e+02,1.530237232536902359e-01,0.000000000000000000e+00
9.070000000000000000e+02,2.258159544914506156e-01,0.000000000000000000e+00
9.080000000000000000e+02,1.238749596348878573e-01,0.000000000000000000e+00
9.090000000000000000e+02,1.836637829414636269e-01,0.000000000000000000e+00
9.100000000000000000e+02,-9.769526220992325732e-03,0.000000000000000000e+00
9.110000000000000000e+02,-3.537159050861348741e-01,0.000000000000000000e+00
9.120000000000000000e+02,3.203371278115367371e+00,0.000000000000000000e+00
9.130000000000000000e+02,4.912446713802289366e+00,0.000000000000000000e+00
9.140000000000000000e+02,1.728420966591679653e+00,1.000000000000000000e+00
9.150000000000000000e+02,-5.839099330696092549e-01,0.000000000000000000e+00
9.160000000000000000e+02,-9.404565817968335573e-01,0.000000000000000000e+00
9.170000000000000000e+02,-9.269158572555490361e-01,0.000000000000000000e+00
9.180000000000000000e+02,-7.345637688832283851e-01,0.000000000000000000e+00
9.190000000000000000e+02,-7.973516661468493805e-01,0.000000000000000000e+00
9.200000000000000000e+02,-5.963431268155415799e-01,0.000000000000000000e+00
9.210000000000000000e+02,-4.873892542919962545e-01,0.000000000000000000e+00
9.220000000000000000e+02,-4.572488911105279663e-01,0.000000000000000000e+00
9.230000000000000000e+02,-2.389892490222517707e-01,0.000000000000000000e+00
9.240000000000000000e+02,-7.992664630007972892e-02,0.000000000000000000e+00
9.250000000000000000e+02,4.958041707772761070e-02,0.000000000000000000e+00
9.260000000000000000e+02,2.974570144624484325e-01,0.000000000000000000e+00
9.270000000000000000e+02,6.050138665860971265e-01,0.000000000000000000e+00
9.280000000000000000e+02,9.228610442226841126e-01,0.000000000000000000e+00
9.290000000000000000e+02,1.214280730055600888e+00,0.000000000000000000e+00
9.300000000000000000e+02,1.198656892401371410e+00,0.000000000000000000e+00
9.310000000000000000e+02,8.193580084116411921e-01,0.000000000000000000e+00
9.320000000000000000e+02,7.429602386024860942e-03,0.000000000000000000e+00
9.330000000000000000e+02,-1.067418951724292020e+00,0.000000000000000000e+00
9.340000000000000000e+02,-1.418717014367360640e+00,0.000000000000000000e+00
9.350000000000000000e+02,-1.755628853257462652e+00,0.000000000000000000e+00
9.360000000000000000e+02,-1.607152548532192249e+00,0.000000000000000000e+00
9.370000000000000000e+02,-1.533285866240430950e+00,0.000000000000000000e+00
9.380000000000000000e+02,-1.437691459728608789e+00,0.000000000000000000e+00
9.390000000000000000e+02,-1.411700043138116811e+00,0.000000000000000000e+00
9.400000000000000000e+02,-1.176582590066338252e+00,0.000000000000000000e+00
9.410000000000000000e+02,-9.908899509662507654e-01,0.000000000000000000e+00
9.420000000000000000e+02,-9.217576571096989246e-01,0.000000000000000000e+00
9.430000000000000000e+02,-8.324442594042401611e-01,0.000000000000000000e+00
9.440000000000000000e+02,-6.928791985935355280e-01,0.000000000000000000e+00
9.450000000000000000e+02,-6.177504487641414244e-01,0.000000000000000000e+00
9.460000000000000000e+02,-5.890937888977744175e-01,0.000000000000000000e+00
9.470000000000000000e+02,-3.916229647973255013e-01,0.000000000000000000e+00
9.480000000000000000e+02,-4.398811975547539110e-01,0.000000000000000000e+00
9.490000000000000000e+02,-2.716913479835838530e-01,0.000000000000000000e+00
9.500000000000000000e+02,-2.553371339846255972e-01,0.000000000000000000e+00
9.510000000000000000e+02,-1.765328942635468468e-01,0.000000000000000000e+00
9.520000000000000000e+02,-1.066165312433248052e-01,0.000000000000000000e+00
9.530000000000000000e+02,-1.690989187911551631e-02,0.000000000000000000e+00
9.540000000000000000e+02,-2.409976042701510862e-02,0.000000000000000000e+00
9.550000000000000000e+02,8.293833395700536681e-02,0.000000000000000000e+00
9.560000000000000000e+02,5.014356917420029897e-02,0.000000000000000000e+00
9.570000000000000000e+02,1.014469134075713097e-01,0.000000000000000000e+00
9.580000000000000000e+02,2.792524878109511333e-01,0.000000000000000000e+00
9.590000000000000000e+02,3.321625283383745075e-01,0.000000000000000000e+00
9.600000000000000000e+02,1.601333688272083833e-01,0.000000000000000000e+00
9.610000000000000000e+02,3.364887086640555580e-01,0.000000000000000000e+00
9.620000000000000000e+02,1.858759478576671176e-01,0.000000000000000000e+00
9.630000000000000000e+02,5.190363402163290507e-01,0.000000000000000000e+00
9.640000000000000000e+02,3.318174875961941162e-01,0.000000000000000000e+00
9.650000000000000000e+02,2.891240846920562491e-01,0.000000000000000000e+00
9.660000000000000000e+02,4.118390513654016649e-01,0.000000000000000000e+00
9.670000000000000000e+02,3.447715683854309932e-01,0.000000000000000000e+00
9.680000000000000000e+02,3.598581630586730196e-01,0.000000000000000000e+00
9.690000000000000000e+02,3.467650902546797198e-01,0.000000000000000000e+00
9.700000000000000000e+02,3.249043305843467566e-01,0.000000000000000000e+00
9.710000000000000000e+02,6.216566432543075837e-01,0.000000000000000000e+00
9.720000000000000000e+02,4.938470856626748229e-01,0.000000000000000000e+00
9.730000000000000000e+02,5.108013400785257341e-01,0.000000000000000000e+00
9.740000000000000000e+02,4.727533720643631310e-01,0.000000000000000000e+00
9.750000000000000000e+02,6.310591546096416815e-01,0.000000000000000000e+00
9.760000000000000000e+02,3.873915153887084184e-01,0.000000000000000000e+00
9.770000000000000000e+02,2.053084947401116744e-01,0.000000000000000000e+00
9.780000000000000000e+02,2.152101270575818570e-01,0.000000000000000000e+00
9.790000000000000000e+02,1.107361400365249188e-01,0.000000000000000000e+00
9.800000000000000000e+02,8.099344083016336848e-02,0.000000000000000000e+00
9.810000000000000000e+02,-1.821713456102587170e-01,0.000000000000000000e+00
9.820000000000000000e+02,4.977995509900928761e-01,0.000000000000000000e+00
9.830000000000000000e+02,4.739373483289802458e+00,0.000000000000000000e+00
9.840000000000000000e+02,3.814995707590774998e+00,0.000000000000000000e+00
9.850000000000000000e+02,8.737472089130894626e-02,1.000000000000000000e+00
9.860000000000000000e+02,-1.134953697536300821e+00,0.000000000000000000e+00
9.870000000000000000e+02,-8.997414149903871783e-01,0.000000000000000000e+00
9.880000000000000000e+02,-7.902957511008837921e-01,0.000000000000000000e+00
9.890000000000000000e+02,-5.510186895949297226e-01,0.000000000000000000e+00
9.900000000000000000e+02,-6.154215663576676487e-01,0.000000000000000000e+00
9.910000000000000000e+02,-3.910452383067479221e-01,0.000000000000000000e+00
9.920000000000000000e+02,-4.330884157901541132e-01,0.000000000000000000e+00
9.930000000000000000e+02,-2.556485814290125336e-01,0.000000000000000000e+00
9.940000000000000000e+02,-1.674850868627608957e-01,0.000000000000000000e+00
9.950000000000000000e+02,2.868416995263422392e-02,0.000000000000000000e+00
9.960000000000000000e+02,1.630974982303922127e-01,0.000000000000000000e+00
9.970000000000000000e+02,5.114881954950635246e-01,0.000000000000000000e+00
9.980000000000000000e+02,5.609464917920459204e-01,0.000000000000000000e+00
9.990000000000000000e+02,1.115371636665807076e+00,0.000000000000000000e+00
1.000000000000000000e+03,1.256992569833344175e+00,0.000000000000000000e+00
1.001000000000000000e+03,1.154159669077208905e+00,0.000000000000000000e+00
1.002000000000000000e+03,8.017650074200475263e-01,0.000000000000000000e+00
1.003000000000000000e+03,-2.725380074789934826e-01,0.000000000000000000e+00
1.004000000000000000e+03,-1.188205366377628636e+00,0.000000000000000000e+00
1.005000000000000000e+03,-1.649710900301443184e+00,0.000000000000000000e+00
1.006000000000000000e+03,-1.781424803331243867e+00,0.000000000000000000e+00
1.007000000000000000e+03,-1.634700219198720328e+00,0.000000000000000000e+00
1.008000000000000000e+03,-1.516399354161112933e+00,0.000000000000000000e+00
1.009000000000000000e+03,-1.430039071588606214e+00,0.000000000000000000e+00
1.010000000000000000e+03,-1.390687919186036403e+00,0.000000000000000000e+00
1.011000000000000000e+03,-1.121543890670576138e+00,0.000000000000000000e+00
1.012000000000000000e+03,-1.017331140101513931e+00,0.000000000000000000e+00
1.013000000000000000e+03,-8.505302115683192055e-01,0.000000000000000000e+00
1.014000000000000000e+03,-8.559815954271061678e-01,0.000000000000000000e+00
1.015000000000000000e+03,-6.361553480631828572e-01,0.000000000000000000e+00
1.016000000000000000e+03,-6.833704181174113934e-01,0.000000000000000000e+00
1.017000000000000000e+03,-5.490512249025134572e-01,0.000000000000000000e+00
1.018000000000000000e+03,-5.018954023718847912e-01,0.000000000000000000e+00
1.019000000000000000e+03,-4.157268867119371381e-01,0.000000000000000000e+00
1.020000000000000000e+03,-2.646543697489753266e-01,0.000000000000000000e+00
1.021000000000000000e+03,-1.724740416893860984e-01,0.000000000000000000e+00
1.022000000000000000e+03,-1.967983947197901595e-01,0.000000000000000000e+00
1.023000000000000000e+03,-2.217320055532803758e-02,0.000000000000000000e+00
1.024000000000000000e+03,-6.970532910498848178e-04,0.000000000000000000e+00
1.025000000000000000e+03,5.282732765660996810e-02,0.000000000000000000e+00
1.026000000000000000e+03,2.510010577710074520e-01,0.000000000000000000e+00
1.027000000000000000e+03,9.185453499777901376e-02,0.000000000000000000e+00
1.028000000000000000e+03,2.053825287370814323e-01,0.000000000000000000e+00
1.029000000000000000e+03,2.893688382888842670e-01,0.000000000000000000e+00
1.030000000000000000e+03,4.422790940484715994e-01,0.000000000000000000e+00
1.031000000000000000e+03,2.931548048445193899e-01,0.000000000000000000e+00
1.032000000000000000e+03,4.033215845225301410e-01,0.000000000000000000e+00
1.033000000000000000e+03,3.276187540192816994e-01,0.000000000000000000e+00
1.034000000000000000e+03,4.855542576099919905e-01,0.000000000000000000e+00
1.035000000000000000e+03,3.894669118660012974e-01,0.000000000000000000e+00
1.036000000000000000e+03,4.215290033745178744e-01,0.000000000000000000e+00
1.037000000000000000e+03,4.526473139996221029e-01,0.000000000000000000e+00
1.038000000000000000e+03,3.081493514596284067e-01,0.000000000000000000e+00
1.039000000000000000e+03,5.321158314420710855e-01,0.000000000000000000e+00
1.040000000000000000e+03,5.669564985824545600e-01,0.000000000000000000e+00
1.041000000000000000e+03,7.008222353174049513e-01,0.000000000000000000e+00
1.042000000000000000e+03,5.061047473234878691e-01,0.000000000000000000e+00
1.043000000000000000e+03,5.587129713082168436e-01,0.000000000000000000e+00
1.044000000000000000e+03,4.563761093852693462e-01,0.000000000000000000e+00
1.045000000000000000e+03,2.409354936084262544e-01,0.000000000000000000e+00
1.046000000000000000e+03,1.825926593335914505e-01,0.000000000000000000e+00
1.047000000000000000e+03,2.980701143682993881e-01,0.000000000000000000e+00
1.048000000000000000e+03,2.577899222257880041e-01,0.000000000000000000e+00
1.049000000000000000e+03,-1.395019968912517283e-01,0.000000000000000000e+00
1.050000000000000000e+03,6.356814508941451003e-02,0.000000000000000000e+00
1.051000000000000000e+03,4.016672687184017931e+00,0.000000000000000000e+00
1.052000000000000000e+03,3.629618330316764396e+00,0.000000000000000000e+00
1.053000000000000000e+03,-1.193262790065374862e-01,1.000000000000000000e+00
1.054000000000000000e+03,-1.185941512906230511e+00,0.000000000000000000e+00
1.055000000000000000e+03,-6.629845019995247446e-01,0.000000000000000000e+00
1.056000000000000000e+03,-5.249160787328986943e-01,0.000000000000000000e+00
1.057000000000000000e+03,-3.478299309561309616e-01,0.000000000000000000e+00
1.058000000000000000e+03,-4.423179617475198611e-01,0.000000000000000000e+00
1.059000000000000000e+03,-3.335256554352767910e-01,0.000000000000000000e+00
1.060000000000000000e+03,-1.842511835999896819e-01,0.000000000000000000e+00
1.061000000000000000e+03,-2.083305055174414222e-01,0.000000000000000000e+00
1.062000000000000000e+03,2.158553444002167185e-02,0.000000000000000000e+00
1.063000000000000000e+03,1.195379257750665558e-01,0.000000000000000000e+00
1.064000000000000000e+03,2.487125979056911407e-01,0.000000000000000000e+00
1.065000000000000000e+03,4.408629471728365279e-01,0.000000000000000000e+00
1.066000000000000000e+03,8.160289799762745488e-01,0.000000000000000000e+00
1.067000000000000000e+03,9.758465642700139275e-01,0.000000000000000000e+00
1.068000000000000000e+03,1.220833193450913789e+00,0.000000000000000000e+00
1.069000000000000000e+03,1.183839883578178931e+00,0.000000000000000000e+00
1.070000000000000000e+03,7.425235149282093383e-01,0.000000000000000000e+00
1.071000000000000000e+03,-2.495641366032023967e-02,0.000000000000000000e+00
1.072000000000000000e+03,-8.852353281516289751e-01,0.000000000000000000e+00
1.073000000000000000e+03,-1.447960385178725717e+00,0.000000000000000000e+00
1.074000000000000000e+03,-1.509058401400628080e+00,0.000000000000000000e+00
1.075000000000000000e+03,-1.531347913755882084e+00,0.000000000000000000e+00
1.076000000000000000e+03,-1.288664804839945388e+00,0.000000000000000000e+00
1.077000000000000000e+03,-1.311962382122939141e+00,0.000000000000000000e+00
1.078000000000000000e+03,-1.157746123502972457e+00,0.000000000000000000e+00
1.079000000000000000e+03,-1.168784577624286225e+00,0.000000000000000000e+00
1.080000000000000000e+03,-9.781338617252005596e-01,0.000000000000000000e+00
1.081000000000000000e+03,-7.028000509414908947e-01,0.000000000000000000e+00
1.082000000000000000e+03,-8.424495927549026097e-01,0.000000000000000000e+00
1.083000000000000000e+03,-7.519757268910752801e-01,0.000000000000000000e+00
1.084000000000000000e+03,-4.034069263655593596e-01,0.000000000000000000e+00
1.085000000000000000e+03,-5.450634498142549189e-01,0.000000000000000000e+00
1.086000000000000000e+03,-4.200224830610746474e-01,0.000000000000000000e+00
1.087000000000000000e+03,-5.603754172569892500e-01,0.000000000000000000e+00
1.088000000000000000e+03,-1.562002785237666669e-01,0.000000000000000000e+00
1.089000000000000000e+03,-2.460191153019002375e-01,0.000000000000000000e+00
1.090000000000000000e+03,-2.165637962054314525e-01,0.000000000000000000e+00
1.091000000000000000e+03,-2.021648088186533965e-01,0.000000000000000000e+00
1.092000000000000000e+03,-1.077766740263680009e-02,0.000000000000000000e+00
1.093000000000000000e+03,-2.162968417882901034e-02,0.000000000000000000e+00
1.094000000000000000e+03,-8.700723173804032762e-02,0.000000000000000000e+00
1.095000000000000000e+03,7.622497877674047628e-02,0.000000000000000000e+00
1.096000000000000000e+03,1.266124267419960481e-01,0.000000000000000000e+00
1.097000000000000000e+03,1.883957558911237840e-01,0.000000000000000000e+00
1.098000000000000000e+03,1.469184103432304711e-01,0.000000000000000000e+00
1.099000000000000000e+03,2.293336518261224477e-01,0.000000000000000000e+00
1.100000000000000000e+03,1.800254591421194816e-01,0.000000000000000000e+00
1.101000000000000000e+03,2.911015223260696727e-01,0.000000000000000000e+00
1.102000000000000000e+03,2.242632405415556640e-01,0.000000000000000000e+00
1.103000000000000000e+03,3.328624973953779320e-01,0.000000000000000000e+00
1.104000000000000000e+03,4.239879090203087508e-01,0.000000000000000000e+00
1.105000000000000000e+03,5.792481045538421247e-01,0.000000000000000000e+00
1.106000000000000000e+03,4.990364450565052956e-01,0.000000000000000000e+00
1.107000000000000000e+03,6.445915752989117564e-01,0.000000000000000000e+00
1.108000000000000000e+03,5.087150444402275262e-01,0.000000000000000000e+00
1.109000000000000000e+03,3.263477871972494948e-01,0.000000000000000000e+00
1.110000000000000000e+03,1.880056069979733901e-01,0.000000000000000000e+00
1.111000000000000000e+03,1.089445173876432832e-01,0.000000000000000000e+00
1.112000000000000000e+03,1.487369499720904709e-01,0.000000000000000000e+00
1.113000000000000000e+03,1.659344729986711453e-02,0.000000000000000000e+00
1.114000000000000000e+03,-8.095932483378052991e-02,0.000000000000000000e+00
1.115000000000000000e+03,3.425406203674718597e+00,0.000000000000000000e+00
1.116000000000000000e+03,4.111769852562555450e+00,0.000000000000000000e+00
1.117000000000000000e+03,6.260433299282739394e-01,1.000000000000000000e+00
1.118000000000000000e+03,-8.805797536378188184e-01,0.000000000000000000e+00
1.119000000000000000e+03,-7.054034530100273814e-01,0.000000000000000000e+00
1.120000000000000000e+03,-5.732560016861172336e-01,0.000000000000000000e+00
1.121000000000000000e+03,-3.499104777779664666e-01,0.000000000000000000e+00
1.122000000000000000e+03,-5.519497780773887641e-01,0.000000000000000000e+00
1.123000000000000000e+03,-2.722076125267162139e-01,0.000000000000000000e+00
1.124000000000000000e+03,-2.334623416066532453e-01,0.000000000000000000e+00
1.125000000000000000e+03,-2.630510756749646073e-01,0.000000000000000000e+00
1.126000000000000000e+03,7.031342257428065123e-02,0.000000000000000000e+00
1.127000000000000000e+03,7.908638462414477321e-02,0.000000000000000000e+00
1.128000000000000000e+03,3.319892642521706794e-01,0.000000000000000000e+00
1.129000000000000000e+03,2.828170521038811391e-01,0.000000000000000000e+00
1.130000000000000000e+03,8.413120067962298609e-01,0.000000000000000000e+00
1.131000000000000000e+03,9.714588669453330105e-01,0.000000000000000000e+00
1.132000000000000000e+03,1.156187546895143914e+00,0.000000000000000000e+00
1.133000000000000000e+03,1.144115985172895922e+00,0.000000000000000000e+00
1.134000000000000000e+03,8.035022249091416935e-01,0.000000000000000000e+00
1.135000000000000000e+03,-5.870488523608116682e-02,0.000000000000000000e+00
1.136000000000000000e+03,-8.346221284646768712e-01,0.000000000000000000e+00
1.137000000000000000e+03,-1.272479153185694267e+00,0.000000000000000000e+00
1.138000000000000000e+03,-1.423169795816939809e+00,0.000000000000000000e+00
1.139000000000000000e+03,-1.352704704909973854e+00,0.000000000000000000e+00
1.140000000000000000e+03,-1.313946953859479461e+00,0.000000000000000000e+00
1.141000000000000000e+03,-1.218054148945492798e+00,0.000000000000000000e+00
1.142000000000000000e+03,-1.036817919114264130e+00,0.000000000000000000e+00
1.143000000000000000e+03,-9.116031626718987813e-01,0.000000000000000000e+00
1.144000000000000000e+03,-8.149623211378901333e-01,0.000000000000000000e+00
1.145000000000000000e+03,-7.728898704911298934e-01,0.000000000000000000e+00
1.146000000000000000e+03,-5.053893561617077701e-01,0.000000000000000000e+00
1.147000000000000000e+03,-5.784757297796927489e-01,0.000000000000000000e+00
1.148000000000000000e+03,-4.919282167803951666e-01,0.000000000000000000e+00
1.149000000000000000e+03,-4.507895688874705153e-01,0.000000000000000000e+00
1.150000000000000000e+03,-5.096783182915465282e-01,0.000000000000000000e+00
1.151000000000000000e+03,-3.386029341682292859e-01,0.000000000000000000e+00
1.152000000000000000e+03,-1.444088056996628289e-01,0.000000000000000000e+00
1.153000000000000000e+03,-2.697033810007451460e-01,0.000000000000000000e+00
1.154000000000000000e+03,-1.746128680409816392e-01,0.000000000000000000e+00
1.155000000000000000e+03,-9.949771527915848846e-02,0.000000000000000000e+00
1.156000000000000000e+03,-2.474323184878790896e-02,0.000000000000000000e+00
1.157000000000000000e+03,4.880523122621858306e-02,0.000000000000000000e+00
1.158000000000000000e+03,7.324188810806962768e-02,0.000000000000000000e+00
1.159000000000000000e+03,8.922349049102036578e-02,0.000000000000000000e+00
1.160000000000000000e+03,6.836156416802130487e-02,0.000000000000000000e+00
1.161000000000000000e+03,3.255606729948181122e-01,0.000000000000000000e+00
1.162000000000000000e+03,1.575690500012545681e-01,0.000000000000000000e+00
1.163000000000000000e+03,2.273676067345228591e-01,0.000000000000000000e+00
1.164000000000000000e+03,2.858299862120314283e-01,0.000000000000000000e+00
1.165000000000000000e+03,1.209979713734437023e-01,0.000000000000000000e+00
1.166000000000000000e+03,3.346640493728653132e-01,0.000000000000000000e+00
1.167000000000000000e+03,3.227439397230107976e-01,0.000000000000000000e+00
1.168000000000000000e+03,1.757260194956509758e-01,0.000000000000000000e+00
1.169000000000000000e+03,2.891758771122825422e-01,0.000000000000000000e+00
1.170000000000000000e+03,1.715644886391054225e-01,0.000000000000000000e+00
1.171000000000000000e+03,3.276363052392769482e-01,0.000000000000000000e+00
1.172000000000000000e+03,3.831291719781398930e-01,0.000000000000000000e+00
1.173000000000000000e+03,1.825515589268004446e-01,0.000000000000000000e+00
1.174000000000000000e+03,2.896013868164198923e-01,0.000000000000000000e+00
1.175000000000000000e+03,3.195284723547683337e-01,0.000000000000000000e+00
1.176000000000000000e+03,3.200201370937793555e-01,0.000000000000000000e+00
1.177000000000000000e+03,3.443010598041114090e-01,0.000000000000000000e+00
1.178000000000000000e+03,5.554313561174114566e-01,0.000000000000000000e+00
1.179000000000000000e+03,3.961700592491793071e-01,0.000000000000000000e+00
1.180000000000000000e+03,5.290412529383938800e-01,0.000000000000000000e+00
1.181000000000000000e+03,4.413989913401482057e-01,0.000000000000000000e+00
1.182000000000000000e+03,1.317235194098209383e-01,0.000000000000000000e+00
1.183000000000000000e+03,2.365052495442744596e-01,0.000000000000000000e+00
1.184000000000000000e+03,3.639497462060339861e-02,0.000000000000000000e+00
1.185000000000000000e+03,2.988469404072205959e-01,0.000000000000000000e+00
1.186000000000000000e+03,-1.557103296573264239e-01,0.000000000000000000e+00
1.187000000000000000e+03,3.642573181588975584e-01,0.000000000000000000e+00
1.188000000000000000e+03,3.804958842803520813e+00,0.000000000000000000e+00
1.189000000000000000e+03,3.718237129515628236e+00,0.000000000000000000e+00
1.190000000000000000e+03,3.869298184282183306e-01,1.000000000000000000e+00
1.191000000000000000e+03,-8.032409327238557717e-01,0.000000000000000000e+00
1.192000000000000000e+03,-8.541546994904980483e-01,0.000000000000000000e+00
1.193000000000000000e+03,-6.606148686811635917e-01,0.000000000000000000e+00
1.194000000000000000e+03,-6.416342160462938926e-01,0.000000000000000000e+00
1.195000000000000000e+03,-4.971840734388604521e-01,0.000000000000000000e+00
1.196000000000000000e+03,-4.904353911778950303e-01,0.000000000000000000e+00
1.197000000000000000e+03,-3.157737616590251539e-01,0.000000000000000000e+00
1.198000000000000000e+03,-1.640197125372846731e-01,0.000000000000000000e+00
1.199000000000000000e+03,-2.557971155968022936e-01,0.000000000000000000e+00
1.200000000000000000e+03,-8.073615084406891851e-02,0.000000000000000000e+00
1.201000000000000000e+03,1.687173686320952992e-01,0.000000000000000000e+00
1.202000000000000000e+03,3.211111129871281333e-01,0.000000000000000000e+00
1.203000000000000000e+03,6.953025227799203289e-01,0.000000000000000000e+00
1.204000000000000000e+03,1.015011626782306831e+00,0.000000000000000000e+00
1.205000000000000000e+03,1.063600252474533381e+00,0.000000000000000000e+00
1.206000000000000000e+03,1.091125004386152231e+00,0.000000000000000000e+00
1.207000000000000000e+03,6.544860307410759193e-01,0.000000000000000000e+00
1.208000000000000000e+03,-1.536296534459210272e-01,0.000000000000000000e+00
1.209000000000000000e+03,-1.113331629923656863e+00,0.000000000000000000e+00
1.210000000000000000e+03,-1.478663930201396859e+00,0.000000000000000000e+00
1.211000000000000000e+03,-1.757404782396211118e+00,0.000000000000000000e+00
1.212000000000000000e+03,-1.554178775983205085e+00,0.000000000000000000e+00
1.213000000000000000e+03,-1.557081775890210684e+00,0.000000000000000000e+00
1.214000000000000000e+03,-1.457800252743075120e+00,0.000000000000000000e+00
1.215000000000000000e+03,-1.324651570978187198e+00,0.000000000000000000e+00
1.216000000000000000e+03,-1.138634415266841282e+00,0.000000000000000000e+00
1.217000000000000000e+03,-1.075614778328346288e+00,0.000000000000000000e+00
1.218000000000000000e+03,-8.273134959898597041e-01,0.000000000000000000e+00
1.219000000000000000e+03,-8.633955722680133338e-01,0.000000000000000000e+00
1.220000000000000000e+03,-8.126647071997786798e-01,0.000000000000000000e+00
1.221000000000000000e+03,-7.051747202671159176e-01,0.000000000000000000e+00
1.222000000000000000e+03,-5.840896324958081420e-01,0.000000000000000000e+00
1.223000000000000000e+03,-4.627822197267967841e-01,0.000000000000000000e+00
1.224000000000000000e+03,-4.331914466391333374e-01,0.000000000000000000e+00
1.225000000000000000e+03,-3.922072141667757306e-01,0.000000000000000000e+00
1.226000000000000000e+03,-3.339864866366808460e-01,0.000000000000000000e+00
1.227000000000000000e+03,-1.550634092853408474e-01,0.000000000000000000e+00
1.228000000000000000e+03,-1.568517495891961766e-01,0.000000000000000000e+00
1.229000000000000000e+03,-5.931911537073149276e-02,0.000000000000000000e+00
1.230000000000000000e+03,5.091698382690309534e-03,0.000000000000000000e+00
1.231000000000000000e+03,9.824784914337093833e-02,0.000000000000000000e+00
1.232000000000000000e+03,1.437982116398753285e-01,0.000000000000000000e+00
1.233000000000000000e+03,1.497670000025644876e-01,0.000000000000000000e+00
1.234000000000000000e+03,1.880655463239236103e-01,0.000000000000000000e+00
1.235000000000000000e+03,3.084566024073426282e-01,0.000000000000000000e+00
1.236000000000000000e+03,2.983259668490774175e-01,0.000000000000000000e+00
1.237000000000000000e+03,4.375680552066791296e-01,0.000000000000000000e+00
1.238000000000000000e+03,3.909881981356209679e-01,0.000000000000000000e+00
1.239000000000000000e+03,2.754181091546479276e-01,0.000000000000000000e+00
1.240000000000000000e+03,3.366463516867443384e-01,0.000000000000000000e+00
1.241000000000000000e+03,3.531628853789879341e-01,0.000000000000000000e+00
1.242000000000000000e+03,3.693573379909229626e-01,0.000000000000000000e+00
1.243000000000000000e+03,5.023827232358817341e-01,0.000000000000000000e+00
1.244000000000000000e+03,3.455151034635922658e-01,0.000000000000000000e+00
1.245000000000000000e+03,4.272417329101642069e-01,0.000000000000000000e+00
1.246000000000000000e+03,4.028461590366969602e-01,0.000000000000000000e+00
1.247000000000000000e+03,5.208308273788051501e-01,0.000000000000000000e+00
1.248000000000000000e+03,5.712387863967117729e-01,0.000000000000000000e+00
1.249000000000000000e+03,6.062956671371201312e-01,0.000000000000000000e+00
1.250000000000000000e+03,5.063871209723226352e-01,0.000000000000000000e+00
1.251000000000000000e+03,5.782326678087741367e-01,0.000000000000000000e+00
1.252000000000000000e+03,2.586361132590646594e-01,0.000000000000000000e+00
1.253000000000000000e+03,5.162981617423325481e-02,0.000000000000000000e+00
1.254000000000000000e+03,2.435856176106651894e-01,0.000000000000000000e+00
1.255000000000000000e+03,1.779943561208986169e-01,0.000000000000000000e+00
1.256000000000000000e+03,1.059601431397208943e-01,0.000000000000000000e+00
1.257000000000000000e+03,-2.310423481369568155e-01,0.000000000000000000e+00
1.258000000000000000e+03,3.302817942585342337e+00,0.000000000000000000e+00
1.259000000000000000e+03,4.666230200472207379e+00,0.000000000000000000e+00
1.260000000000000000e+03,1.674977390489767348e+00,1.000000000000000000e+00
1.261000000000000000e+03,-5.724574530736785682e-01,0.000000000000000000e+00
1.262000000000000000e+03,-9.148248927881603709e-01,0.000000000000000000e+00
1.263000000000000000e+03,-9.112003486071303948e-01,0.000000000000000000e+00
1.264000000000000000e+03,-7.854667534621538882e-01,0.000000000000000000e+00
1.265000000000000000e+03,-6.871046448533441042e-01,0.000000000000000000e+00
1.266000000000000000e+03,-6.568006880565948613e-01,0.000000000000000000e+00
1.267000000000000000e+03,-5.689924114719175918e-01,0.000000000000000000e+00
1.268000000000000000e+03,-3.741380884598441425e-01,0.000000000000000000e+00
1.269000000000000000e+03,-4.516904026215865509e-01,0.000000000000000000e+00
1.270000000000000000e+03,-3.357859883491031566e-02,0.000000000000000000e+00
1.271000000000000000e+03,2.318564487577978728e-02,0.000000000000000000e+00
1.272000000000000000e+03,2.444217860375292040e-01,0.000000000000000000e+00
1.273000000000000000e+03,5.563272347933362338e-01,0.000000000000000000e+00
1.274000000000000000e+03,7.576439067277896955e-01,0.000000000000000000e+00
1.275000000000000000e+03,1.238910566518886869e+00,0.000000000000000000e+00
1.276000000000000000e+03,1.121535559903861001e+00,0.000000000000000000e+00
1.277000000000000000e+03,8.369034951090167374e-01,0.000000000000000000e+00
1.278000000000000000e+03,-3.404240815346793597e-02,0.000000000000000000e+00
1.279000000000000000e+03,-1.008285641476005079e+00,0.000000000000000000e+00
1.280000000000000000e+03,-1.392024384403385051e+00,0.000000000000000000e+00
1.281000000000000000e+03,-1.500559457817942421e+00,0.000000000000000000e+00
1.282000000000000000e+03,-1.496358816282042925e+00,0.000000000000000000e+00
1.283000000000000000e+03,-1.386710753933991125e+00,0.000000000000000000e+00
1.284000000000000000e+03,-1.355886512204541594e+00,0.000000000000000000e+00
1.285000000000000000e+03,-1.120054549785715281e+00,0.000000000000000000e+00
1.286000000000000000e+03,-1.025776814384688151e+00,0.000000000000000000e+00
1.287000000000000000e+03,-8.837332192199333081e-01,0.000000000000000000e+00
1.288000000000000000e+03,-7.810010776710555325e-01,0.000000000000000000e+00
1.289000000000000000e+03,-6.976655927126396151e-01,0.000000000000000000e+00
1.290000000000000000e+03,-5.790824581941192983e-01,0.000000000000000000e+00
1.291000000000000000e+03,-6.433434606719381499e-01,0.000000000000000000e+00
1.292000000000000000e+03,-2.916396308537798077e-01,0.000000000000000000e+00
1.293000000000000000e+03,-2.897587337423698228e-01,0.000000000000000000e+00
1.294000000000000000e+03,-3.008763497198763126e-01,0.000000000000000000e+00
1.295000000000000000e+03,-2.249375309304672554e-01,0.000000000000000000e+00
1.296000000000000000e+03,-2.560933680761605657e-01,0.000000000000000000e+00
1.297000000000000000e+03,2.162996939105935393e-02,0.000000000000000000e+00
1.298000000000000000e+03,2.745366185251114921e-02,0.000000000000000000e+00
1.299000000000000000e+03,1.099625531744498688e-02,0.000000000000000000e+00
1.300000000000000000e+03,1.230369469672575738e-01,0.000000000000000000e+00
1.301000000000000000e+03,1.543288570511289481e-01,0.000000000000000000e+00
1.302000000000000000e+03,2.540644323336616051e-01,0.000000000000000000e+00
1.303000000000000000e+03,3.567649395422436420e-01,0.000000000000000000e+00
1.304000000000000000e+03,1.990499843565220750e-01,0.000000000000000000e+00
1.305000000000000000e+03,2.406746574759635049e-01,0.000000000000000000e+00
1.306000000000000000e+03,3.613629506302453165e-01,0.000000000000000000e+00
1.307000000000000000e+03,3.660546252812399426e-01,0.000000000000000000e+00
1.308000000000000000e+03,3.680219237278365418e-01,0.000000000000000000e+00
1.309000000000000000e+03,2.880089826333255831e-01,0.000000000000000000e+00
1.310000000000000000e+03,3.410642368394273261e-01,0.000000000000000000e+00
1.311000000000000000e+03,3.121595233450855655e-01,0.000000000000000000e+00
1.312000000000000000e+03,3.065142900693887951e-01,0.000000000000000000e+00
1.313000000000000000e+03,4.420210996551627858e-01,0.000000000000000000e+00
1.314000000000000000e+03,2.878747609521665196e-01,0.000000000000000000e+00
1.315000000000000000e+03,4.295869671518095512e-01,0.000000000000000000e+00
1.316000000000000000e+03,4.475253342251298561e-01,0.000000000000000000e+00
1.317000000000000000e+03,6.309760302232761964e-01,0.000000000000000000e+00
1.318000000000000000e+03,4.951626702309040451e-01,0.000000000000000000e+00
1.319000000000000000e+03,4.386699079550360758e-01,0.000000000000000000e+00
1.320000000000000000e+03,5.632253922284047309e-01,0.000000000000000000e+00
1.321000000000000000e+03,1.987877342406794423e-01,0.000000000000000000e+00
1.322000000000000000e+03,3.134593485809526042e-02,0.000000000000000000e+00
1.323000000000000000e+03,6.193315505582316916e-02,0.000000000000000000e+00
1.324000000000000000e+03,1.300108625597405365e-01,0.000000000000000000e+00
1.325000000000000000e+03,4.713991451654288289e-02,0.000000000000000000e+00
1.326000000000000000e+03,-4.361681736441833657e-01,0.000000000000000000e+00
1.327000000000000000e+03,2.063161206748635124e+00,0.000000000000000000e+00
1.328000000000000000e+03,4.703211597415071665e+00,0.000000000000000000e+00
1.329000000000000000e+03,2.549669734873856619e+00,1.000000000000000000e+00
1.330000000000000000e+03,-1.906429455352481594e-01,0.000000000000000000e+00
1.331000000000000000e+03,-8.966016830620403555e-01,0.000000000000000000e+00
1.332000000000000000e+03,-9.674863334827634720e-01,0.000000000000000000e+00
1.333000000000000000e+03,-8.556210136192968774e-01,0.000000000000000000e+00
1.334000000000000000e+03,-7.892313118871292499e-01,0.000000000000000000e+00
1.335000000000000000e+03,-6.879575539744861024e-01,0.000000000000000000e+00
1.336000000000000000e+03,-7.113032400032468505e-01,0.000000000000000000e+00
1.337000000000000000e+03,-3.779321982310301919e-01,0.000000000000000000e+00
1.338000000000000000e+03,-4.160321995571181208e-01,0.000000000000000000e+00
1.339000000000000000e+03,-2.931484878017627249e-01,0.000000000000000000e+00
1.340000000000000000e+03,-3.284153287108576569e-02,0.000000000000000000e+00
1.341000000000000000e+03,2.019223249520913088e-01,0.000000000000000000e+00
1.342000000000000000e+03,4.263180366954216760e-01,0.000000000000000000e+00
1.343000000000000000e+03,7.388360322131291014e-01,0.000000000000000000e+00
1.344000000000000000e+03,1.033672792116171024e+00,0.000000000000000000e+00
1.345000000000000000e+03,1.089988392102215098e+00,0.000000000000000000e+00
1.346000000000000000e+03,8.218320912441927639e-01,0.000000000000000000e+00
1.347000000000000000e+03,1.213096937800493130e-01,0.000000000000000000e+00
1.348000000000000000e+03,-8.980342692961401641e-01,0.000000000000000000e+00
1.349000000000000000e+03,-1.359194315873927472e+00,0.000000000000000000e+00
1.350000000000000000e+03,-1.672888508456676027e+00,0.000000000000000000e+00
1.351000000000000000e+03,-1.619201490123902465e+00,0.000000000000000000e+00
1.352000000000000000e+03,-1.497607312151545633e+00,0.000000000000000000e+00
1.353000000000000000e+03,-1.411814214958305724e+00,0.000000000000000000e+00
1.354000000000000000e+03,-1.210191332439194634e+00,0.000000000000000000e+00
1.355000000000000000e+03,-1.165285384248183842e+00,0.000000000000000000e+00
1.356000000000000000e+03,-1.056846541366972758e+00,0.000000000000000000e+00
1.357000000000000000e+03,-8.856818333196075921e-01,0.000000000000000000e+00
1.358000000000000000e+03,-9.200732262765071168e-01,0.000000000000000000e+00
1.359000000000000000e+03,-6.254291890440222268e-01,0.000000000000000000e+00
1.360000000000000000e+03,-4.338279112946939464e-01,0.000000000000000000e+00
1.361000000000000000e+03,-5.923528861917713995e-01,0.000000000000000000e+00
1.362000000000000000e+03,-3.524536131467815303e-01,0.000000000000000000e+00
1.363000000000000000e+03,-3.127217212600300611e-01,0.000000000000000000e+00
1.364000000000000000e+03,-3.522981757574870088e-01,0.000000000000000000e+00
1.365000000000000000e+03,-9.293533679882219622e-02,0.000000000000000000e+00
1.366000000000000000e+03,-1.134343439202853410e-01,0.000000000000000000e+00
1.367000000000000000e+03,8.525760926498074377e-02,0.000000000000000000e+00
1.368000000000000000e+03,6.596908577760031422e-02,0.000000000000000000e+00
1.369000000000000000e+03,9.514075636273065795e-02,0.000000000000000000e+00
1.370000000000000000e+03,1.581259447760652304e-01,0.000000000000000000e+00
1.371000000000000000e+03,1.651981980919181303e-01,0.000000000000000000e+00
1.372000000000000000e+03,3.271516740825287095e-01,0.000000000000000000e+00
1.373000000000000000e+03,4.516249720232663467e-01,0.000000000000000000e+00
1.374000000000000000e+03,2.172883880008627810e-01,0.000000000000000000e+00
1.375000000000000000e+03,4.142080619836545075e-01,0.000000000000000000e+00
1.376000000000000000e+03,4.165076410244771266e-01,0.000000000000000000e+00
1.377000000000000000e+03,4.678258281977398236e-01,0.000000000000000000e+00
1.378000000000000000e+03,3.689213153490270569e-01,0.000000000000000000e+00
1.379000000000000000e+03,4.831814248979828808e-01,0.000000000000000000e+00
1.380000000000000000e+03,3.590123439432091335e-01,0.000000000000000000e+00
1.381000000000000000e+03,4.602437011228170394e-01,0.000000000000000000e+00
1.382000000000000000e+03,4.480215467228373938e-01,0.000000000000000000e+00
1.383000000000000000e+03,4.742591866559903724e-01,0.000000000000000000e+00
1.384000000000000000e+03,3.417371681271973993e-01,0.000000000000000000e+00
1.385000000000000000e+03,5.381474771132135348e-01,0.000000000000000000e+00
1.386000000000000000e+03,5.296023973660042294e-01,0.000000000000000000e+00
1.387000000000000000e+03,5.578948355472636011e-01,0.000000000000000000e+00
1.388000000000000000e+03,5.629784333317762179e-01,0.000000000000000000e+00
1.389000000000000000e+03,5.229567371954658705e-01,0.000000000000000000e+00
1.390000000000000000e+03,5.382933185035574386e-01,0.000000000000000000e+00
1.391000000000000000e+03,6.004150066159131827e-01,0.000000000000000000e+00
1.392000000000000000e+03,9.148271485695122496e-02,0.000000000000000000e+00
1.393000000000000000e+03,2.914429935618416678e-01,0.000000000000000000e+00
1.394000000000000000e+03,4.845167366813298709e-02,0.000000000000000000e+00
1.395000000000000000e+03,2.801446468163756864e-01,0.000000000000000000e+00
1.396000000000000000e+03,-6.880707874967852133e-02,0.000000000000000000e+00
1.397000000000000000e+03,-1.412068763422412443e-01,0.000000000000000000e+00
1.398000000000000000e+03,3.309293022514352423e+00,0.000000000000000000e+00
1.399000000000000000e+03,4.646039513419022882e+00,0.000000000000000000e+00
1.400000000000000000e+03,1.531973851065961512e+00,1.000000000000000000e+00
1.401000000000000000e+03,-6.063345064860869993e-01,0.000000000000000000e+00
1.402000000000000000e+03,-1.024835082248372942e+00,0.000000000000000000e+00
1.403000000000000000e+03,-9.397115994883450396e-01,0.000000000000000000e+00
1.404000000000000000e+03,-8.656419069524607934e-01,0.000000000000000000e+00
1.405000000000000000e+03,-8.475667037193654885e-01,0.000000000000000000e+00
1.406000000000000000e+03,-6.338841359081411886e-01,0.000000000000000000e+00
1.407000000000000000e+03,-5.961371115710570878e-01,0.000000000000000000e+00
1.408000000000000000e+03,-5.016046972797987280e-01,0.000000000000000000e+00
1.409000000000000000e+03,-2.373867728937713029e-01,0.000000000000000000e+00
1.410000000000000000e+03,-1.970047785691741438e-01,0.000000000000000000e+00
1.411000000000000000e+03,2.955497326207403436e-02,0.000000000000000000e+00
1.412000000000000000e+03,1.245746866381684942e-01,0.000000000000000000e+00
1.413000000000000000e+03,6.314609335480433350e-01,0.000000000000000000e+00
1.414000000000000000e+03,9.364907389001996263e-01,0.000000000000000000e+00
1.415000000000000000e+03,1.128675160626116947e+00,0.000000000000000000e+00
1.416000000000000000e+03,1.188017703515984458e+00,0.000000000000000000e+00
1.417000000000000000e+03,6.748346490124091934e-01,0.000000000000000000e+00
1.418000000000000000e+03,-1.058929679419532005e-01,0.000000000000000000e+00
1.419000000000000000e+03,-1.090900992314917106e+00,0.000000000000000000e+00
1.420000000000000000e+03,-1.527844566486314504e+00,0.000000000000000000e+00
1.421000000000000000e+03,-1.686299987863806971e+00,0.000000000000000000e+00
1.422000000000000000e+03,-1.689513801258492709e+00,0.000000000000000000e+00
1.423000000000000000e+03,-1.544501702928484210e+00,0.000000000000000000e+00
1.424000000000000000e+03,-1.471045590357728194e+00,0.000000000000000000e+00
1.425000000000000000e+03,-1.169666262786080324e+00,0.000000000000000000e+00
1.426000000000000000e+03,-1.100835308180738492e+00,0.000000000000000000e+00
1.427000000000000000e+03,-1.022875581028368508e+00,0.000000000000000000e+00
1.428000000000000000e+03,-9.411877731210543940e-01,0.000000000000000000e+00
1.429000000000000000e+03,-7.651086225323930901e-01,0.000000000000000000e+00
1.430000000000000000e+03,-6.704152427012661786e-01,0.000000000000000000e+00
1.431000000000000000e+03,-6.893626865997509734e-01,0.000000000000000000e+00
1.432000000000000000e+03,-4.564453106471306754e-01,0.000000000000000000e+00
1.433000000000000000e+03,-3.067379847340457322e-01,0.000000000000000000e+00
1.434000000000000000e+03,-4.138078210144396918e-01,0.000000000000000000e+00
1.435000000000000000e+03,-3.550980851104364455e-01,0.000000000000000000e+00
1.436000000000000000e+03,-3.296670435881398631e-01,0.000000000000000000e+00
1.437000000000000000e+03,4.974631254662454510e-02,0.000000000000000000e+00
1.438000000000000000e+03,-3.106196266476466961e-01,0.000000000000000000e+00
1.439000000000000000e+03,1.491961153399027316e-02,0.000000000000000000e+00
1.440000000000000000e+03,-1.615555547048129481e-02,0.000000000000000000e+00
1.441000000000000000e+03,1.226164492144861951e-01,0.000000000000000000e+00
1.442000000000000000e+03,9.006718967386366514e-02,0.000000000000000000e+00
1.443000000000000000e+03,2.172736730291770502e-01,0.000000000000000000e+00
1.444000000000000000e+03,2.520283309933489257e-01,0.000000000000000000e+00
1.445000000000000000e+03,1.842325020297698179e-01,0.000000000000000000e+00
1.446000000000000000e+03,2.953851886349309064e-01,0.000000000000000000e+00
1.447000000000000000e+03,2.571014686260898463e-01,0.000000000000000000e+00
1.448000000000000000e+03,4.230278487036140400e-01,0.000000000000000000e+00
1.449000000000000000e+03,3.456140517002788681e-01,0.000000000000000000e+00
1.450000000000000000e+03,5.499053246314609122e-01,0.000000000000000000e+00
1.451000000000000000e+03,4.487283121022090371e-01,0.000000000000000000e+00
1.452000000000000000e+03,3.658212022362327676e-01,0.000000000000000000e+00
1.453000000000000000e+03,4.696506056823706032e-01,0.000000000000000000e+00
1.454000000000000000e+03,4.681167611174201215e-01,0.000000000000000000e+00
1.455000000000000000e+03,5.399594234694727879e-01,0.000000000000000000e+00
1.456000000000000000e+03,5.029230216955139499e-01,0.000000000000000000e+00
1.457000000000000000e+03,5.553106413987490830e-01,0.000000000000000000e+00
1.458000000000000000e+03,4.579374112057898460e-01,0.000000000000000000e+00
1.459000000000000000e+03,6.018125754987636578e-01,0.000000000000000000e+00
1.460000000000000000e+03,5.473720762767716463e-01,0.000000000000000000e+00
1.461000000000000000e+03,5.987998691109291949e-01,0.000000000000000000e+00
1.462000000000000000e+03,5.972767890136080338e-01,0.000000000000000000e+00
1.463000000000000000e+03,2.405458206729981230e-01,0.000000000000000000e+00
1.464000000000000000e+03,1.399535521478838529e-01,0.000000000000000000e+00
1.465000000000000000e+03,8.553604407925143038e-02,0.000000000000000000e+00
1.466000000000000000e+03,1.245674600869280807e-01,0.000000000000000000e+00
1.467000000000000000e+03,8.774724913027474871e-02,0.000000000000000000e+00
1.468000000000000000e+03,-5.662916869425924649e-01,0.000000000000000000e+00
1.469000000000000000e+03,1.973191590119234506e+00,0.000000000000000000e+00
1.470000000000000000e+03,4.847886719534946209e+00,0.000000000000000000e+00
1.471000000000000000e+03,2.787369934227375889e+00,1.000000000000000000e+00
1.472000000000000000e+03,-5.102702605886005882e-01,0.000000000000000000e+00
1.473000000000000000e+03,-9.091997830257625424e-01,0.000000000000000000e+00
1.474000000000000000e+03,-9.047778553236139887e-01,0.000000000000000000e+00
1.475000000000000000e+03,-9.608842015801017933e-01,0.000000000000000000e+00
1.476000000000000000e+03,-8.139867949902068744e-01,0.000000000000000000e+00
1.477000000000000000e+03,-6.732958032511074942e-01,0.000000000000000000e+00
1.478000000000000000e+03,-5.077982854243262567e-01,0.000000000000000000e+00
1.479000000000000000e+03,-4.586503016166318392e-01,0.000000000000000000e+00
1.480000000000000000e+03,-2.241518291458149403e-01,0.000000000000000000e+00
1.481000000000000000e+03,-2.456381145054720438e-01,0.000000000000000000e+00
1.482000000000000000e+03,2.575946451393243061e-02,0.000000000000000000e+00
1.483000000000000000e+03,1.125747732104530330e-01,0.000000000000000000e+00
1.484000000000000000e+03,4.590422199203442744e-01,0.000000000000000000e+00
1.485000000000000000e+03,9.325545055285102691e-01,0.000000000000000000e+00
1.486000000000000000e+03,1.078186096057409449e+00,0.000000000000000000e+00
1.487000000000000000e+03,1.181582286937004511e+00,0.000000000000000000e+00
1.488000000000000000e+03,9.794025046134965384e-01,0.000000000000000000e+00
1.489000000000000000e+03,1.767248425719385729e-01,0.000000000000000000e+00
1.490000000000000000e+03,-6.324836816395974504e-01,0.000000000000000000e+00
1.491000000000000000e+03,-1.487547241401771636e+00,0.000000000000000000e+00
1.492000000000000000e+03,-1.524388592572629264e+00,0.000000000000000000e+00
1.493000000000000000e+03,-1.764134359211011471e+00,0.000000000000000000e+00
1.494000000000000000e+03,-1.513433031520742489e+00,0.000000000000000000e+00
1.495000000000000000e+03,-1.490726956901657241e+00,0.000000000000000000e+00
1.496000000000000000e+03,-1.330855736535135225e+00,0.000000000000000000e+00
1.497000000000000000e+03,-1.240668954104691135e+00,0.000000000000000000e+00
1.498000000000000000e+03,-1.070181984190266222e+00,0.000000000000000000e+00
1.499000000000000000e+03,-9.927604379661648659e-01,0.000000000000000000e+00
1.500000000000000000e+03,-8.493080321436419222e-01,0.000000000000000000e+00
1.501000000000000000e+03,-6.471996346866767391e-01,0.000000000000000000e+00
1.502000000000000000e+03,-6.689285921969153614e-01,0.000000000000000000e+00
1.503000000000000000e+03,-4.225168674252696155e-01,0.000000000000000000e+00
1.504000000000000000e+03,-4.704112194054994034e-01,0.000000000000000000e+00
1.505000000000000000e+03,-4.581354797117073163e-01,0.000000000000000000e+00
1.506000000000000000e+03,-2.737571211079030120e-01,0.000000000000000000e+00
1.507000000000000000e+03,-2.323228213346952287e-01,0.000000000000000000e+00
1.508000000000000000e+03,-1.629891756270428760e-01,0.000000000000000000e+00
1.509000000000000000e+03,-1.192741168707360661e-01,0.000000000000000000e+00
1.510000000000000000e+03,7.801311194695695339e-02,0.000000000000000000e+00
1.511000000000000000e+03,4.730614273091034161e-02,0.000000000000000000e+00
1.512000000000000000e+03,1.211394560831450529e-01,0.000000000000000000e+00
1.513000000000000000e+03,2.048723944515417339e-01,0.000000000000000000e+00
1.514000000000000000e+03,2.555478213454522307e-01,0.000000000000000000e+00
1.515000000000000000e+03,3.630419924857918867e-01,0.000000000000000000e+00
1.516000000000000000e+03,3.189679406598871503e-01,0.000000000000000000e+00
1.517000000000000000e+03,3.864353532977899408e-01,0.000000000000000000e+00
1.518000000000000000e+03,4.178492801593496897e-01,0.000000000000000000e+00
1.519000000000000000e+03,3.223817088458371671e-01,0.000000000000000000e+00
1.520000000000000000e+03,4.897177613185496048e-01,0.000000000000000000e+00
1.521000000000000000e+03,4.779491367164677706e-01,0.000000000000000000e+00
1.522000000000000000e+03,4.743756826631490564e-01,0.000000000000000000e+00
1.523000000000000000e+03,3.324135561775303782e-01,0.000000000000000000e+00
1.524000000000000000e+03,4.146738208333425879e-01,0.000000000000000000e+00
1.525000000000000000e+03,5.041558633677021284e-01,0.000000000000000000e+00
1.526000000000000000e+03,5.678081187900040350e-01,0.000000000000000000e+00
1.527000000000000000e+03,3.735437063345066200e-01,0.000000000000000000e+00
1.528000000000000000e+03,5.510872280705975124e-01,0.000000000000000000e+00
1.529000000000000000e+03,3.127017048986829306e-01,0.000000000000000000e+00
1.530000000000000000e+03,6.368457267822382750e-01,0.000000000000000000e+00
1.531000000000000000e+03,5.387534709427561630e-01,0.000000000000000000e+00
1.532000000000000000e+03,4.992683799663208966e-01,0.000000000000000000e+00
1.533000000000000000e+03,6.526909374113654128e-01,0.000000000000000000e+00
1.534000000000000000e+03,3.804173082775205161e-01,0.000000000000000000e+00
1.535000000000000000e+03,1.745883201547773766e-01,0.000000000000000000e+00
1.536000000000000000e+03,-3.093512897121127730e-02,0.000000000000000000e+00
1.537000000000000000e+03,3.574067907294169871e-02,0.000000000000000000e+00
1.538000000000000000e+03,1.018687419244079378e-01,0.000000000000000000e+00
1.539000000000000000e+03,-8.413519582478050374e-02,0.000000000000000000e+00
1.540000000000000000e+03,-5.536033243402883608e-01,0.000000000000000000e+00
1.541000000000000000e+03,3.117181396891617329e+00,0.000000000000000000e+00
1.542000000000000000e+03,4.680687460738480965e+00,0.000000000000000000e+00
1.543000000000000000e+03,9.343647161689677683e-01,1.000000000000000000e+00
1.544000000000000000e+03,-1.138468072716766422e+00,0.000000000000000000e+00
1.545000000000000000e+03,-1.164907460041937126e+00,0.000000000000000000e+00
1.546000000000000000e+03,-9.029315825028828568e-01,0.000000000000000000e+00
1.547000000000000000e+03,-6.855934776165968358e-01,0.000000000000000000e+00
1.548000000000000000e+03,-6.997642029663986296e-01,0.000000000000000000e+00
1.549000000000000000e+03,-5.393945865371688742e-01,0.000000000000000000e+00
1.550000000000000000e+03,-3.830092391623342585e-01,0.000000000000000000e+00
1.551000000000000000e+03,-3.960270650724358465e-01,0.000000000000000000e+00
1.552000000000000000e+03,-2.062841258396433952e-01,0.000000000000000000e+00
1.553000000000000000e+03,-1.469076020295960738e-01,0.000000000000000000e+00
1.554000000000000000e+03,1.392426449974824010e-01,0.000000000000000000e+00
1.555000000000000000e+03,2.579165044192515133e-01,0.000000000000000000e+00
1.556000000000000000e+03,5.907907629704176600e-01,0.000000000000000000e+00
1.557000000000000000e+03,9.030576942774783955e-01,0.000000000000000000e+00
1.558000000000000000e+03,1.117138519822705511e+00,0.000000000000000000e+00
1.559000000000000000e+03,1.180635598005371767e+00,0.000000000000000000e+00
1.560000000000000000e+03,9.579054732180560805e-01,0.000000000000000000e+00
1.561000000000000000e+03,8.715567383476326146e-02,0.000000000000000000e+00
1.562000000000000000e+03,-7.783933447229086644e-01,0.000000000000000000e+00
1.563000000000000000e+03,-1.486584641388493555e+00,0.000000000000000000e+00
1.564000000000000000e+03,-1.750895114828419086e+00,0.000000000000000000e+00
1.565000000000000000e+03,-1.640053326274539813e+00,0.000000000000000000e+00
1.566000000000000000e+03,-1.807927408290606275e+00,0.000000000000000000e+00
1.567000000000000000e+03,-1.469193039104665477e+00,0.000000000000000000e+00
1.568000000000000000e+03,-1.503150606525111455e+00,0.000000000000000000e+00
1.569000000000000000e+03,-1.209331151091745715e+00,0.000000000000000000e+00
1.570000000000000000e+03,-1.080916350011565941e+00,0.000000000000000000e+00
1.571000000000000000e+03,-1.047376289267664795e+00,0.000000000000000000e+00
1.572000000000000000e+03,-7.047606302964677383e-01,0.000000000000000000e+00
1.573000000000000000e+03,-6.844290147887882592e-01,0.000000000000000000e+00
1.574000000000000000e+03,-6.457674988579221731e-01,0.000000000000000000e+00
1.575000000000000000e+03,-5.676040114100427969e-01,0.000000000000000000e+00
1.576000000000000000e+03,-3.260665187134719756e-01,0.000000000000000000e+00
1.577000000000000000e+03,-5.065689934214879786e-01,0.000000000000000000e+00
1.578000000000000000e+03,-1.245496171370232691e-01,0.000000000000000000e+00
1.579000000000000000e+03,-4.040146611069427851e-01,0.000000000000000000e+00
1.580000000000000000e+03,-9.202389509393546496e-02,0.000000000000000000e+00
1.581000000000000000e+03,-8.347033471491570322e-02,0.000000000000000000e+00
1.582000000000000000e+03,-4.234179165807000489e-02,0.000000000000000000e+00
1.583000000000000000e+03,2.313094617929221386e-01,0.000000000000000000e+00
1.584000000000000000e+03,3.446974656054896391e-02,0.000000000000000000e+00
1.585000000000000000e+03,2.287225880680757439e-01,0.000000000000000000e+00
1.586000000000000000e+03,9.898273349567486556e-02,0.000000000000000000e+00
1.587000000000000000e+03,3.814800997620759193e-01,0.000000000000000000e+00
1.588000000000000000e+03,3.008782686212209678e-01,0.000000000000000000e+00
