timestamp,ecg_measurement,qrs_detected
0.000000000000000000e+00,4.050322217220014287e-01,0.000000000000000000e+00
1.000000000000000000e+00,5.068101533602716868e-01,0.000000000000000000e+00
2.000000000000000000e+00,4.003756721240335770e-01,0.000000000000000000e+00
3.000000000000000000e+00,1.089794592207542073e-01,0.000000000000000000e+00
4.000000000000000000e+00,-2.539111426735022325e-01,0.000000000000000000e+00
5.000000000000000000e+00,9.890216897719163180e-02,0.000000000000000000e+00
6.000000000000000000e+00,-2.035526450559499712e-01,0.000000000000000000e+00
7.000000000000000000e+00,1.156560119065522807e-01,0.000000000000000000e+00
8.000000000000000000e+00,-7.396121195768318168e-01,0.000000000000000000e+00
9.000000000000000000e+00,2.807074587163842949e+00,0.000000000000000000e+00
1.000000000000000000e+01,1.770847956609978624e+00,0.000000000000000000e+00
1.100000000000000000e+01,-2.789420301524046852e+00,1.000000000000000000e+00
1.200000000000000000e+01,-3.245653445735727338e+00,0.000000000000000000e+00
1.300000000000000000e+01,-3.097344739284091819e+00,0.000000000000000000e+00
1.400000000000000000e+01,-2.743893233196481596e-01,0.000000000000000000e+00
1.500000000000000000e+01,9.241143352716499892e-01,0.000000000000000000e+00
1.600000000000000000e+01,1.110756484827018165e+00,0.000000000000000000e+00
1.700000000000000000e+01,9.601931230779267024e-01,0.000000000000000000e+00
1.800000000000000000e+01,9.861327088795162066e-01,0.000000000000000000e+00
1.900000000000000000e+01,8.676633792421379887e-01,0.000000000000000000e+00
2.000000000000000000e+01,9.679995702541238645e-01,0.000000000000000000e+00
2.100000000000000000e+01,9.759952093477064494e-01,0.000000000000000000e+00
2.200000000000000000e+01,8.839012846149054692e-01,0.000000000000000000e+00
2.300000000000000000e+01,9.512106083476760121e-01,0.000000000000000000e+00
2.400000000000000000e+01,1.273331606395830429e+00,0.000000000000000000e+00
2.500000000000000000e+01,1.038034273026701593e+00,0.000000000000000000e+00
2.600000000000000000e+01,1.522039640880189060e+00,0.000000000000000000e+00
2.700000000000000000e+01,1.421168129384044576e+00,0.000000000000000000e+00
2.800000000000000000e+01,1.667902599357228732e+00,0.000000000000000000e+00
2.900000000000000000e+01,1.447551363240648259e+00,0.000000000000000000e+00
3.000000000000000000e+01,1.113054679086994847e+00,0.000000000000000000e+00
3.100000000000000000e+01,6.260200658689546449e-01,0.000000000000000000e+00
3.200000000000000000e+01,-1.103416349865964097e-01,0.000000000000000000e+00
3.300000000000000000e+01,-6.925563219629522482e-01,0.000000000000000000e+00
3.400000000000000000e+01,-9.100210050772348236e-01,0.000000000000000000e+00
3.500000000000000000e+01,-1.089282605671751503e+00,0.000000000000000000e+00
3.600000000000000000e+01,-9.494637623337582877e-01,0.000000000000000000e+00
3.700000000000000000e+01,-1.093874078142834660e+00,0.000000000000000000e+00
3.800000000000000000e+01,-8.155187004894690617e-01,0.000000000000000000e+00
3.900000000000000000e+01,-8.943544078869100078e-01,0.000000000000000000e+00
4.000000000000000000e+01,-7.468234667486861600e-01,0.000000000000000000e+00
4.100000000000000000e+01,-7.907896532352014507e-01,0.000000000000000000e+00
4.200000000000000000e+01,-5.598246754547190340e-01,0.000000000000000000e+00
4.300000000000000000e+01,-5.558693008122402857e-01,0.000000000000000000e+00
4.400000000000000000e+01,-6.397052295195546634e-01,0.000000000000000000e+00
4.500000000000000000e+01,-4.568828705225524422e-01,0.000000000000000000e+00
4.600000000000000000e+01,-4.352538326015740755e-01,0.000000000000000000e+00
4.700000000000000000e+01,-4.787180869765775837e-01,0.000000000000000000e+00
4.800000000000000000e+01,-4.019815706661506449e-01,0.000000000000000000e+00
4.900000000000000000e+01,-4.021733401146562747e-01,0.000000000000000000e+00
5.000000000000000000e+01,-2.627686841456282618e-01,0.000000000000000000e+00
5.100000000000000000e+01,-4.385833535722406529e-01,0.000000000000000000e+00
5.200000000000000000e+01,-2.304992577626073791e-01,0.000000000000000000e+00
5.300000000000000000e+01,-2.681321553398313684e-01,0.000000000000000000e+00
5.400000000000000000e+01,-1.410199498993234268e-01,0.000000000000000000e+00
5.500000000000000000e+01,-1.749384625672842086e-01,0.000000000000000000e+00
5.600000000000000000e+01,-1.480659764523342692e-01,0.000000000000000000e+00
5.700000000000000000e+01,-5.511427743246392896e-02,0.000000000000000000e+00
5.800000000000000000e+01,-3.165098933934425152e-02,0.000000000000000000e+00
5.900000000000000000e+01,-2.877814598910209687e-02,0.000000000000000000e+00
6.000000000000000000e+01,6.328340039352611801e-02,0.000000000000000000e+00
6.100000000000000000e+01,2.878485213032883940e-03,0.000000000000000000e+00
6.200000000000000000e+01,7.138026820590288868e-02,0.000000000000000000e+00
6.300000000000000000e+01,4.213334480348863292e-02,0.000000000000000000e+00
6.400000000000000000e+01,1.660406902915098626e-01,0.000000000000000000e+00
6.500000000000000000e+01,1.730647348373554051e-01,0.000000000000000000e+00
6.600000000000000000e+01,3.495803791768373747e-01,0.000000000000000000e+00
6.700000000000000000e+01,4.019537032542785382e-01,0.000000000000000000e+00
6.800000000000000000e+01,6.325760170806207228e-01,0.000000000000000000e+00
6.900000000000000000e+01,1.418532528021583805e-01,0.000000000000000000e+00
7.000000000000000000e+01,-4.982360140099170720e-02,0.000000000000000000e+00
7.100000000000000000e+01,2.498879680091429037e-02,0.000000000000000000e+00
7.200000000000000000e+01,-4.320135026660049810e-02,0.000000000000000000e+00
7.300000000000000000e+01,1.472088947306697260e-01,0.000000000000000000e+00
7.400000000000000000e+01,-2.310063375818068587e-01,0.000000000000000000e+00
7.500000000000000000e+01,3.432191995158663800e-01,0.000000000000000000e+00
7.600000000000000000e+01,3.715394852322389863e+00,0.000000000000000000e+00
7.700000000000000000e+01,-3.951375294991009146e-01,1.000000000000000000e+00
7.800000000000000000e+01,-2.613258995913207539e+00,0.000000000000000000e+00
7.900000000000000000e+01,-2.703653181469215738e+00,0.000000000000000000e+00
8.000000000000000000e+01,-2.310859554733962096e+00,0.000000000000000000e+00
8.100000000000000000e+01,-1.261308748728482143e-01,0.000000000000000000e+00
8.200000000000000000e+01,8.544198985259383594e-01,0.000000000000000000e+00
8.300000000000000000e+01,8.807257184803051198e-01,0.000000000000000000e+00
8.400000000000000000e+01,9.326142497555767186e-01,0.000000000000000000e+00
8.500000000000000000e+01,9.447590248462601759e-01,0.000000000000000000e+00
8.600000000000000000e+01,8.326098431570292391e-01,0.000000000000000000e+00
8.700000000000000000e+01,9.380533133266334422e-01,0.000000000000000000e+00
8.800000000000000000e+01,9.157728692815227944e-01,0.000000000000000000e+00
8.900000000000000000e+01,8.990350407426951351e-01,0.000000000000000000e+00
9.000000000000000000e+01,9.667073685476527123e-01,0.000000000000000000e+00
9.100000000000000000e+01,9.666457095939480215e-01,0.000000000000000000e+00
9.200000000000000000e+01,1.197462904932707461e+00,0.000000000000000000e+00
9.300000000000000000e+01,1.282408697958119292e+00,0.000000000000000000e+00
9.400000000000000000e+01,1.340202402466584175e+00,0.000000000000000000e+00
9.500000000000000000e+01,1.324667807723347135e+00,0.000000000000000000e+00
9.600000000000000000e+01,1.209169150320860808e+00,0.000000000000000000e+00
9.700000000000000000e+01,8.307038684254786087e-01,0.000000000000000000e+00
9.800000000000000000e+01,1.406825594697541371e-01,0.000000000000000000e+00
9.900000000000000000e+01,-4.234571480422851253e-01,0.000000000000000000e+00
1.000000000000000000e+02,-9.564311365779362140e-01,0.000000000000000000e+00
1.010000000000000000e+02,-1.040550041780683221e+00,0.000000000000000000e+00
1.020000000000000000e+02,-1.113121402072308808e+00,0.000000000000000000e+00
1.030000000000000000e+02,-1.025902894292155976e+00,0.000000000000000000e+00
1.040000000000000000e+02,-9.430432923040547033e-01,0.000000000000000000e+00
1.050000000000000000e+02,-8.806382961975639523e-01,0.000000000000000000e+00
1.060000000000000000e+02,-7.436546184409230653e-01,0.000000000000000000e+00
1.070000000000000000e+02,-7.432736379683735350e-01,0.000000000000000000e+00
1.080000000000000000e+02,-6.860604161233436749e-01,0.000000000000000000e+00
1.090000000000000000e+02,-6.185939027925442257e-01,0.000000000000000000e+00
1.100000000000000000e+02,-6.539487342339947995e-01,0.000000000000000000e+00
1.110000000000000000e+02,-6.374276249424716267e-01,0.000000000000000000e+00
1.120000000000000000e+02,-4.916816339330191132e-01,0.000000000000000000e+00
1.130000000000000000e+02,-4.361482315150817524e-01,0.000000000000000000e+00
1.140000000000000000e+02,-5.535751216561801691e-01,0.000000000000000000e+00
1.150000000000000000e+02,-3.267765082448464975e-01,0.000000000000000000e+00
1.160000000000000000e+02,-4.585376883186879082e-01,0.000000000000000000e+00
1.170000000000000000e+02,-3.541312789834196728e-01,0.000000000000000000e+00
1.180000000000000000e+02,-3.141464616240778884e-01,0.000000000000000000e+00
1.190000000000000000e+02,-2.377012622899723482e-01,0.000000000000000000e+00
1.200000000000000000e+02,-1.332050409594647267e-01,0.000000000000000000e+00
1.210000000000000000e+02,-2.781556585098058920e-01,0.000000000000000000e+00
1.220000000000000000e+02,-1.903327223454217842e-01,0.000000000000000000e+00
1.230000000000000000e+02,-1.125424615157740865e-01,0.000000000000000000e+00
1.240000000000000000e+02,-3.188843288203421084e-02,0.000000000000000000e+00
1.250000000000000000e+02,-5.046623792804610237e-02,0.000000000000000000e+00
1.260000000000000000e+02,-5.404225487241583192e-02,0.000000000000000000e+00
1.270000000000000000e+02,-6.707849107363905196e-03,0.000000000000000000e+00
1.280000000000000000e+02,6.411790614229220808e-02,0.000000000000000000e+00
1.290000000000000000e+02,6.027078200228493110e-02,0.000000000000000000e+00
1.300000000000000000e+02,3.669786991110683405e-01,0.000000000000000000e+00
1.310000000000000000e+02,2.652868424258701952e-01,0.000000000000000000e+00
1.320000000000000000e+02,5.146137328799607058e-01,0.000000000000000000e+00
1.330000000000000000e+02,1.946721362250833920e-01,0.000000000000000000e+00
1.340000000000000000e+02,-5.007273175673350452e-02,0.000000000000000000e+00
1.350000000000000000e+02,-6.574245779756916763e-02,0.000000000000000000e+00
1.360000000000000000e+02,5.311331623803095675e-02,0.000000000000000000e+00
1.370000000000000000e+02,2.361776276837823998e-02,0.000000000000000000e+00
1.380000000000000000e+02,-3.974455443206786898e-01,0.000000000000000000e+00
1.390000000000000000e+02,3.057446437136774886e-01,0.000000000000000000e+00
1.400000000000000000e+02,3.602138765339146342e+00,0.000000000000000000e+00
1.410000000000000000e+02,-3.197965757706736634e-01,1.000000000000000000e+00
1.420000000000000000e+02,-2.522965360538715451e+00,0.000000000000000000e+00
1.430000000000000000e+02,-2.987948642357755702e+00,0.000000000000000000e+00
1.440000000000000000e+02,-2.294612874190307128e+00,0.000000000000000000e+00
1.450000000000000000e+02,5.821215625555494627e-02,0.000000000000000000e+00
1.460000000000000000e+02,8.218917085063853767e-01,0.000000000000000000e+00
1.470000000000000000e+02,9.801197385884496960e-01,0.000000000000000000e+00
1.480000000000000000e+02,8.669677464518460441e-01,0.000000000000000000e+00
1.490000000000000000e+02,8.699859475490672178e-01,0.000000000000000000e+00
1.500000000000000000e+02,7.476510772742850364e-01,0.000000000000000000e+00
1.510000000000000000e+02,8.622610699051939109e-01,0.000000000000000000e+00
1.520000000000000000e+02,8.063612050785345930e-01,0.000000000000000000e+00
1.530000000000000000e+02,7.891982661608413219e-01,0.000000000000000000e+00
1.540000000000000000e+02,8.372113395506515232e-01,0.000000000000000000e+00
1.550000000000000000e+02,9.639328833252682749e-01,0.000000000000000000e+00
1.560000000000000000e+02,1.197649392177152938e+00,0.000000000000000000e+00
1.570000000000000000e+02,1.219959331217206788e+00,0.000000000000000000e+00
1.580000000000000000e+02,1.385472036840788235e+00,0.000000000000000000e+00
1.590000000000000000e+02,1.294902890861476141e+00,0.000000000000000000e+00
1.600000000000000000e+02,1.279473334417934760e+00,0.000000000000000000e+00
1.610000000000000000e+02,7.584470031635932585e-01,0.000000000000000000e+00
1.620000000000000000e+02,2.894053148321541480e-01,0.000000000000000000e+00
1.630000000000000000e+02,-3.976407178519223984e-01,0.000000000000000000e+00
1.640000000000000000e+02,-7.527517143326667437e-01,0.000000000000000000e+00
1.650000000000000000e+02,-9.839814817651223455e-01,0.000000000000000000e+00
1.660000000000000000e+02,-9.284726599470968234e-01,0.000000000000000000e+00
1.670000000000000000e+02,-9.957226515186291538e-01,0.000000000000000000e+00
1.680000000000000000e+02,-8.532061368525143408e-01,0.000000000000000000e+00
1.690000000000000000e+02,-7.699085763587831810e-01,0.000000000000000000e+00
1.700000000000000000e+02,-6.622287665184153349e-01,0.000000000000000000e+00
1.710000000000000000e+02,-5.736835344623069100e-01,0.000000000000000000e+00
1.720000000000000000e+02,-5.120514512292421161e-01,0.000000000000000000e+00
1.730000000000000000e+02,-5.836251451159489845e-01,0.000000000000000000e+00
1.740000000000000000e+02,-4.543155874960930207e-01,0.000000000000000000e+00
1.750000000000000000e+02,-5.379232737779157114e-01,0.000000000000000000e+00
1.760000000000000000e+02,-3.554590951078950289e-01,0.000000000000000000e+00
1.770000000000000000e+02,-4.522230543082969567e-01,0.000000000000000000e+00
1.780000000000000000e+02,-3.346279401983277557e-01,0.000000000000000000e+00
1.790000000000000000e+02,-3.293988907208986183e-01,0.000000000000000000e+00
1.800000000000000000e+02,-3.189233948723142476e-01,0.000000000000000000e+00
1.810000000000000000e+02,-2.206754212857358066e-01,0.000000000000000000e+00
1.820000000000000000e+02,-2.264699531401619947e-01,0.000000000000000000e+00
1.830000000000000000e+02,-2.975698366317813814e-01,0.000000000000000000e+00
1.840000000000000000e+02,2.693107354846317747e-02,0.000000000000000000e+00
1.850000000000000000e+02,-1.579991519589054871e-01,0.000000000000000000e+00
1.860000000000000000e+02,-6.394318007929390701e-02,0.000000000000000000e+00
1.870000000000000000e+02,-1.141134059888975205e-01,0.000000000000000000e+00
1.880000000000000000e+02,-1.377082686506063934e-02,0.000000000000000000e+00
1.890000000000000000e+02,7.263281708339977549e-02,0.000000000000000000e+00
1.900000000000000000e+02,-8.656234021612028984e-02,0.000000000000000000e+00
1.910000000000000000e+02,4.136330202015583990e-02,0.000000000000000000e+00
1.920000000000000000e+02,1.758141828435803161e-02,0.000000000000000000e+00
1.930000000000000000e+02,-8.821161014652278629e-03,0.000000000000000000e+00
1.940000000000000000e+02,-1.818199764994875636e-02,0.000000000000000000e+00
1.950000000000000000e+02,-2.254108075012351692e-02,0.000000000000000000e+00
1.960000000000000000e+02,2.687514165865258486e-01,0.000000000000000000e+00
1.970000000000000000e+02,3.062844991620246593e-01,0.000000000000000000e+00
1.980000000000000000e+02,5.146464097361340695e-01,0.000000000000000000e+00
1.990000000000000000e+02,2.689318090221773372e-01,0.000000000000000000e+00
2.000000000000000000e+02,1.065717614908217314e-01,0.000000000000000000e+00
2.010000000000000000e+02,-8.426008319701495941e-02,0.000000000000000000e+00
2.020000000000000000e+02,2.004455224595630327e-03,0.000000000000000000e+00
2.030000000000000000e+02,-1.631572219224984299e-01,0.000000000000000000e+00
2.040000000000000000e+02,-1.863033998817915926e-01,0.000000000000000000e+00
2.050000000000000000e+02,-3.511263450063110692e-01,0.000000000000000000e+00
2.060000000000000000e+02,3.444757231125494368e+00,0.000000000000000000e+00
2.070000000000000000e+02,3.500843785898956062e-01,1.000000000000000000e+00
2.080000000000000000e+02,-3.095647630344530832e+00,0.000000000000000000e+00
2.090000000000000000e+02,-3.262311225449307184e+00,0.000000000000000000e+00
2.100000000000000000e+02,-2.323573731800566033e+00,0.000000000000000000e+00
2.110000000000000000e+02,3.979752399982539601e-01,0.000000000000000000e+00
2.120000000000000000e+02,9.141507543753266685e-01,0.000000000000000000e+00
2.130000000000000000e+02,1.176116734655835661e+00,0.000000000000000000e+00
2.140000000000000000e+02,9.132797945965904773e-01,0.000000000000000000e+00
2.150000000000000000e+02,1.026569825226766763e+00,0.000000000000000000e+00
2.160000000000000000e+02,8.311147097177995491e-01,0.000000000000000000e+00
2.170000000000000000e+02,9.244130735857751802e-01,0.000000000000000000e+00
2.180000000000000000e+02,7.223119647234726992e-01,0.000000000000000000e+00
2.190000000000000000e+02,8.959744314027274781e-01,0.000000000000000000e+00
2.200000000000000000e+02,8.699105591732630982e-01,0.000000000000000000e+00
2.210000000000000000e+02,1.078206338124654939e+00,0.000000000000000000e+00
2.220000000000000000e+02,1.095294460965082539e+00,0.000000000000000000e+00
2.230000000000000000e+02,1.255071998918416254e+00,0.000000000000000000e+00
2.240000000000000000e+02,1.265307375922259725e+00,0.000000000000000000e+00
2.250000000000000000e+02,1.448021462679917937e+00,0.000000000000000000e+00
2.260000000000000000e+02,1.153928646231690891e+00,0.000000000000000000e+00
2.270000000000000000e+02,7.766232235142128681e-01,0.000000000000000000e+00
2.280000000000000000e+02,2.583335807149897412e-01,0.000000000000000000e+00
2.290000000000000000e+02,-2.458309647186878444e-01,0.000000000000000000e+00
2.300000000000000000e+02,-8.826638141520996017e-01,0.000000000000000000e+00
2.310000000000000000e+02,-8.821143446854525783e-01,0.000000000000000000e+00
2.320000000000000000e+02,-9.400395239298047212e-01,0.000000000000000000e+00
2.330000000000000000e+02,-9.018646465460928852e-01,0.000000000000000000e+00
2.340000000000000000e+02,-9.492231991500013066e-01,0.000000000000000000e+00
2.350000000000000000e+02,-7.107631830474769874e-01,0.000000000000000000e+00
2.360000000000000000e+02,-9.360470180737550105e-01,0.000000000000000000e+00
2.370000000000000000e+02,-6.462238647153287774e-01,0.000000000000000000e+00
2.380000000000000000e+02,-5.300534640123004682e-01,0.000000000000000000e+00
2.390000000000000000e+02,-6.764827850148490418e-01,0.000000000000000000e+00
2.400000000000000000e+02,-5.514632086952334644e-01,0.000000000000000000e+00
2.410000000000000000e+02,-5.745028475713508387e-01,0.000000000000000000e+00
2.420000000000000000e+02,-5.240193558791229611e-01,0.000000000000000000e+00
2.430000000000000000e+02,-4.585851252297316050e-01,0.000000000000000000e+00
2.440000000000000000e+02,-3.981218709545704670e-01,0.000000000000000000e+00
2.450000000000000000e+02,-4.974126767413690198e-01,0.000000000000000000e+00
2.460000000000000000e+02,-2.499898628976672532e-01,0.000000000000000000e+00
2.470000000000000000e+02,-3.571848473119919598e-01,0.000000000000000000e+00
2.480000000000000000e+02,-2.824789148253378790e-02,0.000000000000000000e+00
2.490000000000000000e+02,1.656229673842527948e-03,0.000000000000000000e+00
2.500000000000000000e+02,-1.216631339967810393e-01,0.000000000000000000e+00
2.510000000000000000e+02,-2.156244966007892505e-01,0.000000000000000000e+00
2.520000000000000000e+02,2.753165484434812460e-01,0.000000000000000000e+00
2.530000000000000000e+02,2.387435032903998944e-01,0.000000000000000000e+00
2.540000000000000000e+02,2.320098488317927365e-01,0.000000000000000000e+00
2.550000000000000000e+02,2.774318281927415364e-01,0.000000000000000000e+00
2.560000000000000000e+02,1.164573723998133248e-01,0.000000000000000000e+00
2.570000000000000000e+02,2.976658862720896193e-01,0.000000000000000000e+00
2.580000000000000000e+02,9.251595641273784032e-02,0.000000000000000000e+00
2.590000000000000000e+02,5.610922457406122138e-02,0.000000000000000000e+00
2.600000000000000000e+02,2.248216710102508009e-01,0.000000000000000000e+00
2.610000000000000000e+02,1.862864273825691752e-01,0.000000000000000000e+00
2.620000000000000000e+02,-3.977772453629933869e-02,0.000000000000000000e+00
2.630000000000000000e+02,8.741012614217079368e-02,0.000000000000000000e+00
2.640000000000000000e+02,-1.150375902388645483e-01,0.000000000000000000e+00
2.650000000000000000e+02,2.641157359258544113e-01,0.000000000000000000e+00
2.660000000000000000e+02,6.736577439656758759e-02,0.000000000000000000e+00
2.670000000000000000e+02,2.528621447262318633e-01,0.000000000000000000e+00
2.680000000000000000e+02,-4.613603929082969735e-02,0.000000000000000000e+00
2.690000000000000000e+02,-4.090721880204290506e-01,0.000000000000000000e+00
2.700000000000000000e+02,-3.531716777066741253e-01,0.000000000000000000e+00
2.710000000000000000e+02,-3.045150069201459364e-01,0.000000000000000000e+00
2.720000000000000000e+02,-2.394087561069198344e-01,0.000000000000000000e+00
2.730000000000000000e+02,-8.367086440598660024e-01,0.000000000000000000e+00
2.740000000000000000e+02,2.882802793867791924e-01,0.000000000000000000e+00
2.750000000000000000e+02,3.135407470522334261e+00,0.000000000000000000e+00
2.760000000000000000e+02,-1.257792244209634314e+00,1.000000000000000000e+00
2.770000000000000000e+02,-3.362576605338691849e+00,0.000000000000000000e+00
2.780000000000000000e+02,-3.653399337026429272e+00,0.000000000000000000e+00
2.790000000000000000e+02,-1.845907546172103286e+00,0.000000000000000000e+00
2.800000000000000000e+02,5.026625133040900639e-01,0.000000000000000000e+00
2.810000000000000000e+02,9.056601482430236549e-01,0.000000000000000000e+00
2.820000000000000000e+02,7.953905644124168450e-01,0.000000000000000000e+00
2.830000000000000000e+02,9.363994450143957593e-01,0.000000000000000000e+00
2.840000000000000000e+02,8.665235514120330773e-01,0.000000000000000000e+00
2.850000000000000000e+02,8.371397970518431597e-01,0.000000000000000000e+00
2.860000000000000000e+02,8.343929517445268784e-01,0.000000000000000000e+00
2.870000000000000000e+02,8.431539676592836319e-01,0.000000000000000000e+00
2.880000000000000000e+02,7.861014643586486939e-01,0.000000000000000000e+00
2.890000000000000000e+02,9.591859557653401591e-01,0.000000000000000000e+00
2.900000000000000000e+02,9.515642109633085655e-01,0.000000000000000000e+00
2.910000000000000000e+02,1.034225200679574463e+00,0.000000000000000000e+00
2.920000000000000000e+02,1.266428377490792956e+00,0.000000000000000000e+00
2.930000000000000000e+02,1.416426127365693510e+00,0.000000000000000000e+00
2.940000000000000000e+02,1.290163188358282698e+00,0.000000000000000000e+00
2.950000000000000000e+02,1.244450265089873886e+00,0.000000000000000000e+00
2.960000000000000000e+02,7.704606305588728166e-01,0.000000000000000000e+00
2.970000000000000000e+02,1.644694364071878079e-01,0.000000000000000000e+00
2.980000000000000000e+02,-5.037202006067631466e-01,0.000000000000000000e+00
2.990000000000000000e+02,-8.069963495084120364e-01,0.000000000000000000e+00
3.000000000000000000e+02,-1.000561995192501996e+00,0.000000000000000000e+00
3.010000000000000000e+02,-9.188089967897457022e-01,0.000000000000000000e+00
3.020000000000000000e+02,-9.817224724229515198e-01,0.000000000000000000e+00
3.030000000000000000e+02,-8.199993185586307298e-01,0.000000000000000000e+00
3.040000000000000000e+02,-6.640617135263776616e-01,0.000000000000000000e+00
3.050000000000000000e+02,-7.122518508613323585e-01,0.000000000000000000e+00
3.060000000000000000e+02,-5.674833717188334514e-01,0.000000000000000000e+00
3.070000000000000000e+02,-5.641859918063550916e-01,0.000000000000000000e+00
3.080000000000000000e+02,-4.870777873999717067e-01,0.000000000000000000e+00
3.090000000000000000e+02,-5.308404325237846555e-01,0.000000000000000000e+00
3.100000000000000000e+02,-4.759152445059998127e-01,0.000000000000000000e+00
3.110000000000000000e+02,-3.128930425802729509e-01,0.000000000000000000e+00
3.120000000000000000e+02,-2.921076904494953053e-01,0.000000000000000000e+00
3.130000000000000000e+02,-2.501875516442577108e-01,0.000000000000000000e+00
3.140000000000000000e+02,-2.996581512241923706e-01,0.000000000000000000e+00
3.150000000000000000e+02,-3.010011506377787138e-01,0.000000000000000000e+00
3.160000000000000000e+02,-1.352439879321616356e-01,0.000000000000000000e+00
3.170000000000000000e+02,-1.930109435798058881e-01,0.000000000000000000e+00
3.180000000000000000e+02,-4.811369244234609682e-02,0.000000000000000000e+00
3.190000000000000000e+02,-7.116593768098011460e-03,0.000000000000000000e+00
3.200000000000000000e+02,-3.237478201388512000e-02,0.000000000000000000e+00
3.210000000000000000e+02,5.875707054844051674e-02,0.000000000000000000e+00
3.220000000000000000e+02,-2.696195502867576588e-02,0.000000000000000000e+00
3.230000000000000000e+02,-1.762553554807433365e-02,0.000000000000000000e+00
3.240000000000000000e+02,5.749590244881951778e-02,0.000000000000000000e+00
3.250000000000000000e+02,1.128278158774618893e-02,0.000000000000000000e+00
3.260000000000000000e+02,5.298166058730333777e-02,0.000000000000000000e+00
3.270000000000000000e+02,1.272174218920190114e-01,0.000000000000000000e+00
3.280000000000000000e+02,1.340570746281096459e-01,0.000000000000000000e+00
3.290000000000000000e+02,2.183029177196508727e-02,0.000000000000000000e+00
3.300000000000000000e+02,6.496484855617476462e-02,0.000000000000000000e+00
3.310000000000000000e+02,1.609867281225083324e-01,0.000000000000000000e+00
3.320000000000000000e+02,5.908714128594686615e-02,0.000000000000000000e+00
3.330000000000000000e+02,3.193620895134328674e-01,0.000000000000000000e+00
3.340000000000000000e+02,4.230742051456899411e-01,0.000000000000000000e+00
3.350000000000000000e+02,5.426058842792638170e-01,0.000000000000000000e+00
3.360000000000000000e+02,3.315000039122631414e-01,0.000000000000000000e+00
3.370000000000000000e+02,1.760734523451754074e-01,0.000000000000000000e+00
3.380000000000000000e+02,-2.175358964108491111e-01,0.000000000000000000e+00
3.390000000000000000e+02,3.727263290184847783e-02,0.000000000000000000e+00
3.400000000000000000e+02,-5.814301238145763023e-02,0.000000000000000000e+00
3.410000000000000000e+02,-1.658535015834002035e-02,0.000000000000000000e+00
3.420000000000000000e+02,-6.460463103902014392e-01,0.000000000000000000e+00
3.430000000000000000e+02,2.946274239905027681e+00,0.000000000000000000e+00
3.440000000000000000e+02,1.725676391832001277e+00,0.000000000000000000e+00
3.450000000000000000e+02,-2.505774188852397444e+00,1.000000000000000000e+00
3.460000000000000000e+02,-2.507428721928095072e+00,0.000000000000000000e+00
3.470000000000000000e+02,-3.016235465467134169e+00,0.000000000000000000e+00
3.480000000000000000e+02,-7.340889130465342305e-01,0.000000000000000000e+00
3.490000000000000000e+02,6.141938712805691258e-01,0.000000000000000000e+00
3.500000000000000000e+02,1.021452594544236758e+00,0.000000000000000000e+00
3.510000000000000000e+02,8.306093346964270596e-01,0.000000000000000000e+00
3.520000000000000000e+02,1.078956094821927003e+00,0.000000000000000000e+00
3.530000000000000000e+02,8.215073399407311072e-01,0.000000000000000000e+00
3.540000000000000000e+02,8.560842487366633335e-01,0.000000000000000000e+00
3.550000000000000000e+02,8.346283946292769595e-01,0.000000000000000000e+00
3.560000000000000000e+02,8.855525340636668519e-01,0.000000000000000000e+00
3.570000000000000000e+02,7.650570497671116410e-01,0.000000000000000000e+00
3.580000000000000000e+02,1.072941932426512146e+00,0.000000000000000000e+00
3.590000000000000000e+02,9.567537679953069807e-01,0.000000000000000000e+00
3.600000000000000000e+02,1.216264682420256760e+00,0.000000000000000000e+00
3.610000000000000000e+02,1.290535314104104048e+00,0.000000000000000000e+00
3.620000000000000000e+02,1.503612689514752576e+00,0.000000000000000000e+00
3.630000000000000000e+02,1.160695726937091887e+00,0.000000000000000000e+00
3.640000000000000000e+02,1.137279287273137207e+00,0.000000000000000000e+00
3.650000000000000000e+02,4.045581750669625665e-01,0.000000000000000000e+00
3.660000000000000000e+02,-1.705627799638535502e-01,0.000000000000000000e+00
3.670000000000000000e+02,-7.986209577020175754e-01,0.000000000000000000e+00
3.680000000000000000e+02,-9.860002320108816054e-01,0.000000000000000000e+00
3.690000000000000000e+02,-1.218030936721574919e+00,0.000000000000000000e+00
3.700000000000000000e+02,-1.024683043059257059e+00,0.000000000000000000e+00
3.710000000000000000e+02,-9.918039451478368740e-01,0.000000000000000000e+00
3.720000000000000000e+02,-8.042899929395946890e-01,0.000000000000000000e+00
3.730000000000000000e+02,-8.523286941664974803e-01,0.000000000000000000e+00
3.740000000000000000e+02,-7.479460828833618402e-01,0.000000000000000000e+00
3.750000000000000000e+02,-6.874182222375680995e-01,0.000000000000000000e+00
3.760000000000000000e+02,-7.088335288412779267e-01,0.000000000000000000e+00
3.770000000000000000e+02,-7.284859150603006928e-01,0.000000000000000000e+00
3.780000000000000000e+02,-4.720510636906625757e-01,0.000000000000000000e+00
3.790000000000000000e+02,-5.481647928010126014e-01,0.000000000000000000e+00
3.800000000000000000e+02,-5.581863598720672170e-01,0.000000000000000000e+00
3.810000000000000000e+02,-5.083355717815958297e-01,0.000000000000000000e+00
3.820000000000000000e+02,-4.003169868555747080e-01,0.000000000000000000e+00
3.830000000000000000e+02,-4.244630793959187631e-01,0.000000000000000000e+00
3.840000000000000000e+02,-3.925926453291250229e-01,0.000000000000000000e+00
3.850000000000000000e+02,-4.271405783518913979e-01,0.000000000000000000e+00
3.860000000000000000e+02,-2.494793386095177923e-01,0.000000000000000000e+00
3.870000000000000000e+02,-1.379482596638657577e-01,0.000000000000000000e+00
3.880000000000000000e+02,-1.933662381823961496e-01,0.000000000000000000e+00
3.890000000000000000e+02,-3.999555218007336960e-02,0.000000000000000000e+00
3.900000000000000000e+02,-2.202455770567934498e-02,0.000000000000000000e+00
3.910000000000000000e+02,-8.453722036452133992e-02,0.000000000000000000e+00
3.920000000000000000e+02,-4.328986807679546800e-02,0.000000000000000000e+00
3.930000000000000000e+02,7.982724371945119739e-04,0.000000000000000000e+00
3.940000000000000000e+02,-1.274958092571796264e-01,0.000000000000000000e+00
3.950000000000000000e+02,1.403161191029610958e-03,0.000000000000000000e+00
3.960000000000000000e+02,1.233990601916779423e-01,0.000000000000000000e+00
3.970000000000000000e+02,-1.083313208203244699e-01,0.000000000000000000e+00
3.980000000000000000e+02,1.593864396605129963e-01,0.000000000000000000e+00
3.990000000000000000e+02,2.549232745906831465e-01,0.000000000000000000e+00
4.000000000000000000e+02,3.612882140110383888e-01,0.000000000000000000e+00
4.010000000000000000e+02,4.960762784260207003e-01,0.000000000000000000e+00
4.020000000000000000e+02,9.067957541310052438e-02,0.000000000000000000e+00
4.030000000000000000e+02,-1.070178335094660316e-01,0.000000000000000000e+00
4.040000000000000000e+02,-8.361370881706135794e-02,0.000000000000000000e+00
4.050000000000000000e+02,-9.870514590228635088e-02,0.000000000000000000e+00
4.060000000000000000e+02,1.355546999898072924e-01,0.000000000000000000e+00
4.070000000000000000e+02,-6.904938592094034266e-01,0.000000000000000000e+00
4.080000000000000000e+02,1.423593861904236757e+00,0.000000000000000000e+00
4.090000000000000000e+02,3.057855765325753872e+00,0.000000000000000000e+00
4.100000000000000000e+02,-1.852372023699000891e+00,1.000000000000000000e+00
4.110000000000000000e+02,-3.019000704305335514e+00,0.000000000000000000e+00
4.120000000000000000e+02,-3.257174537127495828e+00,0.000000000000000000e+00
4.130000000000000000e+02,-1.371980535275725499e+00,0.000000000000000000e+00
4.140000000000000000e+02,7.007660884113666722e-01,0.000000000000000000e+00
4.150000000000000000e+02,1.031409548212442351e+00,0.000000000000000000e+00
4.160000000000000000e+02,1.010987139998970052e+00,0.000000000000000000e+00
4.170000000000000000e+02,1.037230218078811328e+00,0.000000000000000000e+00
4.180000000000000000e+02,9.299082802430320704e-01,0.000000000000000000e+00
4.190000000000000000e+02,8.682505540581274550e-01,0.000000000000000000e+00
4.200000000000000000e+02,9.856592133393851096e-01,0.000000000000000000e+00
4.210000000000000000e+02,9.120266061735003982e-01,0.000000000000000000e+00
4.220000000000000000e+02,9.675174297086007735e-01,0.000000000000000000e+00
4.230000000000000000e+02,1.059914580680852092e+00,0.000000000000000000e+00
4.240000000000000000e+02,1.087918079807293603e+00,0.000000000000000000e+00
4.250000000000000000e+02,1.376086210472193150e+00,0.000000000000000000e+00
4.260000000000000000e+02,1.481303669099040654e+00,0.000000000000000000e+00
4.270000000000000000e+02,1.675642029092279772e+00,0.000000000000000000e+00
4.280000000000000000e+02,1.462966728183643150e+00,0.000000000000000000e+00
4.290000000000000000e+02,1.230957181498867348e+00,0.000000000000000000e+00
4.300000000000000000e+02,7.050109191394844377e-01,0.000000000000000000e+00
4.310000000000000000e+02,1.097485893521183004e-01,0.000000000000000000e+00
4.320000000000000000e+02,-5.706629137977806687e-01,0.000000000000000000e+00
4.330000000000000000e+02,-8.730236164509924679e-01,0.000000000000000000e+00
4.340000000000000000e+02,-1.118419230661560571e+00,0.000000000000000000e+00
4.350000000000000000e+02,-1.024762442072219448e+00,0.000000000000000000e+00
4.360000000000000000e+02,-1.031135515005711101e+00,0.000000000000000000e+00
4.370000000000000000e+02,-8.176971883590394841e-01,0.000000000000000000e+00
4.380000000000000000e+02,-8.044474912345582762e-01,0.000000000000000000e+00
4.390000000000000000e+02,-8.246396042501806800e-01,0.000000000000000000e+00
4.400000000000000000e+02,-6.314908370558522943e-01,0.000000000000000000e+00
4.410000000000000000e+02,-7.256011282960854736e-01,0.000000000000000000e+00
4.420000000000000000e+02,-6.420412909507127175e-01,0.000000000000000000e+00
4.430000000000000000e+02,-5.471170967528854456e-01,0.000000000000000000e+00
4.440000000000000000e+02,-4.979552778681751168e-01,0.000000000000000000e+00
4.450000000000000000e+02,-5.882236510208109781e-01,0.000000000000000000e+00
4.460000000000000000e+02,-3.976920738634553421e-01,0.000000000000000000e+00
4.470000000000000000e+02,-4.331068733590486275e-01,0.000000000000000000e+00
4.480000000000000000e+02,-4.109791219671410922e-01,0.000000000000000000e+00
4.490000000000000000e+02,-3.220748595116719182e-01,0.000000000000000000e+00
4.500000000000000000e+02,-3.821447005982989142e-01,0.000000000000000000e+00
4.510000000000000000e+02,-2.255702409953522503e-01,0.000000000000000000e+00
4.520000000000000000e+02,-2.955610656474626508e-01,0.000000000000000000e+00
4.530000000000000000e+02,-3.372667860466767586e-01,0.000000000000000000e+00
4.540000000000000000e+02,-7.720375591271927407e-02,0.000000000000000000e+00
4.550000000000000000e+02,-1.683032933975125434e-01,0.000000000000000000e+00
4.560000000000000000e+02,-8.726667138962788950e-02,0.000000000000000000e+00
4.570000000000000000e+02,-1.933195497399042284e-01,0.000000000000000000e+00
4.580000000000000000e+02,9.146922823257181215e-03,0.000000000000000000e+00
4.590000000000000000e+02,1.041883649263038308e-01,0.000000000000000000e+00
4.600000000000000000e+02,-2.496186662095303821e-02,0.000000000000000000e+00
4.610000000000000000e+02,-6.078840793786312313e-02,0.000000000000000000e+00
4.620000000000000000e+02,1.681016993968415529e-01,0.000000000000000000e+00
4.630000000000000000e+02,-6.163945228998342352e-02,0.000000000000000000e+00
4.640000000000000000e+02,4.678521545886202976e-02,0.000000000000000000e+00
4.650000000000000000e+02,2.918526688752441922e-01,0.000000000000000000e+00
4.660000000000000000e+02,4.248941160913113357e-01,0.000000000000000000e+00
4.670000000000000000e+02,4.400538254312730269e-01,0.000000000000000000e+00
4.680000000000000000e+02,1.871006376286184214e-01,0.000000000000000000e+00
4.690000000000000000e+02,-5.664874538007752536e-02,0.000000000000000000e+00
4.700000000000000000e+02,6.087226676468806413e-02,0.000000000000000000e+00
4.710000000000000000e+02,-1.632115249339617935e-01,0.000000000000000000e+00
4.720000000000000000e+02,2.629930851530862257e-01,0.000000000000000000e+00
4.730000000000000000e+02,-6.430031382918288685e-01,0.000000000000000000e+00
4.740000000000000000e+02,1.617552499014341505e+00,0.000000000000000000e+00
4.750000000000000000e+02,2.920931730879164689e+00,0.000000000000000000e+00
4.760000000000000000e+02,-1.986315590922265839e+00,1.000000000000000000e+00
4.770000000000000000e+02,-2.923655853685000583e+00,0.000000000000000000e+00
4.780000000000000000e+02,-3.100798463092646617e+00,0.000000000000000000e+00
4.790000000000000000e+02,-8.683113471682806228e-01,0.000000000000000000e+00
4.800000000000000000e+02,7.820440520044915633e-01,0.000000000000000000e+00
4.810000000000000000e+02,9.476877731130138871e-01,0.000000000000000000e+00
4.820000000000000000e+02,1.027168383309784216e+00,0.000000000000000000e+00
4.830000000000000000e+02,8.886061697218415878e-01,0.000000000000000000e+00
4.840000000000000000e+02,9.627873873773659108e-01,0.000000000000000000e+00
4.850000000000000000e+02,9.399397326919664009e-01,0.000000000000000000e+00
4.860000000000000000e+02,9.140933729900427851e-01,0.000000000000000000e+00
4.870000000000000000e+02,8.925335173960119439e-01,0.000000000000000000e+00
4.880000000000000000e+02,9.038094986294004096e-01,0.000000000000000000e+00
4.890000000000000000e+02,1.151003264923517566e+00,0.000000000000000000e+00
4.900000000000000000e+02,9.520281535164368814e-01,0.000000000000000000e+00
4.910000000000000000e+02,1.233852127976152735e+00,0.000000000000000000e+00
4.920000000000000000e+02,1.363606052824382076e+00,0.000000000000000000e+00
4.930000000000000000e+02,1.274051551976804753e+00,0.000000000000000000e+00
4.940000000000000000e+02,1.199086968653120699e+00,0.000000000000000000e+00
4.950000000000000000e+02,1.102225412419539641e+00,0.000000000000000000e+00
4.960000000000000000e+02,5.603782043005562929e-01,0.000000000000000000e+00
4.970000000000000000e+02,-5.459528789318487257e-02,0.000000000000000000e+00
4.980000000000000000e+02,-4.781155906726337057e-01,0.000000000000000000e+00
4.990000000000000000e+02,-9.697297995934943682e-01,0.000000000000000000e+00
5.000000000000000000e+02,-1.067019153380020846e+00,0.000000000000000000e+00
5.010000000000000000e+02,-1.121438121177705582e+00,0.000000000000000000e+00
5.020000000000000000e+02,-9.269707714029390422e-01,0.000000000000000000e+00
5.030000000000000000e+02,-8.303166924906008051e-01,0.000000000000000000e+00
5.040000000000000000e+02,-8.930196229172733258e-01,0.000000000000000000e+00
5.050000000000000000e+02,-7.267841113126509711e-01,0.000000000000000000e+00
5.060000000000000000e+02,-7.657245303028229477e-01,0.000000000000000000e+00
5.070000000000000000e+02,-6.350028985488923583e-01,0.000000000000000000e+00
5.080000000000000000e+02,-7.046957885590277026e-01,0.000000000000000000e+00
5.090000000000000000e+02,-4.924224420147085279e-01,0.000000000000000000e+00
5.100000000000000000e+02,-5.955185728124975375e-01,0.000000000000000000e+00
5.110000000000000000e+02,-3.827876206843691675e-01,0.000000000000000000e+00
5.120000000000000000e+02,-5.313692308760112892e-01,0.000000000000000000e+00
5.130000000000000000e+02,-4.934618724911103982e-01,0.000000000000000000e+00
5.140000000000000000e+02,-3.758655612103756760e-01,0.000000000000000000e+00
5.150000000000000000e+02,-4.328209767232648053e-01,0.000000000000000000e+00
5.160000000000000000e+02,-4.266180599455202116e-01,0.000000000000000000e+00
5.170000000000000000e+02,-1.964832318350039353e-01,0.000000000000000000e+00
5.180000000000000000e+02,-2.034990168040792524e-01,0.000000000000000000e+00
5.190000000000000000e+02,-1.644735653189451363e-01,0.000000000000000000e+00
5.200000000000000000e+02,-1.991388521231881037e-01,0.000000000000000000e+00
5.210000000000000000e+02,-1.116918594674709553e-01,0.000000000000000000e+00
5.220000000000000000e+02,-6.269200317192635818e-02,0.000000000000000000e+00
5.230000000000000000e+02,-1.743042518136626029e-01,0.000000000000000000e+00
5.240000000000000000e+02,4.386436510965222024e-02,0.000000000000000000e+00
5.250000000000000000e+02,1.737458152093492025e-02,0.000000000000000000e+00
5.260000000000000000e+02,3.863031583250844947e-02,0.000000000000000000e+00
5.270000000000000000e+02,5.622281733477763749e-02,0.000000000000000000e+00
5.280000000000000000e+02,5.357962416166810876e-02,0.000000000000000000e+00
5.290000000000000000e+02,1.159257647395722651e-01,0.000000000000000000e+00
5.300000000000000000e+02,-6.928121754783690689e-02,0.000000000000000000e+00
5.310000000000000000e+02,3.000749843553831564e-01,0.000000000000000000e+00
5.320000000000000000e+02,3.322832451175108948e-01,0.000000000000000000e+00
5.330000000000000000e+02,5.179674352985473851e-01,0.000000000000000000e+00
5.340000000000000000e+02,4.274375314211784072e-01,0.000000000000000000e+00
5.350000000000000000e+02,1.128091194088788191e-01,0.000000000000000000e+00
5.360000000000000000e+02,-1.018001617825379790e-01,0.000000000000000000e+00
5.370000000000000000e+02,1.099620216298481390e-01,0.000000000000000000e+00
5.380000000000000000e+02,-1.281661227182698537e-01,0.000000000000000000e+00
5.390000000000000000e+02,2.107342011564508344e-01,0.000000000000000000e+00
5.400000000000000000e+02,-8.993372929058960352e-01,0.000000000000000000e+00
5.410000000000000000e+02,2.256917690684321354e+00,0.000000000000000000e+00
5.420000000000000000e+02,2.483609521675061327e+00,0.000000000000000000e+00
5.430000000000000000e+02,-2.486771048599690115e+00,1.000000000000000000e+00
5.440000000000000000e+02,-3.215777013556698538e+00,0.000000000000000000e+00
5.450000000000000000e+02,-3.352937705684859715e+00,0.000000000000000000e+00
5.460000000000000000e+02,-6.640734877004814685e-01,0.000000000000000000e+00
5.470000000000000000e+02,7.843468886938491647e-01,0.000000000000000000e+00
5.480000000000000000e+02,1.144077490487272586e+00,0.000000000000000000e+00
5.490000000000000000e+02,1.011576420591983272e+00,0.000000000000000000e+00
5.500000000000000000e+02,1.189366566765232447e+00,0.000000000000000000e+00
5.510000000000000000e+02,1.008614463756312141e+00,0.000000000000000000e+00
5.520000000000000000e+02,9.425542041977951202e-01,0.000000000000000000e+00
5.530000000000000000e+02,9.497714545991856605e-01,0.000000000000000000e+00
5.540000000000000000e+02,9.379106391974841861e-01,0.000000000000000000e+00
5.550000000000000000e+02,9.828469466961583523e-01,0.000000000000000000e+00
5.560000000000000000e+02,1.044250598638027272e+00,0.000000000000000000e+00
5.570000000000000000e+02,1.131485571654455180e+00,0.000000000000000000e+00
5.580000000000000000e+02,1.188852724918602721e+00,0.000000000000000000e+00
5.590000000000000000e+02,1.418052995942424621e+00,0.000000000000000000e+00
5.600000000000000000e+02,1.559968093019884927e+00,0.000000000000000000e+00
5.610000000000000000e+02,1.432339578742133135e+00,0.000000000000000000e+00
5.620000000000000000e+02,1.175796850574117869e+00,0.000000000000000000e+00
5.630000000000000000e+02,6.482043405234656497e-01,0.000000000000000000e+00
5.640000000000000000e+02,-1.646977891844591396e-02,0.000000000000000000e+00
5.650000000000000000e+02,-6.690331184886926241e-01,0.000000000000000000e+00
5.660000000000000000e+02,-8.900096772890392360e-01,0.000000000000000000e+00
5.670000000000000000e+02,-1.017235256957462974e+00,0.000000000000000000e+00
5.680000000000000000e+02,-1.119328836155986329e+00,0.000000000000000000e+00
5.690000000000000000e+02,-9.166667635393441760e-01,0.000000000000000000e+00
5.700000000000000000e+02,-8.993682711626047599e-01,0.000000000000000000e+00
5.710000000000000000e+02,-8.540424301470965762e-01,0.000000000000000000e+00
5.720000000000000000e+02,-8.347466231811606630e-01,0.000000000000000000e+00
5.730000000000000000e+02,-6.247249546032001000e-01,0.000000000000000000e+00
5.740000000000000000e+02,-6.404547684282266840e-01,0.000000000000000000e+00
5.750000000000000000e+02,-6.621123415258340916e-01,0.000000000000000000e+00
5.760000000000000000e+02,-5.260711614512387779e-01,0.000000000000000000e+00
5.770000000000000000e+02,-6.950050343637560468e-01,0.000000000000000000e+00
5.780000000000000000e+02,-5.395915690203759718e-01,0.000000000000000000e+00
5.790000000000000000e+02,-4.521214280085021353e-01,0.000000000000000000e+00
5.800000000000000000e+02,-5.469711394229470613e-01,0.000000000000000000e+00
5.810000000000000000e+02,-3.773117563120773066e-01,0.000000000000000000e+00
5.820000000000000000e+02,-3.924013497392282446e-01,0.000000000000000000e+00
5.830000000000000000e+02,-4.021343786895008043e-01,0.000000000000000000e+00
5.840000000000000000e+02,-3.495230017847226200e-01,0.000000000000000000e+00
5.850000000000000000e+02,-2.549205711666681640e-01,0.000000000000000000e+00
5.860000000000000000e+02,-2.522311514914045705e-01,0.000000000000000000e+00
5.870000000000000000e+02,-2.330739600394035882e-01,0.000000000000000000e+00
5.880000000000000000e+02,-1.036502113798955793e-01,0.000000000000000000e+00
5.890000000000000000e+02,-1.210275759617501917e-01,0.000000000000000000e+00
5.900000000000000000e+02,-1.439802994908660483e-01,0.000000000000000000e+00
5.910000000000000000e+02,-5.709948129137523698e-02,0.000000000000000000e+00
5.920000000000000000e+02,1.651006731958949703e-02,0.000000000000000000e+00
5.930000000000000000e+02,-2.365328925247595429e-02,0.000000000000000000e+00
5.940000000000000000e+02,-4.199342349609650263e-03,0.000000000000000000e+00
5.950000000000000000e+02,9.149921400760115120e-02,0.000000000000000000e+00
5.960000000000000000e+02,1.742877698345811632e-01,0.000000000000000000e+00
5.970000000000000000e+02,4.126862221906205663e-01,0.000000000000000000e+00
5.980000000000000000e+02,5.025531721250948713e-01,0.000000000000000000e+00
5.990000000000000000e+02,3.265669408420300290e-01,0.000000000000000000e+00
6.000000000000000000e+02,-8.761922693196462497e-02,0.000000000000000000e+00
6.010000000000000000e+02,-1.101334181966388964e-01,0.000000000000000000e+00
6.020000000000000000e+02,-9.667763620634803323e-02,0.000000000000000000e+00
6.030000000000000000e+02,-5.533941786551699327e-02,0.000000000000000000e+00
6.040000000000000000e+02,-4.033760127762550107e-01,0.000000000000000000e+00
6.050000000000000000e+02,-1.599818511729423492e-02,0.000000000000000000e+00
6.060000000000000000e+02,3.457929513649897313e+00,0.000000000000000000e+00
6.070000000000000000e+02,-5.209048207314661560e-01,1.000000000000000000e+00
6.080000000000000000e+02,-3.291395045008259412e+00,0.000000000000000000e+00
6.090000000000000000e+02,-3.578367677752279707e+00,0.000000000000000000e+00
6.100000000000000000e+02,-2.132642795773167066e+00,0.000000000000000000e+00
6.110000000000000000e+02,4.390614007644876304e-01,0.000000000000000000e+00
6.120000000000000000e+02,1.146293436829523671e+00,0.000000000000000000e+00
6.130000000000000000e+02,1.147946799368213755e+00,0.000000000000000000e+00
6.140000000000000000e+02,1.021630442369343639e+00,0.000000000000000000e+00
6.150000000000000000e+02,1.068728218110159167e+00,0.000000000000000000e+00
6.160000000000000000e+02,1.049305137597537074e+00,0.000000000000000000e+00
6.170000000000000000e+02,1.000270200068851034e+00,0.000000000000000000e+00
6.180000000000000000e+02,8.863219529378739692e-01,0.000000000000000000e+00
6.190000000000000000e+02,1.108394370836895959e+00,0.000000000000000000e+00
6.200000000000000000e+02,1.052567046469875978e+00,0.000000000000000000e+00
6.210000000000000000e+02,1.211500007564084935e+00,0.000000000000000000e+00
6.220000000000000000e+02,1.068832055230694911e+00,0.000000000000000000e+00
6.230000000000000000e+02,1.296464988344886438e+00,0.000000000000000000e+00
6.240000000000000000e+02,1.405075899499404368e+00,0.000000000000000000e+00
6.250000000000000000e+02,1.348846405069082710e+00,0.000000000000000000e+00
6.260000000000000000e+02,1.315108002914417984e+00,0.000000000000000000e+00
6.270000000000000000e+02,7.010732567319738484e-01,0.000000000000000000e+00
6.280000000000000000e+02,1.884706866886849408e-01,0.000000000000000000e+00
6.290000000000000000e+02,-3.560832660220919488e-01,0.000000000000000000e+00
6.300000000000000000e+02,-8.349825641457658820e-01,0.000000000000000000e+00
6.310000000000000000e+02,-8.838688250001128788e-01,0.000000000000000000e+00
6.320000000000000000e+02,-1.034020051916159977e+00,0.000000000000000000e+00
6.330000000000000000e+02,-9.619178157064143253e-01,0.000000000000000000e+00
6.340000000000000000e+02,-7.321674664928793375e-01,0.000000000000000000e+00
6.350000000000000000e+02,-8.013687970440148689e-01,0.000000000000000000e+00
6.360000000000000000e+02,-6.546343247079258187e-01,0.000000000000000000e+00
6.370000000000000000e+02,-6.065630695527791660e-01,0.000000000000000000e+00
6.380000000000000000e+02,-6.651813759561923112e-01,0.000000000000000000e+00
6.390000000000000000e+02,-5.147737660752624844e-01,0.000000000000000000e+00
6.400000000000000000e+02,-5.141089707127313169e-01,0.000000000000000000e+00
6.410000000000000000e+02,-4.685052812046683890e-01,0.000000000000000000e+00
6.420000000000000000e+02,-4.843986504862293763e-01,0.000000000000000000e+00
6.430000000000000000e+02,-3.849766021589114962e-01,0.000000000000000000e+00
6.440000000000000000e+02,-4.001150927513983380e-01,0.000000000000000000e+00
6.450000000000000000e+02,-4.351704363302144052e-01,0.000000000000000000e+00
6.460000000000000000e+02,-2.892002850903757638e-01,0.000000000000000000e+00
6.470000000000000000e+02,-2.967372550386402907e-01,0.000000000000000000e+00
6.480000000000000000e+02,-2.223893791459645997e-01,0.000000000000000000e+00
6.490000000000000000e+02,-1.975212582543246220e-01,0.000000000000000000e+00
6.500000000000000000e+02,-1.275950054181728965e-01,0.000000000000000000e+00
6.510000000000000000e+02,-1.610680351425754775e-01,0.000000000000000000e+00
6.520000000000000000e+02,-2.070551253098435462e-01,0.000000000000000000e+00
6.530000000000000000e+02,-1.791368013147821153e-02,0.000000000000000000e+00
6.540000000000000000e+02,-5.846569222597394755e-02,0.000000000000000000e+00
6.550000000000000000e+02,-1.214276465496721136e-01,0.000000000000000000e+00
6.560000000000000000e+02,8.596391197747897672e-02,0.000000000000000000e+00
6.570000000000000000e+02,-6.867869611214702519e-02,0.000000000000000000e+00
6.580000000000000000e+02,7.300806566862245994e-02,0.000000000000000000e+00
6.590000000000000000e+02,-1.145069181139403945e-02,0.000000000000000000e+00
6.600000000000000000e+02,1.331193112439832404e-01,0.000000000000000000e+00
6.610000000000000000e+02,-3.065423128258406085e-02,0.000000000000000000e+00
6.620000000000000000e+02,1.521266787337554605e-01,0.000000000000000000e+00
6.630000000000000000e+02,2.567918509912213709e-01,0.000000000000000000e+00
6.640000000000000000e+02,4.631307911194212368e-01,0.000000000000000000e+00
6.650000000000000000e+02,4.688341614354036291e-01,0.000000000000000000e+00
6.660000000000000000e+02,2.900759407729924244e-01,0.000000000000000000e+00
6.670000000000000000e+02,-9.743630882875996269e-02,0.000000000000000000e+00
6.680000000000000000e+02,-5.579906626509133910e-02,0.000000000000000000e+00
6.690000000000000000e+02,-6.333237134764869991e-02,0.000000000000000000e+00
6.700000000000000000e+02,-2.474224468677996714e-04,0.000000000000000000e+00
6.710000000000000000e+02,-4.110164599168160127e-01,0.000000000000000000e+00
6.720000000000000000e+02,3.188750296475052481e-01,0.000000000000000000e+00
6.730000000000000000e+02,3.485517277397791158e+00,0.000000000000000000e+00
6.740000000000000000e+02,-1.141263176112253808e+00,1.000000000000000000e+00
6.750000000000000000e+02,-3.170681165279119362e+00,0.000000000000000000e+00
6.760000000000000000e+02,-3.623927719749212795e+00,0.000000000000000000e+00
6.770000000000000000e+02,-1.855708158548357911e+00,0.000000000000000000e+00
6.780000000000000000e+02,7.123286597112109542e-01,0.000000000000000000e+00
6.790000000000000000e+02,1.160738603848476380e+00,0.000000000000000000e+00
6.800000000000000000e+02,1.138559091998707418e+00,0.000000000000000000e+00
6.810000000000000000e+02,1.120001706028744604e+00,0.000000000000000000e+00
6.820000000000000000e+02,1.080173561389379255e+00,0.000000000000000000e+00
6.830000000000000000e+02,9.395995565446030318e-01,0.000000000000000000e+00
6.840000000000000000e+02,9.855355286295978123e-01,0.000000000000000000e+00
6.850000000000000000e+02,9.868446451092275362e-01,0.000000000000000000e+00
6.860000000000000000e+02,9.717111704111142112e-01,0.000000000000000000e+00
6.870000000000000000e+02,1.056478497762210367e+00,0.000000000000000000e+00
6.880000000000000000e+02,1.071884185218078267e+00,0.000000000000000000e+00
6.890000000000000000e+02,1.243464473682561966e+00,0.000000000000000000e+00
6.900000000000000000e+02,1.433221195612147891e+00,0.000000000000000000e+00
6.910000000000000000e+02,1.375738006484407139e+00,0.000000000000000000e+00
6.920000000000000000e+02,1.555600608462253120e+00,0.000000000000000000e+00
6.930000000000000000e+02,1.314528391560422449e+00,0.000000000000000000e+00
6.940000000000000000e+02,8.767838018064942895e-01,0.000000000000000000e+00
6.950000000000000000e+02,1.578230366704137244e-01,0.000000000000000000e+00
6.960000000000000000e+02,-4.782840280445938563e-01,0.000000000000000000e+00
6.970000000000000000e+02,-9.218487009475679894e-01,0.000000000000000000e+00
6.980000000000000000e+02,-1.128809435953401774e+00,0.000000000000000000e+00
6.990000000000000000e+02,-1.048087979321380647e+00,0.000000000000000000e+00
7.000000000000000000e+02,-9.402785364699510762e-01,0.000000000000000000e+00
7.010000000000000000e+02,-1.010077723876857014e+00,0.000000000000000000e+00
7.020000000000000000e+02,-8.604636118574751080e-01,0.000000000000000000e+00
7.030000000000000000e+02,-9.529233834082418975e-01,0.000000000000000000e+00
7.040000000000000000e+02,-7.300304571388741559e-01,0.000000000000000000e+00
7.050000000000000000e+02,-8.590138631626044186e-01,0.000000000000000000e+00
7.060000000000000000e+02,-6.649262492606646813e-01,0.000000000000000000e+00
7.070000000000000000e+02,-8.047026514056392354e-01,0.000000000000000000e+00
7.080000000000000000e+02,-7.184140575981486920e-01,0.000000000000000000e+00
7.090000000000000000e+02,-5.207419250998268634e-01,0.000000000000000000e+00
7.100000000000000000e+02,-4.945195510823258700e-01,0.000000000000000000e+00
7.110000000000000000e+02,-6.195490111780562748e-01,0.000000000000000000e+00
7.120000000000000000e+02,-4.481985165529915327e-01,0.000000000000000000e+00
7.130000000000000000e+02,-4.367651390557616975e-01,0.000000000000000000e+00
7.140000000000000000e+02,-3.157471425392446296e-01,0.000000000000000000e+00
7.150000000000000000e+02,-3.228289538991147567e-01,0.000000000000000000e+00
7.160000000000000000e+02,-1.657228248288960260e-01,0.000000000000000000e+00
7.170000000000000000e+02,-3.254748110761859770e-01,0.000000000000000000e+00
7.180000000000000000e+02,-1.318519622386798706e-01,0.000000000000000000e+00
7.190000000000000000e+02,-1.707350142830749151e-01,0.000000000000000000e+00
7.200000000000000000e+02,-5.383690236091896036e-02,0.000000000000000000e+00
7.210000000000000000e+02,-1.022683353095306114e-01,0.000000000000000000e+00
7.220000000000000000e+02,-5.145790233388386481e-02,0.000000000000000000e+00
7.230000000000000000e+02,5.861709817279867063e-02,0.000000000000000000e+00
7.240000000000000000e+02,-6.376348920740255999e-02,0.000000000000000000e+00
7.250000000000000000e+02,-1.554731865629005103e-02,0.000000000000000000e+00
7.260000000000000000e+02,8.641925034433699249e-02,0.000000000000000000e+00
7.270000000000000000e+02,2.720465946863439427e-02,0.000000000000000000e+00
7.280000000000000000e+02,1.850725711519455030e-01,0.000000000000000000e+00
7.290000000000000000e+02,2.911179306020102997e-01,0.000000000000000000e+00
7.300000000000000000e+02,4.788508158831475958e-01,0.000000000000000000e+00
7.310000000000000000e+02,3.195178383804464506e-01,0.000000000000000000e+00
7.320000000000000000e+02,-9.044896817661354782e-02,0.000000000000000000e+00
7.330000000000000000e+02,-1.171085301591863748e-01,0.000000000000000000e+00
7.340000000000000000e+02,-7.189796476357536437e-02,0.000000000000000000e+00
7.350000000000000000e+02,-4.214805597366515222e-02,0.000000000000000000e+00
7.360000000000000000e+02,-2.187424669296564594e-01,0.000000000000000000e+00
7.370000000000000000e+02,-1.129860053401852277e-01,0.000000000000000000e+00
7.380000000000000000e+02,3.414751624295490284e+00,0.000000000000000000e+00
7.390000000000000000e+02,2.788730331459517986e-01,1.000000000000000000e+00
7.400000000000000000e+02,-2.842211182142111436e+00,0.000000000000000000e+00
7.410000000000000000e+02,-2.938141655551376186e+00,0.000000000000000000e+00
7.420000000000000000e+02,-2.669161248952210741e+00,0.000000000000000000e+00
7.430000000000000000e+02,-7.683705718954352004e-02,0.000000000000000000e+00
7.440000000000000000e+02,9.632394989730930224e-01,0.000000000000000000e+00
7.450000000000000000e+02,1.077060876804717182e+00,0.000000000000000000e+00
7.460000000000000000e+02,9.862508015677714512e-01,0.000000000000000000e+00
7.470000000000000000e+02,1.051829899213778452e+00,0.000000000000000000e+00
7.480000000000000000e+02,9.097930094441994964e-01,0.000000000000000000e+00
7.490000000000000000e+02,9.921588492060290365e-01,0.000000000000000000e+00
7.500000000000000000e+02,9.807965531686706484e-01,0.000000000000000000e+00
7.510000000000000000e+02,1.043276112631178254e+00,0.000000000000000000e+00
7.520000000000000000e+02,8.367889180216757650e-01,0.000000000000000000e+00
7.530000000000000000e+02,1.236845481391757762e+00,0.000000000000000000e+00
7.540000000000000000e+02,1.155914286239790201e+00,0.000000000000000000e+00
7.550000000000000000e+02,1.401421605233262424e+00,0.000000000000000000e+00
7.560000000000000000e+02,1.361499895105039215e+00,0.000000000000000000e+00
7.570000000000000000e+02,1.504833482847033777e+00,0.000000000000000000e+00
7.580000000000000000e+02,1.457210121928178559e+00,0.000000000000000000e+00
7.590000000000000000e+02,9.545842948002457584e-01,0.000000000000000000e+00
7.600000000000000000e+02,2.655587317563641303e-01,0.000000000000000000e+00
7.610000000000000000e+02,-2.175708729308456768e-01,0.000000000000000000e+00
7.620000000000000000e+02,-9.297871977859375470e-01,0.000000000000000000e+00
7.630000000000000000e+02,-9.833971833476272684e-01,0.000000000000000000e+00
7.640000000000000000e+02,-1.066585372216761085e+00,0.000000000000000000e+00
7.650000000000000000e+02,-9.911372664431035151e-01,0.000000000000000000e+00
7.660000000000000000e+02,-8.956865779795568638e-01,0.000000000000000000e+00
7.670000000000000000e+02,-8.885995335020661079e-01,0.000000000000000000e+00
7.680000000000000000e+02,-7.517785662953495596e-01,0.000000000000000000e+00
7.690000000000000000e+02,-6.801168243646159572e-01,0.000000000000000000e+00
7.700000000000000000e+02,-6.661417340406151633e-01,0.000000000000000000e+00
7.710000000000000000e+02,-5.455371631056595838e-01,0.000000000000000000e+00
7.720000000000000000e+02,-7.025492073381385261e-01,0.000000000000000000e+00
7.730000000000000000e+02,-4.467204830017994510e-01,0.000000000000000000e+00
7.740000000000000000e+02,-6.292973830355024223e-01,0.000000000000000000e+00
7.750000000000000000e+02,-5.333982572156823476e-01,0.000000000000000000e+00
7.760000000000000000e+02,-4.486543877082700971e-01,0.000000000000000000e+00
7.770000000000000000e+02,-4.562440969527125634e-01,0.000000000000000000e+00
7.780000000000000000e+02,-2.745104316997834526e-01,0.000000000000000000e+00
7.790000000000000000e+02,-3.180067470450940181e-01,0.000000000000000000e+00
7.800000000000000000e+02,-3.465538443385564604e-01,0.000000000000000000e+00
7.810000000000000000e+02,-1.920106356211411791e-01,0.000000000000000000e+00
7.820000000000000000e+02,-2.097210570751061598e-01,0.000000000000000000e+00
7.830000000000000000e+02,-1.314635456677632486e-01,0.000000000000000000e+00
7.840000000000000000e+02,-2.202355694410478293e-01,0.000000000000000000e+00
7.850000000000000000e+02,-2.377799084324689477e-02,0.000000000000000000e+00
7.860000000000000000e+02,-1.741972886748733018e-01,0.000000000000000000e+00
7.870000000000000000e+02,8.218602729214623259e-02,0.000000000000000000e+00
7.880000000000000000e+02,1.856618464870387827e-02,0.000000000000000000e+00
7.890000000000000000e+02,3.621701834910569934e-02,0.000000000000000000e+00
7.900000000000000000e+02,3.166755760822646815e-02,0.000000000000000000e+00
7.910000000000000000e+02,8.683427024606414635e-02,0.000000000000000000e+00
7.920000000000000000e+02,1.910547340240386499e-02,0.000000000000000000e+00
7.930000000000000000e+02,2.206044321353644033e-01,0.000000000000000000e+00
7.940000000000000000e+02,2.618110256302899619e-01,0.000000000000000000e+00
7.950000000000000000e+02,6.067881608445152564e-01,0.000000000000000000e+00
7.960000000000000000e+02,4.534611893958209738e-01,0.000000000000000000e+00
7.970000000000000000e+02,2.600817689087138729e-01,0.000000000000000000e+00
7.980000000000000000e+02,-1.889543238467551733e-02,0.000000000000000000e+00
7.990000000000000000e+02,3.382989794196408079e-02,0.000000000000000000e+00
8.000000000000000000e+02,-1.188952822557582806e-01,0.000000000000000000e+00
8.010000000000000000e+02,1.759818049050371203e-01,0.000000000000000000e+00
8.020000000000000000e+02,-7.936866541525371410e-01,0.000000000000000000e+00
8.030000000000000000e+02,1.350955164735892611e+00,0.000000000000000000e+00
8.040000000000000000e+02,3.029334271295157865e+00,0.000000000000000000e+00
8.050000000000000000e+02,-1.774472447889690940e+00,1.000000000000000000e+00
8.060000000000000000e+02,-3.230040668873643828e+00,0.000000000000000000e+00
8.070000000000000000e+02,-3.503179551334683062e+00,0.000000000000000000e+00
8.080000000000000000e+02,-1.131058960534244262e+00,0.000000000000000000e+00
8.090000000000000000e+02,8.579880522352073546e-01,0.000000000000000000e+00
8.100000000000000000e+02,1.181518525412232901e+00,0.000000000000000000e+00
8.110000000000000000e+02,1.154625397959838873e+00,0.000000000000000000e+00
8.120000000000000000e+02,1.085719620126563534e+00,0.000000000000000000e+00
8.130000000000000000e+02,9.572909609493035488e-01,0.000000000000000000e+00
8.140000000000000000e+02,1.087746596008381861e+00,0.000000000000000000e+00
8.150000000000000000e+02,9.817246441710210103e-01,0.000000000000000000e+00
8.160000000000000000e+02,9.862961977116188050e-01,0.000000000000000000e+00
8.170000000000000000e+02,9.615797678696716977e-01,0.000000000000000000e+00
8.180000000000000000e+02,1.040768017182130301e+00,0.000000000000000000e+00
8.190000000000000000e+02,1.022898424510609194e+00,0.000000000000000000e+00
8.200000000000000000e+02,1.242190657465482628e+00,0.000000000000000000e+00
8.210000000000000000e+02,1.310023471096665837e+00,0.000000000000000000e+00
8.220000000000000000e+02,1.240387732578573043e+00,0.000000000000000000e+00
8.230000000000000000e+02,1.245836832134214811e+00,0.000000000000000000e+00
8.240000000000000000e+02,1.104500924688220254e+00,0.000000000000000000e+00
8.250000000000000000e+02,5.487377342023935789e-01,0.000000000000000000e+00
8.260000000000000000e+02,-1.353994629763516800e-03,0.000000000000000000e+00
8.270000000000000000e+02,-6.199761902337562747e-01,0.000000000000000000e+00
8.280000000000000000e+02,-9.751250594111908754e-01,0.000000000000000000e+00
8.290000000000000000e+02,-1.048393084073879100e+00,0.000000000000000000e+00
8.300000000000000000e+02,-9.847611393180905059e-01,0.000000000000000000e+00
8.310000000000000000e+02,-1.016969384889274464e+00,0.000000000000000000e+00
8.320000000000000000e+02,-9.290794181052607348e-01,0.000000000000000000e+00
8.330000000000000000e+02,-7.583554975412278853e-01,0.000000000000000000e+00
8.340000000000000000e+02,-7.772301777010480750e-01,0.000000000000000000e+00
8.350000000000000000e+02,-6.924936543940498623e-01,0.000000000000000000e+00
8.360000000000000000e+02,-6.340387177613947545e-01,0.000000000000000000e+00
8.370000000000000000e+02,-5.398461308398773140e-01,0.000000000000000000e+00
8.380000000000000000e+02,-5.278687555480009452e-01,0.000000000000000000e+00
8.390000000000000000e+02,-5.298814456453629917e-01,0.000000000000000000e+00
8.400000000000000000e+02,-5.341343810427715555e-01,0.000000000000000000e+00
8.410000000000000000e+02,-4.426174089491282104e-01,0.000000000000000000e+00
8.420000000000000000e+02,-2.711453064097069654e-01,0.000000000000000000e+00
8.430000000000000000e+02,-3.593638225041883016e-01,0.000000000000000000e+00
8.440000000000000000e+02,-2.739212177139582205e-01,0.000000000000000000e+00
8.450000000000000000e+02,-3.531744508705392249e-01,0.000000000000000000e+00
8.460000000000000000e+02,-2.667111152645372241e-01,0.000000000000000000e+00
8.470000000000000000e+02,-1.920034881981768637e-01,0.000000000000000000e+00
8.480000000000000000e+02,-1.724889693126104018e-01,0.000000000000000000e+00
8.490000000000000000e+02,-2.507696314747547839e-01,0.000000000000000000e+00
8.500000000000000000e+02,-1.426602909652193718e-01,0.000000000000000000e+00
8.510000000000000000e+02,-1.258465404758944417e-01,0.000000000000000000e+00
8.520000000000000000e+02,-2.117800600557431523e-01,0.000000000000000000e+00
8.530000000000000000e+02,8.281940454659557360e-02,0.000000000000000000e+00
8.540000000000000000e+02,-6.428629834107958685e-02,0.000000000000000000e+00
8.550000000000000000e+02,7.332470676930559483e-02,0.000000000000000000e+00
8.560000000000000000e+02,-6.089718412032416473e-04,0.000000000000000000e+00
8.570000000000000000e+02,6.632459273209577455e-02,0.000000000000000000e+00
8.580000000000000000e+02,8.703167344533267735e-02,0.000000000000000000e+00
8.590000000000000000e+02,9.176922223958158820e-02,0.000000000000000000e+00
8.600000000000000000e+02,7.704510200562895636e-03,0.000000000000000000e+00
8.610000000000000000e+02,2.931817698682754880e-01,0.000000000000000000e+00
8.620000000000000000e+02,3.395159170906139057e-01,0.000000000000000000e+00
8.630000000000000000e+02,5.519636969067389654e-01,0.000000000000000000e+00
8.640000000000000000e+02,2.906528893463772301e-01,0.000000000000000000e+00
8.650000000000000000e+02,8.065016084297941396e-03,0.000000000000000000e+00
8.660000000000000000e+02,-8.941138584713718973e-02,0.000000000000000000e+00
8.670000000000000000e+02,-1.318989306967939257e-01,0.000000000000000000e+00
8.680000000000000000e+02,4.746575487298325229e-03,0.000000000000000000e+00
8.690000000000000000e+02,-2.819635133023998264e-01,0.000000000000000000e+00
8.700000000000000000e+02,-5.362026444116288482e-02,0.000000000000000000e+00
8.710000000000000000e+02,3.459514847086949008e+00,0.000000000000000000e+00
8.720000000000000000e+02,-4.580723192402524346e-01,1.000000000000000000e+00
8.730000000000000000e+02,-3.280307330945977373e+00,0.000000000000000000e+00
8.740000000000000000e+02,-3.520153995787208778e+00,0.000000000000000000e+00
8.750000000000000000e+02,-2.327393041209940616e+00,0.000000000000000000e+00
8.760000000000000000e+02,4.337516641688863306e-01,0.000000000000000000e+00
8.770000000000000000e+02,9.944842446390944612e-01,0.000000000000000000e+00
8.780000000000000000e+02,1.223730976966275197e+00,0.000000000000000000e+00
8.790000000000000000e+02,1.072610521401141881e+00,0.000000000000000000e+00
8.800000000000000000e+02,1.097706464526123860e+00,0.000000000000000000e+00
8.810000000000000000e+02,9.296219313847106092e-01,0.000000000000000000e+00
8.820000000000000000e+02,9.286341397148570875e-01,0.000000000000000000e+00
8.830000000000000000e+02,9.585417068887586156e-01,0.000000000000000000e+00
8.840000000000000000e+02,1.080796605927256238e+00,0.000000000000000000e+00
8.850000000000000000e+02,1.001367050096149125e+00,0.000000000000000000e+00
8.860000000000000000e+02,1.146350359184278078e+00,0.000000000000000000e+00
8.870000000000000000e+02,1.180923217282239479e+00,0.000000000000000000e+00
8.880000000000000000e+02,1.216240924768464904e+00,0.000000000000000000e+00
8.890000000000000000e+02,1.449549097354525751e+00,0.000000000000000000e+00
8.900000000000000000e+02,1.350408327478931581e+00,0.000000000000000000e+00
8.910000000000000000e+02,1.251578935465543552e+00,0.000000000000000000e+00
8.920000000000000000e+02,7.772279830028990810e-01,0.000000000000000000e+00
8.930000000000000000e+02,2.143482109182265061e-01,0.000000000000000000e+00
8.940000000000000000e+02,-4.501283880289442263e-01,0.000000000000000000e+00
8.950000000000000000e+02,-9.428172434169940219e-01,0.000000000000000000e+00
8.960000000000000000e+02,-9.573511783468615643e-01,0.000000000000000000e+00
8.970000000000000000e+02,-1.057618144831174112e+00,0.000000000000000000e+00
8.980000000000000000e+02,-1.042627106424043548e+00,0.000000000000000000e+00
8.990000000000000000e+02,-9.707316302342385850e-01,0.000000000000000000e+00
9.000000000000000000e+02,-8.508845967205265204e-01,0.000000000000000000e+00
9.010000000000000000e+02,-8.429595827029294774e-01,0.000000000000000000e+00
9.020000000000000000e+02,-7.344697183055832745e-01,0.000000000000000000e+00
9.030000000000000000e+02,-6.741638432917961277e-01,0.000000000000000000e+00
9.040000000000000000e+02,-6.367616783847332984e-01,0.000000000000000000e+00
9.050000000000000000e+02,-6.792705727985129949e-01,0.000000000000000000e+00
9.060000000000000000e+02,-5.773302975841267948e-01,0.000000000000000000e+00
9.070000000000000000e+02,-5.557465014283703431e-01,0.000000000000000000e+00
9.080000000000000000e+02,-4.878234665865276987e-01,0.000000000000000000e+00
9.090000000000000000e+02,-4.732933537225434972e-01,0.000000000000000000e+00
9.100000000000000000e+02,-5.243861744881859188e-01,0.000000000000000000e+00
9.110000000000000000e+02,-2.211007757042622035e-01,0.000000000000000000e+00
9.120000000000000000e+02,-3.687436646128754991e-01,0.000000000000000000e+00
9.130000000000000000e+02,-2.455759939068861419e-01,0.000000000000000000e+00
9.140000000000000000e+02,-3.453581086681732359e-01,0.000000000000000000e+00
9.150000000000000000e+02,-2.393880640833325746e-01,0.000000000000000000e+00
9.160000000000000000e+02,-1.710773985925268803e-01,0.000000000000000000e+00
9.170000000000000000e+02,-1.781003351462890349e-01,0.000000000000000000e+00
9.180000000000000000e+02,-3.216545506154332157e-02,0.000000000000000000e+00
9.190000000000000000e+02,-1.119251034931586369e-01,0.000000000000000000e+00
9.200000000000000000e+02,-6.915644784516075672e-02,0.000000000000000000e+00
9.210000000000000000e+02,9.956647625727982343e-03,0.000000000000000000e+00
9.220000000000000000e+02,1.836179942246333671e-02,0.000000000000000000e+00
9.230000000000000000e+02,1.725218361323000993e-01,0.000000000000000000e+00
9.240000000000000000e+02,-2.132141877539700178e-02,0.000000000000000000e+00
9.250000000000000000e+02,1.982831993445730578e-01,0.000000000000000000e+00
9.260000000000000000e+02,1.810795989333893264e-03,0.000000000000000000e+00
9.270000000000000000e+02,3.071392180950012207e-01,0.000000000000000000e+00
9.280000000000000000e+02,3.686254341655519906e-01,0.000000000000000000e+00
9.290000000000000000e+02,5.690463240924985566e-01,0.000000000000000000e+00
9.300000000000000000e+02,4.173382274093807021e-01,0.000000000000000000e+00
9.310000000000000000e+02,-3.146761377769777268e-02,0.000000000000000000e+00
9.320000000000000000e+02,-1.113534385375232888e-01,0.000000000000000000e+00
9.330000000000000000e+02,1.055542024531203188e-01,0.000000000000000000e+00
9.340000000000000000e+02,-1.186346403367228991e-01,0.000000000000000000e+00
9.350000000000000000e+02,3.056914245631687024e-02,0.000000000000000000e+00
9.360000000000000000e+02,-6.651476855417718381e-01,0.000000000000000000e+00
9.370000000000000000e+02,3.035503253612987784e+00,0.000000000000000000e+00
9.380000000000000000e+02,1.086352872796039870e+00,0.000000000000000000e+00
9.390000000000000000e+02,-2.944471079763294696e+00,1.000000000000000000e+00
9.400000000000000000e+02,-3.335431557307599437e+00,0.000000000000000000e+00
9.410000000000000000e+02,-3.044719310776999421e+00,0.000000000000000000e+00
9.420000000000000000e+02,6.244273073334241642e-02,0.000000000000000000e+00
9.430000000000000000e+02,9.365880905532415479e-01,0.000000000000000000e+00
9.440000000000000000e+02,1.268437784653509759e+00,0.000000000000000000e+00
9.450000000000000000e+02,1.088606559091799486e+00,0.000000000000000000e+00
9.460000000000000000e+02,1.265813963267253373e+00,0.000000000000000000e+00
9.470000000000000000e+02,8.952816208398967079e-01,0.000000000000000000e+00
9.480000000000000000e+02,1.155223787265977187e+00,0.000000000000000000e+00
9.490000000000000000e+02,9.416442058180825025e-01,0.000000000000000000e+00
9.500000000000000000e+02,1.024440169303084680e+00,0.000000000000000000e+00
9.510000000000000000e+02,1.002207848773478682e+00,0.000000000000000000e+00
9.520000000000000000e+02,1.143100390761401686e+00,0.000000000000000000e+00
9.530000000000000000e+02,1.182767387891533017e+00,0.000000000000000000e+00
9.540000000000000000e+02,1.307272149510734671e+00,0.000000000000000000e+00
9.550000000000000000e+02,1.447157634437111540e+00,0.000000000000000000e+00
9.560000000000000000e+02,1.465824836128072350e+00,0.000000000000000000e+00
9.570000000000000000e+02,1.356889755269017783e+00,0.000000000000000000e+00
9.580000000000000000e+02,1.212973796359905654e+00,0.000000000000000000e+00
9.590000000000000000e+02,3.355314206357032925e-01,0.000000000000000000e+00
9.600000000000000000e+02,-1.438324633644401107e-01,0.000000000000000000e+00
9.610000000000000000e+02,-8.774343232993596642e-01,0.000000000000000000e+00
9.620000000000000000e+02,-9.380502276726001565e-01,0.000000000000000000e+00
9.630000000000000000e+02,-1.058388068774609891e+00,0.000000000000000000e+00
9.640000000000000000e+02,-1.066066477322249906e+00,0.000000000000000000e+00
9.650000000000000000e+02,-9.736231328779868521e-01,0.000000000000000000e+00
9.660000000000000000e+02,-7.344089490793224151e-01,0.000000000000000000e+00
9.670000000000000000e+02,-8.281838694035863480e-01,0.000000000000000000e+00
9.680000000000000000e+02,-8.073079596105983136e-01,0.000000000000000000e+00
9.690000000000000000e+02,-6.590810067144289297e-01,0.000000000000000000e+00
9.700000000000000000e+02,-7.237780827325240862e-01,0.000000000000000000e+00
9.710000000000000000e+02,-5.834460801879826075e-01,0.000000000000000000e+00
9.720000000000000000e+02,-6.075641534001716693e-01,0.000000000000000000e+00
9.730000000000000000e+02,-4.672135532260922042e-01,0.000000000000000000e+00
9.740000000000000000e+02,-5.054332815871777074e-01,0.000000000000000000e+00
9.750000000000000000e+02,-5.292809570858146850e-01,0.000000000000000000e+00
9.760000000000000000e+02,-3.146298731946912119e-01,0.000000000000000000e+00
9.770000000000000000e+02,-3.741279633118682613e-01,0.000000000000000000e+00
9.780000000000000000e+02,-3.791100958740342142e-01,0.000000000000000000e+00
9.790000000000000000e+02,-2.670488596729512221e-01,0.000000000000000000e+00
9.800000000000000000e+02,-3.196193968734053481e-01,0.000000000000000000e+00
9.810000000000000000e+02,-2.531492265005504394e-01,0.000000000000000000e+00
9.820000000000000000e+02,-2.220949015718313158e-01,0.000000000000000000e+00
9.830000000000000000e+02,-9.652098604379397151e-02,0.000000000000000000e+00
9.840000000000000000e+02,-1.470646402656987650e-01,0.000000000000000000e+00
9.850000000000000000e+02,-1.103332413512722876e-01,0.000000000000000000e+00
9.860000000000000000e+02,-3.434763035359707922e-02,0.000000000000000000e+00
9.870000000000000000e+02,-1.533894103769062323e-01,0.000000000000000000e+00
9.880000000000000000e+02,9.399696851006072995e-02,0.000000000000000000e+00
9.890000000000000000e+02,-1.157292438893084419e-01,0.000000000000000000e+00
9.900000000000000000e+02,8.729829678744348287e-02,0.000000000000000000e+00
9.910000000000000000e+02,8.841872826369147342e-02,0.000000000000000000e+00
9.920000000000000000e+02,-1.991458389930524445e-02,0.000000000000000000e+00
9.930000000000000000e+02,1.978032324395494201e-01,0.000000000000000000e+00
9.940000000000000000e+02,3.582105641228937043e-01,0.000000000000000000e+00
9.950000000000000000e+02,4.518184197851848327e-01,0.000000000000000000e+00
9.960000000000000000e+02,2.638694307020540974e-01,0.000000000000000000e+00
9.970000000000000000e+02,-9.998074043357012275e-02,0.000000000000000000e+00
9.980000000000000000e+02,-5.453181347546471464e-02,0.000000000000000000e+00
9.990000000000000000e+02,-1.315722343013718543e-01,0.000000000000000000e+00
1.000000000000000000e+03,-9.092320081695452749e-02,0.000000000000000000e+00
1.001000000000000000e+03,-2.731710021848914871e-01,0.000000000000000000e+00
1.002000000000000000e+03,-9.237671497003215049e-02,0.000000000000000000e+00
1.003000000000000000e+03,3.477589445800328694e+00,0.000000000000000000e+00
1.004000000000000000e+03,-1.494958004539751473e-01,1.000000000000000000e+00
1.005000000000000000e+03,-3.333219067748912412e+00,0.000000000000000000e+00
1.006000000000000000e+03,-3.504870430611357168e+00,0.000000000000000000e+00
1.007000000000000000e+03,-2.501678014637745751e+00,0.000000000000000000e+00
1.008000000000000000e+03,4.576563424937550306e-01,0.000000000000000000e+00
1.009000000000000000e+03,9.140225239045165484e-01,0.000000000000000000e+00
1.010000000000000000e+03,1.171505609675866477e+00,0.000000000000000000e+00
1.011000000000000000e+03,9.924069595804775323e-01,0.000000000000000000e+00
1.012000000000000000e+03,1.209942228138355169e+00,0.000000000000000000e+00
1.013000000000000000e+03,9.524941912048650039e-01,0.000000000000000000e+00
1.014000000000000000e+03,1.017007405360643046e+00,0.000000000000000000e+00
1.015000000000000000e+03,9.613989695049043327e-01,0.000000000000000000e+00
1.016000000000000000e+03,1.000603856889776377e+00,0.000000000000000000e+00
1.017000000000000000e+03,9.960572458859996425e-01,0.000000000000000000e+00
1.018000000000000000e+03,1.160083413117842799e+00,0.000000000000000000e+00
1.019000000000000000e+03,1.186431730166033205e+00,0.000000000000000000e+00
1.020000000000000000e+03,1.425801678475167922e+00,0.000000000000000000e+00
1.021000000000000000e+03,1.347424408998713741e+00,0.000000000000000000e+00
1.022000000000000000e+03,1.442910459464828543e+00,0.000000000000000000e+00
1.023000000000000000e+03,1.380823402124258914e+00,0.000000000000000000e+00
1.024000000000000000e+03,8.810786596766924106e-01,0.000000000000000000e+00
1.025000000000000000e+03,8.723651805688854843e-02,0.000000000000000000e+00
1.026000000000000000e+03,-4.439009095573721031e-01,0.000000000000000000e+00
1.027000000000000000e+03,-8.997652902692816479e-01,0.000000000000000000e+00
1.028000000000000000e+03,-1.005690148659835970e+00,0.000000000000000000e+00
1.029000000000000000e+03,-1.113323557860700364e+00,0.000000000000000000e+00
1.030000000000000000e+03,-9.231754549802201337e-01,0.000000000000000000e+00
1.031000000000000000e+03,-9.988555322956503835e-01,0.000000000000000000e+00
1.032000000000000000e+03,-8.109893510582470988e-01,0.000000000000000000e+00
1.033000000000000000e+03,-7.157060981000858968e-01,0.000000000000000000e+00
1.034000000000000000e+03,-7.700601559591246925e-01,0.000000000000000000e+00
1.035000000000000000e+03,-6.256356837219465561e-01,0.000000000000000000e+00
1.036000000000000000e+03,-5.655870696402950371e-01,0.000000000000000000e+00
1.037000000000000000e+03,-5.789282444813976802e-01,0.000000000000000000e+00
1.038000000000000000e+03,-5.208733833275379643e-01,0.000000000000000000e+00
1.039000000000000000e+03,-5.321453490818603971e-01,0.000000000000000000e+00
1.040000000000000000e+03,-4.752333415384295545e-01,0.000000000000000000e+00
1.041000000000000000e+03,-4.326055622971433645e-01,0.000000000000000000e+00
1.042000000000000000e+03,-3.865975232556725372e-01,0.000000000000000000e+00
1.043000000000000000e+03,-2.974120392000412783e-01,0.000000000000000000e+00
1.044000000000000000e+03,-2.803596339210908672e-01,0.000000000000000000e+00
1.045000000000000000e+03,-2.376461856284961260e-01,0.000000000000000000e+00
1.046000000000000000e+03,-1.823317219684433554e-01,0.000000000000000000e+00
1.047000000000000000e+03,-1.867489573505601019e-01,0.000000000000000000e+00
1.048000000000000000e+03,-1.866174087071323651e-01,0.000000000000000000e+00
1.049000000000000000e+03,-2.632082990330425476e-02,0.000000000000000000e+00
1.050000000000000000e+03,-3.894448991795424614e-02,0.000000000000000000e+00
1.051000000000000000e+03,-2.383260103086588116e-02,0.000000000000000000e+00
1.052000000000000000e+03,1.373264108946583260e-02,0.000000000000000000e+00
1.053000000000000000e+03,-8.649016235977258216e-02,0.000000000000000000e+00
1.054000000000000000e+03,5.254999784592594841e-02,0.000000000000000000e+00
1.055000000000000000e+03,1.733514091600753537e-01,0.000000000000000000e+00
1.056000000000000000e+03,7.198203673281224069e-02,0.000000000000000000e+00
1.057000000000000000e+03,1.371362044621765586e-01,0.000000000000000000e+00
1.058000000000000000e+03,2.199357458095857129e-02,0.000000000000000000e+00
1.059000000000000000e+03,2.979587717085530607e-01,0.000000000000000000e+00
1.060000000000000000e+03,4.726696786100164638e-01,0.000000000000000000e+00
1.061000000000000000e+03,6.180960146413144729e-01,0.000000000000000000e+00
1.062000000000000000e+03,2.900413549317284456e-01,0.000000000000000000e+00
1.063000000000000000e+03,-2.840373872500038741e-02,0.000000000000000000e+00
1.064000000000000000e+03,-1.116095293321692911e-01,0.000000000000000000e+00
1.065000000000000000e+03,-3.944511129164036956e-02,0.000000000000000000e+00
1.066000000000000000e+03,1.211327561978980255e-01,0.000000000000000000e+00
1.067000000000000000e+03,-4.665726689698191376e-01,0.000000000000000000e+00
1.068000000000000000e+03,8.822798921115580784e-02,0.000000000000000000e+00
1.069000000000000000e+03,3.657904320259603992e+00,0.000000000000000000e+00
1.070000000000000000e+03,-2.730817639657714402e-01,1.000000000000000000e+00
1.071000000000000000e+03,-3.235789906501164825e+00,0.000000000000000000e+00
1.072000000000000000e+03,-3.485438540728647894e+00,0.000000000000000000e+00
1.073000000000000000e+03,-2.532866905931310253e+00,0.000000000000000000e+00
1.074000000000000000e+03,3.725123772131594957e-01,0.000000000000000000e+00
1.075000000000000000e+03,9.731141474676152647e-01,0.000000000000000000e+00
1.076000000000000000e+03,1.160913066963218387e+00,0.000000000000000000e+00
1.077000000000000000e+03,1.153476200688433151e+00,0.000000000000000000e+00
1.078000000000000000e+03,1.136605780178469249e+00,0.000000000000000000e+00
1.079000000000000000e+03,8.527867000236313277e-01,0.000000000000000000e+00
1.080000000000000000e+03,1.077186015141894826e+00,0.000000000000000000e+00
1.081000000000000000e+03,8.731517495073572999e-01,0.000000000000000000e+00
1.082000000000000000e+03,9.742927250426330898e-01,0.000000000000000000e+00
1.083000000000000000e+03,1.026723221692946275e+00,0.000000000000000000e+00
1.084000000000000000e+03,1.122347367608830027e+00,0.000000000000000000e+00
1.085000000000000000e+03,1.185943520989171773e+00,0.000000000000000000e+00
1.086000000000000000e+03,1.379754453402434633e+00,0.000000000000000000e+00
1.087000000000000000e+03,1.425957316566302424e+00,0.000000000000000000e+00
1.088000000000000000e+03,1.606381862422459061e+00,0.000000000000000000e+00
1.089000000000000000e+03,1.339877579549082043e+00,0.000000000000000000e+00
1.090000000000000000e+03,9.103476534369719930e-01,0.000000000000000000e+00
1.091000000000000000e+03,2.876580299032492349e-01,0.000000000000000000e+00
1.092000000000000000e+03,-4.753541872490431031e-01,0.000000000000000000e+00
1.093000000000000000e+03,-9.510497337307938226e-01,0.000000000000000000e+00
1.094000000000000000e+03,-1.018765502943433932e+00,0.000000000000000000e+00
1.095000000000000000e+03,-1.277662415141987307e+00,0.000000000000000000e+00
1.096000000000000000e+03,-9.557341117774225125e-01,0.000000000000000000e+00
1.097000000000000000e+03,-1.100317935255816337e+00,0.000000000000000000e+00
1.098000000000000000e+03,-8.428644213108661409e-01,0.000000000000000000e+00
1.099000000000000000e+03,-9.928882347806693431e-01,0.000000000000000000e+00
1.100000000000000000e+03,-7.286063143113532536e-01,0.000000000000000000e+00
1.101000000000000000e+03,-7.601374237265529077e-01,0.000000000000000000e+00
1.102000000000000000e+03,-7.761429957706184046e-01,0.000000000000000000e+00
1.103000000000000000e+03,-7.013644545111491491e-01,0.000000000000000000e+00
1.104000000000000000e+03,-6.446529517168365642e-01,0.000000000000000000e+00
1.105000000000000000e+03,-5.800264782793748131e-01,0.000000000000000000e+00
1.106000000000000000e+03,-5.753080402491411727e-01,0.000000000000000000e+00
1.107000000000000000e+03,-4.912812462524683843e-01,0.000000000000000000e+00
1.108000000000000000e+03,-4.245578348015524583e-01,0.000000000000000000e+00
1.109000000000000000e+03,-5.036814423937829854e-01,0.000000000000000000e+00
1.110000000000000000e+03,-3.040999116677705616e-01,0.000000000000000000e+00
1.111000000000000000e+03,-3.771382985221858331e-01,0.000000000000000000e+00
1.112000000000000000e+03,-1.346790332168281701e-01,0.000000000000000000e+00
1.113000000000000000e+03,-2.588368350957248043e-01,0.000000000000000000e+00
1.114000000000000000e+03,-1.131517921628268919e-01,0.000000000000000000e+00
1.115000000000000000e+03,-2.371679115570546614e-01,0.000000000000000000e+00
1.116000000000000000e+03,-6.418746256897728264e-02,0.000000000000000000e+00
1.117000000000000000e+03,-7.979417706854244341e-02,0.000000000000000000e+00
1.118000000000000000e+03,-1.005679338017037849e-01,0.000000000000000000e+00
1.119000000000000000e+03,-3.249839544560344240e-02,0.000000000000000000e+00
1.120000000000000000e+03,8.297735948850767929e-02,0.000000000000000000e+00
1.121000000000000000e+03,4.724109894028914042e-03,0.000000000000000000e+00
1.122000000000000000e+03,3.075503090533601158e-01,0.000000000000000000e+00
1.123000000000000000e+03,2.571874816275462328e-01,0.000000000000000000e+00
1.124000000000000000e+03,5.138098745998942452e-01,0.000000000000000000e+00
1.125000000000000000e+03,2.004041166084124803e-01,0.000000000000000000e+00
1.126000000000000000e+03,1.661150902045122335e-01,0.000000000000000000e+00
1.127000000000000000e+03,-1.477003205129479579e-01,0.000000000000000000e+00
1.128000000000000000e+03,2.189021727770436992e-02,0.000000000000000000e+00
1.129000000000000000e+03,-2.855872969665013139e-01,0.000000000000000000e+00
1.130000000000000000e+03,2.134250691649342557e-01,0.000000000000000000e+00
1.131000000000000000e+03,-7.468012839444481132e-01,0.000000000000000000e+00
1.132000000000000000e+03,2.247351175298577974e+00,0.000000000000000000e+00
1.133000000000000000e+03,2.736682520694385445e+00,0.000000000000000000e+00
1.134000000000000000e+03,-2.180059018775573509e+00,1.000000000000000000e+00
1.135000000000000000e+03,-2.340664599689545433e+00,0.000000000000000000e+00
1.136000000000000000e+03,-3.132369423592802793e+00,0.000000000000000000e+00
1.137000000000000000e+03,-1.504969799805785602e+00,0.000000000000000000e+00
1.138000000000000000e+03,4.114437934518700435e-01,0.000000000000000000e+00
1.139000000000000000e+03,9.883238090155439526e-01,0.000000000000000000e+00
1.140000000000000000e+03,8.384076094899894915e-01,0.000000000000000000e+00
1.141000000000000000e+03,9.996320722374575363e-01,0.000000000000000000e+00
1.142000000000000000e+03,8.091027023630360526e-01,0.000000000000000000e+00
1.143000000000000000e+03,9.663537597988283157e-01,0.000000000000000000e+00
1.144000000000000000e+03,9.481937379677196631e-01,0.000000000000000000e+00
1.145000000000000000e+03,9.304401756497461262e-01,0.000000000000000000e+00
1.146000000000000000e+03,1.008037755078099451e+00,0.000000000000000000e+00
1.147000000000000000e+03,1.065761340860870598e+00,0.000000000000000000e+00
1.148000000000000000e+03,1.087069803659164835e+00,0.000000000000000000e+00
1.149000000000000000e+03,1.347357609131470957e+00,0.000000000000000000e+00
1.150000000000000000e+03,1.428514344574105088e+00,0.000000000000000000e+00
1.151000000000000000e+03,1.564473370805388175e+00,0.000000000000000000e+00
1.152000000000000000e+03,1.613661316283906633e+00,0.000000000000000000e+00
1.153000000000000000e+03,1.157516397144300324e+00,0.000000000000000000e+00
1.154000000000000000e+03,6.023918943321002750e-01,0.000000000000000000e+00
1.155000000000000000e+03,-2.593757925210417314e-02,0.000000000000000000e+00
1.156000000000000000e+03,-7.495288608291341692e-01,0.000000000000000000e+00
1.157000000000000000e+03,-9.806059020225079692e-01,0.000000000000000000e+00
1.158000000000000000e+03,-1.145988697453559135e+00,0.000000000000000000e+00
1.159000000000000000e+03,-1.190203857734659421e+00,0.000000000000000000e+00
1.160000000000000000e+03,-9.570935293416267253e-01,0.000000000000000000e+00
1.161000000000000000e+03,-8.929774166053968676e-01,0.000000000000000000e+00
1.162000000000000000e+03,-8.083570645310528269e-01,0.000000000000000000e+00
1.163000000000000000e+03,-8.683161128651594174e-01,0.000000000000000000e+00
1.164000000000000000e+03,-6.750750274309645915e-01,0.000000000000000000e+00
1.165000000000000000e+03,-6.747504645526486433e-01,0.000000000000000000e+00
1.166000000000000000e+03,-6.507768499170273335e-01,0.000000000000000000e+00
1.167000000000000000e+03,-4.600145276453849741e-01,0.000000000000000000e+00
1.168000000000000000e+03,-5.529469308296942609e-01,0.000000000000000000e+00
1.169000000000000000e+03,-5.320111609070289349e-01,0.000000000000000000e+00
1.170000000000000000e+03,-3.989353958992891136e-01,0.000000000000000000e+00
1.171000000000000000e+03,-4.478517880259227923e-01,0.000000000000000000e+00
1.172000000000000000e+03,-2.991965052282920534e-01,0.000000000000000000e+00
1.173000000000000000e+03,-4.291540412579078478e-01,0.000000000000000000e+00
1.174000000000000000e+03,-1.769100544551561183e-01,0.000000000000000000e+00
1.175000000000000000e+03,-1.813253567211683404e-01,0.000000000000000000e+00
1.176000000000000000e+03,-1.632430849426876884e-01,0.000000000000000000e+00
1.177000000000000000e+03,-1.354667290832065607e-01,0.000000000000000000e+00
1.178000000000000000e+03,-2.068655305005680789e-01,0.000000000000000000e+00
1.179000000000000000e+03,1.009459745958302124e-02,0.000000000000000000e+00
1.180000000000000000e+03,-1.193214928974316719e-01,0.000000000000000000e+00
1.181000000000000000e+03,-1.385312451034018122e-02,0.000000000000000000e+00
1.182000000000000000e+03,-7.404469022336022943e-02,0.000000000000000000e+00
1.183000000000000000e+03,-1.767863604161458435e-02,0.000000000000000000e+00
1.184000000000000000e+03,1.629548678601173972e-02,0.000000000000000000e+00
1.185000000000000000e+03,1.042938393179169976e-01,0.000000000000000000e+00
1.186000000000000000e+03,3.028660746605485454e-01,0.000000000000000000e+00
1.187000000000000000e+03,4.306288858359008098e-01,0.000000000000000000e+00
1.188000000000000000e+03,5.090250903116900760e-01,0.000000000000000000e+00
1.189000000000000000e+03,3.249540282532740743e-01,0.000000000000000000e+00
1.190000000000000000e+03,-3.499413457132082017e-02,0.000000000000000000e+00
1.191000000000000000e+03,-3.323819858760112492e-03,0.000000000000000000e+00
1.192000000000000000e+03,1.350244278651488092e-02,0.000000000000000000e+00
1.193000000000000000e+03,3.467701302491052462e-02,0.000000000000000000e+00
1.194000000000000000e+03,-2.101530844924120178e-01,0.000000000000000000e+00
1.195000000000000000e+03,-1.205662450945674119e-01,0.000000000000000000e+00
1.196000000000000000e+03,3.746257885511754981e+00,0.000000000000000000e+00
1.197000000000000000e+03,2.809687399066295721e-01,1.000000000000000000e+00
1.198000000000000000e+03,-3.121921190476145025e+00,0.000000000000000000e+00
1.199000000000000000e+03,-3.382053676242284812e+00,0.000000000000000000e+00
1.200000000000000000e+03,-2.413182902531910035e+00,0.000000000000000000e+00
1.201000000000000000e+03,1.245714839266889029e-01,0.000000000000000000e+00
1.202000000000000000e+03,9.132902696849385382e-01,0.000000000000000000e+00
1.203000000000000000e+03,1.128058125506100851e+00,0.000000000000000000e+00
1.204000000000000000e+03,9.971317875135062847e-01,0.000000000000000000e+00
1.205000000000000000e+03,1.064440115588194180e+00,0.000000000000000000e+00
1.206000000000000000e+03,9.805631056253478750e-01,0.000000000000000000e+00
1.207000000000000000e+03,9.804935984527224369e-01,0.000000000000000000e+00
1.208000000000000000e+03,9.700009331681688218e-01,0.000000000000000000e+00
1.209000000000000000e+03,1.029283082370602953e+00,0.000000000000000000e+00
1.210000000000000000e+03,1.015474601887678130e+00,0.000000000000000000e+00
1.211000000000000000e+03,1.047691899844114483e+00,0.000000000000000000e+00
1.212000000000000000e+03,1.243722085611153716e+00,0.000000000000000000e+00
1.213000000000000000e+03,1.244369446141860180e+00,0.000000000000000000e+00
1.214000000000000000e+03,1.402709613568496660e+00,0.000000000000000000e+00
1.215000000000000000e+03,1.590997582876071625e+00,0.000000000000000000e+00
1.216000000000000000e+03,1.180102641684363629e+00,0.000000000000000000e+00
1.217000000000000000e+03,9.519206482382830403e-01,0.000000000000000000e+00
1.218000000000000000e+03,1.528503561549105494e-01,0.000000000000000000e+00
1.219000000000000000e+03,-3.737129161718695802e-01,0.000000000000000000e+00
1.220000000000000000e+03,-7.928350929690257676e-01,0.000000000000000000e+00
1.221000000000000000e+03,-9.625388733067923308e-01,0.000000000000000000e+00
1.222000000000000000e+03,-9.657405496337846396e-01,0.000000000000000000e+00
1.223000000000000000e+03,-9.751050253854001149e-01,0.000000000000000000e+00
1.224000000000000000e+03,-8.546876562883991557e-01,0.000000000000000000e+00
1.225000000000000000e+03,-8.329239490415882852e-01,0.000000000000000000e+00
1.226000000000000000e+03,-7.958931596218452587e-01,0.000000000000000000e+00
1.227000000000000000e+03,-6.810673560598321519e-01,0.000000000000000000e+00
1.228000000000000000e+03,-6.672509758378063482e-01,0.000000000000000000e+00
1.229000000000000000e+03,-5.194830328662362051e-01,0.000000000000000000e+00
1.230000000000000000e+03,-6.495578659031457924e-01,0.000000000000000000e+00
1.231000000000000000e+03,-3.671840893094344693e-01,0.000000000000000000e+00
1.232000000000000000e+03,-6.015107179528654813e-01,0.000000000000000000e+00
1.233000000000000000e+03,-4.345379503939248433e-01,0.000000000000000000e+00
1.234000000000000000e+03,-4.369107991688775394e-01,0.000000000000000000e+00
1.235000000000000000e+03,-3.683606781882460823e-01,0.000000000000000000e+00
1.236000000000000000e+03,-3.450515922208907682e-01,0.000000000000000000e+00
1.237000000000000000e+03,-3.863694586295116640e-01,0.000000000000000000e+00
1.238000000000000000e+03,-2.623871741576731531e-01,0.000000000000000000e+00
1.239000000000000000e+03,-2.552466059927446795e-01,0.000000000000000000e+00
1.240000000000000000e+03,-3.235158538826547470e-01,0.000000000000000000e+00
1.241000000000000000e+03,-4.347407920431708983e-02,0.000000000000000000e+00
1.242000000000000000e+03,-2.175629372281152329e-01,0.000000000000000000e+00
1.243000000000000000e+03,-8.590493586712948104e-02,0.000000000000000000e+00
1.244000000000000000e+03,-9.430056740937488302e-02,0.000000000000000000e+00
1.245000000000000000e+03,-1.140044249433074530e-01,0.000000000000000000e+00
1.246000000000000000e+03,2.738102628659911178e-02,0.000000000000000000e+00
1.247000000000000000e+03,1.953004281296934555e-02,0.000000000000000000e+00
1.248000000000000000e+03,-1.361980710396950289e-01,0.000000000000000000e+00
1.249000000000000000e+03,1.462005997889762043e-01,0.000000000000000000e+00
1.250000000000000000e+03,-1.445829766799704708e-01,0.000000000000000000e+00
1.251000000000000000e+03,1.525067337671403567e-01,0.000000000000000000e+00
1.252000000000000000e+03,-3.545445418758567686e-03,0.000000000000000000e+00
1.253000000000000000e+03,2.040583875229557975e-01,0.000000000000000000e+00
1.254000000000000000e+03,2.106468847457208804e-01,0.000000000000000000e+00
1.255000000000000000e+03,5.179701955761836230e-01,0.000000000000000000e+00
1.256000000000000000e+03,3.067554865780307005e-01,0.000000000000000000e+00
1.257000000000000000e+03,-1.321492077092023820e-01,0.000000000000000000e+00
1.258000000000000000e+03,-9.387506349013823026e-02,0.000000000000000000e+00
1.259000000000000000e+03,-1.787148559279939930e-01,0.000000000000000000e+00
1.260000000000000000e+03,-1.581805086228912638e-01,0.000000000000000000e+00
1.261000000000000000e+03,-1.025187284985610570e-01,0.000000000000000000e+00
1.262000000000000000e+03,-7.137569998157162754e-01,0.000000000000000000e+00
1.263000000000000000e+03,3.203189563208017177e+00,0.000000000000000000e+00
1.264000000000000000e+03,1.352691081605557288e+00,0.000000000000000000e+00
1.265000000000000000e+03,-3.239700041086937432e+00,1.000000000000000000e+00
1.266000000000000000e+03,-3.353126471443062862e+00,0.000000000000000000e+00
1.267000000000000000e+03,-3.124689260982810080e+00,0.000000000000000000e+00
1.268000000000000000e+03,1.178404120362734099e-02,0.000000000000000000e+00
1.269000000000000000e+03,8.811138533971163422e-01,0.000000000000000000e+00
1.270000000000000000e+03,1.056683662648827404e+00,0.000000000000000000e+00
1.271000000000000000e+03,1.013997900014996345e+00,0.000000000000000000e+00
1.272000000000000000e+03,1.044870527052027986e+00,0.000000000000000000e+00
1.273000000000000000e+03,8.443689106146873291e-01,0.000000000000000000e+00
1.274000000000000000e+03,1.030439809027190012e+00,0.000000000000000000e+00
1.275000000000000000e+03,8.400272702114219836e-01,0.000000000000000000e+00
1.276000000000000000e+03,9.040528075233745797e-01,0.000000000000000000e+00
1.277000000000000000e+03,9.357616671477496650e-01,0.000000000000000000e+00
1.278000000000000000e+03,9.791885579311281340e-01,0.000000000000000000e+00
1.279000000000000000e+03,1.135003217939607900e+00,0.000000000000000000e+00
1.280000000000000000e+03,1.288934321623159018e+00,0.000000000000000000e+00
1.281000000000000000e+03,1.456779114571059575e+00,0.000000000000000000e+00
1.282000000000000000e+03,1.480667701030348837e+00,0.000000000000000000e+00
1.283000000000000000e+03,1.396504416534204873e+00,0.000000000000000000e+00
1.284000000000000000e+03,8.998765721668213757e-01,0.000000000000000000e+00
1.285000000000000000e+03,3.968513607973448987e-01,0.000000000000000000e+00
1.286000000000000000e+03,-2.296511901459422078e-01,0.000000000000000000e+00
1.287000000000000000e+03,-7.396543736057445972e-01,0.000000000000000000e+00
1.288000000000000000e+03,-8.381120504734939081e-01,0.000000000000000000e+00
1.289000000000000000e+03,-1.080770303653167286e+00,0.000000000000000000e+00
1.290000000000000000e+03,-9.502727059854541025e-01,0.000000000000000000e+00
1.291000000000000000e+03,-8.942990080021508970e-01,0.000000000000000000e+00
1.292000000000000000e+03,-7.882800685073922953e-01,0.000000000000000000e+00
1.293000000000000000e+03,-7.807432387948091135e-01,0.000000000000000000e+00
1.294000000000000000e+03,-6.682032453519650694e-01,0.000000000000000000e+00
1.295000000000000000e+03,-5.999712117336236661e-01,0.000000000000000000e+00
1.296000000000000000e+03,-6.233461133872849613e-01,0.000000000000000000e+00
1.297000000000000000e+03,-5.358675119376463680e-01,0.000000000000000000e+00
1.298000000000000000e+03,-3.839959205387991070e-01,0.000000000000000000e+00
1.299000000000000000e+03,-4.402335804858886759e-01,0.000000000000000000e+00
1.300000000000000000e+03,-4.754007783376288931e-01,0.000000000000000000e+00
1.301000000000000000e+03,-3.096577133487593558e-01,0.000000000000000000e+00
1.302000000000000000e+03,-3.873129036048127971e-01,0.000000000000000000e+00
1.303000000000000000e+03,-2.823690616790119901e-01,0.000000000000000000e+00
1.304000000000000000e+03,-2.189101526091022931e-01,0.000000000000000000e+00
1.305000000000000000e+03,-1.974637814611546749e-01,0.000000000000000000e+00
1.306000000000000000e+03,-3.345064607665283463e-01,0.000000000000000000e+00
1.307000000000000000e+03,-2.018772678085400674e-01,0.000000000000000000e+00
1.308000000000000000e+03,-1.689016979058143297e-01,0.000000000000000000e+00
1.309000000000000000e+03,-1.299772590820144624e-01,0.000000000000000000e+00
1.310000000000000000e+03,-6.906056128359912283e-02,0.000000000000000000e+00
1.311000000000000000e+03,-8.088758889084544934e-02,0.000000000000000000e+00
1.312000000000000000e+03,-9.185780682582649417e-03,0.000000000000000000e+00
1.313000000000000000e+03,-1.489124993918420903e-01,0.000000000000000000e+00
1.314000000000000000e+03,-5.415240967503225956e-03,0.000000000000000000e+00
1.315000000000000000e+03,-2.879079505185648535e-02,0.000000000000000000e+00
1.316000000000000000e+03,1.302587994185330864e-03,0.000000000000000000e+00
1.317000000000000000e+03,2.958567556568764655e-03,0.000000000000000000e+00
1.318000000000000000e+03,1.215815514564274891e-01,0.000000000000000000e+00
1.319000000000000000e+03,4.538775950398979235e-03,0.000000000000000000e+00
1.320000000000000000e+03,1.028399896139562675e-01,0.000000000000000000e+00
1.321000000000000000e+03,-4.114669926233343461e-02,0.000000000000000000e+00
1.322000000000000000e+03,3.440374226877207509e-01,0.000000000000000000e+00
1.323000000000000000e+03,3.265659634679874967e-01,0.000000000000000000e+00
1.324000000000000000e+03,5.878996149391637616e-01,0.000000000000000000e+00
1.325000000000000000e+03,2.348353367106945921e-01,0.000000000000000000e+00
1.326000000000000000e+03,-2.155806367631673409e-02,0.000000000000000000e+00
1.327000000000000000e+03,-1.149788828212451042e-01,0.000000000000000000e+00
1.328000000000000000e+03,6.294959721781315243e-02,0.000000000000000000e+00
1.329000000000000000e+03,-1.511905982825889061e-01,0.000000000000000000e+00
1.330000000000000000e+03,-1.043168015092249684e-01,0.000000000000000000e+00
1.331000000000000000e+03,-5.126326717457772020e-01,0.000000000000000000e+00
1.332000000000000000e+03,3.405681699151858144e+00,0.000000000000000000e+00
1.333000000000000000e+03,8.226562722871090250e-01,0.000000000000000000e+00
1.334000000000000000e+03,-3.164087717557239721e+00,1.000000000000000000e+00
1.335000000000000000e+03,-3.404365808135732863e+00,0.000000000000000000e+00
1.336000000000000000e+03,-2.985656078369995914e+00,0.000000000000000000e+00
1.337000000000000000e+03,1.247170670037699852e-01,0.000000000000000000e+00
1.338000000000000000e+03,8.233590039365331625e-01,0.000000000000000000e+00
1.339000000000000000e+03,9.858556632978985323e-01,0.000000000000000000e+00
1.340000000000000000e+03,1.001220455383784458e+00,0.000000000000000000e+00
1.341000000000000000e+03,1.057831085386452319e+00,0.000000000000000000e+00
1.342000000000000000e+03,9.082055797936801067e-01,0.000000000000000000e+00
1.343000000000000000e+03,9.679803563691915524e-01,0.000000000000000000e+00
1.344000000000000000e+03,8.565227684178601253e-01,0.000000000000000000e+00
1.345000000000000000e+03,9.216513163542512377e-01,0.000000000000000000e+00
1.346000000000000000e+03,8.996421334850644991e-01,0.000000000000000000e+00
1.347000000000000000e+03,1.167864937807058467e+00,0.000000000000000000e+00
1.348000000000000000e+03,1.011990267306194680e+00,0.000000000000000000e+00
1.349000000000000000e+03,1.427511141348914769e+00,0.000000000000000000e+00
1.350000000000000000e+03,1.413678335907046391e+00,0.000000000000000000e+00
1.351000000000000000e+03,1.529439833305635599e+00,0.000000000000000000e+00
1.352000000000000000e+03,1.304421975585802196e+00,0.000000000000000000e+00
1.353000000000000000e+03,1.072828691668969103e+00,0.000000000000000000e+00
1.354000000000000000e+03,3.999743812476752036e-01,0.000000000000000000e+00
1.355000000000000000e+03,-2.916907395704287365e-01,0.000000000000000000e+00
1.356000000000000000e+03,-7.698406163080527831e-01,0.000000000000000000e+00
1.357000000000000000e+03,-1.025634970918018141e+00,0.000000000000000000e+00
1.358000000000000000e+03,-1.019485550696620058e+00,0.000000000000000000e+00
1.359000000000000000e+03,-1.065689580487904076e+00,0.000000000000000000e+00
1.360000000000000000e+03,-9.422136463200210255e-01,0.000000000000000000e+00
1.361000000000000000e+03,-9.808788199698529331e-01,0.000000000000000000e+00
1.362000000000000000e+03,-8.688187645128961911e-01,0.000000000000000000e+00
1.363000000000000000e+03,-6.588452743792451161e-01,0.000000000000000000e+00
1.364000000000000000e+03,-5.755611229605236412e-01,0.000000000000000000e+00
1.365000000000000000e+03,-6.217085356253606587e-01,0.000000000000000000e+00
1.366000000000000000e+03,-6.057007615211995599e-01,0.000000000000000000e+00
1.367000000000000000e+03,-5.141066652885286636e-01,0.000000000000000000e+00
1.368000000000000000e+03,-5.570092119794576302e-01,0.000000000000000000e+00
1.369000000000000000e+03,-4.447508305962783459e-01,0.000000000000000000e+00
1.370000000000000000e+03,-3.871663053545688626e-01,0.000000000000000000e+00
1.371000000000000000e+03,-3.542488461254079124e-01,0.000000000000000000e+00
1.372000000000000000e+03,-3.632019307340816905e-01,0.000000000000000000e+00
1.373000000000000000e+03,-3.265935912399344221e-01,0.000000000000000000e+00
1.374000000000000000e+03,-2.898103396897244166e-01,0.000000000000000000e+00
1.375000000000000000e+03,-2.707046251367685175e-01,0.000000000000000000e+00
1.376000000000000000e+03,-1.699900234485352823e-01,0.000000000000000000e+00
1.377000000000000000e+03,-2.220832605204315913e-01,0.000000000000000000e+00
1.378000000000000000e+03,-1.143913327555955151e-01,0.000000000000000000e+00
1.379000000000000000e+03,-5.178993447609922529e-02,0.000000000000000000e+00
1.380000000000000000e+03,-4.197655769996695013e-02,0.000000000000000000e+00
1.381000000000000000e+03,-1.408811129016534006e-02,0.000000000000000000e+00
1.382000000000000000e+03,-7.574288627013836539e-02,0.000000000000000000e+00
1.383000000000000000e+03,3.338641477007607550e-02,0.000000000000000000e+00
1.384000000000000000e+03,-7.583271251499322171e-03,0.000000000000000000e+00
1.385000000000000000e+03,6.949062008741889798e-03,0.000000000000000000e+00
1.386000000000000000e+03,8.024377453868435095e-02,0.000000000000000000e+00
1.387000000000000000e+03,1.347997316323198969e-01,0.000000000000000000e+00
1.388000000000000000e+03,6.757046267981928200e-02,0.000000000000000000e+00
1.389000000000000000e+03,2.951439854283621211e-01,0.000000000000000000e+00
1.390000000000000000e+03,3.869098695078165284e-01,0.000000000000000000e+00
1.391000000000000000e+03,3.661877601349168843e-01,0.000000000000000000e+00
1.392000000000000000e+03,3.190859156757153148e-01,0.000000000000000000e+00
1.393000000000000000e+03,-1.295057583644605992e-01,0.000000000000000000e+00
1.394000000000000000e+03,-1.547883506198338144e-01,0.000000000000000000e+00
1.395000000000000000e+03,-8.204274713742146230e-02,0.000000000000000000e+00
1.396000000000000000e+03,5.600650194985449387e-02,0.000000000000000000e+00
1.397000000000000000e+03,-3.338904844944324823e-01,0.000000000000000000e+00
1.398000000000000000e+03,1.485585068843862933e-01,0.000000000000000000e+00
1.399000000000000000e+03,3.796075919992361491e+00,0.000000000000000000e+00
1.400000000000000000e+03,5.446525652184113636e-02,1.000000000000000000e+00
1.401000000000000000e+03,-2.701652387602638150e+00,0.000000000000000000e+00
1.402000000000000000e+03,-2.877377253524203926e+00,0.000000000000000000e+00
1.403000000000000000e+03,-2.669318957947251825e+00,0.000000000000000000e+00
1.404000000000000000e+03,-1.132981942932083375e-01,0.000000000000000000e+00
1.405000000000000000e+03,7.734774873482331836e-01,0.000000000000000000e+00
1.406000000000000000e+03,9.482060193743027110e-01,0.000000000000000000e+00
1.407000000000000000e+03,7.596064272048179689e-01,0.000000000000000000e+00
1.408000000000000000e+03,8.940141869291804433e-01,0.000000000000000000e+00
1.409000000000000000e+03,8.618396364851286240e-01,0.000000000000000000e+00
1.410000000000000000e+03,9.774785507650729510e-01,0.000000000000000000e+00
1.411000000000000000e+03,7.916323689620385906e-01,0.000000000000000000e+00
1.412000000000000000e+03,8.419972312274531800e-01,0.000000000000000000e+00
1.413000000000000000e+03,8.975802310605166534e-01,0.000000000000000000e+00
1.414000000000000000e+03,1.103143858261026899e+00,0.000000000000000000e+00
1.415000000000000000e+03,1.110923941268908033e+00,0.000000000000000000e+00
1.416000000000000000e+03,1.447581639561099642e+00,0.000000000000000000e+00
1.417000000000000000e+03,1.349479008237038702e+00,0.000000000000000000e+00
1.418000000000000000e+03,1.523309251269316489e+00,0.000000000000000000e+00
1.419000000000000000e+03,1.240445060324473214e+00,0.000000000000000000e+00
1.420000000000000000e+03,9.489715622571389675e-01,0.000000000000000000e+00
1.421000000000000000e+03,2.366935811760147446e-01,0.000000000000000000e+00
1.422000000000000000e+03,-3.861402997246793922e-01,0.000000000000000000e+00
1.423000000000000000e+03,-9.165651130812847436e-01,0.000000000000000000e+00
1.424000000000000000e+03,-1.107300853496516302e+00,0.000000000000000000e+00
1.425000000000000000e+03,-1.047567913054822331e+00,0.000000000000000000e+00
1.426000000000000000e+03,-1.056877627195994984e+00,0.000000000000000000e+00
1.427000000000000000e+03,-1.012351079493071238e+00,0.000000000000000000e+00
1.428000000000000000e+03,-8.078897989076475605e-01,0.000000000000000000e+00
1.429000000000000000e+03,-8.978299313976647600e-01,0.000000000000000000e+00
1.430000000000000000e+03,-7.013467572347824586e-01,0.000000000000000000e+00
1.431000000000000000e+03,-6.072991450958635795e-01,0.000000000000000000e+00
1.432000000000000000e+03,-6.407991692692756036e-01,0.000000000000000000e+00
1.433000000000000000e+03,-5.745382275337954647e-01,0.000000000000000000e+00
1.434000000000000000e+03,-5.537139483173458832e-01,0.000000000000000000e+00
1.435000000000000000e+03,-5.663768310969172770e-01,0.000000000000000000e+00
1.436000000000000000e+03,-4.672458050984726330e-01,0.000000000000000000e+00
1.437000000000000000e+03,-5.187417623090393448e-01,0.000000000000000000e+00
1.438000000000000000e+03,-3.706846208415298105e-01,0.000000000000000000e+00
1.439000000000000000e+03,-3.660771710046561989e-01,0.000000000000000000e+00
1.440000000000000000e+03,-3.168487823770667067e-01,0.000000000000000000e+00
1.441000000000000000e+03,-2.352278731544264201e-01,0.000000000000000000e+00
1.442000000000000000e+03,-2.843247047899312707e-01,0.000000000000000000e+00
1.443000000000000000e+03,-2.320009580481710854e-01,0.000000000000000000e+00
1.444000000000000000e+03,-1.440607239030030351e-01,0.000000000000000000e+00
1.445000000000000000e+03,-1.130018044091094243e-01,0.000000000000000000e+00
1.446000000000000000e+03,1.501050889352655536e-02,0.000000000000000000e+00
1.447000000000000000e+03,-1.720480590011549127e-01,0.000000000000000000e+00
1.448000000000000000e+03,4.189482327257464805e-02,0.000000000000000000e+00
1.449000000000000000e+03,2.104923639563215099e-02,0.000000000000000000e+00
1.450000000000000000e+03,1.542632097433467298e-01,0.000000000000000000e+00
1.451000000000000000e+03,4.357930472408185624e-02,0.000000000000000000e+00
1.452000000000000000e+03,2.919660949524945370e-01,0.000000000000000000e+00
1.453000000000000000e+03,2.404386720463783378e-01,0.000000000000000000e+00
1.454000000000000000e+03,4.821505209014754212e-01,0.000000000000000000e+00
1.455000000000000000e+03,3.175017658873215964e-01,0.000000000000000000e+00
1.456000000000000000e+03,1.239377151509146908e-02,0.000000000000000000e+00
1.457000000000000000e+03,-3.247633996952536961e-02,0.000000000000000000e+00
1.458000000000000000e+03,1.959793771079435584e-03,0.000000000000000000e+00
1.459000000000000000e+03,-8.844792666255579805e-02,0.000000000000000000e+00
1.460000000000000000e+03,-5.780720645106338096e-02,0.000000000000000000e+00
1.461000000000000000e+03,-2.796139027477735350e-01,0.000000000000000000e+00
1.462000000000000000e+03,3.358129449988117798e+00,0.000000000000000000e+00
1.463000000000000000e+03,6.837724504039471851e-01,1.000000000000000000e+00
1.464000000000000000e+03,-2.477771152255700660e+00,0.000000000000000000e+00
1.465000000000000000e+03,-2.557966826275476890e+00,0.000000000000000000e+00
1.466000000000000000e+03,-2.709731640407183395e+00,0.000000000000000000e+00
1.467000000000000000e+03,-4.243801548407964974e-01,0.000000000000000000e+00
1.468000000000000000e+03,7.343905623407712691e-01,0.000000000000000000e+00
1.469000000000000000e+03,9.469660839619787884e-01,0.000000000000000000e+00
1.470000000000000000e+03,7.973058001828793318e-01,0.000000000000000000e+00
1.471000000000000000e+03,7.768008393014325108e-01,0.000000000000000000e+00
1.472000000000000000e+03,8.930744055647307222e-01,0.000000000000000000e+00
1.473000000000000000e+03,7.942371450959843093e-01,0.000000000000000000e+00
1.474000000000000000e+03,8.486295521369208172e-01,0.000000000000000000e+00
1.475000000000000000e+03,7.877634040116194836e-01,0.000000000000000000e+00
1.476000000000000000e+03,7.903608979161187431e-01,0.000000000000000000e+00
1.477000000000000000e+03,9.391324496929647214e-01,0.000000000000000000e+00
1.478000000000000000e+03,1.088607257636344361e+00,0.000000000000000000e+00
1.479000000000000000e+03,1.318123200355550306e+00,0.000000000000000000e+00
1.480000000000000000e+03,1.287627791147724299e+00,0.000000000000000000e+00
1.481000000000000000e+03,1.332102207766082014e+00,0.000000000000000000e+00
1.482000000000000000e+03,1.119594445129782789e+00,0.000000000000000000e+00
1.483000000000000000e+03,8.974290683805472568e-01,0.000000000000000000e+00
1.484000000000000000e+03,3.614086845316183405e-01,0.000000000000000000e+00
1.485000000000000000e+03,-1.969525771114241375e-01,0.000000000000000000e+00
1.486000000000000000e+03,-6.871940779313809866e-01,0.000000000000000000e+00
1.487000000000000000e+03,-9.953652698287700495e-01,0.000000000000000000e+00
1.488000000000000000e+03,-9.559689998282900891e-01,0.000000000000000000e+00
1.489000000000000000e+03,-9.735810247496785585e-01,0.000000000000000000e+00
1.490000000000000000e+03,-9.324155528387797487e-01,0.000000000000000000e+00
1.491000000000000000e+03,-6.993989810884845282e-01,0.000000000000000000e+00
1.492000000000000000e+03,-7.471666331739318379e-01,0.000000000000000000e+00
1.493000000000000000e+03,-6.440012164502512126e-01,0.000000000000000000e+00
1.494000000000000000e+03,-5.529749099777676591e-01,0.000000000000000000e+00
1.495000000000000000e+03,-5.212016728679680355e-01,0.000000000000000000e+00
1.496000000000000000e+03,-5.226809892364741028e-01,0.000000000000000000e+00
1.497000000000000000e+03,-3.033003267025308758e-01,0.000000000000000000e+00
1.498000000000000000e+03,-4.287792965048666805e-01,0.000000000000000000e+00
1.499000000000000000e+03,-3.724543235512661754e-01,0.000000000000000000e+00
1.500000000000000000e+03,-3.358504027278453319e-01,0.000000000000000000e+00
1.501000000000000000e+03,-3.153069310288332816e-01,0.000000000000000000e+00
1.502000000000000000e+03,-2.087379907838428916e-01,0.000000000000000000e+00
1.503000000000000000e+03,-3.837316940796268172e-01,0.000000000000000000e+00
1.504000000000000000e+03,-1.174235071883696080e-01,0.000000000000000000e+00
1.505000000000000000e+03,-2.295095839509365965e-01,0.000000000000000000e+00
1.506000000000000000e+03,-1.917963578851596684e-01,0.000000000000000000e+00
1.507000000000000000e+03,-8.823745692186664435e-02,0.000000000000000000e+00
1.508000000000000000e+03,2.211516792469789272e-02,0.000000000000000000e+00
1.509000000000000000e+03,-4.867189226271748104e-02,0.000000000000000000e+00
1.510000000000000000e+03,3.401270930617868865e-03,0.000000000000000000e+00
1.511000000000000000e+03,-4.754171629225701495e-02,0.000000000000000000e+00
1.512000000000000000e+03,-1.778261945770719988e-04,0.000000000000000000e+00
1.513000000000000000e+03,2.259334507240695900e-01,0.000000000000000000e+00
1.514000000000000000e+03,1.226248661004362417e-01,0.000000000000000000e+00
1.515000000000000000e+03,2.710623861664746351e-02,0.000000000000000000e+00
1.516000000000000000e+03,2.048949721104639243e-01,0.000000000000000000e+00
1.517000000000000000e+03,1.330211165881500790e-01,0.000000000000000000e+00
1.518000000000000000e+03,3.581610625753851029e-01,0.000000000000000000e+00
1.519000000000000000e+03,4.380535460248801138e-01,0.000000000000000000e+00
1.520000000000000000e+03,4.694682548484060414e-01,0.000000000000000000e+00
1.521000000000000000e+03,4.100759514183410781e-01,0.000000000000000000e+00
1.522000000000000000e+03,4.275200844001913331e-03,0.000000000000000000e+00
1.523000000000000000e+03,-9.044686978301037794e-02,0.000000000000000000e+00
1.524000000000000000e+03,-3.777259694295360265e-02,0.000000000000000000e+00
1.525000000000000000e+03,-3.274897882364976448e-02,0.000000000000000000e+00
1.526000000000000000e+03,-9.979701070523321060e-02,0.000000000000000000e+00
1.527000000000000000e+03,-5.225483801572906595e-01,0.000000000000000000e+00
1.528000000000000000e+03,3.233303828148719639e+00,0.000000000000000000e+00
1.529000000000000000e+03,1.341665797288632556e+00,0.000000000000000000e+00
1.530000000000000000e+03,-2.901178765850549457e+00,1.000000000000000000e+00
1.531000000000000000e+03,-3.157556230221742144e+00,0.000000000000000000e+00
1.532000000000000000e+03,-2.902486947526774053e+00,0.000000000000000000e+00
1.533000000000000000e+03,-2.867967041668829098e-01,0.000000000000000000e+00
1.534000000000000000e+03,7.132830106785804647e-01,0.000000000000000000e+00
1.535000000000000000e+03,9.283498263576767107e-01,0.000000000000000000e+00
1.536000000000000000e+03,8.938179423646449573e-01,0.000000000000000000e+00
1.537000000000000000e+03,8.672167654593748720e-01,0.000000000000000000e+00
1.538000000000000000e+03,8.647933375513606746e-01,0.000000000000000000e+00
1.539000000000000000e+03,8.011188800844959434e-01,0.000000000000000000e+00
1.540000000000000000e+03,7.971799560093469905e-01,0.000000000000000000e+00
1.541000000000000000e+03,8.108353497195497361e-01,0.000000000000000000e+00
1.542000000000000000e+03,8.421371173970667590e-01,0.000000000000000000e+00
1.543000000000000000e+03,1.002201224257325718e+00,0.000000000000000000e+00
1.544000000000000000e+03,9.702798923605964188e-01,0.000000000000000000e+00
1.545000000000000000e+03,1.192681906349251530e+00,0.000000000000000000e+00
1.546000000000000000e+03,1.254103320975971769e+00,0.000000000000000000e+00
1.547000000000000000e+03,1.495410798745028469e+00,0.000000000000000000e+00
1.548000000000000000e+03,1.139708625260188679e+00,0.000000000000000000e+00
1.549000000000000000e+03,9.354236311419883432e-01,0.000000000000000000e+00
1.550000000000000000e+03,1.415394127244369860e-01,0.000000000000000000e+00
1.551000000000000000e+03,-3.457065027934292378e-01,0.000000000000000000e+00
1.552000000000000000e+03,-9.144784175845037666e-01,0.000000000000000000e+00
1.553000000000000000e+03,-8.931567358924458189e-01,0.000000000000000000e+00
1.554000000000000000e+03,-1.042986892869101290e+00,0.000000000000000000e+00
1.555000000000000000e+03,-1.025755625537375648e+00,0.000000000000000000e+00
1.556000000000000000e+03,-1.068153725218379702e+00,0.000000000000000000e+00
1.557000000000000000e+03,-8.357836404915566231e-01,0.000000000000000000e+00
1.558000000000000000e+03,-8.542061738229030921e-01,0.000000000000000000e+00
1.559000000000000000e+03,-7.093027576839985304e-01,0.000000000000000000e+00
1.560000000000000000e+03,-6.517335991156590902e-01,0.000000000000000000e+00
1.561000000000000000e+03,-6.476459579160654956e-01,0.000000000000000000e+00
1.562000000000000000e+03,-4.959302964671935543e-01,0.000000000000000000e+00
1.563000000000000000e+03,-4.167448610495126382e-01,0.000000000000000000e+00
1.564000000000000000e+03,-5.521626869362878942e-01,0.000000000000000000e+00
1.565000000000000000e+03,-2.988137800031702707e-01,0.000000000000000000e+00
1.566000000000000000e+03,-4.032506702216001049e-01,0.000000000000000000e+00
1.567000000000000000e+03,-3.339068897226474819e-01,0.000000000000000000e+00
1.568000000000000000e+03,-3.303547159092018459e-01,0.000000000000000000e+00
1.569000000000000000e+03,-2.701325731493813831e-01,0.000000000000000000e+00
1.570000000000000000e+03,-2.971156166436512702e-01,0.000000000000000000e+00
1.571000000000000000e+03,-1.511020811241850503e-01,0.000000000000000000e+00
1.572000000000000000e+03,-2.625034523130092001e-01,0.000000000000000000e+00
1.573000000000000000e+03,-1.029509551953369795e-01,0.000000000000000000e+00
1.574000000000000000e+03,-2.905596900324562970e-01,0.000000000000000000e+00
1.575000000000000000e+03,-3.475350541428016971e-02,0.000000000000000000e+00
1.576000000000000000e+03,-1.530934398273615660e-01,0.000000000000000000e+00
1.577000000000000000e+03,-6.754195984773850303e-02,0.000000000000000000e+00
1.578000000000000000e+03,6.770374843501157820e-03,0.000000000000000000e+00
1.579000000000000000e+03,-8.229208136378890828e-03,0.000000000000000000e+00
1.580000000000000000e+03,-5.550167411510858323e-02,0.000000000000000000e+00
1.581000000000000000e+03,1.256406510943048060e-01,0.000000000000000000e+00
1.582000000000000000e+03,-3.283867669397528416e-02,0.000000000000000000e+00
1.583000000000000000e+03,2.047333612956331039e-01,0.000000000000000000e+00
1.584000000000000000e+03,8.125045890094845236e-02,0.000000000000000000e+00
1.585000000000000000e+03,1.812689163978231655e-01,0.000000000000000000e+00
1.586000000000000000e+03,-3.442303116801593427e-02,0.000000000000000000e+00
