timestamp,ecg_measurement,qrs_detected
0.000000000000000000e+00,-2.325984023687391045e-01,0.000000000000000000e+00
1.000000000000000000e+00,-4.038836097718646184e-02,0.000000000000000000e+00
2.000000000000000000e+00,-1.018302725468119008e-01,0.000000000000000000e+00
3.000000000000000000e+00,-1.119564226090586784e-01,0.000000000000000000e+00
4.000000000000000000e+00,-1.702007945738358008e-01,0.000000000000000000e+00
5.000000000000000000e+00,1.187422535246494409e-01,0.000000000000000000e+00
6.000000000000000000e+00,-4.372638779187360686e-02,0.000000000000000000e+00
7.000000000000000000e+00,1.709831604710072839e-02,0.000000000000000000e+00
8.000000000000000000e+00,4.296709128514729359e-03,0.000000000000000000e+00
9.000000000000000000e+00,5.772203353214692967e-02,0.000000000000000000e+00
1.000000000000000000e+01,5.834122483072556181e-02,0.000000000000000000e+00
1.100000000000000000e+01,1.556715878426129518e-01,0.000000000000000000e+00
1.200000000000000000e+01,5.772166618300432483e-02,0.000000000000000000e+00
1.300000000000000000e+01,2.941985422535557393e-01,0.000000000000000000e+00
1.400000000000000000e+01,3.785058737013520525e-02,0.000000000000000000e+00
1.500000000000000000e+01,2.791913594683053113e-01,0.000000000000000000e+00
1.600000000000000000e+01,3.337831648919734606e-01,0.000000000000000000e+00
1.700000000000000000e+01,5.747232803473026896e-01,0.000000000000000000e+00
1.800000000000000000e+01,2.813066959540099776e-01,0.000000000000000000e+00
1.900000000000000000e+01,2.400568627276108424e-01,0.000000000000000000e+00
2.000000000000000000e+01,-2.776986326906801250e-01,0.000000000000000000e+00
2.100000000000000000e+01,8.714164277651642587e-02,0.000000000000000000e+00
2.200000000000000000e+01,-2.284490237706809090e-01,0.000000000000000000e+00
2.300000000000000000e+01,1.130996027317102276e-01,0.000000000000000000e+00
2.400000000000000000e+01,-6.509429132101943738e-01,0.000000000000000000e+00
2.500000000000000000e+01,2.340447290568886451e+00,0.000000000000000000e+00
2.600000000000000000e+01,2.549475580993713741e+00,0.000000000000000000e+00
2.700000000000000000e+01,-2.358488611172696370e+00,1.000000000000000000e+00
2.800000000000000000e+01,-2.535768986076933018e+00,0.000000000000000000e+00
2.900000000000000000e+01,-3.260474595885821891e+00,0.000000000000000000e+00
3.000000000000000000e+01,-1.241468130257608049e+00,0.000000000000000000e+00
3.100000000000000000e+01,5.111955502003810992e-01,0.000000000000000000e+00
3.200000000000000000e+01,9.334344703794331677e-01,0.000000000000000000e+00
3.300000000000000000e+01,8.233435075289156080e-01,0.000000000000000000e+00
3.400000000000000000e+01,7.539939259046891662e-01,0.000000000000000000e+00
3.500000000000000000e+01,9.102566470862085701e-01,0.000000000000000000e+00
3.600000000000000000e+01,7.972163460598084006e-01,0.000000000000000000e+00
3.700000000000000000e+01,6.241626598352483235e-01,0.000000000000000000e+00
3.800000000000000000e+01,1.019214987605578493e+00,0.000000000000000000e+00
3.900000000000000000e+01,7.798858140078283041e-01,0.000000000000000000e+00
4.000000000000000000e+01,9.927663845665982700e-01,0.000000000000000000e+00
4.100000000000000000e+01,1.047520704337784769e+00,0.000000000000000000e+00
4.200000000000000000e+01,1.264786148264499976e+00,0.000000000000000000e+00
4.300000000000000000e+01,1.448698926514614849e+00,0.000000000000000000e+00
4.400000000000000000e+01,1.476476853641875975e+00,0.000000000000000000e+00
4.500000000000000000e+01,1.323626394497674275e+00,0.000000000000000000e+00
4.600000000000000000e+01,1.119771640694044335e+00,0.000000000000000000e+00
4.700000000000000000e+01,6.153523482596953142e-01,0.000000000000000000e+00
4.800000000000000000e+01,-1.192658236873109651e-01,0.000000000000000000e+00
4.900000000000000000e+01,-7.628611569097142331e-01,0.000000000000000000e+00
5.000000000000000000e+01,-9.061799616794493639e-01,0.000000000000000000e+00
5.100000000000000000e+01,-1.199028236255294866e+00,0.000000000000000000e+00
5.200000000000000000e+01,-1.048342771414447760e+00,0.000000000000000000e+00
5.300000000000000000e+01,-1.112431899286057568e+00,0.000000000000000000e+00
5.400000000000000000e+01,-9.258738738146999880e-01,0.000000000000000000e+00
5.500000000000000000e+01,-9.292460043972203820e-01,0.000000000000000000e+00
5.600000000000000000e+01,-6.077813544984796978e-01,0.000000000000000000e+00
5.700000000000000000e+01,-7.337996446872498968e-01,0.000000000000000000e+00
5.800000000000000000e+01,-6.984682577670106030e-01,0.000000000000000000e+00
5.900000000000000000e+01,-6.353770932729606580e-01,0.000000000000000000e+00
6.000000000000000000e+01,-5.581099064162697854e-01,0.000000000000000000e+00
6.100000000000000000e+01,-5.978280702654307222e-01,0.000000000000000000e+00
6.200000000000000000e+01,-4.341314996587038455e-01,0.000000000000000000e+00
6.300000000000000000e+01,-6.728910734079804890e-01,0.000000000000000000e+00
6.400000000000000000e+01,-3.290236796300655686e-01,0.000000000000000000e+00
6.500000000000000000e+01,-3.067470064744265423e-01,0.000000000000000000e+00
6.600000000000000000e+01,-3.596203397678706115e-01,0.000000000000000000e+00
6.700000000000000000e+01,-3.057952388680435507e-01,0.000000000000000000e+00
6.800000000000000000e+01,-2.502679142371975751e-01,0.000000000000000000e+00
6.900000000000000000e+01,-1.338934867064755785e-01,0.000000000000000000e+00
7.000000000000000000e+01,-1.863406290000175491e-01,0.000000000000000000e+00
7.100000000000000000e+01,-5.404384802345287703e-02,0.000000000000000000e+00
7.200000000000000000e+01,-8.474443784497789900e-02,0.000000000000000000e+00
7.300000000000000000e+01,-6.340678855393112878e-02,0.000000000000000000e+00
7.400000000000000000e+01,-1.221102356030215053e-01,0.000000000000000000e+00
7.500000000000000000e+01,9.706512957791077478e-02,0.000000000000000000e+00
7.600000000000000000e+01,-6.684990584181538242e-03,0.000000000000000000e+00
7.700000000000000000e+01,1.214257387958216083e-01,0.000000000000000000e+00
7.800000000000000000e+01,1.793905105410200651e-01,0.000000000000000000e+00
7.900000000000000000e+01,7.813354827612592479e-02,0.000000000000000000e+00
8.000000000000000000e+01,1.906452124385569352e-02,0.000000000000000000e+00
8.100000000000000000e+01,3.319002110579664100e-01,0.000000000000000000e+00
8.200000000000000000e+01,3.662240391613738044e-01,0.000000000000000000e+00
8.300000000000000000e+01,5.237733847878952576e-01,0.000000000000000000e+00
8.400000000000000000e+01,2.335788467179661654e-01,0.000000000000000000e+00
8.500000000000000000e+01,3.964842569224593348e-03,0.000000000000000000e+00
8.600000000000000000e+01,-9.693361435126628123e-02,0.000000000000000000e+00
8.700000000000000000e+01,-6.840328112943748875e-04,0.000000000000000000e+00
8.800000000000000000e+01,-1.788446444632689480e-02,0.000000000000000000e+00
8.900000000000000000e+01,-1.392987002737306468e-01,0.000000000000000000e+00
9.000000000000000000e+01,-1.104450501262677214e-01,0.000000000000000000e+00
9.100000000000000000e+01,3.592135234528390786e+00,0.000000000000000000e+00
9.200000000000000000e+01,6.061682131996571909e-01,1.000000000000000000e+00
9.300000000000000000e+01,-2.730617149005188704e+00,0.000000000000000000e+00
9.400000000000000000e+01,-2.662655759101117070e+00,0.000000000000000000e+00
9.500000000000000000e+01,-2.632330311883652740e+00,0.000000000000000000e+00
9.600000000000000000e+01,-2.428706297577476747e-01,0.000000000000000000e+00
9.700000000000000000e+01,7.991340220229584679e-01,0.000000000000000000e+00
9.800000000000000000e+01,9.228939467988830359e-01,0.000000000000000000e+00
9.900000000000000000e+01,7.692654729107699652e-01,0.000000000000000000e+00
1.000000000000000000e+02,9.270583720528952076e-01,0.000000000000000000e+00
1.010000000000000000e+02,8.704832619276086092e-01,0.000000000000000000e+00
1.020000000000000000e+02,7.656946194787348503e-01,0.000000000000000000e+00
1.030000000000000000e+02,8.793117218724463280e-01,0.000000000000000000e+00
1.040000000000000000e+02,9.724111570845913599e-01,0.000000000000000000e+00
1.050000000000000000e+02,7.525066022251956088e-01,0.000000000000000000e+00
1.060000000000000000e+02,1.059850976904567199e+00,0.000000000000000000e+00
1.070000000000000000e+02,1.057689263500358301e+00,0.000000000000000000e+00
1.080000000000000000e+02,1.335795788386327621e+00,0.000000000000000000e+00
1.090000000000000000e+02,1.291986711575712876e+00,0.000000000000000000e+00
1.100000000000000000e+02,1.504199619186335601e+00,0.000000000000000000e+00
1.110000000000000000e+02,1.191940065697598694e+00,0.000000000000000000e+00
1.120000000000000000e+02,8.525937138151755690e-01,0.000000000000000000e+00
1.130000000000000000e+02,3.924715778471872252e-01,0.000000000000000000e+00
1.140000000000000000e+02,-4.359091519079105193e-01,0.000000000000000000e+00
1.150000000000000000e+02,-6.409068645695450428e-01,0.000000000000000000e+00
1.160000000000000000e+02,-9.625944057169123491e-01,0.000000000000000000e+00
1.170000000000000000e+02,-1.145881357797583266e+00,0.000000000000000000e+00
1.180000000000000000e+02,-9.351747151679312697e-01,0.000000000000000000e+00
1.190000000000000000e+02,-8.567261266042394130e-01,0.000000000000000000e+00
1.200000000000000000e+02,-8.453429574768891452e-01,0.000000000000000000e+00
1.210000000000000000e+02,-6.533926775788865271e-01,0.000000000000000000e+00
1.220000000000000000e+02,-6.971423140258614648e-01,0.000000000000000000e+00
1.230000000000000000e+02,-7.130513285921780131e-01,0.000000000000000000e+00
1.240000000000000000e+02,-3.728187322446165353e-01,0.000000000000000000e+00
1.250000000000000000e+02,-5.764860105773020882e-01,0.000000000000000000e+00
1.260000000000000000e+02,-4.755405745421648622e-01,0.000000000000000000e+00
1.270000000000000000e+02,-4.570320163165278449e-01,0.000000000000000000e+00
1.280000000000000000e+02,-5.683516738633610510e-01,0.000000000000000000e+00
1.290000000000000000e+02,-3.675169000993610546e-01,0.000000000000000000e+00
1.300000000000000000e+02,-3.494875244437978812e-01,0.000000000000000000e+00
1.310000000000000000e+02,-3.118951801919214173e-01,0.000000000000000000e+00
1.320000000000000000e+02,-4.230606863848410115e-01,0.000000000000000000e+00
1.330000000000000000e+02,-2.900026307511366364e-01,0.000000000000000000e+00
1.340000000000000000e+02,-2.418195210718780408e-01,0.000000000000000000e+00
1.350000000000000000e+02,-1.439411814455735517e-01,0.000000000000000000e+00
1.360000000000000000e+02,-1.000218828935014043e-01,0.000000000000000000e+00
1.370000000000000000e+02,-2.256665332892743570e-01,0.000000000000000000e+00
1.380000000000000000e+02,-9.411805518030069706e-02,0.000000000000000000e+00
1.390000000000000000e+02,-6.389310026830900824e-02,0.000000000000000000e+00
1.400000000000000000e+02,-7.350922162754504330e-02,0.000000000000000000e+00
1.410000000000000000e+02,1.584834993697842309e-01,0.000000000000000000e+00
1.420000000000000000e+02,4.415344153105711655e-02,0.000000000000000000e+00
1.430000000000000000e+02,1.476850309035241532e-02,0.000000000000000000e+00
1.440000000000000000e+02,-3.140420792233664798e-02,0.000000000000000000e+00
1.450000000000000000e+02,1.764764340562093303e-01,0.000000000000000000e+00
1.460000000000000000e+02,1.554662478309208062e-01,0.000000000000000000e+00
1.470000000000000000e+02,1.873242823992419814e-01,0.000000000000000000e+00
1.480000000000000000e+02,4.208607685889341199e-01,0.000000000000000000e+00
1.490000000000000000e+02,3.726641959812687643e-01,0.000000000000000000e+00
1.500000000000000000e+02,3.682560297108821712e-01,0.000000000000000000e+00
1.510000000000000000e+02,2.488995105499778038e-01,0.000000000000000000e+00
1.520000000000000000e+02,-2.065223349910894624e-01,0.000000000000000000e+00
1.530000000000000000e+02,7.509981599358935000e-02,0.000000000000000000e+00
1.540000000000000000e+02,-2.400854857981635782e-01,0.000000000000000000e+00
1.550000000000000000e+02,5.612038619599430539e-02,0.000000000000000000e+00
1.560000000000000000e+02,-6.925666759633015701e-01,0.000000000000000000e+00
1.570000000000000000e+02,2.547007850664991579e+00,0.000000000000000000e+00
1.580000000000000000e+02,2.325102580884249814e+00,0.000000000000000000e+00
1.590000000000000000e+02,-2.510498212005296104e+00,1.000000000000000000e+00
1.600000000000000000e+02,-3.174105813397776643e+00,0.000000000000000000e+00
1.610000000000000000e+02,-3.186101918729948856e+00,0.000000000000000000e+00
1.620000000000000000e+02,-4.789166788032276911e-01,0.000000000000000000e+00
1.630000000000000000e+02,8.210003525639915090e-01,0.000000000000000000e+00
1.640000000000000000e+02,9.717636419409755311e-01,0.000000000000000000e+00
1.650000000000000000e+02,8.546745309401906354e-01,0.000000000000000000e+00
1.660000000000000000e+02,1.025416717575956760e+00,0.000000000000000000e+00
1.670000000000000000e+02,8.169845452063135838e-01,0.000000000000000000e+00
1.680000000000000000e+02,8.984217458155724367e-01,0.000000000000000000e+00
1.690000000000000000e+02,8.980369334162517925e-01,0.000000000000000000e+00
1.700000000000000000e+02,8.243667891113218849e-01,0.000000000000000000e+00
1.710000000000000000e+02,8.875489258335963472e-01,0.000000000000000000e+00
1.720000000000000000e+02,8.702574403876826015e-01,0.000000000000000000e+00
1.730000000000000000e+02,1.073488428289818275e+00,0.000000000000000000e+00
1.740000000000000000e+02,1.304612066540436155e+00,0.000000000000000000e+00
1.750000000000000000e+02,1.290042661993558104e+00,0.000000000000000000e+00
1.760000000000000000e+02,1.556364766085736928e+00,0.000000000000000000e+00
1.770000000000000000e+02,1.152290238226370667e+00,0.000000000000000000e+00
1.780000000000000000e+02,1.040223885694711692e+00,0.000000000000000000e+00
1.790000000000000000e+02,4.785249133146713962e-01,0.000000000000000000e+00
1.800000000000000000e+02,-2.767763455512642357e-01,0.000000000000000000e+00
1.810000000000000000e+02,-7.637078166447165417e-01,0.000000000000000000e+00
1.820000000000000000e+02,-9.607396640382974695e-01,0.000000000000000000e+00
1.830000000000000000e+02,-1.016604495274562536e+00,0.000000000000000000e+00
1.840000000000000000e+02,-1.099906332113328444e+00,0.000000000000000000e+00
1.850000000000000000e+02,-8.698805819086192770e-01,0.000000000000000000e+00
1.860000000000000000e+02,-9.420108114465044480e-01,0.000000000000000000e+00
1.870000000000000000e+02,-8.883111162400511018e-01,0.000000000000000000e+00
1.880000000000000000e+02,-6.014996911206212937e-01,0.000000000000000000e+00
1.890000000000000000e+02,-7.722772562949470343e-01,0.000000000000000000e+00
1.900000000000000000e+02,-4.528652946967404724e-01,0.000000000000000000e+00
1.910000000000000000e+02,-6.959808657380994745e-01,0.000000000000000000e+00
1.920000000000000000e+02,-4.192608649400844101e-01,0.000000000000000000e+00
1.930000000000000000e+02,-4.255196744378546558e-01,0.000000000000000000e+00
1.940000000000000000e+02,-3.753918437386864482e-01,0.000000000000000000e+00
1.950000000000000000e+02,-4.459372739378862915e-01,0.000000000000000000e+00
1.960000000000000000e+02,-3.341852982632169677e-01,0.000000000000000000e+00
1.970000000000000000e+02,-3.215558281081446479e-01,0.000000000000000000e+00
1.980000000000000000e+02,-2.188044393443195346e-01,0.000000000000000000e+00
1.990000000000000000e+02,-1.755878069941390063e-01,0.000000000000000000e+00
2.000000000000000000e+02,-3.054556698068245923e-01,0.000000000000000000e+00
2.010000000000000000e+02,-2.230646693317832885e-01,0.000000000000000000e+00
2.020000000000000000e+02,-1.902223045587880246e-01,0.000000000000000000e+00
2.030000000000000000e+02,-1.819516145439269428e-01,0.000000000000000000e+00
2.040000000000000000e+02,1.564580811034558747e-02,0.000000000000000000e+00
2.050000000000000000e+02,-5.132699547793890399e-02,0.000000000000000000e+00
2.060000000000000000e+02,-9.996662697928052066e-02,0.000000000000000000e+00
2.070000000000000000e+02,-5.876329961091905077e-04,0.000000000000000000e+00
2.080000000000000000e+02,-1.144396132699895541e-01,0.000000000000000000e+00
2.090000000000000000e+02,-4.012995751072760686e-02,0.000000000000000000e+00
2.100000000000000000e+02,5.521608251360810710e-02,0.000000000000000000e+00
2.110000000000000000e+02,1.536004483285610955e-01,0.000000000000000000e+00
2.120000000000000000e+02,-1.434888956883432209e-01,0.000000000000000000e+00
2.130000000000000000e+02,1.766795080901884252e-01,0.000000000000000000e+00
2.140000000000000000e+02,-1.713857040721981223e-02,0.000000000000000000e+00
2.150000000000000000e+02,1.130821175902426978e-01,0.000000000000000000e+00
2.160000000000000000e+02,6.326373951936005435e-02,0.000000000000000000e+00
2.170000000000000000e+02,2.368497385497338181e-01,0.000000000000000000e+00
2.180000000000000000e+02,3.612549525991564092e-01,0.000000000000000000e+00
2.190000000000000000e+02,4.112087861272806788e-01,0.000000000000000000e+00
2.200000000000000000e+02,3.555589096374308089e-01,0.000000000000000000e+00
2.210000000000000000e+02,1.129959563707369913e-01,0.000000000000000000e+00
2.220000000000000000e+02,-1.810865756433403806e-01,0.000000000000000000e+00
2.230000000000000000e+02,5.081768663869472985e-02,0.000000000000000000e+00
2.240000000000000000e+02,-2.647120585957655203e-01,0.000000000000000000e+00
2.250000000000000000e+02,9.690224621341625433e-02,0.000000000000000000e+00
2.260000000000000000e+02,-8.083459867529430021e-01,0.000000000000000000e+00
2.270000000000000000e+02,2.683090494901199552e+00,0.000000000000000000e+00
2.280000000000000000e+02,1.860776375236998570e+00,0.000000000000000000e+00
2.290000000000000000e+02,-3.000222470653882478e+00,1.000000000000000000e+00
2.300000000000000000e+02,-3.281084679615300370e+00,0.000000000000000000e+00
2.310000000000000000e+02,-3.156502587088404255e+00,0.000000000000000000e+00
2.320000000000000000e+02,-2.233872347123323776e-01,0.000000000000000000e+00
2.330000000000000000e+02,7.951174734386714515e-01,0.000000000000000000e+00
2.340000000000000000e+02,1.068954067512417616e+00,0.000000000000000000e+00
2.350000000000000000e+02,8.902865086522703253e-01,0.000000000000000000e+00
2.360000000000000000e+02,9.677463293954552404e-01,0.000000000000000000e+00
2.370000000000000000e+02,8.508241168185524117e-01,0.000000000000000000e+00
2.380000000000000000e+02,9.541726803897977449e-01,0.000000000000000000e+00
2.390000000000000000e+02,7.281357682058869907e-01,0.000000000000000000e+00
2.400000000000000000e+02,1.020369865972327483e+00,0.000000000000000000e+00
2.410000000000000000e+02,7.659230397186349570e-01,0.000000000000000000e+00
2.420000000000000000e+02,1.097787324819067045e+00,0.000000000000000000e+00
2.430000000000000000e+02,1.079736824523258365e+00,0.000000000000000000e+00
2.440000000000000000e+02,1.232348354659454692e+00,0.000000000000000000e+00
2.450000000000000000e+02,1.405923099702726109e+00,0.000000000000000000e+00
2.460000000000000000e+02,1.536565233604280323e+00,0.000000000000000000e+00
2.470000000000000000e+02,1.442672000025155832e+00,0.000000000000000000e+00
2.480000000000000000e+02,1.132525524912880721e+00,0.000000000000000000e+00
2.490000000000000000e+02,4.358222832922656331e-01,0.000000000000000000e+00
2.500000000000000000e+02,-2.455530353782987840e-01,0.000000000000000000e+00
2.510000000000000000e+02,-5.453222254151400827e-01,0.000000000000000000e+00
2.520000000000000000e+02,-1.029318928513005105e+00,0.000000000000000000e+00
2.530000000000000000e+02,-9.212130646945118073e-01,0.000000000000000000e+00
2.540000000000000000e+02,-9.628200198165901558e-01,0.000000000000000000e+00
2.550000000000000000e+02,-8.738453108068446884e-01,0.000000000000000000e+00
2.560000000000000000e+02,-8.822127176665486292e-01,0.000000000000000000e+00
2.570000000000000000e+02,-8.287584750537025924e-01,0.000000000000000000e+00
2.580000000000000000e+02,-7.164587393845145424e-01,0.000000000000000000e+00
2.590000000000000000e+02,-7.026933529709225024e-01,0.000000000000000000e+00
2.600000000000000000e+02,-4.085411390685884658e-01,0.000000000000000000e+00
2.610000000000000000e+02,-4.615252986560031134e-01,0.000000000000000000e+00
2.620000000000000000e+02,-6.511862025806295362e-01,0.000000000000000000e+00
2.630000000000000000e+02,-3.898013269432438754e-01,0.000000000000000000e+00
2.640000000000000000e+02,-4.901697312681170815e-01,0.000000000000000000e+00
2.650000000000000000e+02,-3.789805409488681276e-01,0.000000000000000000e+00
2.660000000000000000e+02,-2.763210162999232833e-01,0.000000000000000000e+00
2.670000000000000000e+02,-3.122741031065476847e-01,0.000000000000000000e+00
2.680000000000000000e+02,-3.661235952686140993e-01,0.000000000000000000e+00
2.690000000000000000e+02,-2.775880903163535640e-01,0.000000000000000000e+00
2.700000000000000000e+02,-1.543749750112683172e-01,0.000000000000000000e+00
2.710000000000000000e+02,-2.827831240383294475e-01,0.000000000000000000e+00
2.720000000000000000e+02,-9.109413391489699918e-02,0.000000000000000000e+00
2.730000000000000000e+02,-1.479324163095574740e-01,0.000000000000000000e+00
2.740000000000000000e+02,-7.278895714896746472e-02,0.000000000000000000e+00
2.750000000000000000e+02,-6.625439991509804449e-02,0.000000000000000000e+00
2.760000000000000000e+02,-9.244070828911556126e-02,0.000000000000000000e+00
2.770000000000000000e+02,-1.724800066402946627e-02,0.000000000000000000e+00
2.780000000000000000e+02,-5.604820979695097904e-02,0.000000000000000000e+00
2.790000000000000000e+02,1.076757235029236898e-01,0.000000000000000000e+00
2.800000000000000000e+02,-2.316369935186265994e-02,0.000000000000000000e+00
2.810000000000000000e+02,6.054271410962163563e-03,0.000000000000000000e+00
2.820000000000000000e+02,7.885117126250107411e-02,0.000000000000000000e+00
2.830000000000000000e+02,1.287637285714976765e-01,0.000000000000000000e+00
2.840000000000000000e+02,7.047084668237250937e-02,0.000000000000000000e+00
2.850000000000000000e+02,3.391670347309252986e-02,0.000000000000000000e+00
2.860000000000000000e+02,9.350180955243550529e-02,0.000000000000000000e+00
2.870000000000000000e+02,2.107741907930649472e-01,0.000000000000000000e+00
2.880000000000000000e+02,3.513106833661032158e-01,0.000000000000000000e+00
2.890000000000000000e+02,4.618909253648908475e-01,0.000000000000000000e+00
2.900000000000000000e+02,3.991494537511823260e-01,0.000000000000000000e+00
2.910000000000000000e+02,2.716916201213521315e-02,0.000000000000000000e+00
2.920000000000000000e+02,-2.303086040651862176e-01,0.000000000000000000e+00
2.930000000000000000e+02,3.390783065413265074e-02,0.000000000000000000e+00
2.940000000000000000e+02,-2.114952213565846062e-01,0.000000000000000000e+00
2.950000000000000000e+02,-2.851310068064636175e-02,0.000000000000000000e+00
2.960000000000000000e+02,-6.258947209043418392e-01,0.000000000000000000e+00
2.970000000000000000e+02,2.867660959599143577e+00,0.000000000000000000e+00
2.980000000000000000e+02,1.517155842656702447e+00,0.000000000000000000e+00
2.990000000000000000e+02,-2.973360816482541136e+00,1.000000000000000000e+00
3.000000000000000000e+02,-3.270865577792492651e+00,0.000000000000000000e+00
3.010000000000000000e+02,-3.075214938917039564e+00,0.000000000000000000e+00
3.020000000000000000e+02,-2.066191723993883733e-01,0.000000000000000000e+00
3.030000000000000000e+02,8.357183868162956220e-01,0.000000000000000000e+00
3.040000000000000000e+02,1.080283473059208355e+00,0.000000000000000000e+00
3.050000000000000000e+02,8.666577314775087970e-01,0.000000000000000000e+00
3.060000000000000000e+02,1.014503081234200632e+00,0.000000000000000000e+00
3.070000000000000000e+02,7.414935598216797485e-01,0.000000000000000000e+00
3.080000000000000000e+02,9.627676230362897103e-01,0.000000000000000000e+00
3.090000000000000000e+02,9.118618169734622469e-01,0.000000000000000000e+00
3.100000000000000000e+02,9.078785093566305031e-01,0.000000000000000000e+00
3.110000000000000000e+02,8.875989096346950102e-01,0.000000000000000000e+00
3.120000000000000000e+02,1.164669216170249211e+00,0.000000000000000000e+00
3.130000000000000000e+02,9.526639920892479019e-01,0.000000000000000000e+00
3.140000000000000000e+02,1.200846479494856789e+00,0.000000000000000000e+00
3.150000000000000000e+02,1.317809792291698479e+00,0.000000000000000000e+00
3.160000000000000000e+02,1.440193324357048832e+00,0.000000000000000000e+00
3.170000000000000000e+02,1.320684339929068196e+00,0.000000000000000000e+00
3.180000000000000000e+02,1.007705644498473108e+00,0.000000000000000000e+00
3.190000000000000000e+02,2.348513614556626272e-01,0.000000000000000000e+00
3.200000000000000000e+02,-2.541968330053877012e-01,0.000000000000000000e+00
3.210000000000000000e+02,-8.807648592207912852e-01,0.000000000000000000e+00
3.220000000000000000e+02,-9.688042454958784022e-01,0.000000000000000000e+00
3.230000000000000000e+02,-1.126087946858147060e+00,0.000000000000000000e+00
3.240000000000000000e+02,-1.024223614649713454e+00,0.000000000000000000e+00
3.250000000000000000e+02,-9.952335022976092072e-01,0.000000000000000000e+00
3.260000000000000000e+02,-8.965390390845761059e-01,0.000000000000000000e+00
3.270000000000000000e+02,-8.794313726106189888e-01,0.000000000000000000e+00
3.280000000000000000e+02,-5.762267675020378288e-01,0.000000000000000000e+00
3.290000000000000000e+02,-7.009131616463140091e-01,0.000000000000000000e+00
3.300000000000000000e+02,-7.193634693403665459e-01,0.000000000000000000e+00
3.310000000000000000e+02,-6.331558275174119510e-01,0.000000000000000000e+00
3.320000000000000000e+02,-4.270487495048675419e-01,0.000000000000000000e+00
3.330000000000000000e+02,-6.529183051533932192e-01,0.000000000000000000e+00
3.340000000000000000e+02,-2.814703944132864177e-01,0.000000000000000000e+00
3.350000000000000000e+02,-4.632437504364969039e-01,0.000000000000000000e+00
3.360000000000000000e+02,-3.875534750461043232e-01,0.000000000000000000e+00
3.370000000000000000e+02,-5.078406527538004145e-01,0.000000000000000000e+00
3.380000000000000000e+02,-2.599367375168881167e-01,0.000000000000000000e+00
3.390000000000000000e+02,-2.977018653596470443e-01,0.000000000000000000e+00
3.400000000000000000e+02,-2.081250113157551707e-01,0.000000000000000000e+00
3.410000000000000000e+02,-1.276153009597852106e-01,0.000000000000000000e+00
3.420000000000000000e+02,-2.274420992464677993e-01,0.000000000000000000e+00
3.430000000000000000e+02,-1.385328956171168746e-01,0.000000000000000000e+00
3.440000000000000000e+02,-1.690065494094767154e-02,0.000000000000000000e+00
3.450000000000000000e+02,-7.034100456741380902e-02,0.000000000000000000e+00
3.460000000000000000e+02,-2.180931259584822229e-02,0.000000000000000000e+00
3.470000000000000000e+02,4.235907852876037022e-02,0.000000000000000000e+00
3.480000000000000000e+02,-1.185336976976954920e-02,0.000000000000000000e+00
3.490000000000000000e+02,1.594135283934838831e-02,0.000000000000000000e+00
3.500000000000000000e+02,8.386690953067114929e-02,0.000000000000000000e+00
3.510000000000000000e+02,7.116703371691686375e-02,0.000000000000000000e+00
3.520000000000000000e+02,-1.803624878252670441e-02,0.000000000000000000e+00
3.530000000000000000e+02,1.337053045734009904e-01,0.000000000000000000e+00
3.540000000000000000e+02,1.220870489800632286e-01,0.000000000000000000e+00
3.550000000000000000e+02,1.527985943206519037e-01,0.000000000000000000e+00
3.560000000000000000e+02,1.018882020644211878e-01,0.000000000000000000e+00
3.570000000000000000e+02,3.526352461510390279e-01,0.000000000000000000e+00
3.580000000000000000e+02,4.556248629952197593e-01,0.000000000000000000e+00
3.590000000000000000e+02,6.014807075024504179e-01,0.000000000000000000e+00
3.600000000000000000e+02,1.669459703804461459e-01,0.000000000000000000e+00
3.610000000000000000e+02,9.909820796459407888e-02,0.000000000000000000e+00
3.620000000000000000e+02,-3.025074691739796859e-02,0.000000000000000000e+00
3.630000000000000000e+02,5.702875607670640848e-03,0.000000000000000000e+00
3.640000000000000000e+02,9.198255877113041545e-02,0.000000000000000000e+00
3.650000000000000000e+02,-3.302828501081316315e-01,0.000000000000000000e+00
3.660000000000000000e+02,1.161035540127972748e-01,0.000000000000000000e+00
3.670000000000000000e+02,3.517594981360103734e+00,0.000000000000000000e+00
3.680000000000000000e+02,-1.604333307701434619e-02,1.000000000000000000e+00
3.690000000000000000e+02,-3.200488484994179039e+00,0.000000000000000000e+00
3.700000000000000000e+02,-3.463429864278019021e+00,0.000000000000000000e+00
3.710000000000000000e+02,-2.271624553638896149e+00,0.000000000000000000e+00
3.720000000000000000e+02,3.603696825629709166e-01,0.000000000000000000e+00
3.730000000000000000e+02,1.027363093973143071e+00,0.000000000000000000e+00
3.740000000000000000e+02,1.208569435595017838e+00,0.000000000000000000e+00
3.750000000000000000e+02,9.139649742211416461e-01,0.000000000000000000e+00
3.760000000000000000e+02,1.058102232059372705e+00,0.000000000000000000e+00
3.770000000000000000e+02,9.565429081995650007e-01,0.000000000000000000e+00
3.780000000000000000e+02,1.055191934790738362e+00,0.000000000000000000e+00
3.790000000000000000e+02,8.145062295407171638e-01,0.000000000000000000e+00
3.800000000000000000e+02,1.098071253997388919e+00,0.000000000000000000e+00
3.810000000000000000e+02,8.745920482578476429e-01,0.000000000000000000e+00
3.820000000000000000e+02,1.193607342512399194e+00,0.000000000000000000e+00
3.830000000000000000e+02,1.093756444733945399e+00,0.000000000000000000e+00
3.840000000000000000e+02,1.375177814776961105e+00,0.000000000000000000e+00
3.850000000000000000e+02,1.443751594608338351e+00,0.000000000000000000e+00
3.860000000000000000e+02,1.419675443630005418e+00,0.000000000000000000e+00
3.870000000000000000e+02,1.295207733269446493e+00,0.000000000000000000e+00
3.880000000000000000e+02,9.572306296369531564e-01,0.000000000000000000e+00
3.890000000000000000e+02,1.051620210461632204e-01,0.000000000000000000e+00
3.900000000000000000e+02,-3.927421276483092361e-01,0.000000000000000000e+00
3.910000000000000000e+02,-8.510258668530861215e-01,0.000000000000000000e+00
3.920000000000000000e+02,-1.001545625627187519e+00,0.000000000000000000e+00
3.930000000000000000e+02,-1.173954872343092815e+00,0.000000000000000000e+00
3.940000000000000000e+02,-9.484889520034489596e-01,0.000000000000000000e+00
3.950000000000000000e+02,-9.617733783459208041e-01,0.000000000000000000e+00
3.960000000000000000e+02,-9.150584412510938126e-01,0.000000000000000000e+00
3.970000000000000000e+02,-7.414566112541037812e-01,0.000000000000000000e+00
3.980000000000000000e+02,-7.734749782926655381e-01,0.000000000000000000e+00
3.990000000000000000e+02,-6.513485729594828966e-01,0.000000000000000000e+00
4.000000000000000000e+02,-6.314437201611405870e-01,0.000000000000000000e+00
4.010000000000000000e+02,-6.673955182410299392e-01,0.000000000000000000e+00
4.020000000000000000e+02,-5.186191330854771353e-01,0.000000000000000000e+00
4.030000000000000000e+02,-6.323296339697648261e-01,0.000000000000000000e+00
4.040000000000000000e+02,-4.124865990425476414e-01,0.000000000000000000e+00
4.050000000000000000e+02,-5.799624729757433261e-01,0.000000000000000000e+00
4.060000000000000000e+02,-4.326644594137411537e-01,0.000000000000000000e+00
4.070000000000000000e+02,-2.895494467641607228e-01,0.000000000000000000e+00
4.080000000000000000e+02,-4.563897323059140088e-01,0.000000000000000000e+00
4.090000000000000000e+02,-2.086718636581326169e-01,0.000000000000000000e+00
4.100000000000000000e+02,-3.848839562858917818e-01,0.000000000000000000e+00
4.110000000000000000e+02,-2.069844437108235291e-01,0.000000000000000000e+00
4.120000000000000000e+02,-2.575711966732467939e-01,0.000000000000000000e+00
4.130000000000000000e+02,-1.669857280665891508e-01,0.000000000000000000e+00
4.140000000000000000e+02,-2.138369350595947516e-01,0.000000000000000000e+00
4.150000000000000000e+02,-1.070181401648519215e-01,0.000000000000000000e+00
4.160000000000000000e+02,-5.945928059924111136e-02,0.000000000000000000e+00
4.170000000000000000e+02,-7.740775505186033023e-02,0.000000000000000000e+00
4.180000000000000000e+02,-3.264814382661437864e-02,0.000000000000000000e+00
4.190000000000000000e+02,7.956861744999045583e-02,0.000000000000000000e+00
4.200000000000000000e+02,4.404945530060176695e-02,0.000000000000000000e+00
4.210000000000000000e+02,1.417565329171948871e-02,0.000000000000000000e+00
4.220000000000000000e+02,1.652468700131866919e-01,0.000000000000000000e+00
4.230000000000000000e+02,4.095329434954875919e-03,0.000000000000000000e+00
4.240000000000000000e+02,1.673047233377230603e-01,0.000000000000000000e+00
4.250000000000000000e+02,3.434385712211270314e-01,0.000000000000000000e+00
4.260000000000000000e+02,3.899002232432756121e-01,0.000000000000000000e+00
4.270000000000000000e+02,4.828537246448764697e-01,0.000000000000000000e+00
4.280000000000000000e+02,3.804581289573097380e-01,0.000000000000000000e+00
4.290000000000000000e+02,-1.391754694307470452e-01,0.000000000000000000e+00
4.300000000000000000e+02,3.692203504491887306e-03,0.000000000000000000e+00
4.310000000000000000e+02,-6.813380000281148152e-02,0.000000000000000000e+00
4.320000000000000000e+02,-2.802544529039191143e-02,0.000000000000000000e+00
4.330000000000000000e+02,-1.410261073228852857e-01,0.000000000000000000e+00
4.340000000000000000e+02,-3.106310769064410948e-01,0.000000000000000000e+00
4.350000000000000000e+02,3.516805285531139358e+00,0.000000000000000000e+00
4.360000000000000000e+02,5.056110787932669437e-01,1.000000000000000000e+00
4.370000000000000000e+02,-2.828038232071946823e+00,0.000000000000000000e+00
4.380000000000000000e+02,-2.922904894440323531e+00,0.000000000000000000e+00
4.390000000000000000e+02,-2.821669470210548258e+00,0.000000000000000000e+00
4.400000000000000000e+02,-3.313276240512331161e-01,0.000000000000000000e+00
4.410000000000000000e+02,8.680383175205597102e-01,0.000000000000000000e+00
4.420000000000000000e+02,9.736978920037691054e-01,0.000000000000000000e+00
4.430000000000000000e+02,8.613381596765218307e-01,0.000000000000000000e+00
4.440000000000000000e+02,8.792945059801793306e-01,0.000000000000000000e+00
4.450000000000000000e+02,9.306917655990198934e-01,0.000000000000000000e+00
4.460000000000000000e+02,9.192137250701127860e-01,0.000000000000000000e+00
4.470000000000000000e+02,8.573330627973166917e-01,0.000000000000000000e+00
4.480000000000000000e+02,9.978451473325803400e-01,0.000000000000000000e+00
4.490000000000000000e+02,8.491467447898851661e-01,0.000000000000000000e+00
4.500000000000000000e+02,1.094821515977325577e+00,0.000000000000000000e+00
4.510000000000000000e+02,1.145865667959034662e+00,0.000000000000000000e+00
4.520000000000000000e+02,1.286772488486339627e+00,0.000000000000000000e+00
4.530000000000000000e+02,1.475410927020703200e+00,0.000000000000000000e+00
4.540000000000000000e+02,1.557259379864999183e+00,0.000000000000000000e+00
4.550000000000000000e+02,1.376642791864719051e+00,0.000000000000000000e+00
4.560000000000000000e+02,1.156703822989967101e+00,0.000000000000000000e+00
4.570000000000000000e+02,1.956194549761734180e-01,0.000000000000000000e+00
4.580000000000000000e+02,-2.045179096903425586e-01,0.000000000000000000e+00
4.590000000000000000e+02,-1.002973795725442097e+00,0.000000000000000000e+00
4.600000000000000000e+02,-1.026745392887419728e+00,0.000000000000000000e+00
4.610000000000000000e+02,-1.223854467851995143e+00,0.000000000000000000e+00
4.620000000000000000e+02,-1.118426673649031367e+00,0.000000000000000000e+00
4.630000000000000000e+02,-1.047162648228028292e+00,0.000000000000000000e+00
4.640000000000000000e+02,-8.771228666946339070e-01,0.000000000000000000e+00
4.650000000000000000e+02,-8.130790855745935186e-01,0.000000000000000000e+00
4.660000000000000000e+02,-8.256898402857556496e-01,0.000000000000000000e+00
4.670000000000000000e+02,-7.154064993977067299e-01,0.000000000000000000e+00
4.680000000000000000e+02,-6.912787034028716748e-01,0.000000000000000000e+00
4.690000000000000000e+02,-7.591459777204070392e-01,0.000000000000000000e+00
4.700000000000000000e+02,-5.162017103579658039e-01,0.000000000000000000e+00
4.710000000000000000e+02,-6.469785845949442837e-01,0.000000000000000000e+00
4.720000000000000000e+02,-4.821949831814328347e-01,0.000000000000000000e+00
4.730000000000000000e+02,-5.823638307352621002e-01,0.000000000000000000e+00
4.740000000000000000e+02,-4.275771530566279677e-01,0.000000000000000000e+00
4.750000000000000000e+02,-2.871071959924672568e-01,0.000000000000000000e+00
4.760000000000000000e+02,-4.030512972640526437e-01,0.000000000000000000e+00
4.770000000000000000e+02,-3.558575771630145268e-01,0.000000000000000000e+00
4.780000000000000000e+02,-1.333816098820694851e-01,0.000000000000000000e+00
4.790000000000000000e+02,-3.071129419921145298e-01,0.000000000000000000e+00
4.800000000000000000e+02,-7.956871185796859924e-02,0.000000000000000000e+00
4.810000000000000000e+02,-1.319288629255194190e-01,0.000000000000000000e+00
4.820000000000000000e+02,-1.779114961250338744e-02,0.000000000000000000e+00
4.830000000000000000e+02,-2.092263840940735559e-02,0.000000000000000000e+00
4.840000000000000000e+02,3.922403592982884324e-02,0.000000000000000000e+00
4.850000000000000000e+02,3.836200699305618994e-02,0.000000000000000000e+00
4.860000000000000000e+02,7.606036151799384741e-03,0.000000000000000000e+00
4.870000000000000000e+02,7.555027381045059665e-02,0.000000000000000000e+00
4.880000000000000000e+02,3.357037114811632361e-01,0.000000000000000000e+00
4.890000000000000000e+02,5.902049818198890074e-02,0.000000000000000000e+00
4.900000000000000000e+02,2.571594017150219957e-01,0.000000000000000000e+00
4.910000000000000000e+02,4.084115603937901740e-01,0.000000000000000000e+00
4.920000000000000000e+02,5.605130310428793061e-01,0.000000000000000000e+00
4.930000000000000000e+02,4.311531473969296702e-01,0.000000000000000000e+00
4.940000000000000000e+02,4.328126804173393349e-01,0.000000000000000000e+00
4.950000000000000000e+02,-5.456435800728298702e-02,0.000000000000000000e+00
4.960000000000000000e+02,1.795262528126170126e-02,0.000000000000000000e+00
4.970000000000000000e+02,-4.769666921764839466e-03,0.000000000000000000e+00
4.980000000000000000e+02,9.076344574548854405e-02,0.000000000000000000e+00
4.990000000000000000e+02,-4.494788744181160145e-01,0.000000000000000000e+00
5.000000000000000000e+02,9.331750414082468081e-01,0.000000000000000000e+00
5.010000000000000000e+02,3.711837366041407904e+00,0.000000000000000000e+00
5.020000000000000000e+02,-1.326028461198658137e+00,1.000000000000000000e+00
5.030000000000000000e+02,-3.127983173109787796e+00,0.000000000000000000e+00
5.040000000000000000e+02,-3.352516143995045272e+00,0.000000000000000000e+00
5.050000000000000000e+02,-1.905118245099018726e+00,0.000000000000000000e+00
5.060000000000000000e+02,7.983113528847048945e-01,0.000000000000000000e+00
5.070000000000000000e+02,9.395607841329403076e-01,0.000000000000000000e+00
5.080000000000000000e+02,1.163386629718146104e+00,0.000000000000000000e+00
5.090000000000000000e+02,9.887092616909642917e-01,0.000000000000000000e+00
5.100000000000000000e+02,1.049297364592207682e+00,0.000000000000000000e+00
5.110000000000000000e+02,9.037105700428490485e-01,0.000000000000000000e+00
5.120000000000000000e+02,1.032708904612131606e+00,0.000000000000000000e+00
5.130000000000000000e+02,9.106291084010182946e-01,0.000000000000000000e+00
5.140000000000000000e+02,1.014302298503117150e+00,0.000000000000000000e+00
5.150000000000000000e+02,9.326139221844026439e-01,0.000000000000000000e+00
5.160000000000000000e+02,1.171143266482550516e+00,0.000000000000000000e+00
5.170000000000000000e+02,1.176048727351817869e+00,0.000000000000000000e+00
5.180000000000000000e+02,1.407906693820965671e+00,0.000000000000000000e+00
5.190000000000000000e+02,1.281900302706398653e+00,0.000000000000000000e+00
5.200000000000000000e+02,1.526823871564730872e+00,0.000000000000000000e+00
5.210000000000000000e+02,1.209632793134391315e+00,0.000000000000000000e+00
5.220000000000000000e+02,6.867118758345529539e-01,0.000000000000000000e+00
5.230000000000000000e+02,1.234692636864953424e-01,0.000000000000000000e+00
5.240000000000000000e+02,-5.073916770050049818e-01,0.000000000000000000e+00
5.250000000000000000e+02,-1.010440741863268821e+00,0.000000000000000000e+00
5.260000000000000000e+02,-9.561154432942863268e-01,0.000000000000000000e+00
5.270000000000000000e+02,-1.088584370302607907e+00,0.000000000000000000e+00
5.280000000000000000e+02,-9.965705887349998182e-01,0.000000000000000000e+00
5.290000000000000000e+02,-9.956220164616048640e-01,0.000000000000000000e+00
5.300000000000000000e+02,-7.560296491375454453e-01,0.000000000000000000e+00
5.310000000000000000e+02,-8.142257157829039249e-01,0.000000000000000000e+00
5.320000000000000000e+02,-6.352155570028138465e-01,0.000000000000000000e+00
5.330000000000000000e+02,-6.734123942081584602e-01,0.000000000000000000e+00
5.340000000000000000e+02,-5.395460799897948689e-01,0.000000000000000000e+00
5.350000000000000000e+02,-7.574940309434967656e-01,0.000000000000000000e+00
5.360000000000000000e+02,-4.731772737382659022e-01,0.000000000000000000e+00
5.370000000000000000e+02,-5.591991801101778847e-01,0.000000000000000000e+00
5.380000000000000000e+02,-4.511072225327605323e-01,0.000000000000000000e+00
5.390000000000000000e+02,-6.427630432029938223e-01,0.000000000000000000e+00
5.400000000000000000e+02,-3.157586223424359573e-01,0.000000000000000000e+00
5.410000000000000000e+02,-4.859629089284074888e-01,0.000000000000000000e+00
5.420000000000000000e+02,-1.882268838526345023e-01,0.000000000000000000e+00
5.430000000000000000e+02,-4.247575303192472895e-01,0.000000000000000000e+00
5.440000000000000000e+02,-1.775671738766292362e-01,0.000000000000000000e+00
5.450000000000000000e+02,-3.436904374148218033e-01,0.000000000000000000e+00
5.460000000000000000e+02,-8.410222542651152322e-02,0.000000000000000000e+00
5.470000000000000000e+02,-2.168942805466908541e-01,0.000000000000000000e+00
5.480000000000000000e+02,-8.184915243844570476e-02,0.000000000000000000e+00
5.490000000000000000e+02,3.070624673058405113e-02,0.000000000000000000e+00
5.500000000000000000e+02,-1.002740325221879308e-01,0.000000000000000000e+00
5.510000000000000000e+02,7.129926002970957653e-03,0.000000000000000000e+00
5.520000000000000000e+02,-1.025601523854212382e-01,0.000000000000000000e+00
5.530000000000000000e+02,-3.350630055977537464e-02,0.000000000000000000e+00
5.540000000000000000e+02,7.324437948243155139e-02,0.000000000000000000e+00
5.550000000000000000e+02,8.012619762868129769e-02,0.000000000000000000e+00
5.560000000000000000e+02,7.948792420249763124e-02,0.000000000000000000e+00
5.570000000000000000e+02,-3.079989459261180725e-03,0.000000000000000000e+00
5.580000000000000000e+02,1.269980816594065975e-01,0.000000000000000000e+00
5.590000000000000000e+02,2.596266713496988426e-02,0.000000000000000000e+00
5.600000000000000000e+02,3.427967051682033195e-01,0.000000000000000000e+00
5.610000000000000000e+02,4.938888909533997729e-01,0.000000000000000000e+00
5.620000000000000000e+02,5.367167332647495570e-01,0.000000000000000000e+00
5.630000000000000000e+02,1.024153472874477361e-01,0.000000000000000000e+00
5.640000000000000000e+02,-9.690085279935030382e-02,0.000000000000000000e+00
5.650000000000000000e+02,5.999280008616051513e-02,0.000000000000000000e+00
5.660000000000000000e+02,-1.861514595927890592e-01,0.000000000000000000e+00
5.670000000000000000e+02,7.571880640040355714e-02,0.000000000000000000e+00
5.680000000000000000e+02,-4.147188680632638014e-01,0.000000000000000000e+00
5.690000000000000000e+02,3.049983864451056847e-01,0.000000000000000000e+00
5.700000000000000000e+02,3.981825713508025721e+00,0.000000000000000000e+00
5.710000000000000000e+02,-5.379308620800146157e-01,1.000000000000000000e+00
5.720000000000000000e+02,-3.062500815187364722e+00,0.000000000000000000e+00
5.730000000000000000e+02,-3.306595780533157836e+00,0.000000000000000000e+00
5.740000000000000000e+02,-2.250801179279473541e+00,0.000000000000000000e+00
5.750000000000000000e+02,2.689889411724817325e-01,0.000000000000000000e+00
5.760000000000000000e+02,8.781970596704902210e-01,0.000000000000000000e+00
5.770000000000000000e+02,9.523125040017930143e-01,0.000000000000000000e+00
5.780000000000000000e+02,9.313435472898827783e-01,0.000000000000000000e+00
5.790000000000000000e+02,9.566766937588084829e-01,0.000000000000000000e+00
5.800000000000000000e+02,8.385581947002026526e-01,0.000000000000000000e+00
5.810000000000000000e+02,8.098904022184766349e-01,0.000000000000000000e+00
5.820000000000000000e+02,9.995340201062969943e-01,0.000000000000000000e+00
5.830000000000000000e+02,8.600813981988973955e-01,0.000000000000000000e+00
5.840000000000000000e+02,9.804053129432885871e-01,0.000000000000000000e+00
5.850000000000000000e+02,1.084401799626922847e+00,0.000000000000000000e+00
5.860000000000000000e+02,1.180329048415492021e+00,0.000000000000000000e+00
5.870000000000000000e+02,1.329152571362836710e+00,0.000000000000000000e+00
5.880000000000000000e+02,1.424856525324587730e+00,0.000000000000000000e+00
5.890000000000000000e+02,1.464609531711981605e+00,0.000000000000000000e+00
5.900000000000000000e+02,1.304187488617096990e+00,0.000000000000000000e+00
5.910000000000000000e+02,9.827197767226002467e-01,0.000000000000000000e+00
5.920000000000000000e+02,2.331957825102025372e-01,0.000000000000000000e+00
5.930000000000000000e+02,-4.712935107603701823e-01,0.000000000000000000e+00
5.940000000000000000e+02,-9.537107959726904838e-01,0.000000000000000000e+00
5.950000000000000000e+02,-1.067325851801771863e+00,0.000000000000000000e+00
5.960000000000000000e+02,-1.120063973938322244e+00,0.000000000000000000e+00
5.970000000000000000e+02,-1.099831035923408917e+00,0.000000000000000000e+00
5.980000000000000000e+02,-9.820524975944220358e-01,0.000000000000000000e+00
5.990000000000000000e+02,-9.503949530692031855e-01,0.000000000000000000e+00
6.000000000000000000e+02,-8.422865101672406540e-01,0.000000000000000000e+00
6.010000000000000000e+02,-6.929395467541162867e-01,0.000000000000000000e+00
6.020000000000000000e+02,-6.532539445976263126e-01,0.000000000000000000e+00
6.030000000000000000e+02,-6.847033598832219514e-01,0.000000000000000000e+00
6.040000000000000000e+02,-6.183796164053607658e-01,0.000000000000000000e+00
6.050000000000000000e+02,-5.847733080261000582e-01,0.000000000000000000e+00
6.060000000000000000e+02,-4.501789410611716225e-01,0.000000000000000000e+00
6.070000000000000000e+02,-5.838816402727329269e-01,0.000000000000000000e+00
6.080000000000000000e+02,-3.814330604161635385e-01,0.000000000000000000e+00
6.090000000000000000e+02,-4.962243073249461567e-01,0.000000000000000000e+00
6.100000000000000000e+02,-2.745958160998926978e-01,0.000000000000000000e+00
6.110000000000000000e+02,-3.390354546325756724e-01,0.000000000000000000e+00
6.120000000000000000e+02,-3.730001648693170857e-01,0.000000000000000000e+00
6.130000000000000000e+02,-1.581680529869722851e-01,0.000000000000000000e+00
6.140000000000000000e+02,-3.236370566302722018e-01,0.000000000000000000e+00
6.150000000000000000e+02,-1.088673926301859107e-01,0.000000000000000000e+00
6.160000000000000000e+02,-7.882187203300353162e-02,0.000000000000000000e+00
6.170000000000000000e+02,-1.875644583390138620e-01,0.000000000000000000e+00
6.180000000000000000e+02,7.521176603178195141e-02,0.000000000000000000e+00
6.190000000000000000e+02,-1.274723852378752686e-01,0.000000000000000000e+00
6.200000000000000000e+02,1.270370661153955860e-01,0.000000000000000000e+00
6.210000000000000000e+02,-8.018552268126416874e-03,0.000000000000000000e+00
6.220000000000000000e+02,7.760766594339936486e-02,0.000000000000000000e+00
6.230000000000000000e+02,7.284370548578687765e-02,0.000000000000000000e+00
6.240000000000000000e+02,9.001918259557349644e-02,0.000000000000000000e+00
6.250000000000000000e+02,8.431116571506100388e-02,0.000000000000000000e+00
6.260000000000000000e+02,5.068853582240963052e-01,0.000000000000000000e+00
6.270000000000000000e+02,3.415476601099149967e-01,0.000000000000000000e+00
6.280000000000000000e+02,3.690218469432099413e-01,0.000000000000000000e+00
6.290000000000000000e+02,2.886954446916487060e-01,0.000000000000000000e+00
6.300000000000000000e+02,-4.043225526763456756e-02,0.000000000000000000e+00
6.310000000000000000e+02,-7.422716521075026219e-02,0.000000000000000000e+00
6.320000000000000000e+02,-3.840305258410808137e-02,0.000000000000000000e+00
6.330000000000000000e+02,1.319407274670580665e-01,0.000000000000000000e+00
6.340000000000000000e+02,-2.130952919904214593e-01,0.000000000000000000e+00
6.350000000000000000e+02,3.490946410277526724e-01,0.000000000000000000e+00
6.360000000000000000e+02,3.607504231110849169e+00,0.000000000000000000e+00
6.370000000000000000e+02,-4.759872833299853556e-01,1.000000000000000000e+00
6.380000000000000000e+02,-2.435603399913961020e+00,0.000000000000000000e+00
6.390000000000000000e+02,-2.659053136157722097e+00,0.000000000000000000e+00
6.400000000000000000e+02,-2.407234559124269424e+00,0.000000000000000000e+00
6.410000000000000000e+02,6.807519839071089762e-02,0.000000000000000000e+00
6.420000000000000000e+02,9.982816954835019851e-01,0.000000000000000000e+00
6.430000000000000000e+02,9.324935623836640985e-01,0.000000000000000000e+00
6.440000000000000000e+02,1.008641030560960772e+00,0.000000000000000000e+00
6.450000000000000000e+02,8.002625087940701265e-01,0.000000000000000000e+00
6.460000000000000000e+02,9.413100251170217758e-01,0.000000000000000000e+00
6.470000000000000000e+02,9.996300319951492153e-01,0.000000000000000000e+00
6.480000000000000000e+02,6.700475688767062454e-01,0.000000000000000000e+00
6.490000000000000000e+02,1.022414224764670587e+00,0.000000000000000000e+00
6.500000000000000000e+02,9.583804487314914189e-01,0.000000000000000000e+00
6.510000000000000000e+02,1.034215159741831869e+00,0.000000000000000000e+00
6.520000000000000000e+02,1.171654436524214526e+00,0.000000000000000000e+00
6.530000000000000000e+02,1.229331395408137517e+00,0.000000000000000000e+00
6.540000000000000000e+02,1.230730759965608989e+00,0.000000000000000000e+00
6.550000000000000000e+02,1.308426015279748000e+00,0.000000000000000000e+00
6.560000000000000000e+02,1.276782772196530358e+00,0.000000000000000000e+00
6.570000000000000000e+02,6.752912943270795720e-01,0.000000000000000000e+00
6.580000000000000000e+02,1.066020578943464303e-01,0.000000000000000000e+00
6.590000000000000000e+02,-5.011120153963501966e-01,0.000000000000000000e+00
6.600000000000000000e+02,-9.624884025344467853e-01,0.000000000000000000e+00
6.610000000000000000e+02,-1.179880778142536224e+00,0.000000000000000000e+00
6.620000000000000000e+02,-9.888633481650782597e-01,0.000000000000000000e+00
6.630000000000000000e+02,-1.194136537987134927e+00,0.000000000000000000e+00
6.640000000000000000e+02,-8.896224049278148582e-01,0.000000000000000000e+00
6.650000000000000000e+02,-9.490943706579899608e-01,0.000000000000000000e+00
6.660000000000000000e+02,-8.718890662764625654e-01,0.000000000000000000e+00
6.670000000000000000e+02,-6.345670559602520910e-01,0.000000000000000000e+00
6.680000000000000000e+02,-7.609125825180201863e-01,0.000000000000000000e+00
6.690000000000000000e+02,-6.105754337460421732e-01,0.000000000000000000e+00
6.700000000000000000e+02,-6.030609494628572653e-01,0.000000000000000000e+00
6.710000000000000000e+02,-7.295982431831896653e-01,0.000000000000000000e+00
6.720000000000000000e+02,-4.939427451050629192e-01,0.000000000000000000e+00
6.730000000000000000e+02,-5.413296818893208462e-01,0.000000000000000000e+00
6.740000000000000000e+02,-5.771097119825568944e-01,0.000000000000000000e+00
6.750000000000000000e+02,-4.309093096834725189e-01,0.000000000000000000e+00
6.760000000000000000e+02,-4.398085807951400694e-01,0.000000000000000000e+00
6.770000000000000000e+02,-3.265953192082181045e-01,0.000000000000000000e+00
6.780000000000000000e+02,-3.858291663384265657e-01,0.000000000000000000e+00
6.790000000000000000e+02,-2.247773820032211156e-01,0.000000000000000000e+00
6.800000000000000000e+02,-3.398768985898020234e-01,0.000000000000000000e+00
6.810000000000000000e+02,-1.355884375981559753e-01,0.000000000000000000e+00
6.820000000000000000e+02,-1.103816442830008460e-01,0.000000000000000000e+00
6.830000000000000000e+02,-1.687119954094455643e-01,0.000000000000000000e+00
6.840000000000000000e+02,-3.308295992877340747e-02,0.000000000000000000e+00
6.850000000000000000e+02,-2.461369833690473519e-01,0.000000000000000000e+00
6.860000000000000000e+02,1.405582107033986061e-01,0.000000000000000000e+00
6.870000000000000000e+02,-1.395127303927665707e-01,0.000000000000000000e+00
6.880000000000000000e+02,3.204642259920084668e-01,0.000000000000000000e+00
6.890000000000000000e+02,2.988938708112615639e-01,0.000000000000000000e+00
6.900000000000000000e+02,3.499533234539489723e-01,0.000000000000000000e+00
6.910000000000000000e+02,3.942071935061909893e-01,0.000000000000000000e+00
6.920000000000000000e+02,4.272371115443877182e-03,0.000000000000000000e+00
6.930000000000000000e+02,-1.441327579101019107e-02,0.000000000000000000e+00
6.940000000000000000e+02,5.575483689524570602e-02,0.000000000000000000e+00
6.950000000000000000e+02,-9.988906311650207204e-02,0.000000000000000000e+00
6.960000000000000000e+02,4.082942761246312335e-02,0.000000000000000000e+00
6.970000000000000000e+02,-2.989034832641419559e-01,0.000000000000000000e+00
6.980000000000000000e+02,3.221265949998969091e+00,0.000000000000000000e+00
6.990000000000000000e+02,9.954505024736703955e-01,0.000000000000000000e+00
7.000000000000000000e+02,-2.569763931692909065e+00,1.000000000000000000e+00
7.010000000000000000e+02,-2.618880323138482957e+00,0.000000000000000000e+00
7.020000000000000000e+02,-2.656331252037706481e+00,0.000000000000000000e+00
7.030000000000000000e+02,-2.460534598123683969e-01,0.000000000000000000e+00
7.040000000000000000e+02,7.505681223067862673e-01,0.000000000000000000e+00
7.050000000000000000e+02,1.115719650522247530e+00,0.000000000000000000e+00
7.060000000000000000e+02,9.546268819303197484e-01,0.000000000000000000e+00
7.070000000000000000e+02,9.731909725580083492e-01,0.000000000000000000e+00
7.080000000000000000e+02,9.756276469497114912e-01,0.000000000000000000e+00
7.090000000000000000e+02,8.419156757733049501e-01,0.000000000000000000e+00
7.100000000000000000e+02,7.880929083304065719e-01,0.000000000000000000e+00
7.110000000000000000e+02,1.011088216885820623e+00,0.000000000000000000e+00
7.120000000000000000e+02,8.895872337807143593e-01,0.000000000000000000e+00
7.130000000000000000e+02,1.037299894060100369e+00,0.000000000000000000e+00
7.140000000000000000e+02,1.285043399527342256e+00,0.000000000000000000e+00
7.150000000000000000e+02,1.194925345545641004e+00,0.000000000000000000e+00
7.160000000000000000e+02,1.475263218375460816e+00,0.000000000000000000e+00
7.170000000000000000e+02,1.402731273795232658e+00,0.000000000000000000e+00
7.180000000000000000e+02,1.416707391418586370e+00,0.000000000000000000e+00
7.190000000000000000e+02,1.022847688233664121e+00,0.000000000000000000e+00
7.200000000000000000e+02,4.439895654311097339e-01,0.000000000000000000e+00
7.210000000000000000e+02,-1.725222502623892928e-01,0.000000000000000000e+00
7.220000000000000000e+02,-7.039934392234666882e-01,0.000000000000000000e+00
7.230000000000000000e+02,-8.294172038279435943e-01,0.000000000000000000e+00
7.240000000000000000e+02,-1.026115676016389644e+00,0.000000000000000000e+00
7.250000000000000000e+02,-8.039415033707234537e-01,0.000000000000000000e+00
7.260000000000000000e+02,-9.514047509109841982e-01,0.000000000000000000e+00
7.270000000000000000e+02,-5.796613276349715793e-01,0.000000000000000000e+00
7.280000000000000000e+02,-7.491162199301084623e-01,0.000000000000000000e+00
7.290000000000000000e+02,-4.898423624102055118e-01,0.000000000000000000e+00
7.300000000000000000e+02,-5.481014418353103990e-01,0.000000000000000000e+00
7.310000000000000000e+02,-3.841474784890261951e-01,0.000000000000000000e+00
7.320000000000000000e+02,-5.225100719055857379e-01,0.000000000000000000e+00
7.330000000000000000e+02,-4.520498930782958502e-01,0.000000000000000000e+00
7.340000000000000000e+02,-2.763641011462044106e-01,0.000000000000000000e+00
7.350000000000000000e+02,-3.079027968072126087e-01,0.000000000000000000e+00
7.360000000000000000e+02,-3.346343728772022685e-01,0.000000000000000000e+00
7.370000000000000000e+02,-2.843980741940546619e-01,0.000000000000000000e+00
7.380000000000000000e+02,-3.725016568989642507e-01,0.000000000000000000e+00
7.390000000000000000e+02,-2.623765399049442504e-01,0.000000000000000000e+00
7.400000000000000000e+02,-1.004351017917475414e-01,0.000000000000000000e+00
7.410000000000000000e+02,-1.331554000997913767e-01,0.000000000000000000e+00
7.420000000000000000e+02,-2.513043888016605609e-01,0.000000000000000000e+00
7.430000000000000000e+02,-2.595941872211554244e-02,0.000000000000000000e+00
7.440000000000000000e+02,-2.057064335871815475e-01,0.000000000000000000e+00
7.450000000000000000e+02,3.711231026394497257e-02,0.000000000000000000e+00
7.460000000000000000e+02,6.587021755624000718e-02,0.000000000000000000e+00
7.470000000000000000e+02,-3.113756220590896753e-02,0.000000000000000000e+00
7.480000000000000000e+02,-2.945703911181189044e-02,0.000000000000000000e+00
7.490000000000000000e+02,-1.197387441108930563e-02,0.000000000000000000e+00
7.500000000000000000e+02,-4.614228853813345105e-02,0.000000000000000000e+00
7.510000000000000000e+02,4.688597682175856679e-02,0.000000000000000000e+00
7.520000000000000000e+02,9.068578318225911650e-02,0.000000000000000000e+00
7.530000000000000000e+02,2.053284488312718745e-02,0.000000000000000000e+00
7.540000000000000000e+02,9.739560033128968897e-02,0.000000000000000000e+00
7.550000000000000000e+02,2.053233340606066548e-01,0.000000000000000000e+00
7.560000000000000000e+02,2.490432680687598432e-01,0.000000000000000000e+00
7.570000000000000000e+02,3.224003782289534548e-01,0.000000000000000000e+00
7.580000000000000000e+02,4.404582781620806631e-01,0.000000000000000000e+00
7.590000000000000000e+02,6.057935806743291324e-02,0.000000000000000000e+00
7.600000000000000000e+02,-2.066685293656988776e-01,0.000000000000000000e+00
7.610000000000000000e+02,1.317889841438010246e-01,0.000000000000000000e+00
7.620000000000000000e+02,-1.976984822004613229e-01,0.000000000000000000e+00
7.630000000000000000e+02,-2.261173840243215633e-02,0.000000000000000000e+00
7.640000000000000000e+02,-7.783261405259985777e-01,0.000000000000000000e+00
7.650000000000000000e+02,1.585713591186562299e+00,0.000000000000000000e+00
7.660000000000000000e+02,3.103343654264872686e+00,0.000000000000000000e+00
7.670000000000000000e+02,-2.003626659737401727e+00,1.000000000000000000e+00
7.680000000000000000e+02,-3.110534674243559561e+00,0.000000000000000000e+00
7.690000000000000000e+02,-3.523789285554313366e+00,0.000000000000000000e+00
7.700000000000000000e+02,-1.185401736245370596e+00,0.000000000000000000e+00
7.710000000000000000e+02,4.982494891330175868e-01,0.000000000000000000e+00
7.720000000000000000e+02,9.000735897056276746e-01,0.000000000000000000e+00
7.730000000000000000e+02,9.827663312352982183e-01,0.000000000000000000e+00
7.740000000000000000e+02,7.842732528058766750e-01,0.000000000000000000e+00
7.750000000000000000e+02,8.290327655859038858e-01,0.000000000000000000e+00
7.760000000000000000e+02,8.710544608483489215e-01,0.000000000000000000e+00
7.770000000000000000e+02,6.119098101950214419e-01,0.000000000000000000e+00
7.780000000000000000e+02,8.253984003723678908e-01,0.000000000000000000e+00
7.790000000000000000e+02,8.207290100847891567e-01,0.000000000000000000e+00
7.800000000000000000e+02,9.277108701751978215e-01,0.000000000000000000e+00
7.810000000000000000e+02,8.073058907248402694e-01,0.000000000000000000e+00
7.820000000000000000e+02,1.145270729927241549e+00,0.000000000000000000e+00
7.830000000000000000e+02,1.181145468248646857e+00,0.000000000000000000e+00
7.840000000000000000e+02,1.339119205749150554e+00,0.000000000000000000e+00
7.850000000000000000e+02,1.367018739331032906e+00,0.000000000000000000e+00
7.860000000000000000e+02,1.045042762428061378e+00,0.000000000000000000e+00
7.870000000000000000e+02,3.683820776377926820e-01,0.000000000000000000e+00
7.880000000000000000e+02,-7.710406722221480047e-02,0.000000000000000000e+00
7.890000000000000000e+02,-6.363411539931279615e-01,0.000000000000000000e+00
7.900000000000000000e+02,-1.030317713477389097e+00,0.000000000000000000e+00
7.910000000000000000e+02,-1.049465494967267265e+00,0.000000000000000000e+00
7.920000000000000000e+02,-1.000404743841265320e+00,0.000000000000000000e+00
7.930000000000000000e+02,-1.056621806079902415e+00,0.000000000000000000e+00
7.940000000000000000e+02,-8.672618237603577640e-01,0.000000000000000000e+00
7.950000000000000000e+02,-8.763104160697461342e-01,0.000000000000000000e+00
7.960000000000000000e+02,-5.936564315462429242e-01,0.000000000000000000e+00
7.970000000000000000e+02,-6.723147470452092156e-01,0.000000000000000000e+00
7.980000000000000000e+02,-5.832661677205296380e-01,0.000000000000000000e+00
7.990000000000000000e+02,-6.787941852588464942e-01,0.000000000000000000e+00
8.000000000000000000e+02,-5.723551146594252348e-01,0.000000000000000000e+00
8.010000000000000000e+02,-5.063042407281734825e-01,0.000000000000000000e+00
8.020000000000000000e+02,-4.405952447494154156e-01,0.000000000000000000e+00
8.030000000000000000e+02,-3.062940442779100159e-01,0.000000000000000000e+00
8.040000000000000000e+02,-3.452318929045316565e-01,0.000000000000000000e+00
8.050000000000000000e+02,-4.483117068171912356e-01,0.000000000000000000e+00
8.060000000000000000e+02,-3.865832814441267917e-01,0.000000000000000000e+00
8.070000000000000000e+02,-2.592399449829606572e-01,0.000000000000000000e+00
8.080000000000000000e+02,-1.282481487156666156e-01,0.000000000000000000e+00
8.090000000000000000e+02,-2.648684640302748083e-01,0.000000000000000000e+00
8.100000000000000000e+02,-1.068457575052145225e-01,0.000000000000000000e+00
8.110000000000000000e+02,-1.761359171906643206e-01,0.000000000000000000e+00
8.120000000000000000e+02,-1.343872533431864635e-01,0.000000000000000000e+00
8.130000000000000000e+02,-1.306106748634296155e-01,0.000000000000000000e+00
8.140000000000000000e+02,5.024369612249787037e-02,0.000000000000000000e+00
8.150000000000000000e+02,3.005132251893254808e-02,0.000000000000000000e+00
8.160000000000000000e+02,-5.055835543428181117e-02,0.000000000000000000e+00
8.170000000000000000e+02,1.071608644978982866e-01,0.000000000000000000e+00
8.180000000000000000e+02,1.038346398730751879e-01,0.000000000000000000e+00
8.190000000000000000e+02,-9.659087508549692169e-02,0.000000000000000000e+00
8.200000000000000000e+02,1.599013322904987155e-01,0.000000000000000000e+00
8.210000000000000000e+02,-1.440145430321106840e-02,0.000000000000000000e+00
8.220000000000000000e+02,1.919079138505386806e-01,0.000000000000000000e+00
8.230000000000000000e+02,1.722267564781592430e-01,0.000000000000000000e+00
8.240000000000000000e+02,2.150931084961116291e-01,0.000000000000000000e+00
8.250000000000000000e+02,-1.491578698311672897e-02,0.000000000000000000e+00
8.260000000000000000e+02,2.624139824673753507e-01,0.000000000000000000e+00
8.270000000000000000e+02,3.772774081821650416e-01,0.000000000000000000e+00
8.280000000000000000e+02,5.622623007393535710e-01,0.000000000000000000e+00
8.290000000000000000e+02,4.654572726789860115e-01,0.000000000000000000e+00
8.300000000000000000e+02,7.737127413281008614e-02,0.000000000000000000e+00
8.310000000000000000e+02,-1.319263293183138841e-01,0.000000000000000000e+00
8.320000000000000000e+02,-2.054013377524743778e-02,0.000000000000000000e+00
8.330000000000000000e+02,-8.918833318174057556e-02,0.000000000000000000e+00
8.340000000000000000e+02,-9.093293856400726238e-02,0.000000000000000000e+00
8.350000000000000000e+02,-5.383293237721711311e-01,0.000000000000000000e+00
8.360000000000000000e+02,3.203184714924382614e+00,0.000000000000000000e+00
8.370000000000000000e+02,9.870541660352835089e-01,0.000000000000000000e+00
8.380000000000000000e+02,-3.055913958791747653e+00,1.000000000000000000e+00
8.390000000000000000e+02,-3.477240904838521995e+00,0.000000000000000000e+00
8.400000000000000000e+02,-2.694298036050740475e+00,0.000000000000000000e+00
8.410000000000000000e+02,1.237242574564551972e-01,0.000000000000000000e+00
8.420000000000000000e+02,7.917765881569801545e-01,0.000000000000000000e+00
8.430000000000000000e+02,1.096017804368851101e+00,0.000000000000000000e+00
8.440000000000000000e+02,9.373007188541264689e-01,0.000000000000000000e+00
8.450000000000000000e+02,9.410979147838088865e-01,0.000000000000000000e+00
8.460000000000000000e+02,8.530712262900543852e-01,0.000000000000000000e+00
8.470000000000000000e+02,9.237013817224557499e-01,0.000000000000000000e+00
8.480000000000000000e+02,8.868786612361880817e-01,0.000000000000000000e+00
8.490000000000000000e+02,8.375158037995341642e-01,0.000000000000000000e+00
8.500000000000000000e+02,8.903355282394380676e-01,0.000000000000000000e+00
8.510000000000000000e+02,9.873801305107865467e-01,0.000000000000000000e+00
8.520000000000000000e+02,1.073330469218143124e+00,0.000000000000000000e+00
8.530000000000000000e+02,1.253806711970563814e+00,0.000000000000000000e+00
8.540000000000000000e+02,1.376745294785535201e+00,0.000000000000000000e+00
8.550000000000000000e+02,1.460093487734960505e+00,0.000000000000000000e+00
8.560000000000000000e+02,1.373086030822826542e+00,0.000000000000000000e+00
8.570000000000000000e+02,8.412965762659947444e-01,0.000000000000000000e+00
8.580000000000000000e+02,4.393932133154982989e-01,0.000000000000000000e+00
8.590000000000000000e+02,-4.073490528719351245e-01,0.000000000000000000e+00
8.600000000000000000e+02,-8.516920654096374887e-01,0.000000000000000000e+00
8.610000000000000000e+02,-9.125943549895716433e-01,0.000000000000000000e+00
8.620000000000000000e+02,-9.601420054347068467e-01,0.000000000000000000e+00
8.630000000000000000e+02,-1.074502962643946624e+00,0.000000000000000000e+00
8.640000000000000000e+02,-9.225155574100650790e-01,0.000000000000000000e+00
8.650000000000000000e+02,-8.494734768079265086e-01,0.000000000000000000e+00
8.660000000000000000e+02,-8.146388649415300387e-01,0.000000000000000000e+00
8.670000000000000000e+02,-7.050898054417208405e-01,0.000000000000000000e+00
8.680000000000000000e+02,-7.054566488096746246e-01,0.000000000000000000e+00
8.690000000000000000e+02,-5.303746469721102308e-01,0.000000000000000000e+00
8.700000000000000000e+02,-5.819641655999387986e-01,0.000000000000000000e+00
8.710000000000000000e+02,-4.077592235990414871e-01,0.000000000000000000e+00
8.720000000000000000e+02,-5.077259195715001505e-01,0.000000000000000000e+00
8.730000000000000000e+02,-3.369809575774028176e-01,0.000000000000000000e+00
8.740000000000000000e+02,-4.645023932227257402e-01,0.000000000000000000e+00
8.750000000000000000e+02,-2.747106232761717393e-01,0.000000000000000000e+00
8.760000000000000000e+02,-3.086159545144177563e-01,0.000000000000000000e+00
8.770000000000000000e+02,-1.980860784557909871e-01,0.000000000000000000e+00
8.780000000000000000e+02,-1.441012859496169363e-01,0.000000000000000000e+00
8.790000000000000000e+02,-3.083845559145388937e-01,0.000000000000000000e+00
8.800000000000000000e+02,-5.197295260052958721e-02,0.000000000000000000e+00
8.810000000000000000e+02,-1.193693291627450637e-01,0.000000000000000000e+00
8.820000000000000000e+02,-7.988479591528367674e-02,0.000000000000000000e+00
8.830000000000000000e+02,6.657111750348787549e-02,0.000000000000000000e+00
8.840000000000000000e+02,-2.281824280935697196e-05,0.000000000000000000e+00
8.850000000000000000e+02,-2.088714934481553098e-02,0.000000000000000000e+00
8.860000000000000000e+02,9.343885583076515580e-03,0.000000000000000000e+00
8.870000000000000000e+02,8.707165268722416585e-02,0.000000000000000000e+00
8.880000000000000000e+02,4.876922096566161519e-02,0.000000000000000000e+00
8.890000000000000000e+02,5.823065246575426235e-02,0.000000000000000000e+00
8.900000000000000000e+02,8.980753224535023560e-02,0.000000000000000000e+00
8.910000000000000000e+02,7.137285486566501136e-02,0.000000000000000000e+00
8.920000000000000000e+02,-3.648235505097722348e-02,0.000000000000000000e+00
8.930000000000000000e+02,1.822848475128164281e-01,0.000000000000000000e+00
8.940000000000000000e+02,8.935383457921954042e-02,0.000000000000000000e+00
8.950000000000000000e+02,-5.187843215860642870e-02,0.000000000000000000e+00
8.960000000000000000e+02,8.835909679450906773e-02,0.000000000000000000e+00
8.970000000000000000e+02,2.048116548907816525e-01,0.000000000000000000e+00
8.980000000000000000e+02,2.032969815863301111e-01,0.000000000000000000e+00
8.990000000000000000e+02,2.752193599553666714e-01,0.000000000000000000e+00
9.000000000000000000e+02,5.368564296245116330e-01,0.000000000000000000e+00
9.010000000000000000e+02,2.544909790703434593e-01,0.000000000000000000e+00
9.020000000000000000e+02,-1.157032815786505076e-01,0.000000000000000000e+00
9.030000000000000000e+02,-1.221096067489172050e-02,0.000000000000000000e+00
9.040000000000000000e+02,5.140797171911343222e-02,0.000000000000000000e+00
9.050000000000000000e+02,-1.997560154561579537e-01,0.000000000000000000e+00
9.060000000000000000e+02,-1.423693795703140641e-01,0.000000000000000000e+00
9.070000000000000000e+02,-4.916633527141481830e-01,0.000000000000000000e+00
9.080000000000000000e+02,3.341417751144328374e+00,0.000000000000000000e+00
9.090000000000000000e+02,6.105370399118965619e-01,0.000000000000000000e+00
9.100000000000000000e+02,-3.218629535745296089e+00,1.000000000000000000e+00
9.110000000000000000e+02,-3.429006149497791256e+00,0.000000000000000000e+00
9.120000000000000000e+02,-2.605599648725364315e+00,0.000000000000000000e+00
9.130000000000000000e+02,8.248507719860649623e-02,0.000000000000000000e+00
9.140000000000000000e+02,9.152981912375031115e-01,0.000000000000000000e+00
9.150000000000000000e+02,1.007432763517979613e+00,0.000000000000000000e+00
9.160000000000000000e+02,9.972106251920890285e-01,0.000000000000000000e+00
9.170000000000000000e+02,9.167630301657768710e-01,0.000000000000000000e+00
9.180000000000000000e+02,8.441661965654102540e-01,0.000000000000000000e+00
9.190000000000000000e+02,8.198783087420463689e-01,0.000000000000000000e+00
9.200000000000000000e+02,9.007277175880750164e-01,0.000000000000000000e+00
9.210000000000000000e+02,8.751536007654771021e-01,0.000000000000000000e+00
9.220000000000000000e+02,9.159880646199409782e-01,0.000000000000000000e+00
9.230000000000000000e+02,1.001190988622369549e+00,0.000000000000000000e+00
9.240000000000000000e+02,1.131180068134725936e+00,0.000000000000000000e+00
9.250000000000000000e+02,1.146507223058220282e+00,0.000000000000000000e+00
9.260000000000000000e+02,1.463887939408526240e+00,0.000000000000000000e+00
9.270000000000000000e+02,1.349586332504608022e+00,0.000000000000000000e+00
9.280000000000000000e+02,1.240984378299188506e+00,0.000000000000000000e+00
9.290000000000000000e+02,9.561095991889969614e-01,0.000000000000000000e+00
9.300000000000000000e+02,2.204544726553636924e-01,0.000000000000000000e+00
9.310000000000000000e+02,-3.456526544171643622e-01,0.000000000000000000e+00
9.320000000000000000e+02,-9.627745767621332940e-01,0.000000000000000000e+00
9.330000000000000000e+02,-1.088019161462365325e+00,0.000000000000000000e+00
9.340000000000000000e+02,-1.018589326650530591e+00,0.000000000000000000e+00
9.350000000000000000e+02,-1.001531733830395288e+00,0.000000000000000000e+00
9.360000000000000000e+02,-9.276720003969246564e-01,0.000000000000000000e+00
9.370000000000000000e+02,-9.367363327989082222e-01,0.000000000000000000e+00
9.380000000000000000e+02,-8.031270156664900295e-01,0.000000000000000000e+00
9.390000000000000000e+02,-6.870475604439988393e-01,0.000000000000000000e+00
9.400000000000000000e+02,-6.174857980014430980e-01,0.000000000000000000e+00
9.410000000000000000e+02,-7.079687359007732494e-01,0.000000000000000000e+00
9.420000000000000000e+02,-4.153912593212750193e-01,0.000000000000000000e+00
9.430000000000000000e+02,-6.094240075408102753e-01,0.000000000000000000e+00
9.440000000000000000e+02,-3.599828087672991006e-01,0.000000000000000000e+00
9.450000000000000000e+02,-4.755468028068432496e-01,0.000000000000000000e+00
9.460000000000000000e+02,-4.269263226893331153e-01,0.000000000000000000e+00
9.470000000000000000e+02,-3.556116524888750519e-01,0.000000000000000000e+00
9.480000000000000000e+02,-3.394170849011932112e-01,0.000000000000000000e+00
9.490000000000000000e+02,-3.423904737431781586e-01,0.000000000000000000e+00
9.500000000000000000e+02,-1.165143870943693150e-01,0.000000000000000000e+00
9.510000000000000000e+02,-3.465002896961638101e-01,0.000000000000000000e+00
9.520000000000000000e+02,-2.941616152675685658e-01,0.000000000000000000e+00
9.530000000000000000e+02,-5.457150558559221293e-02,0.000000000000000000e+00
9.540000000000000000e+02,-1.271391330977247602e-01,0.000000000000000000e+00
9.550000000000000000e+02,-1.204254371864393047e-01,0.000000000000000000e+00
9.560000000000000000e+02,-1.215274157995505262e-02,0.000000000000000000e+00
9.570000000000000000e+02,1.630814550106575054e-03,0.000000000000000000e+00
9.580000000000000000e+02,-5.886907860980492013e-02,0.000000000000000000e+00
9.590000000000000000e+02,8.978782634518038411e-04,0.000000000000000000e+00
9.600000000000000000e+02,8.942887894225845513e-02,0.000000000000000000e+00
9.610000000000000000e+02,4.001115964384931861e-02,0.000000000000000000e+00
9.620000000000000000e+02,1.493650636283510857e-01,0.000000000000000000e+00
9.630000000000000000e+02,-1.314741630221623846e-02,0.000000000000000000e+00
9.640000000000000000e+02,1.451204054656199949e-01,0.000000000000000000e+00
9.650000000000000000e+02,1.926214249313532301e-01,0.000000000000000000e+00
9.660000000000000000e+02,1.284188532668802396e-01,0.000000000000000000e+00
9.670000000000000000e+02,1.587189728674784917e-01,0.000000000000000000e+00
9.680000000000000000e+02,1.732411979247444056e-01,0.000000000000000000e+00
9.690000000000000000e+02,8.016525126957603498e-02,0.000000000000000000e+00
9.700000000000000000e+02,2.533494133916964763e-01,0.000000000000000000e+00
9.710000000000000000e+02,2.266189287248974449e-01,0.000000000000000000e+00
9.720000000000000000e+02,6.479126164942021759e-01,0.000000000000000000e+00
9.730000000000000000e+02,4.731996278036439962e-01,0.000000000000000000e+00
9.740000000000000000e+02,1.099017557206043855e-01,0.000000000000000000e+00
9.750000000000000000e+02,-7.998681874866848951e-02,0.000000000000000000e+00
9.760000000000000000e+02,-2.688190270123155118e-02,0.000000000000000000e+00
9.770000000000000000e+02,-1.651247602164445938e-01,0.000000000000000000e+00
9.780000000000000000e+02,2.110532181234234250e-01,0.000000000000000000e+00
9.790000000000000000e+02,-8.589869487476696763e-01,0.000000000000000000e+00
9.800000000000000000e+02,1.568756770207148765e+00,0.000000000000000000e+00
9.810000000000000000e+02,3.319008167016343158e+00,0.000000000000000000e+00
9.820000000000000000e+02,-2.027189040665841269e+00,1.000000000000000000e+00
9.830000000000000000e+02,-3.136929304888909975e+00,0.000000000000000000e+00
9.840000000000000000e+02,-3.472483268168829795e+00,0.000000000000000000e+00
9.850000000000000000e+02,-1.340889246738230289e+00,0.000000000000000000e+00
9.860000000000000000e+02,5.550181214290391685e-01,0.000000000000000000e+00
9.870000000000000000e+02,1.036175987232794027e+00,0.000000000000000000e+00
9.880000000000000000e+02,9.390020797773583894e-01,0.000000000000000000e+00
9.890000000000000000e+02,9.904294101234610848e-01,0.000000000000000000e+00
9.900000000000000000e+02,8.851480545840869629e-01,0.000000000000000000e+00
9.910000000000000000e+02,9.131475289128048178e-01,0.000000000000000000e+00
9.920000000000000000e+02,6.645906302381964226e-01,0.000000000000000000e+00
9.930000000000000000e+02,9.478635081310671229e-01,0.000000000000000000e+00
9.940000000000000000e+02,8.502224840650302040e-01,0.000000000000000000e+00
9.950000000000000000e+02,1.058105221664634943e+00,0.000000000000000000e+00
9.960000000000000000e+02,1.053788667691822223e+00,0.000000000000000000e+00
9.970000000000000000e+02,1.170851915190347370e+00,0.000000000000000000e+00
9.980000000000000000e+02,1.333694430364132932e+00,0.000000000000000000e+00
9.990000000000000000e+02,1.455324802675796780e+00,0.000000000000000000e+00
1.000000000000000000e+03,1.496024970735345461e+00,0.000000000000000000e+00
1.001000000000000000e+03,1.145368600519856006e+00,0.000000000000000000e+00
1.002000000000000000e+03,7.957910842455866440e-01,0.000000000000000000e+00
1.003000000000000000e+03,-3.143047491940775817e-02,0.000000000000000000e+00
1.004000000000000000e+03,-7.847152383197221193e-01,0.000000000000000000e+00
1.005000000000000000e+03,-8.557229535994412828e-01,0.000000000000000000e+00
1.006000000000000000e+03,-1.214526889872676652e+00,0.000000000000000000e+00
1.007000000000000000e+03,-1.122567215648544225e+00,0.000000000000000000e+00
1.008000000000000000e+03,-1.103158940478222272e+00,0.000000000000000000e+00
1.009000000000000000e+03,-1.041797663258735129e+00,0.000000000000000000e+00
1.010000000000000000e+03,-9.109008262937928757e-01,0.000000000000000000e+00
1.011000000000000000e+03,-7.051271127631348890e-01,0.000000000000000000e+00
1.012000000000000000e+03,-7.336298161032971388e-01,0.000000000000000000e+00
1.013000000000000000e+03,-6.828676283580737971e-01,0.000000000000000000e+00
1.014000000000000000e+03,-6.882072969764433390e-01,0.000000000000000000e+00
1.015000000000000000e+03,-5.358901370120505714e-01,0.000000000000000000e+00
1.016000000000000000e+03,-7.040767701833752223e-01,0.000000000000000000e+00
1.017000000000000000e+03,-4.837442841223899004e-01,0.000000000000000000e+00
1.018000000000000000e+03,-6.129474304650183170e-01,0.000000000000000000e+00
1.019000000000000000e+03,-4.583751012674369130e-01,0.000000000000000000e+00
1.020000000000000000e+03,-4.451371165215062264e-01,0.000000000000000000e+00
1.021000000000000000e+03,-3.272461500190451678e-01,0.000000000000000000e+00
1.022000000000000000e+03,-4.178568764030352600e-01,0.000000000000000000e+00
1.023000000000000000e+03,-2.408355500222469914e-01,0.000000000000000000e+00
1.024000000000000000e+03,-4.090048911491549477e-01,0.000000000000000000e+00
1.025000000000000000e+03,-5.064035855898012944e-02,0.000000000000000000e+00
1.026000000000000000e+03,-1.579410812060597080e-01,0.000000000000000000e+00
1.027000000000000000e+03,-1.505311372811542758e-01,0.000000000000000000e+00
1.028000000000000000e+03,-4.576380597246684084e-02,0.000000000000000000e+00
1.029000000000000000e+03,-8.587031601538529235e-02,0.000000000000000000e+00
1.030000000000000000e+03,5.141769654495283864e-02,0.000000000000000000e+00
1.031000000000000000e+03,1.436923976518297286e-01,0.000000000000000000e+00
1.032000000000000000e+03,-1.757371007690475551e-01,0.000000000000000000e+00
1.033000000000000000e+03,1.869928003171911768e-01,0.000000000000000000e+00
1.034000000000000000e+03,4.681501141134098570e-02,0.000000000000000000e+00
1.035000000000000000e+03,1.858723783887225312e-01,0.000000000000000000e+00
1.036000000000000000e+03,1.529386188814907122e-01,0.000000000000000000e+00
1.037000000000000000e+03,1.325862423975092130e-01,0.000000000000000000e+00
1.038000000000000000e+03,3.105601196988643231e-01,0.000000000000000000e+00
1.039000000000000000e+03,2.844925126111795821e-01,0.000000000000000000e+00
1.040000000000000000e+03,5.163070547123297382e-01,0.000000000000000000e+00
1.041000000000000000e+03,5.439327735504877470e-01,0.000000000000000000e+00
1.042000000000000000e+03,2.059460765193466547e-01,0.000000000000000000e+00
1.043000000000000000e+03,2.725318291613869001e-02,0.000000000000000000e+00
1.044000000000000000e+03,3.725286815517759448e-02,0.000000000000000000e+00
1.045000000000000000e+03,-5.306433777964347787e-02,0.000000000000000000e+00
1.046000000000000000e+03,1.028811903613519596e-01,0.000000000000000000e+00
1.047000000000000000e+03,-2.214565685407283435e-01,0.000000000000000000e+00
1.048000000000000000e+03,3.004848180951851799e-01,0.000000000000000000e+00
1.049000000000000000e+03,3.437950884458574663e+00,0.000000000000000000e+00
1.050000000000000000e+03,-4.416695480035416899e-01,1.000000000000000000e+00
1.051000000000000000e+03,-2.461573641683423741e+00,0.000000000000000000e+00
1.052000000000000000e+03,-2.545911982929463413e+00,0.000000000000000000e+00
1.053000000000000000e+03,-2.268868106915561622e+00,0.000000000000000000e+00
1.054000000000000000e+03,-2.623958386268075427e-01,0.000000000000000000e+00
1.055000000000000000e+03,1.022977954239681964e+00,0.000000000000000000e+00
1.056000000000000000e+03,8.898240129234039619e-01,0.000000000000000000e+00
1.057000000000000000e+03,9.068306560547928497e-01,0.000000000000000000e+00
1.058000000000000000e+03,8.762656439522527041e-01,0.000000000000000000e+00
1.059000000000000000e+03,8.417498966668989224e-01,0.000000000000000000e+00
1.060000000000000000e+03,8.982452905606536087e-01,0.000000000000000000e+00
1.061000000000000000e+03,8.133505318062509426e-01,0.000000000000000000e+00
1.062000000000000000e+03,9.480857334879804199e-01,0.000000000000000000e+00
1.063000000000000000e+03,8.905934272670311680e-01,0.000000000000000000e+00
1.064000000000000000e+03,1.029164974937456956e+00,0.000000000000000000e+00
1.065000000000000000e+03,1.114181986155927451e+00,0.000000000000000000e+00
1.066000000000000000e+03,1.219870243728866210e+00,0.000000000000000000e+00
1.067000000000000000e+03,1.355337698196523499e+00,0.000000000000000000e+00
1.068000000000000000e+03,1.357742665582757802e+00,0.000000000000000000e+00
1.069000000000000000e+03,1.319126886830776169e+00,0.000000000000000000e+00
1.070000000000000000e+03,7.275143398341932244e-01,0.000000000000000000e+00
1.071000000000000000e+03,3.012656853706313087e-01,0.000000000000000000e+00
1.072000000000000000e+03,-3.890324822833685636e-01,0.000000000000000000e+00
1.073000000000000000e+03,-9.235758734593192409e-01,0.000000000000000000e+00
1.074000000000000000e+03,-9.715787216152595995e-01,0.000000000000000000e+00
1.075000000000000000e+03,-1.101163299003054208e+00,0.000000000000000000e+00
1.076000000000000000e+03,-1.057071512975523708e+00,0.000000000000000000e+00
1.077000000000000000e+03,-9.514000745314553642e-01,0.000000000000000000e+00
1.078000000000000000e+03,-8.628465822834031629e-01,0.000000000000000000e+00
1.079000000000000000e+03,-8.738584972614042989e-01,0.000000000000000000e+00
1.080000000000000000e+03,-5.785026157320878326e-01,0.000000000000000000e+00
1.081000000000000000e+03,-7.174902809986031249e-01,0.000000000000000000e+00
1.082000000000000000e+03,-6.493591614813598589e-01,0.000000000000000000e+00
1.083000000000000000e+03,-5.095926512112852746e-01,0.000000000000000000e+00
1.084000000000000000e+03,-6.349955066787963398e-01,0.000000000000000000e+00
1.085000000000000000e+03,-5.679704879923407335e-01,0.000000000000000000e+00
1.086000000000000000e+03,-3.969188990958983365e-01,0.000000000000000000e+00
1.087000000000000000e+03,-5.305567093975206427e-01,0.000000000000000000e+00
1.088000000000000000e+03,-3.559782111299767404e-01,0.000000000000000000e+00
1.089000000000000000e+03,-3.715485743339869140e-01,0.000000000000000000e+00
1.090000000000000000e+03,-4.023654703803968835e-01,0.000000000000000000e+00
1.091000000000000000e+03,-2.343439321355964555e-01,0.000000000000000000e+00
1.092000000000000000e+03,-2.691685635287516809e-01,0.000000000000000000e+00
1.093000000000000000e+03,-2.719293849836625365e-01,0.000000000000000000e+00
1.094000000000000000e+03,-6.323918213847164183e-02,0.000000000000000000e+00
1.095000000000000000e+03,-7.341706580858969877e-02,0.000000000000000000e+00
1.096000000000000000e+03,-1.760768930867190329e-01,0.000000000000000000e+00
1.097000000000000000e+03,1.493030046443896480e-03,0.000000000000000000e+00
1.098000000000000000e+03,-1.467387401365655430e-01,0.000000000000000000e+00
1.099000000000000000e+03,5.234975468598935915e-03,0.000000000000000000e+00
1.100000000000000000e+03,-3.771003373711165341e-02,0.000000000000000000e+00
1.101000000000000000e+03,1.002034041939990627e-01,0.000000000000000000e+00
1.102000000000000000e+03,7.173458358743867169e-02,0.000000000000000000e+00
1.103000000000000000e+03,1.025438121284649590e-01,0.000000000000000000e+00
1.104000000000000000e+03,2.426577396084601476e-02,0.000000000000000000e+00
1.105000000000000000e+03,3.988597363531438678e-01,0.000000000000000000e+00
1.106000000000000000e+03,4.022697082898239462e-01,0.000000000000000000e+00
1.107000000000000000e+03,3.894941110269249385e-01,0.000000000000000000e+00
1.108000000000000000e+03,3.091339009642615210e-01,0.000000000000000000e+00
1.109000000000000000e+03,-1.063362360196877382e-01,0.000000000000000000e+00
1.110000000000000000e+03,-3.559049896385565320e-02,0.000000000000000000e+00
1.111000000000000000e+03,-3.213541979366378587e-02,0.000000000000000000e+00
1.112000000000000000e+03,7.753008043180689701e-02,0.000000000000000000e+00
1.113000000000000000e+03,-2.882155622997120692e-01,0.000000000000000000e+00
1.114000000000000000e+03,6.153066316469910091e-02,0.000000000000000000e+00
1.115000000000000000e+03,3.533846464298460166e+00,0.000000000000000000e+00
1.116000000000000000e+03,-3.149916214568965200e-02,1.000000000000000000e+00
1.117000000000000000e+03,-2.707123914622596050e+00,0.000000000000000000e+00
1.118000000000000000e+03,-2.806966363664846309e+00,0.000000000000000000e+00
1.119000000000000000e+03,-2.429436192829764973e+00,0.000000000000000000e+00
1.120000000000000000e+03,-1.580779345761198357e-02,0.000000000000000000e+00
1.121000000000000000e+03,8.121864902592104141e-01,0.000000000000000000e+00
1.122000000000000000e+03,1.002796425898458743e+00,0.000000000000000000e+00
1.123000000000000000e+03,8.614428278344250511e-01,0.000000000000000000e+00
1.124000000000000000e+03,9.637063566322965347e-01,0.000000000000000000e+00
1.125000000000000000e+03,7.893447691387046605e-01,0.000000000000000000e+00
1.126000000000000000e+03,9.303958413495072577e-01,0.000000000000000000e+00
1.127000000000000000e+03,7.882493562492880468e-01,0.000000000000000000e+00
1.128000000000000000e+03,8.140062165545878248e-01,0.000000000000000000e+00
1.129000000000000000e+03,8.790262892260268801e-01,0.000000000000000000e+00
1.130000000000000000e+03,1.050614972438399519e+00,0.000000000000000000e+00
1.131000000000000000e+03,1.132634363445838233e+00,0.000000000000000000e+00
1.132000000000000000e+03,1.279634379974889713e+00,0.000000000000000000e+00
1.133000000000000000e+03,1.323448344426279011e+00,0.000000000000000000e+00
1.134000000000000000e+03,1.430469002053274652e+00,0.000000000000000000e+00
1.135000000000000000e+03,1.169629883142533799e+00,0.000000000000000000e+00
1.136000000000000000e+03,9.217495055638037504e-01,0.000000000000000000e+00
1.137000000000000000e+03,2.097062373137182079e-01,0.000000000000000000e+00
1.138000000000000000e+03,-3.166652939978171766e-01,0.000000000000000000e+00
1.139000000000000000e+03,-7.745062388928110053e-01,0.000000000000000000e+00
1.140000000000000000e+03,-9.494180468165135389e-01,0.000000000000000000e+00
1.141000000000000000e+03,-1.051989235071071782e+00,0.000000000000000000e+00
1.142000000000000000e+03,-9.722854140484143981e-01,0.000000000000000000e+00
1.143000000000000000e+03,-8.540209277891624984e-01,0.000000000000000000e+00
1.144000000000000000e+03,-8.577588399566731248e-01,0.000000000000000000e+00
1.145000000000000000e+03,-6.590652938363825708e-01,0.000000000000000000e+00
1.146000000000000000e+03,-5.899936814558238707e-01,0.000000000000000000e+00
1.147000000000000000e+03,-5.828855875154401733e-01,0.000000000000000000e+00
1.148000000000000000e+03,-4.753257579904883179e-01,0.000000000000000000e+00
1.149000000000000000e+03,-5.758961822858580382e-01,0.000000000000000000e+00
1.150000000000000000e+03,-3.963775578022690760e-01,0.000000000000000000e+00
1.151000000000000000e+03,-4.006858283831319922e-01,0.000000000000000000e+00
1.152000000000000000e+03,-4.555285767896071758e-01,0.000000000000000000e+00
1.153000000000000000e+03,-4.344719451756384188e-01,0.000000000000000000e+00
1.154000000000000000e+03,-3.340153564353646187e-01,0.000000000000000000e+00
1.155000000000000000e+03,-1.875364323734020622e-01,0.000000000000000000e+00
1.156000000000000000e+03,-3.234102986892788412e-01,0.000000000000000000e+00
1.157000000000000000e+03,-2.270113688758436943e-01,0.000000000000000000e+00
1.158000000000000000e+03,-8.921939183974322840e-02,0.000000000000000000e+00
1.159000000000000000e+03,-2.227289396710510905e-01,0.000000000000000000e+00
1.160000000000000000e+03,-2.067506765217547449e-01,0.000000000000000000e+00
1.161000000000000000e+03,-5.101229615054304889e-02,0.000000000000000000e+00
1.162000000000000000e+03,-9.125035971991092565e-02,0.000000000000000000e+00
1.163000000000000000e+03,-1.391954800533660719e-01,0.000000000000000000e+00
1.164000000000000000e+03,-1.773018721793826954e-02,0.000000000000000000e+00
1.165000000000000000e+03,3.027959274041541748e-02,0.000000000000000000e+00
1.166000000000000000e+03,-6.042473843552188112e-02,0.000000000000000000e+00
1.167000000000000000e+03,2.560335710001641549e-02,0.000000000000000000e+00
1.168000000000000000e+03,3.838119935530748261e-02,0.000000000000000000e+00
1.169000000000000000e+03,1.139830054471980131e-01,0.000000000000000000e+00
1.170000000000000000e+03,1.325294800668941689e-02,0.000000000000000000e+00
1.171000000000000000e+03,8.631426982733539366e-02,0.000000000000000000e+00
1.172000000000000000e+03,1.330935104436011540e-01,0.000000000000000000e+00
1.173000000000000000e+03,1.022082362853389825e-01,0.000000000000000000e+00
1.174000000000000000e+03,6.678291519592466363e-02,0.000000000000000000e+00
1.175000000000000000e+03,2.750681848748149916e-01,0.000000000000000000e+00
1.176000000000000000e+03,3.426236897391244374e-01,0.000000000000000000e+00
1.177000000000000000e+03,3.588231108503729949e-01,0.000000000000000000e+00
1.178000000000000000e+03,4.018647313671486199e-01,0.000000000000000000e+00
1.179000000000000000e+03,1.880327036302513188e-01,0.000000000000000000e+00
1.180000000000000000e+03,-2.020111934241729246e-01,0.000000000000000000e+00
1.181000000000000000e+03,8.733790081455479470e-02,0.000000000000000000e+00
1.182000000000000000e+03,-2.024279699835724589e-01,0.000000000000000000e+00
1.183000000000000000e+03,5.239428843293802290e-02,0.000000000000000000e+00
1.184000000000000000e+03,-7.161149539567309708e-01,0.000000000000000000e+00
1.185000000000000000e+03,1.844180649426488738e+00,0.000000000000000000e+00
1.186000000000000000e+03,2.406641333445522335e+00,0.000000000000000000e+00
1.187000000000000000e+03,-2.489421518856824722e+00,1.000000000000000000e+00
1.188000000000000000e+03,-3.225417460716256013e+00,0.000000000000000000e+00
1.189000000000000000e+03,-3.308182301855530305e+00,0.000000000000000000e+00
1.190000000000000000e+03,-5.410527009493679707e-01,0.000000000000000000e+00
1.191000000000000000e+03,8.157197155037892999e-01,0.000000000000000000e+00
1.192000000000000000e+03,1.164589922508481479e+00,0.000000000000000000e+00
1.193000000000000000e+03,8.599877946158048792e-01,0.000000000000000000e+00
1.194000000000000000e+03,9.261223442314799881e-01,0.000000000000000000e+00
1.195000000000000000e+03,9.236507513293116256e-01,0.000000000000000000e+00
1.196000000000000000e+03,8.865931437180465391e-01,0.000000000000000000e+00
1.197000000000000000e+03,7.552664923169947198e-01,0.000000000000000000e+00
1.198000000000000000e+03,8.479570130052789256e-01,0.000000000000000000e+00
1.199000000000000000e+03,7.969319662991162234e-01,0.000000000000000000e+00
1.200000000000000000e+03,1.013410225989714863e+00,0.000000000000000000e+00
1.201000000000000000e+03,8.131817471049694879e-01,0.000000000000000000e+00
1.202000000000000000e+03,1.164174607774794312e+00,0.000000000000000000e+00
1.203000000000000000e+03,1.284197013954929911e+00,0.000000000000000000e+00
1.204000000000000000e+03,1.289523282370693247e+00,0.000000000000000000e+00
1.205000000000000000e+03,1.160455659461572031e+00,0.000000000000000000e+00
1.206000000000000000e+03,1.129496372920796521e+00,0.000000000000000000e+00
1.207000000000000000e+03,3.816778922591646528e-01,0.000000000000000000e+00
1.208000000000000000e+03,-1.472979663270774786e-01,0.000000000000000000e+00
1.209000000000000000e+03,-6.472640119135744108e-01,0.000000000000000000e+00
1.210000000000000000e+03,-1.049899590477890055e+00,0.000000000000000000e+00
1.211000000000000000e+03,-8.778631221251789185e-01,0.000000000000000000e+00
1.212000000000000000e+03,-1.050892547173275515e+00,0.000000000000000000e+00
1.213000000000000000e+03,-1.047956249673775098e+00,0.000000000000000000e+00
1.214000000000000000e+03,-7.554093361987067601e-01,0.000000000000000000e+00
1.215000000000000000e+03,-8.750891839333212463e-01,0.000000000000000000e+00
1.216000000000000000e+03,-7.394327429406601926e-01,0.000000000000000000e+00
1.217000000000000000e+03,-6.605218057361170736e-01,0.000000000000000000e+00
1.218000000000000000e+03,-5.759448490488318084e-01,0.000000000000000000e+00
1.219000000000000000e+03,-5.800334131768828394e-01,0.000000000000000000e+00
1.220000000000000000e+03,-4.432155413317496184e-01,0.000000000000000000e+00
1.221000000000000000e+03,-4.214300805189757915e-01,0.000000000000000000e+00
1.222000000000000000e+03,-3.995253416927326828e-01,0.000000000000000000e+00
1.223000000000000000e+03,-4.080583061269808520e-01,0.000000000000000000e+00
1.224000000000000000e+03,-3.420998131976473178e-01,0.000000000000000000e+00
1.225000000000000000e+03,-3.050566053467377858e-01,0.000000000000000000e+00
1.226000000000000000e+03,-3.717129914395969625e-01,0.000000000000000000e+00
1.227000000000000000e+03,-1.565028367184027602e-01,0.000000000000000000e+00
1.228000000000000000e+03,-1.596164414509270435e-01,0.000000000000000000e+00
1.229000000000000000e+03,-2.030707936565207261e-01,0.000000000000000000e+00
1.230000000000000000e+03,-2.139125644114106273e-01,0.000000000000000000e+00
1.231000000000000000e+03,-1.847978057148456921e-01,0.000000000000000000e+00
1.232000000000000000e+03,-6.539232503064601465e-02,0.000000000000000000e+00
1.233000000000000000e+03,-1.236670592779778033e-01,0.000000000000000000e+00
1.234000000000000000e+03,1.194367822449365485e-01,0.000000000000000000e+00
1.235000000000000000e+03,-1.015112200000594239e-01,0.000000000000000000e+00
1.236000000000000000e+03,1.468279059533642295e-01,0.000000000000000000e+00
1.237000000000000000e+03,-2.148314535471417264e-01,0.000000000000000000e+00
1.238000000000000000e+03,1.508445354548220985e-01,0.000000000000000000e+00
1.239000000000000000e+03,-3.387191866990559713e-02,0.000000000000000000e+00
1.240000000000000000e+03,1.700330409277177879e-01,0.000000000000000000e+00
1.241000000000000000e+03,1.361240440338522817e-01,0.000000000000000000e+00
1.242000000000000000e+03,-1.971374037103946694e-02,0.000000000000000000e+00
1.243000000000000000e+03,7.469827557617501890e-02,0.000000000000000000e+00
1.244000000000000000e+03,1.600008073723648561e-01,0.000000000000000000e+00
1.245000000000000000e+03,1.534155050097051609e-01,0.000000000000000000e+00
1.246000000000000000e+03,2.234102684702491959e-01,0.000000000000000000e+00
1.247000000000000000e+03,1.295778449726905368e-01,0.000000000000000000e+00
1.248000000000000000e+03,2.687987064872370824e-01,0.000000000000000000e+00
1.249000000000000000e+03,4.465466644969132148e-01,0.000000000000000000e+00
1.250000000000000000e+03,4.875408689606413604e-01,0.000000000000000000e+00
1.251000000000000000e+03,3.606939175648224971e-01,0.000000000000000000e+00
1.252000000000000000e+03,1.562432531662387991e-01,0.000000000000000000e+00
1.253000000000000000e+03,-2.168597122805513144e-01,0.000000000000000000e+00
1.254000000000000000e+03,6.398100642642039204e-02,0.000000000000000000e+00
1.255000000000000000e+03,-1.000893379772457015e-01,0.000000000000000000e+00
1.256000000000000000e+03,-1.149034860438354760e-01,0.000000000000000000e+00
1.257000000000000000e+03,-5.412976647531864138e-01,0.000000000000000000e+00
1.258000000000000000e+03,3.045945406705822922e+00,0.000000000000000000e+00
1.259000000000000000e+03,8.270328282558657707e-01,0.000000000000000000e+00
1.260000000000000000e+03,-2.974073707061704486e+00,1.000000000000000000e+00
1.261000000000000000e+03,-3.293073596056317776e+00,0.000000000000000000e+00
1.262000000000000000e+03,-2.804786627554646472e+00,0.000000000000000000e+00
1.263000000000000000e+03,1.088702951356518428e-01,0.000000000000000000e+00
1.264000000000000000e+03,8.889328732466841299e-01,0.000000000000000000e+00
1.265000000000000000e+03,1.010024510741252435e+00,0.000000000000000000e+00
1.266000000000000000e+03,9.841419656359806645e-01,0.000000000000000000e+00
1.267000000000000000e+03,9.635340527626244933e-01,0.000000000000000000e+00
1.268000000000000000e+03,8.911767058114988815e-01,0.000000000000000000e+00
1.269000000000000000e+03,8.712840091017611810e-01,0.000000000000000000e+00
1.270000000000000000e+03,9.089322654187214079e-01,0.000000000000000000e+00
1.271000000000000000e+03,8.138607811328055774e-01,0.000000000000000000e+00
1.272000000000000000e+03,8.033752714532861328e-01,0.000000000000000000e+00
1.273000000000000000e+03,1.021345544610783751e+00,0.000000000000000000e+00
1.274000000000000000e+03,1.029759654789474732e+00,0.000000000000000000e+00
1.275000000000000000e+03,1.163992053631037304e+00,0.000000000000000000e+00
1.276000000000000000e+03,1.432383624079531348e+00,0.000000000000000000e+00
1.277000000000000000e+03,1.304977107905550104e+00,0.000000000000000000e+00
1.278000000000000000e+03,1.250777066431893791e+00,0.000000000000000000e+00
1.279000000000000000e+03,9.014910372746355316e-01,0.000000000000000000e+00
1.280000000000000000e+03,3.650645686137769519e-01,0.000000000000000000e+00
1.281000000000000000e+03,-3.546670688016491102e-01,0.000000000000000000e+00
1.282000000000000000e+03,-6.365209229907879962e-01,0.000000000000000000e+00
1.283000000000000000e+03,-9.707596180983015799e-01,0.000000000000000000e+00
1.284000000000000000e+03,-1.198853982540832419e+00,0.000000000000000000e+00
1.285000000000000000e+03,-9.718158628554710576e-01,0.000000000000000000e+00
1.286000000000000000e+03,-9.276363411821115790e-01,0.000000000000000000e+00
1.287000000000000000e+03,-9.164211529255247290e-01,0.000000000000000000e+00
1.288000000000000000e+03,-7.677698965431345446e-01,0.000000000000000000e+00
1.289000000000000000e+03,-7.289213330146120384e-01,0.000000000000000000e+00
1.290000000000000000e+03,-6.063900310557560625e-01,0.000000000000000000e+00
1.291000000000000000e+03,-5.768893106478947264e-01,0.000000000000000000e+00
1.292000000000000000e+03,-5.222001827193868406e-01,0.000000000000000000e+00
1.293000000000000000e+03,-5.376765748026386404e-01,0.000000000000000000e+00
1.294000000000000000e+03,-4.220070771870280679e-01,0.000000000000000000e+00
1.295000000000000000e+03,-5.641208217764686061e-01,0.000000000000000000e+00
1.296000000000000000e+03,-4.968995000655903049e-01,0.000000000000000000e+00
1.297000000000000000e+03,-2.963588543807733067e-01,0.000000000000000000e+00
1.298000000000000000e+03,-3.522732131822418067e-01,0.000000000000000000e+00
1.299000000000000000e+03,-4.006138761530353976e-01,0.000000000000000000e+00
1.300000000000000000e+03,-2.909482493158430105e-01,0.000000000000000000e+00
1.301000000000000000e+03,-1.789993679465002596e-01,0.000000000000000000e+00
1.302000000000000000e+03,-6.673520449002230681e-02,0.000000000000000000e+00
1.303000000000000000e+03,-1.614146691854815852e-01,0.000000000000000000e+00
1.304000000000000000e+03,-1.497414602830984542e-01,0.000000000000000000e+00
1.305000000000000000e+03,-1.313829342815771573e-01,0.000000000000000000e+00
1.306000000000000000e+03,-3.454924659991151503e-02,0.000000000000000000e+00
1.307000000000000000e+03,-1.180027838983055827e-01,0.000000000000000000e+00
1.308000000000000000e+03,6.739595499273766388e-02,0.000000000000000000e+00
1.309000000000000000e+03,-8.823712110365697359e-02,0.000000000000000000e+00
1.310000000000000000e+03,1.245430011324775640e-02,0.000000000000000000e+00
1.311000000000000000e+03,-7.205602058986688985e-02,0.000000000000000000e+00
1.312000000000000000e+03,1.044236980865791559e-01,0.000000000000000000e+00
1.313000000000000000e+03,6.988428721712477976e-02,0.000000000000000000e+00
1.314000000000000000e+03,1.708194197260037017e-01,0.000000000000000000e+00
1.315000000000000000e+03,-1.631495902411355878e-02,0.000000000000000000e+00
1.316000000000000000e+03,2.195540181421749559e-01,0.000000000000000000e+00
1.317000000000000000e+03,7.235809009862499697e-02,0.000000000000000000e+00
1.318000000000000000e+03,6.188151040910352951e-02,0.000000000000000000e+00
1.319000000000000000e+03,3.430709483564742951e-02,0.000000000000000000e+00
1.320000000000000000e+03,3.688610727198901595e-01,0.000000000000000000e+00
1.321000000000000000e+03,5.162672940124475307e-01,0.000000000000000000e+00
1.322000000000000000e+03,4.752220786898591620e-01,0.000000000000000000e+00
1.323000000000000000e+03,3.304229525802244716e-01,0.000000000000000000e+00
1.324000000000000000e+03,2.383977910431360134e-02,0.000000000000000000e+00
1.325000000000000000e+03,-7.570730174751641450e-02,0.000000000000000000e+00
1.326000000000000000e+03,7.527606513487553747e-03,0.000000000000000000e+00
1.327000000000000000e+03,5.684230984308191736e-02,0.000000000000000000e+00
1.328000000000000000e+03,-2.439233292247310336e-01,0.000000000000000000e+00
1.329000000000000000e+03,4.674374800213411396e-03,0.000000000000000000e+00
1.330000000000000000e+03,3.476028532682898131e+00,0.000000000000000000e+00
1.331000000000000000e+03,-3.939864124034352377e-01,1.000000000000000000e+00
1.332000000000000000e+03,-3.041494243823008148e+00,0.000000000000000000e+00
1.333000000000000000e+03,-3.419506610565273164e+00,0.000000000000000000e+00
1.334000000000000000e+03,-2.163631789322469690e+00,0.000000000000000000e+00
1.335000000000000000e+03,4.542294279824869441e-01,0.000000000000000000e+00
1.336000000000000000e+03,9.872734583609755754e-01,0.000000000000000000e+00
1.337000000000000000e+03,1.154459270288422212e+00,0.000000000000000000e+00
1.338000000000000000e+03,9.607030489550280050e-01,0.000000000000000000e+00
1.339000000000000000e+03,1.020237240935300216e+00,0.000000000000000000e+00
1.340000000000000000e+03,8.722827179429694100e-01,0.000000000000000000e+00
1.341000000000000000e+03,9.963240755398100612e-01,0.000000000000000000e+00
1.342000000000000000e+03,8.670006150015171498e-01,0.000000000000000000e+00
1.343000000000000000e+03,8.993038359790133107e-01,0.000000000000000000e+00
1.344000000000000000e+03,9.853861386318742976e-01,0.000000000000000000e+00
1.345000000000000000e+03,9.607048883673366957e-01,0.000000000000000000e+00
1.346000000000000000e+03,1.167859738662332614e+00,0.000000000000000000e+00
1.347000000000000000e+03,1.162838582852609770e+00,0.000000000000000000e+00
1.348000000000000000e+03,1.375613614776445504e+00,0.000000000000000000e+00
1.349000000000000000e+03,1.413484555445615465e+00,0.000000000000000000e+00
1.350000000000000000e+03,1.240664696510294096e+00,0.000000000000000000e+00
1.351000000000000000e+03,8.176584942737893380e-01,0.000000000000000000e+00
1.352000000000000000e+03,1.906998776807765639e-01,0.000000000000000000e+00
1.353000000000000000e+03,-3.572278900948753777e-01,0.000000000000000000e+00
1.354000000000000000e+03,-9.515052441692206653e-01,0.000000000000000000e+00
1.355000000000000000e+03,-9.829619308965309443e-01,0.000000000000000000e+00
1.356000000000000000e+03,-1.058005922939320609e+00,0.000000000000000000e+00
1.357000000000000000e+03,-1.035040635811150356e+00,0.000000000000000000e+00
1.358000000000000000e+03,-1.018653684838899842e+00,0.000000000000000000e+00
1.359000000000000000e+03,-8.095159139793424163e-01,0.000000000000000000e+00
1.360000000000000000e+03,-8.807602025784369015e-01,0.000000000000000000e+00
1.361000000000000000e+03,-6.951744944977835683e-01,0.000000000000000000e+00
1.362000000000000000e+03,-7.313221658912567591e-01,0.000000000000000000e+00
1.363000000000000000e+03,-6.043371421927262732e-01,0.000000000000000000e+00
1.364000000000000000e+03,-5.975627856650614911e-01,0.000000000000000000e+00
1.365000000000000000e+03,-6.324979709821401119e-01,0.000000000000000000e+00
1.366000000000000000e+03,-4.725415904523109223e-01,0.000000000000000000e+00
1.367000000000000000e+03,-4.780001094139589290e-01,0.000000000000000000e+00
1.368000000000000000e+03,-5.166029267245579870e-01,0.000000000000000000e+00
1.369000000000000000e+03,-3.894536978564121510e-01,0.000000000000000000e+00
1.370000000000000000e+03,-4.126462804282703956e-01,0.000000000000000000e+00
1.371000000000000000e+03,-3.726390039500376838e-01,0.000000000000000000e+00
1.372000000000000000e+03,-2.301522182089148771e-01,0.000000000000000000e+00
1.373000000000000000e+03,-2.658036850678954788e-01,0.000000000000000000e+00
1.374000000000000000e+03,-2.485832561034217458e-01,0.000000000000000000e+00
1.375000000000000000e+03,-1.162427829219487008e-01,0.000000000000000000e+00
1.376000000000000000e+03,-2.645735826335244845e-01,0.000000000000000000e+00
1.377000000000000000e+03,-1.587345721157775724e-01,0.000000000000000000e+00
1.378000000000000000e+03,-5.634592604844383679e-02,0.000000000000000000e+00
1.379000000000000000e+03,-5.595963011135805104e-02,0.000000000000000000e+00
1.380000000000000000e+03,5.927911123101373830e-02,0.000000000000000000e+00
1.381000000000000000e+03,-5.007105254763655200e-02,0.000000000000000000e+00
1.382000000000000000e+03,5.066692708568041464e-02,0.000000000000000000e+00
1.383000000000000000e+03,6.742599352378048083e-02,0.000000000000000000e+00
1.384000000000000000e+03,9.549388654659447806e-02,0.000000000000000000e+00
1.385000000000000000e+03,5.688288368829085700e-02,0.000000000000000000e+00
1.386000000000000000e+03,4.521131334229999688e-02,0.000000000000000000e+00
1.387000000000000000e+03,5.486985266692378377e-02,0.000000000000000000e+00
1.388000000000000000e+03,1.158344028859072811e-01,0.000000000000000000e+00
1.389000000000000000e+03,1.455079934031659472e-01,0.000000000000000000e+00
1.390000000000000000e+03,3.503697257184457681e-01,0.000000000000000000e+00
1.391000000000000000e+03,3.256499337829452112e-01,0.000000000000000000e+00
1.392000000000000000e+03,5.629874628735176412e-01,0.000000000000000000e+00
1.393000000000000000e+03,1.284700604699467730e-01,0.000000000000000000e+00
1.394000000000000000e+03,-1.512584884891967907e-01,0.000000000000000000e+00
1.395000000000000000e+03,5.763221690086059446e-02,0.000000000000000000e+00
1.396000000000000000e+03,-1.639542643274371214e-01,0.000000000000000000e+00
1.397000000000000000e+03,1.305758745495974940e-02,0.000000000000000000e+00
1.398000000000000000e+03,-4.633124832236383273e-01,0.000000000000000000e+00
1.399000000000000000e+03,7.589608569313431863e-01,0.000000000000000000e+00
1.400000000000000000e+03,3.769958406755593572e+00,0.000000000000000000e+00
1.401000000000000000e+03,-1.227526446146636196e+00,1.000000000000000000e+00
1.402000000000000000e+03,-2.730900249185601147e+00,0.000000000000000000e+00
1.403000000000000000e+03,-3.157231196518088812e+00,0.000000000000000000e+00
1.404000000000000000e+03,-2.193489147624033908e+00,0.000000000000000000e+00
1.405000000000000000e+03,3.082739762261541561e-01,0.000000000000000000e+00
1.406000000000000000e+03,9.294078296622347857e-01,0.000000000000000000e+00
1.407000000000000000e+03,9.529962373933886788e-01,0.000000000000000000e+00
1.408000000000000000e+03,9.910977997497080194e-01,0.000000000000000000e+00
1.409000000000000000e+03,8.466583295733312031e-01,0.000000000000000000e+00
1.410000000000000000e+03,1.011885728274587226e+00,0.000000000000000000e+00
1.411000000000000000e+03,9.637333133397057994e-01,0.000000000000000000e+00
1.412000000000000000e+03,8.861424494340275348e-01,0.000000000000000000e+00
1.413000000000000000e+03,7.999528113657898842e-01,0.000000000000000000e+00
1.414000000000000000e+03,1.076034202021504127e+00,0.000000000000000000e+00
1.415000000000000000e+03,1.031486712027134711e+00,0.000000000000000000e+00
1.416000000000000000e+03,1.372250942055089462e+00,0.000000000000000000e+00
1.417000000000000000e+03,1.429409627130900473e+00,0.000000000000000000e+00
1.418000000000000000e+03,1.568280736012108045e+00,0.000000000000000000e+00
1.419000000000000000e+03,1.512199887971825474e+00,0.000000000000000000e+00
1.420000000000000000e+03,1.480726678199793644e+00,0.000000000000000000e+00
1.421000000000000000e+03,8.419175421401878801e-01,0.000000000000000000e+00
1.422000000000000000e+03,2.812133659081012538e-01,0.000000000000000000e+00
1.423000000000000000e+03,-5.011102967889673465e-01,0.000000000000000000e+00
1.424000000000000000e+03,-9.588754637132806957e-01,0.000000000000000000e+00
1.425000000000000000e+03,-1.273690353488892368e+00,0.000000000000000000e+00
1.426000000000000000e+03,-1.201387663033260056e+00,0.000000000000000000e+00
1.427000000000000000e+03,-1.245893333660309521e+00,0.000000000000000000e+00
1.428000000000000000e+03,-9.392920815255650924e-01,0.000000000000000000e+00
1.429000000000000000e+03,-1.017567291041163058e+00,0.000000000000000000e+00
1.430000000000000000e+03,-8.703244600215406246e-01,0.000000000000000000e+00
1.431000000000000000e+03,-8.669823950697205239e-01,0.000000000000000000e+00
1.432000000000000000e+03,-7.719103510764142584e-01,0.000000000000000000e+00
1.433000000000000000e+03,-7.449672397113159539e-01,0.000000000000000000e+00
1.434000000000000000e+03,-6.041996760450607518e-01,0.000000000000000000e+00
1.435000000000000000e+03,-6.399895225281942990e-01,0.000000000000000000e+00
1.436000000000000000e+03,-6.293599617724899842e-01,0.000000000000000000e+00
1.437000000000000000e+03,-5.986777066592408048e-01,0.000000000000000000e+00
1.438000000000000000e+03,-4.902434072986400215e-01,0.000000000000000000e+00
1.439000000000000000e+03,-4.269690731581420318e-01,0.000000000000000000e+00
1.440000000000000000e+03,-3.203465265290032504e-01,0.000000000000000000e+00
1.441000000000000000e+03,-4.883122734543235421e-01,0.000000000000000000e+00
1.442000000000000000e+03,-1.251625479235163874e-01,0.000000000000000000e+00
1.443000000000000000e+03,-2.998695250848157356e-01,0.000000000000000000e+00
1.444000000000000000e+03,-1.890781195354321043e-01,0.000000000000000000e+00
1.445000000000000000e+03,-2.168180509094313202e-01,0.000000000000000000e+00
1.446000000000000000e+03,7.192726939553947818e-02,0.000000000000000000e+00
1.447000000000000000e+03,-1.734240566602679168e-01,0.000000000000000000e+00
1.448000000000000000e+03,-5.825055128274499172e-02,0.000000000000000000e+00
1.449000000000000000e+03,-6.287777106084436844e-03,0.000000000000000000e+00
1.450000000000000000e+03,-9.155748449050470431e-03,0.000000000000000000e+00
1.451000000000000000e+03,1.000708703217869228e-01,0.000000000000000000e+00
1.452000000000000000e+03,9.059886678048731379e-02,0.000000000000000000e+00
1.453000000000000000e+03,1.973884508887088496e-01,0.000000000000000000e+00
1.454000000000000000e+03,1.779244873972812280e-01,0.000000000000000000e+00
1.455000000000000000e+03,-1.140333634353517082e-02,0.000000000000000000e+00
1.456000000000000000e+03,2.286707770895136937e-01,0.000000000000000000e+00
1.457000000000000000e+03,5.075959545813050200e-01,0.000000000000000000e+00
1.458000000000000000e+03,5.067358455596692179e-01,0.000000000000000000e+00
1.459000000000000000e+03,5.298607987062231572e-01,0.000000000000000000e+00
1.460000000000000000e+03,9.827028578275688597e-02,0.000000000000000000e+00
1.461000000000000000e+03,-1.768863605663386906e-01,0.000000000000000000e+00
1.462000000000000000e+03,7.897563726415950114e-02,0.000000000000000000e+00
1.463000000000000000e+03,1.918074190630540687e-02,0.000000000000000000e+00
1.464000000000000000e+03,1.564186536972441907e-02,0.000000000000000000e+00
1.465000000000000000e+03,-6.297999806893237462e-01,0.000000000000000000e+00
1.466000000000000000e+03,3.304711232901470286e+00,0.000000000000000000e+00
1.467000000000000000e+03,1.396569137081822509e+00,0.000000000000000000e+00
1.468000000000000000e+03,-2.801962189631092670e+00,1.000000000000000000e+00
1.469000000000000000e+03,-3.004324254522648729e+00,0.000000000000000000e+00
1.470000000000000000e+03,-3.133954885497685972e+00,0.000000000000000000e+00
1.471000000000000000e+03,-1.880507836107226938e-01,0.000000000000000000e+00
1.472000000000000000e+03,8.575916798863609802e-01,0.000000000000000000e+00
1.473000000000000000e+03,1.227461032258609919e+00,0.000000000000000000e+00
1.474000000000000000e+03,1.075604001498449591e+00,0.000000000000000000e+00
1.475000000000000000e+03,1.004983130320871165e+00,0.000000000000000000e+00
1.476000000000000000e+03,1.004619957729165680e+00,0.000000000000000000e+00
1.477000000000000000e+03,1.084501863521776466e+00,0.000000000000000000e+00
1.478000000000000000e+03,8.564549744966739597e-01,0.000000000000000000e+00
1.479000000000000000e+03,1.024026986133578676e+00,0.000000000000000000e+00
1.480000000000000000e+03,8.858963385552486303e-01,0.000000000000000000e+00
1.481000000000000000e+03,1.188971482898507848e+00,0.000000000000000000e+00
1.482000000000000000e+03,1.164236599544780315e+00,0.000000000000000000e+00
1.483000000000000000e+03,1.233730123779678722e+00,0.000000000000000000e+00
1.484000000000000000e+03,1.361979065365297448e+00,0.000000000000000000e+00
1.485000000000000000e+03,1.404739170441283713e+00,0.000000000000000000e+00
1.486000000000000000e+03,1.279614624292247482e+00,0.000000000000000000e+00
1.487000000000000000e+03,9.553373689275740377e-01,0.000000000000000000e+00
1.488000000000000000e+03,4.060489981000626192e-01,0.000000000000000000e+00
1.489000000000000000e+03,-2.469515526485974721e-01,0.000000000000000000e+00
1.490000000000000000e+03,-8.002734397936317468e-01,0.000000000000000000e+00
1.491000000000000000e+03,-1.026212775141697842e+00,0.000000000000000000e+00
1.492000000000000000e+03,-1.104129142576997902e+00,0.000000000000000000e+00
1.493000000000000000e+03,-9.754155756572633340e-01,0.000000000000000000e+00
1.494000000000000000e+03,-8.675499437770970435e-01,0.000000000000000000e+00
1.495000000000000000e+03,-9.441180090038919781e-01,0.000000000000000000e+00
1.496000000000000000e+03,-7.951554444770718710e-01,0.000000000000000000e+00
1.497000000000000000e+03,-6.271800422203586134e-01,0.000000000000000000e+00
1.498000000000000000e+03,-6.823956846951910737e-01,0.000000000000000000e+00
1.499000000000000000e+03,-5.860991506548577368e-01,0.000000000000000000e+00
1.500000000000000000e+03,-4.369044339825335910e-01,0.000000000000000000e+00
1.501000000000000000e+03,-5.550743165612975760e-01,0.000000000000000000e+00
1.502000000000000000e+03,-5.283809006455522095e-01,0.000000000000000000e+00
1.503000000000000000e+03,-4.367933087368418565e-01,0.000000000000000000e+00
1.504000000000000000e+03,-5.052852837102335126e-01,0.000000000000000000e+00
1.505000000000000000e+03,-3.115390706217882610e-01,0.000000000000000000e+00
1.506000000000000000e+03,-2.927206055854118527e-01,0.000000000000000000e+00
1.507000000000000000e+03,-4.511928287603496623e-01,0.000000000000000000e+00
1.508000000000000000e+03,-2.558115001526394816e-01,0.000000000000000000e+00
1.509000000000000000e+03,-3.207673915964617817e-01,0.000000000000000000e+00
1.510000000000000000e+03,-2.270567616224586360e-01,0.000000000000000000e+00
1.511000000000000000e+03,-1.144575964783562244e-01,0.000000000000000000e+00
1.512000000000000000e+03,-1.519045124043209571e-01,0.000000000000000000e+00
1.513000000000000000e+03,-1.995260232069458184e-01,0.000000000000000000e+00
1.514000000000000000e+03,-2.306006408469613023e-02,0.000000000000000000e+00
1.515000000000000000e+03,-1.648895891279182624e-01,0.000000000000000000e+00
1.516000000000000000e+03,-6.126353874045500220e-02,0.000000000000000000e+00
1.517000000000000000e+03,3.149999224743214171e-02,0.000000000000000000e+00
1.518000000000000000e+03,8.054010127933311503e-02,0.000000000000000000e+00
1.519000000000000000e+03,-1.179098793936952765e-02,0.000000000000000000e+00
1.520000000000000000e+03,2.943084723314754250e-02,0.000000000000000000e+00
1.521000000000000000e+03,7.293625784272986246e-02,0.000000000000000000e+00
1.522000000000000000e+03,4.160773935241957044e-02,0.000000000000000000e+00
1.523000000000000000e+03,9.989928713990089970e-02,0.000000000000000000e+00
1.524000000000000000e+03,1.764392388163679715e-01,0.000000000000000000e+00
1.525000000000000000e+03,2.513673755319131287e-01,0.000000000000000000e+00
1.526000000000000000e+03,4.353789200623315869e-01,0.000000000000000000e+00
1.527000000000000000e+03,4.587241196938850463e-01,0.000000000000000000e+00
1.528000000000000000e+03,8.356476540978653722e-02,0.000000000000000000e+00
1.529000000000000000e+03,-1.715607960891267214e-01,0.000000000000000000e+00
1.530000000000000000e+03,-9.178963999030766152e-03,0.000000000000000000e+00
1.531000000000000000e+03,-1.376171519535192012e-01,0.000000000000000000e+00
1.532000000000000000e+03,5.672222954486218216e-02,0.000000000000000000e+00
1.533000000000000000e+03,-8.224871700884996972e-01,0.000000000000000000e+00
1.534000000000000000e+03,1.807000186026006761e+00,0.000000000000000000e+00
1.535000000000000000e+03,2.848436346311083334e+00,0.000000000000000000e+00
1.536000000000000000e+03,-2.351186022303915824e+00,1.000000000000000000e+00
1.537000000000000000e+03,-3.192132216149081714e+00,0.000000000000000000e+00
1.538000000000000000e+03,-3.477028749407119701e+00,0.000000000000000000e+00
1.539000000000000000e+03,-9.092809776006818279e-01,0.000000000000000000e+00
1.540000000000000000e+03,8.593986392265937635e-01,0.000000000000000000e+00
1.541000000000000000e+03,9.666863693322116369e-01,0.000000000000000000e+00
1.542000000000000000e+03,1.037042565108501346e+00,0.000000000000000000e+00
1.543000000000000000e+03,1.033375264948865002e+00,0.000000000000000000e+00
1.544000000000000000e+03,8.668782496658502534e-01,0.000000000000000000e+00
1.545000000000000000e+03,1.011503831786022101e+00,0.000000000000000000e+00
1.546000000000000000e+03,9.837257710161735336e-01,0.000000000000000000e+00
1.547000000000000000e+03,9.614894993612808083e-01,0.000000000000000000e+00
1.548000000000000000e+03,7.819008711836686887e-01,0.000000000000000000e+00
1.549000000000000000e+03,9.864495100612674650e-01,0.000000000000000000e+00
1.550000000000000000e+03,1.015492560716751758e+00,0.000000000000000000e+00
1.551000000000000000e+03,1.250697355063307370e+00,0.000000000000000000e+00
1.552000000000000000e+03,1.325107663309001538e+00,0.000000000000000000e+00
1.553000000000000000e+03,1.389500906813235348e+00,0.000000000000000000e+00
1.554000000000000000e+03,1.381795506740385981e+00,0.000000000000000000e+00
1.555000000000000000e+03,9.175472867288843037e-01,0.000000000000000000e+00
1.556000000000000000e+03,5.342923993247142844e-01,0.000000000000000000e+00
1.557000000000000000e+03,-1.162879502616241678e-01,0.000000000000000000e+00
1.558000000000000000e+03,-6.675301684551946391e-01,0.000000000000000000e+00
1.559000000000000000e+03,-1.013066898795882409e+00,0.000000000000000000e+00
1.560000000000000000e+03,-1.082840062999207875e+00,0.000000000000000000e+00
1.561000000000000000e+03,-1.052569399577806930e+00,0.000000000000000000e+00
1.562000000000000000e+03,-1.090316408268750648e+00,0.000000000000000000e+00
1.563000000000000000e+03,-8.953883738031819250e-01,0.000000000000000000e+00
1.564000000000000000e+03,-7.477284128434247279e-01,0.000000000000000000e+00
1.565000000000000000e+03,-5.837784732196706905e-01,0.000000000000000000e+00
1.566000000000000000e+03,-8.123892830460178738e-01,0.000000000000000000e+00
1.567000000000000000e+03,-5.124803921472398383e-01,0.000000000000000000e+00
1.568000000000000000e+03,-5.467140601905223773e-01,0.000000000000000000e+00
1.569000000000000000e+03,-6.484297115277301016e-01,0.000000000000000000e+00
1.570000000000000000e+03,-4.072223342516933520e-01,0.000000000000000000e+00
1.571000000000000000e+03,-4.523203926165126898e-01,0.000000000000000000e+00
1.572000000000000000e+03,-3.931436771966412835e-01,0.000000000000000000e+00
1.573000000000000000e+03,-3.878876833745805164e-01,0.000000000000000000e+00
1.574000000000000000e+03,-3.708784304456267389e-01,0.000000000000000000e+00
1.575000000000000000e+03,-2.160315812273984615e-01,0.000000000000000000e+00
1.576000000000000000e+03,-3.672958003996163456e-01,0.000000000000000000e+00
1.577000000000000000e+03,-1.818398076678020003e-01,0.000000000000000000e+00
1.578000000000000000e+03,-3.151709186861337275e-01,0.000000000000000000e+00
1.579000000000000000e+03,-9.966332886125676971e-02,0.000000000000000000e+00
1.580000000000000000e+03,-2.501363943840045900e-01,0.000000000000000000e+00
1.581000000000000000e+03,1.687636683999864037e-02,0.000000000000000000e+00
1.582000000000000000e+03,-8.783039467231604225e-02,0.000000000000000000e+00
1.583000000000000000e+03,-3.772148141148309874e-02,0.000000000000000000e+00
1.584000000000000000e+03,-4.046150564850978237e-02,0.000000000000000000e+00
1.585000000000000000e+03,2.092055168924269667e-02,0.000000000000000000e+00
1.586000000000000000e+03,1.652397870023512155e-02,0.000000000000000000e+00
1.587000000000000000e+03,6.011243248053111526e-02,0.000000000000000000e+00
