timestamp,ecg_measurement,qrs_detected
0.000000000000000000e+00,-2.367539687950283855e-01,0.000000000000000000e+00
1.000000000000000000e+00,-1.828751305090693668e-01,0.000000000000000000e+00
2.000000000000000000e+00,-2.444036248728460592e-01,0.000000000000000000e+00
3.000000000000000000e+00,-1.173253566123098474e-01,0.000000000000000000e+00
4.000000000000000000e+00,-1.015007873828788765e-01,0.000000000000000000e+00
5.000000000000000000e+00,2.947974512499253533e-02,0.000000000000000000e+00
6.000000000000000000e+00,-1.166847953313853575e-02,0.000000000000000000e+00
7.000000000000000000e+00,7.215801565008923835e-02,0.000000000000000000e+00
8.000000000000000000e+00,-1.739259729968453960e-01,0.000000000000000000e+00
9.000000000000000000e+00,2.103678894579213976e-01,0.000000000000000000e+00
1.000000000000000000e+01,1.072293629432290035e-01,0.000000000000000000e+00
1.100000000000000000e+01,1.831615904663805305e-01,0.000000000000000000e+00
1.200000000000000000e+01,2.418718281295005046e-01,0.000000000000000000e+00
1.300000000000000000e+01,4.557225363801256091e-01,0.000000000000000000e+00
1.400000000000000000e+01,3.728372105450861174e-01,0.000000000000000000e+00
1.500000000000000000e+01,5.620808952749614118e-01,0.000000000000000000e+00
1.600000000000000000e+01,2.482980935251559995e-01,0.000000000000000000e+00
1.700000000000000000e+01,1.554888256761872700e-01,0.000000000000000000e+00
1.800000000000000000e+01,-5.881891535168833757e-02,0.000000000000000000e+00
1.900000000000000000e+01,2.156590428604136245e-01,0.000000000000000000e+00
2.000000000000000000e+01,-1.512844311877912795e-01,0.000000000000000000e+00
2.100000000000000000e+01,3.506441960880284786e-02,0.000000000000000000e+00
2.200000000000000000e+01,5.089012052765298222e-01,0.000000000000000000e+00
2.300000000000000000e+01,6.093932320183161444e+00,0.000000000000000000e+00
2.400000000000000000e+01,1.347580812455060340e+00,1.000000000000000000e+00
2.500000000000000000e+01,-2.613060710796048181e+00,0.000000000000000000e+00
2.600000000000000000e+01,-3.801185058330532329e-01,0.000000000000000000e+00
2.700000000000000000e+01,-8.024821809389682814e-01,0.000000000000000000e+00
2.800000000000000000e+01,-3.314723682399803861e-01,0.000000000000000000e+00
2.900000000000000000e+01,-5.795287731929705810e-01,0.000000000000000000e+00
3.000000000000000000e+01,-1.436335647514642155e-01,0.000000000000000000e+00
3.100000000000000000e+01,-3.333250669983008896e-01,0.000000000000000000e+00
3.200000000000000000e+01,-7.159488784825329688e-02,0.000000000000000000e+00
3.300000000000000000e+01,-2.986190725075741140e-02,0.000000000000000000e+00
3.400000000000000000e+01,2.750484604239638031e-01,0.000000000000000000e+00
3.500000000000000000e+01,3.242697060679909371e-01,0.000000000000000000e+00
3.600000000000000000e+01,8.287004462850313669e-01,0.000000000000000000e+00
3.700000000000000000e+01,8.632058088724319234e-01,0.000000000000000000e+00
3.800000000000000000e+01,1.115146266494976501e+00,0.000000000000000000e+00
3.900000000000000000e+01,9.110097302598706426e-01,0.000000000000000000e+00
4.000000000000000000e+01,2.416816563970161647e-01,0.000000000000000000e+00
4.100000000000000000e+01,-4.969976198575838389e-01,0.000000000000000000e+00
4.200000000000000000e+01,-6.325323387035443057e-01,0.000000000000000000e+00
4.300000000000000000e+01,-1.061990659732888753e+00,0.000000000000000000e+00
4.400000000000000000e+01,-9.521301815842465599e-01,0.000000000000000000e+00
4.500000000000000000e+01,-9.528670592495819269e-01,0.000000000000000000e+00
4.600000000000000000e+01,-7.446926750057849542e-01,0.000000000000000000e+00
4.700000000000000000e+01,-8.667340233037860164e-01,0.000000000000000000e+00
4.800000000000000000e+01,-5.682773284275450809e-01,0.000000000000000000e+00
4.900000000000000000e+01,-6.411850884507722670e-01,0.000000000000000000e+00
5.000000000000000000e+01,-5.012574475278234187e-01,0.000000000000000000e+00
5.100000000000000000e+01,-3.638584025371164876e-01,0.000000000000000000e+00
5.200000000000000000e+01,-4.517590427861138402e-01,0.000000000000000000e+00
5.300000000000000000e+01,-2.559131719635501789e-01,0.000000000000000000e+00
5.400000000000000000e+01,-2.416411953059050821e-01,0.000000000000000000e+00
5.500000000000000000e+01,-2.186778378868593775e-01,0.000000000000000000e+00
5.600000000000000000e+01,-1.659369068180335804e-01,0.000000000000000000e+00
5.700000000000000000e+01,-1.026962268826032282e-01,0.000000000000000000e+00
5.800000000000000000e+01,-1.073218938405592487e-01,0.000000000000000000e+00
5.900000000000000000e+01,-1.083759288546795180e-01,0.000000000000000000e+00
6.000000000000000000e+01,-1.744681041401992816e-01,0.000000000000000000e+00
6.100000000000000000e+01,-1.959705051085922078e-02,0.000000000000000000e+00
6.200000000000000000e+01,1.080856985921393176e-01,0.000000000000000000e+00
6.300000000000000000e+01,5.152469561109758456e-02,0.000000000000000000e+00
6.400000000000000000e+01,2.575765585267349861e-02,0.000000000000000000e+00
6.500000000000000000e+01,6.944627709387235504e-02,0.000000000000000000e+00
6.600000000000000000e+01,2.495703339627844963e-01,0.000000000000000000e+00
6.700000000000000000e+01,1.913432886429702051e-01,0.000000000000000000e+00
6.800000000000000000e+01,3.844306706599917023e-01,0.000000000000000000e+00
6.900000000000000000e+01,5.472220122466416869e-01,0.000000000000000000e+00
7.000000000000000000e+01,3.947635382387768566e-01,0.000000000000000000e+00
7.100000000000000000e+01,1.654453086584715127e-01,0.000000000000000000e+00
7.200000000000000000e+01,-8.463353214503110955e-02,0.000000000000000000e+00
7.300000000000000000e+01,1.217336607719998881e-01,0.000000000000000000e+00
7.400000000000000000e+01,-1.110285020802157102e-01,0.000000000000000000e+00
7.500000000000000000e+01,2.259107116100328438e-01,0.000000000000000000e+00
7.600000000000000000e+01,-3.325012858681700711e-01,0.000000000000000000e+00
7.700000000000000000e+01,3.342416949954330807e+00,0.000000000000000000e+00
7.800000000000000000e+01,5.126166152288792688e+00,0.000000000000000000e+00
7.900000000000000000e+01,-2.449452213564941250e+00,1.000000000000000000e+00
8.000000000000000000e+01,-1.252403768329976463e+00,0.000000000000000000e+00
8.100000000000000000e+01,-5.786505657065164066e-01,0.000000000000000000e+00
8.200000000000000000e+01,-4.811335527795869149e-01,0.000000000000000000e+00
8.300000000000000000e+01,-3.263234113860668528e-01,0.000000000000000000e+00
8.400000000000000000e+01,-2.180952356543686965e-01,0.000000000000000000e+00
8.500000000000000000e+01,-2.842544529348645654e-01,0.000000000000000000e+00
8.600000000000000000e+01,-1.201380375109546567e-01,0.000000000000000000e+00
8.700000000000000000e+01,-3.199964091136618671e-02,0.000000000000000000e+00
8.800000000000000000e+01,1.430470338250205420e-01,0.000000000000000000e+00
8.900000000000000000e+01,3.304891684118964612e-01,0.000000000000000000e+00
9.000000000000000000e+01,6.858980603916725594e-01,0.000000000000000000e+00
9.100000000000000000e+01,8.973617882472600948e-01,0.000000000000000000e+00
9.200000000000000000e+01,1.083180374052590267e+00,0.000000000000000000e+00
9.300000000000000000e+01,1.072065118921254889e+00,0.000000000000000000e+00
9.400000000000000000e+01,6.013632553985206464e-01,0.000000000000000000e+00
9.500000000000000000e+01,-1.355563601475933688e-01,0.000000000000000000e+00
9.600000000000000000e+01,-6.215797500937773057e-01,0.000000000000000000e+00
9.700000000000000000e+01,-9.398042653448865913e-01,0.000000000000000000e+00
9.800000000000000000e+01,-8.899397691471105931e-01,0.000000000000000000e+00
9.900000000000000000e+01,-1.026826641989032618e+00,0.000000000000000000e+00
1.000000000000000000e+02,-8.289236675876578975e-01,0.000000000000000000e+00
1.010000000000000000e+02,-7.987839507315664944e-01,0.000000000000000000e+00
1.020000000000000000e+02,-6.028782680340393219e-01,0.000000000000000000e+00
1.030000000000000000e+02,-7.058601128567213445e-01,0.000000000000000000e+00
1.040000000000000000e+02,-4.922492397883609372e-01,0.000000000000000000e+00
1.050000000000000000e+02,-5.016951119938423131e-01,0.000000000000000000e+00
1.060000000000000000e+02,-3.175915202689379990e-01,0.000000000000000000e+00
1.070000000000000000e+02,-3.437278649553865417e-01,0.000000000000000000e+00
1.080000000000000000e+02,-2.586875912604160721e-01,0.000000000000000000e+00
1.090000000000000000e+02,-3.299857436499977204e-01,0.000000000000000000e+00
1.100000000000000000e+02,-8.843487190579414625e-02,0.000000000000000000e+00
1.110000000000000000e+02,-2.055556178971495174e-01,0.000000000000000000e+00
1.120000000000000000e+02,-6.696452446294424987e-02,0.000000000000000000e+00
1.130000000000000000e+02,-1.477592999253819206e-01,0.000000000000000000e+00
1.140000000000000000e+02,-7.564958458970219568e-02,0.000000000000000000e+00
1.150000000000000000e+02,-2.796694160164861845e-02,0.000000000000000000e+00
1.160000000000000000e+02,2.433872386845022107e-02,0.000000000000000000e+00
1.170000000000000000e+02,-9.099009160105960003e-02,0.000000000000000000e+00
1.180000000000000000e+02,1.785094458046235788e-01,0.000000000000000000e+00
1.190000000000000000e+02,-2.804210544880061592e-02,0.000000000000000000e+00
1.200000000000000000e+02,1.758420989556909730e-01,0.000000000000000000e+00
1.210000000000000000e+02,2.787015360279172516e-01,0.000000000000000000e+00
1.220000000000000000e+02,4.114504990825035291e-01,0.000000000000000000e+00
1.230000000000000000e+02,3.815763636693955685e-01,0.000000000000000000e+00
1.240000000000000000e+02,4.396545843307845813e-01,0.000000000000000000e+00
1.250000000000000000e+02,2.722762700131299840e-01,0.000000000000000000e+00
1.260000000000000000e+02,1.047541964243865198e-01,0.000000000000000000e+00
1.270000000000000000e+02,4.733695219899433648e-02,0.000000000000000000e+00
1.280000000000000000e+02,7.931022531099359008e-02,0.000000000000000000e+00
1.290000000000000000e+02,3.666983547265192239e-02,0.000000000000000000e+00
1.300000000000000000e+02,-2.975298590277648467e-02,0.000000000000000000e+00
1.310000000000000000e+02,1.053823917920558184e+00,0.000000000000000000e+00
1.320000000000000000e+02,6.074965508126925151e+00,0.000000000000000000e+00
1.330000000000000000e+02,-9.566060598264855552e-02,1.000000000000000000e+00
1.340000000000000000e+02,-2.126622201275381041e+00,0.000000000000000000e+00
1.350000000000000000e+02,-3.881266511354997673e-01,0.000000000000000000e+00
1.360000000000000000e+02,-7.428558281846046052e-01,0.000000000000000000e+00
1.370000000000000000e+02,-2.978068569107728547e-01,0.000000000000000000e+00
1.380000000000000000e+02,-5.196271853523559692e-01,0.000000000000000000e+00
1.390000000000000000e+02,-1.452523875688410127e-01,0.000000000000000000e+00
1.400000000000000000e+02,-1.759498163167773077e-01,0.000000000000000000e+00
1.410000000000000000e+02,-1.429853196206863353e-01,0.000000000000000000e+00
1.420000000000000000e+02,-1.278518941688950306e-01,0.000000000000000000e+00
1.430000000000000000e+02,3.705321283432711499e-01,0.000000000000000000e+00
1.440000000000000000e+02,3.891816908097981975e-01,0.000000000000000000e+00
1.450000000000000000e+02,7.301675717575157876e-01,0.000000000000000000e+00
1.460000000000000000e+02,9.042747342684228640e-01,0.000000000000000000e+00
1.470000000000000000e+02,1.094702069941643430e+00,0.000000000000000000e+00
1.480000000000000000e+02,7.587710634461710679e-01,0.000000000000000000e+00
1.490000000000000000e+02,1.422025315053971062e-01,0.000000000000000000e+00
1.500000000000000000e+02,-5.151061264773634241e-01,0.000000000000000000e+00
1.510000000000000000e+02,-7.909708479757427968e-01,0.000000000000000000e+00
1.520000000000000000e+02,-9.893583961612808508e-01,0.000000000000000000e+00
1.530000000000000000e+02,-9.781182169564318629e-01,0.000000000000000000e+00
1.540000000000000000e+02,-8.779851899924872027e-01,0.000000000000000000e+00
1.550000000000000000e+02,-8.080269811731516372e-01,0.000000000000000000e+00
1.560000000000000000e+02,-6.397279138173640467e-01,0.000000000000000000e+00
1.570000000000000000e+02,-6.805961804952407324e-01,0.000000000000000000e+00
1.580000000000000000e+02,-5.245769656696501748e-01,0.000000000000000000e+00
1.590000000000000000e+02,-4.114770759671917411e-01,0.000000000000000000e+00
1.600000000000000000e+02,-3.630242873536929094e-01,0.000000000000000000e+00
1.610000000000000000e+02,-1.994236885734926579e-01,0.000000000000000000e+00
1.620000000000000000e+02,-3.517014414028429847e-01,0.000000000000000000e+00
1.630000000000000000e+02,-2.380817519948391081e-01,0.000000000000000000e+00
1.640000000000000000e+02,-1.848788483638446889e-01,0.000000000000000000e+00
1.650000000000000000e+02,-1.970196585161506642e-01,0.000000000000000000e+00
1.660000000000000000e+02,-7.401688259932266700e-02,0.000000000000000000e+00
1.670000000000000000e+02,-1.632113640729069004e-01,0.000000000000000000e+00
1.680000000000000000e+02,-3.008914241228270031e-02,0.000000000000000000e+00
1.690000000000000000e+02,-1.330224811080522318e-01,0.000000000000000000e+00
1.700000000000000000e+02,-2.642683772225378532e-03,0.000000000000000000e+00
1.710000000000000000e+02,1.343808943877146216e-02,0.000000000000000000e+00
1.720000000000000000e+02,1.650525270657745847e-01,0.000000000000000000e+00
1.730000000000000000e+02,1.368532321312707078e-01,0.000000000000000000e+00
1.740000000000000000e+02,1.102436928135836491e-01,0.000000000000000000e+00
1.750000000000000000e+02,1.350634246375638226e-01,0.000000000000000000e+00
1.760000000000000000e+02,3.692451783561531142e-01,0.000000000000000000e+00
1.770000000000000000e+02,5.226434081621215144e-01,0.000000000000000000e+00
1.780000000000000000e+02,4.707939676069879953e-01,0.000000000000000000e+00
1.790000000000000000e+02,2.401331327589832920e-01,0.000000000000000000e+00
1.800000000000000000e+02,2.518071855978057383e-01,0.000000000000000000e+00
1.810000000000000000e+02,-1.818892921684555630e-01,0.000000000000000000e+00
1.820000000000000000e+02,1.731764045184308598e-01,0.000000000000000000e+00
1.830000000000000000e+02,-9.873230350054032489e-02,0.000000000000000000e+00
1.840000000000000000e+02,2.153077327926999907e-01,0.000000000000000000e+00
1.850000000000000000e+02,9.236270818157646390e-02,0.000000000000000000e+00
1.860000000000000000e+02,5.493959934124856836e+00,0.000000000000000000e+00
1.870000000000000000e+02,2.561382751057693419e+00,1.000000000000000000e+00
1.880000000000000000e+02,-2.953146611848024961e+00,0.000000000000000000e+00
1.890000000000000000e+02,-4.489775155226649050e-01,0.000000000000000000e+00
1.900000000000000000e+02,-8.140868305722590570e-01,0.000000000000000000e+00
1.910000000000000000e+02,-3.326984599475907856e-01,0.000000000000000000e+00
1.920000000000000000e+02,-6.158662096689341281e-01,0.000000000000000000e+00
1.930000000000000000e+02,-1.927369393739278569e-01,0.000000000000000000e+00
1.940000000000000000e+02,-4.102161806705778568e-01,0.000000000000000000e+00
1.950000000000000000e+02,-5.725063338654492323e-02,0.000000000000000000e+00
1.960000000000000000e+02,-1.029148217239827801e-01,0.000000000000000000e+00
1.970000000000000000e+02,2.563519199007041061e-01,0.000000000000000000e+00
1.980000000000000000e+02,3.182531350950628668e-01,0.000000000000000000e+00
1.990000000000000000e+02,7.393034001975324898e-01,0.000000000000000000e+00
2.000000000000000000e+02,7.983282113887941733e-01,0.000000000000000000e+00
2.010000000000000000e+02,1.239599560431193348e+00,0.000000000000000000e+00
2.020000000000000000e+02,8.547472881482401919e-01,0.000000000000000000e+00
2.030000000000000000e+02,4.263517121065857340e-01,0.000000000000000000e+00
2.040000000000000000e+02,-4.783383656607901879e-01,0.000000000000000000e+00
2.050000000000000000e+02,-7.788430551491229981e-01,0.000000000000000000e+00
2.060000000000000000e+02,-1.066024670578675337e+00,0.000000000000000000e+00
2.070000000000000000e+02,-9.550851248321328146e-01,0.000000000000000000e+00
2.080000000000000000e+02,-1.004069968105218535e+00,0.000000000000000000e+00
2.090000000000000000e+02,-7.000220577663418542e-01,0.000000000000000000e+00
2.100000000000000000e+02,-7.922341425377399382e-01,0.000000000000000000e+00
2.110000000000000000e+02,-7.230701665060599304e-01,0.000000000000000000e+00
2.120000000000000000e+02,-6.465965384111296288e-01,0.000000000000000000e+00
2.130000000000000000e+02,-3.493755017379768235e-01,0.000000000000000000e+00
2.140000000000000000e+02,-5.031776254775746082e-01,0.000000000000000000e+00
2.150000000000000000e+02,-2.996894968215909616e-01,0.000000000000000000e+00
2.160000000000000000e+02,-2.524103019443875717e-01,0.000000000000000000e+00
2.170000000000000000e+02,-2.058102383799900459e-01,0.000000000000000000e+00
2.180000000000000000e+02,-2.708994830250983088e-01,0.000000000000000000e+00
2.190000000000000000e+02,-2.680418480199503808e-02,0.000000000000000000e+00
2.200000000000000000e+02,-1.430388099257831613e-01,0.000000000000000000e+00
2.210000000000000000e+02,-1.772543178750436987e-01,0.000000000000000000e+00
2.220000000000000000e+02,1.758336870399740664e-03,0.000000000000000000e+00
2.230000000000000000e+02,-7.251189706264374313e-02,0.000000000000000000e+00
2.240000000000000000e+02,4.487111493598450879e-02,0.000000000000000000e+00
2.250000000000000000e+02,2.097447950183599918e-01,0.000000000000000000e+00
2.260000000000000000e+02,-8.883715633201562378e-02,0.000000000000000000e+00
2.270000000000000000e+02,1.177620255654597686e-01,0.000000000000000000e+00
2.280000000000000000e+02,1.740695620279483491e-01,0.000000000000000000e+00
2.290000000000000000e+02,2.714878273099309847e-01,0.000000000000000000e+00
2.300000000000000000e+02,3.247121241140754067e-01,0.000000000000000000e+00
2.310000000000000000e+02,6.710764833666991169e-01,0.000000000000000000e+00
2.320000000000000000e+02,3.753051865013822819e-01,0.000000000000000000e+00
2.330000000000000000e+02,4.876781924133274382e-01,0.000000000000000000e+00
2.340000000000000000e+02,-4.082421470323641111e-02,0.000000000000000000e+00
2.350000000000000000e+02,2.860170200253724093e-02,0.000000000000000000e+00
2.360000000000000000e+02,7.707489432704626997e-02,0.000000000000000000e+00
2.370000000000000000e+02,9.260756264867679721e-02,0.000000000000000000e+00
2.380000000000000000e+02,-9.538634428584084890e-02,0.000000000000000000e+00
2.390000000000000000e+02,1.227769040376919474e+00,0.000000000000000000e+00
2.400000000000000000e+02,6.038884831854585578e+00,0.000000000000000000e+00
2.410000000000000000e+02,-1.968924514161346506e-01,1.000000000000000000e+00
2.420000000000000000e+02,-2.388799796843434464e+00,0.000000000000000000e+00
2.430000000000000000e+02,-2.050814255210456905e-01,0.000000000000000000e+00
2.440000000000000000e+02,-7.209853547135284257e-01,0.000000000000000000e+00
2.450000000000000000e+02,-3.519566499397606685e-01,0.000000000000000000e+00
2.460000000000000000e+02,-4.630787004583913902e-01,0.000000000000000000e+00
2.470000000000000000e+02,-1.534617386922063620e-01,0.000000000000000000e+00
2.480000000000000000e+02,-4.029048979073615588e-01,0.000000000000000000e+00
2.490000000000000000e+02,1.527235633429816115e-02,0.000000000000000000e+00
2.500000000000000000e+02,1.633885472822282567e-02,0.000000000000000000e+00
2.510000000000000000e+02,3.433616052651543571e-01,0.000000000000000000e+00
2.520000000000000000e+02,2.676778214999593897e-01,0.000000000000000000e+00
2.530000000000000000e+02,9.243545271694799670e-01,0.000000000000000000e+00
2.540000000000000000e+02,9.145595873255931707e-01,0.000000000000000000e+00
2.550000000000000000e+02,1.286660280477377905e+00,0.000000000000000000e+00
2.560000000000000000e+02,7.793755528885725203e-01,0.000000000000000000e+00
2.570000000000000000e+02,2.031521638300765875e-01,0.000000000000000000e+00
2.580000000000000000e+02,-7.017965776265840949e-01,0.000000000000000000e+00
2.590000000000000000e+02,-9.928337733013548050e-01,0.000000000000000000e+00
2.600000000000000000e+02,-1.061912621962477932e+00,0.000000000000000000e+00
2.610000000000000000e+02,-7.871410761684600743e-01,0.000000000000000000e+00
2.620000000000000000e+02,-9.100654246342233522e-01,0.000000000000000000e+00
2.630000000000000000e+02,-7.933468516887733912e-01,0.000000000000000000e+00
2.640000000000000000e+02,-9.586964069143893985e-01,0.000000000000000000e+00
2.650000000000000000e+02,-5.636812837095398487e-01,0.000000000000000000e+00
2.660000000000000000e+02,-7.018700489363167705e-01,0.000000000000000000e+00
2.670000000000000000e+02,-3.789183492346135940e-01,0.000000000000000000e+00
2.680000000000000000e+02,-5.124060382240839262e-01,0.000000000000000000e+00
2.690000000000000000e+02,-2.236464537445167489e-01,0.000000000000000000e+00
2.700000000000000000e+02,-2.765276808384487528e-01,0.000000000000000000e+00
2.710000000000000000e+02,-2.769859937909917580e-01,0.000000000000000000e+00
2.720000000000000000e+02,-2.854138622820702187e-01,0.000000000000000000e+00
2.730000000000000000e+02,-5.082381907220511613e-02,0.000000000000000000e+00
2.740000000000000000e+02,-2.443910084440828745e-01,0.000000000000000000e+00
2.750000000000000000e+02,3.455832426731483744e-03,0.000000000000000000e+00
2.760000000000000000e+02,-7.071464642937713707e-02,0.000000000000000000e+00
2.770000000000000000e+02,1.557137342003716424e-02,0.000000000000000000e+00
2.780000000000000000e+02,-5.456640417752589567e-02,0.000000000000000000e+00
2.790000000000000000e+02,7.927115391104218312e-02,0.000000000000000000e+00
2.800000000000000000e+02,-2.956799353020672996e-02,0.000000000000000000e+00
2.810000000000000000e+02,2.689019580831356615e-01,0.000000000000000000e+00
2.820000000000000000e+02,7.210869156658850088e-02,0.000000000000000000e+00
2.830000000000000000e+02,2.961658976521264752e-01,0.000000000000000000e+00
2.840000000000000000e+02,3.814979965634913706e-01,0.000000000000000000e+00
2.850000000000000000e+02,5.589332545581072731e-01,0.000000000000000000e+00
2.860000000000000000e+02,2.362038655508990892e-01,0.000000000000000000e+00
2.870000000000000000e+02,4.830411406115107109e-01,0.000000000000000000e+00
2.880000000000000000e+02,-1.591245395250770467e-01,0.000000000000000000e+00
2.890000000000000000e+02,2.802420937194599615e-01,0.000000000000000000e+00
2.900000000000000000e+02,-2.444641289035440757e-01,0.000000000000000000e+00
2.910000000000000000e+02,3.067050875769808393e-01,0.000000000000000000e+00
2.920000000000000000e+02,-2.550146822345710218e-01,0.000000000000000000e+00
2.930000000000000000e+02,4.845981252420480168e+00,0.000000000000000000e+00
2.940000000000000000e+02,3.309320601456989142e+00,1.000000000000000000e+00
2.950000000000000000e+02,-2.807785596730389521e+00,0.000000000000000000e+00
2.960000000000000000e+02,-5.786547611669006219e-01,0.000000000000000000e+00
2.970000000000000000e+02,-7.533991472383296806e-01,0.000000000000000000e+00
2.980000000000000000e+02,-3.613867923941930238e-01,0.000000000000000000e+00
2.990000000000000000e+02,-4.567085276135147698e-01,0.000000000000000000e+00
3.000000000000000000e+02,-1.945872360046728422e-01,0.000000000000000000e+00
3.010000000000000000e+02,-1.899006450200561857e-01,0.000000000000000000e+00
3.020000000000000000e+02,-9.978630697964395446e-02,0.000000000000000000e+00
3.030000000000000000e+02,-2.096975711210057741e-02,0.000000000000000000e+00
3.040000000000000000e+02,1.617376609215065431e-01,0.000000000000000000e+00
3.050000000000000000e+02,3.571314339328272025e-01,0.000000000000000000e+00
3.060000000000000000e+02,5.872164800648500549e-01,0.000000000000000000e+00
3.070000000000000000e+02,9.824858006777734687e-01,0.000000000000000000e+00
3.080000000000000000e+02,1.092253763828019864e+00,0.000000000000000000e+00
3.090000000000000000e+02,1.101729093715166696e+00,0.000000000000000000e+00
3.100000000000000000e+02,4.194021846167166334e-01,0.000000000000000000e+00
3.110000000000000000e+02,-3.449521733442995064e-01,0.000000000000000000e+00
3.120000000000000000e+02,-7.841648076838085846e-01,0.000000000000000000e+00
3.130000000000000000e+02,-9.322781930079508950e-01,0.000000000000000000e+00
3.140000000000000000e+02,-1.069824458460620908e+00,0.000000000000000000e+00
3.150000000000000000e+02,-7.600519557436526963e-01,0.000000000000000000e+00
3.160000000000000000e+02,-9.144640590404685687e-01,0.000000000000000000e+00
3.170000000000000000e+02,-6.859422973452201644e-01,0.000000000000000000e+00
3.180000000000000000e+02,-8.952434557357574763e-01,0.000000000000000000e+00
3.190000000000000000e+02,-5.622541697129869176e-01,0.000000000000000000e+00
3.200000000000000000e+02,-5.400259690496667098e-01,0.000000000000000000e+00
3.210000000000000000e+02,-2.983600719456470651e-01,0.000000000000000000e+00
3.220000000000000000e+02,-4.226952635692394766e-01,0.000000000000000000e+00
3.230000000000000000e+02,-1.402081056281312688e-01,0.000000000000000000e+00
3.240000000000000000e+02,-4.486111282311701087e-01,0.000000000000000000e+00
3.250000000000000000e+02,-8.369157699978589660e-02,0.000000000000000000e+00
3.260000000000000000e+02,-2.912262980654275468e-01,0.000000000000000000e+00
3.270000000000000000e+02,-1.091111077987707151e-01,0.000000000000000000e+00
3.280000000000000000e+02,-2.733107348288494332e-01,0.000000000000000000e+00
3.290000000000000000e+02,8.536826707707476092e-02,0.000000000000000000e+00
3.300000000000000000e+02,-1.391564399315105838e-01,0.000000000000000000e+00
3.310000000000000000e+02,9.215584199998287651e-03,0.000000000000000000e+00
3.320000000000000000e+02,-6.561079590599463995e-02,0.000000000000000000e+00
3.330000000000000000e+02,6.937558849313747722e-03,0.000000000000000000e+00
3.340000000000000000e+02,-3.637184776149570559e-02,0.000000000000000000e+00
3.350000000000000000e+02,2.455081765745580624e-01,0.000000000000000000e+00
3.360000000000000000e+02,1.530797903103567337e-01,0.000000000000000000e+00
3.370000000000000000e+02,3.349922609698186005e-01,0.000000000000000000e+00
3.380000000000000000e+02,3.482806322105515551e-01,0.000000000000000000e+00
3.390000000000000000e+02,5.151235459566689823e-01,0.000000000000000000e+00
3.400000000000000000e+02,3.864983621001719660e-01,0.000000000000000000e+00
3.410000000000000000e+02,1.547208939890581947e-01,0.000000000000000000e+00
3.420000000000000000e+02,-1.374342614997549061e-01,0.000000000000000000e+00
3.430000000000000000e+02,2.296658990963249825e-01,0.000000000000000000e+00
3.440000000000000000e+02,-1.624530119479050683e-01,0.000000000000000000e+00
3.450000000000000000e+02,1.818709579490061234e-01,0.000000000000000000e+00
3.460000000000000000e+02,1.292887683420530960e-02,0.000000000000000000e+00
3.470000000000000000e+02,5.499343812664915454e+00,0.000000000000000000e+00
3.480000000000000000e+02,2.546415404810456362e+00,1.000000000000000000e+00
3.490000000000000000e+02,-2.793231443762787425e+00,0.000000000000000000e+00
3.500000000000000000e+02,-4.481507086539441298e-01,0.000000000000000000e+00
3.510000000000000000e+02,-8.620222777388087954e-01,0.000000000000000000e+00
3.520000000000000000e+02,-4.292157523131113206e-01,0.000000000000000000e+00
3.530000000000000000e+02,-4.697499287649707367e-01,0.000000000000000000e+00
3.540000000000000000e+02,-1.342579866871195793e-01,0.000000000000000000e+00
3.550000000000000000e+02,-3.270467781541601116e-01,0.000000000000000000e+00
3.560000000000000000e+02,-6.015442841453966932e-02,0.000000000000000000e+00
3.570000000000000000e+02,-4.652634691185296434e-02,0.000000000000000000e+00
3.580000000000000000e+02,2.154753002854367661e-01,0.000000000000000000e+00
3.590000000000000000e+02,3.404973927020834568e-01,0.000000000000000000e+00
3.600000000000000000e+02,7.414430318437206235e-01,0.000000000000000000e+00
3.610000000000000000e+02,8.777336138814951783e-01,0.000000000000000000e+00
3.620000000000000000e+02,1.228763642370954035e+00,0.000000000000000000e+00
3.630000000000000000e+02,8.771992231567372622e-01,0.000000000000000000e+00
3.640000000000000000e+02,4.101071967437589505e-01,0.000000000000000000e+00
3.650000000000000000e+02,-4.453628257970104753e-01,0.000000000000000000e+00
3.660000000000000000e+02,-8.029191522731226049e-01,0.000000000000000000e+00
3.670000000000000000e+02,-9.373009344240006424e-01,0.000000000000000000e+00
3.680000000000000000e+02,-8.604758909765042318e-01,0.000000000000000000e+00
3.690000000000000000e+02,-8.126532502409510306e-01,0.000000000000000000e+00
3.700000000000000000e+02,-9.695993803314502113e-01,0.000000000000000000e+00
3.710000000000000000e+02,-6.132601359244911343e-01,0.000000000000000000e+00
3.720000000000000000e+02,-6.674033844852950148e-01,0.000000000000000000e+00
3.730000000000000000e+02,-6.423342197739749793e-01,0.000000000000000000e+00
3.740000000000000000e+02,-4.157395964047864712e-01,0.000000000000000000e+00
3.750000000000000000e+02,-4.207599025365669765e-01,0.000000000000000000e+00
3.760000000000000000e+02,-3.071184420251467651e-01,0.000000000000000000e+00
3.770000000000000000e+02,-3.280805514324449668e-01,0.000000000000000000e+00
3.780000000000000000e+02,-2.869175798497075602e-01,0.000000000000000000e+00
3.790000000000000000e+02,-7.098783529578560347e-02,0.000000000000000000e+00
3.800000000000000000e+02,-2.705934562470983518e-01,0.000000000000000000e+00
3.810000000000000000e+02,-1.864794008650615398e-01,0.000000000000000000e+00
3.820000000000000000e+02,-4.817125345572053491e-02,0.000000000000000000e+00
3.830000000000000000e+02,-1.255199250635098164e-02,0.000000000000000000e+00
3.840000000000000000e+02,-7.529079325453766347e-02,0.000000000000000000e+00
3.850000000000000000e+02,-8.839928419748799282e-02,0.000000000000000000e+00
3.860000000000000000e+02,-2.752472746210950227e-02,0.000000000000000000e+00
3.870000000000000000e+02,1.556110318877611809e-01,0.000000000000000000e+00
3.880000000000000000e+02,1.146275049590230327e-01,0.000000000000000000e+00
3.890000000000000000e+02,1.894530771591036999e-01,0.000000000000000000e+00
3.900000000000000000e+02,2.006108375342059158e-01,0.000000000000000000e+00
3.910000000000000000e+02,3.645110901223497235e-01,0.000000000000000000e+00
3.920000000000000000e+02,3.690074076793819491e-01,0.000000000000000000e+00
3.930000000000000000e+02,6.582031248113198174e-01,0.000000000000000000e+00
3.940000000000000000e+02,3.166485754255891072e-01,0.000000000000000000e+00
3.950000000000000000e+02,3.400696829069378979e-01,0.000000000000000000e+00
3.960000000000000000e+02,-6.236743140871743585e-02,0.000000000000000000e+00
3.970000000000000000e+02,1.740685585398557278e-01,0.000000000000000000e+00
3.980000000000000000e+02,-1.055472292031927189e-01,0.000000000000000000e+00
3.990000000000000000e+02,1.676798713624396975e-01,0.000000000000000000e+00
4.000000000000000000e+02,-1.851260517444354436e-01,0.000000000000000000e+00
4.010000000000000000e+02,4.970459273494752139e+00,0.000000000000000000e+00
4.020000000000000000e+02,3.541294015695806152e+00,1.000000000000000000e+00
4.030000000000000000e+02,-2.962476603821544874e+00,0.000000000000000000e+00
4.040000000000000000e+02,-6.155885490153166772e-01,0.000000000000000000e+00
4.050000000000000000e+02,-7.764885868946955760e-01,0.000000000000000000e+00
4.060000000000000000e+02,-3.764341038932728090e-01,0.000000000000000000e+00
4.070000000000000000e+02,-4.998664982157887682e-01,0.000000000000000000e+00
4.080000000000000000e+02,-2.562841920121268213e-01,0.000000000000000000e+00
4.090000000000000000e+02,-3.442449217207002587e-01,0.000000000000000000e+00
4.100000000000000000e+02,-1.492748218999543630e-01,0.000000000000000000e+00
4.110000000000000000e+02,2.460133995873389420e-02,0.000000000000000000e+00
4.120000000000000000e+02,2.167655227236690851e-01,0.000000000000000000e+00
4.130000000000000000e+02,3.465375216809958303e-01,0.000000000000000000e+00
4.140000000000000000e+02,5.764622128745022778e-01,0.000000000000000000e+00
4.150000000000000000e+02,8.613645641644158690e-01,0.000000000000000000e+00
4.160000000000000000e+02,1.140924967248927890e+00,0.000000000000000000e+00
4.170000000000000000e+02,1.068112594002150750e+00,0.000000000000000000e+00
4.180000000000000000e+02,4.147879082439461240e-01,0.000000000000000000e+00
4.190000000000000000e+02,-4.009761074448047191e-01,0.000000000000000000e+00
4.200000000000000000e+02,-7.598877920474489400e-01,0.000000000000000000e+00
4.210000000000000000e+02,-1.121180803774320278e+00,0.000000000000000000e+00
4.220000000000000000e+02,-9.791943975801502553e-01,0.000000000000000000e+00
4.230000000000000000e+02,-9.390424917683584116e-01,0.000000000000000000e+00
4.240000000000000000e+02,-9.334520049974642797e-01,0.000000000000000000e+00
4.250000000000000000e+02,-8.256922987721336815e-01,0.000000000000000000e+00
4.260000000000000000e+02,-6.748494265202650277e-01,0.000000000000000000e+00
4.270000000000000000e+02,-6.095552767121642512e-01,0.000000000000000000e+00
4.280000000000000000e+02,-4.964499663704898813e-01,0.000000000000000000e+00
4.290000000000000000e+02,-5.282777091379164958e-01,0.000000000000000000e+00
4.300000000000000000e+02,-3.267835624452383736e-01,0.000000000000000000e+00
4.310000000000000000e+02,-2.733924207266751338e-01,0.000000000000000000e+00
4.320000000000000000e+02,-2.492512724045509720e-01,0.000000000000000000e+00
4.330000000000000000e+02,-2.969914306068683341e-01,0.000000000000000000e+00
4.340000000000000000e+02,-2.433787296865880523e-01,0.000000000000000000e+00
4.350000000000000000e+02,-5.525534220017845610e-02,0.000000000000000000e+00
4.360000000000000000e+02,-2.229248865376147470e-01,0.000000000000000000e+00
4.370000000000000000e+02,-1.289739290120425486e-01,0.000000000000000000e+00
4.380000000000000000e+02,-4.052710618472971787e-02,0.000000000000000000e+00
4.390000000000000000e+02,-2.533476945446052134e-02,0.000000000000000000e+00
4.400000000000000000e+02,-1.464550076317962524e-01,0.000000000000000000e+00
4.410000000000000000e+02,1.319369972671740887e-01,0.000000000000000000e+00
4.420000000000000000e+02,-1.818025392812556290e-02,0.000000000000000000e+00
4.430000000000000000e+02,1.625049848207829883e-01,0.000000000000000000e+00
4.440000000000000000e+02,1.931901726025287147e-01,0.000000000000000000e+00
4.450000000000000000e+02,2.962926854568587176e-01,0.000000000000000000e+00
4.460000000000000000e+02,3.994486294548821870e-01,0.000000000000000000e+00
4.470000000000000000e+02,5.295781516080155793e-01,0.000000000000000000e+00
4.480000000000000000e+02,2.306405727078283674e-01,0.000000000000000000e+00
4.490000000000000000e+02,1.412870867072381631e-01,0.000000000000000000e+00
4.500000000000000000e+02,-4.876816224980987796e-02,0.000000000000000000e+00
4.510000000000000000e+02,1.962111652607866352e-01,0.000000000000000000e+00
4.520000000000000000e+02,1.454975524647798661e-02,0.000000000000000000e+00
4.530000000000000000e+02,6.812521325297010710e-02,0.000000000000000000e+00
4.540000000000000000e+02,4.290509881845001594e-01,0.000000000000000000e+00
4.550000000000000000e+02,5.712249303972475545e+00,0.000000000000000000e+00
4.560000000000000000e+02,9.329730702431007217e-01,1.000000000000000000e+00
4.570000000000000000e+02,-2.567728008415103513e+00,0.000000000000000000e+00
4.580000000000000000e+02,-2.740462778530477483e-01,0.000000000000000000e+00
4.590000000000000000e+02,-6.223921870682123103e-01,0.000000000000000000e+00
4.600000000000000000e+02,-2.754921477147900255e-01,0.000000000000000000e+00
4.610000000000000000e+02,-4.382880151327057106e-01,0.000000000000000000e+00
4.620000000000000000e+02,1.687162738938126696e-02,0.000000000000000000e+00
4.630000000000000000e+02,-2.767850660431390164e-01,0.000000000000000000e+00
4.640000000000000000e+02,1.945317829824731726e-01,0.000000000000000000e+00
4.650000000000000000e+02,-4.277995106224840270e-03,0.000000000000000000e+00
4.660000000000000000e+02,3.457205936469765484e-01,0.000000000000000000e+00
4.670000000000000000e+02,3.983796526401303661e-01,0.000000000000000000e+00
4.680000000000000000e+02,9.365470229153749493e-01,0.000000000000000000e+00
4.690000000000000000e+02,8.690890340544545900e-01,0.000000000000000000e+00
4.700000000000000000e+02,1.254738508175741396e+00,0.000000000000000000e+00
4.710000000000000000e+02,9.376578997653632896e-01,0.000000000000000000e+00
4.720000000000000000e+02,2.737278585058914859e-01,0.000000000000000000e+00
4.730000000000000000e+02,-4.573856187032844800e-01,0.000000000000000000e+00
4.740000000000000000e+02,-7.412075769753669885e-01,0.000000000000000000e+00
4.750000000000000000e+02,-1.007344199271441587e+00,0.000000000000000000e+00
4.760000000000000000e+02,-1.084770396867921205e+00,0.000000000000000000e+00
4.770000000000000000e+02,-8.824684548153256536e-01,0.000000000000000000e+00
4.780000000000000000e+02,-7.430985005937381649e-01,0.000000000000000000e+00
4.790000000000000000e+02,-8.418064026561192792e-01,0.000000000000000000e+00
4.800000000000000000e+02,-6.113336076680393472e-01,0.000000000000000000e+00
4.810000000000000000e+02,-5.518348268767347964e-01,0.000000000000000000e+00
4.820000000000000000e+02,-5.143710865619426365e-01,0.000000000000000000e+00
4.830000000000000000e+02,-3.612957721496391494e-01,0.000000000000000000e+00
4.840000000000000000e+02,-2.874862319932381949e-01,0.000000000000000000e+00
4.850000000000000000e+02,-2.520973572033849419e-01,0.000000000000000000e+00
4.860000000000000000e+02,-3.450976891725793250e-01,0.000000000000000000e+00
4.870000000000000000e+02,-1.280225515380637724e-01,0.000000000000000000e+00
4.880000000000000000e+02,-1.369117484614692237e-01,0.000000000000000000e+00
4.890000000000000000e+02,-1.866065575317552572e-01,0.000000000000000000e+00
4.900000000000000000e+02,-4.526554598274494523e-02,0.000000000000000000e+00
4.910000000000000000e+02,-1.125352230410672227e-01,0.000000000000000000e+00
4.920000000000000000e+02,-8.560431275489520375e-02,0.000000000000000000e+00
4.930000000000000000e+02,1.088012575261868529e-02,0.000000000000000000e+00
4.940000000000000000e+02,-1.540197854944147689e-02,0.000000000000000000e+00
4.950000000000000000e+02,1.217886207021370432e-01,0.000000000000000000e+00
4.960000000000000000e+02,1.488730696061453529e-02,0.000000000000000000e+00
4.970000000000000000e+02,1.497951776126943135e-01,0.000000000000000000e+00
4.980000000000000000e+02,1.140681106162422104e-01,0.000000000000000000e+00
4.990000000000000000e+02,1.955852879070786032e-01,0.000000000000000000e+00
5.000000000000000000e+02,4.555438889912030720e-01,0.000000000000000000e+00
5.010000000000000000e+02,4.952368236909092114e-01,0.000000000000000000e+00
5.020000000000000000e+02,3.547207895524275845e-01,0.000000000000000000e+00
5.030000000000000000e+02,2.333065235145415917e-01,0.000000000000000000e+00
5.040000000000000000e+02,-9.875251751844939252e-02,0.000000000000000000e+00
5.050000000000000000e+02,1.474785114447390577e-01,0.000000000000000000e+00
5.060000000000000000e+02,-1.580942893845726505e-01,0.000000000000000000e+00
5.070000000000000000e+02,2.219275610056433146e-01,0.000000000000000000e+00
5.080000000000000000e+02,-3.166443288257013711e-01,0.000000000000000000e+00
5.090000000000000000e+02,4.520112475794842766e+00,0.000000000000000000e+00
5.100000000000000000e+02,3.792856481989455908e+00,0.000000000000000000e+00
5.110000000000000000e+02,-2.951844802051439398e+00,1.000000000000000000e+00
5.120000000000000000e+02,-5.520672139254432231e-01,0.000000000000000000e+00
5.130000000000000000e+02,-9.234490084431145052e-01,0.000000000000000000e+00
5.140000000000000000e+02,-2.841655677839796112e-01,0.000000000000000000e+00
5.150000000000000000e+02,-5.687791129181090088e-01,0.000000000000000000e+00
5.160000000000000000e+02,-1.675138864019755924e-01,0.000000000000000000e+00
5.170000000000000000e+02,-3.111180506686311298e-01,0.000000000000000000e+00
5.180000000000000000e+02,-7.722475452360222370e-02,0.000000000000000000e+00
5.190000000000000000e+02,-9.126031212495104572e-03,0.000000000000000000e+00
5.200000000000000000e+02,1.972630604024246670e-01,0.000000000000000000e+00
5.210000000000000000e+02,2.543389502785658451e-01,0.000000000000000000e+00
5.220000000000000000e+02,5.889482364913785073e-01,0.000000000000000000e+00
5.230000000000000000e+02,8.066007751035763063e-01,0.000000000000000000e+00
5.240000000000000000e+02,1.230077246166423111e+00,0.000000000000000000e+00
5.250000000000000000e+02,8.929280166882387348e-01,0.000000000000000000e+00
5.260000000000000000e+02,4.867536934493308931e-01,0.000000000000000000e+00
5.270000000000000000e+02,-2.644277676333137150e-01,0.000000000000000000e+00
5.280000000000000000e+02,-6.845792706660381866e-01,0.000000000000000000e+00
5.290000000000000000e+02,-1.094435885107666540e+00,0.000000000000000000e+00
5.300000000000000000e+02,-8.633509219801163148e-01,0.000000000000000000e+00
5.310000000000000000e+02,-9.360218903067720753e-01,0.000000000000000000e+00
5.320000000000000000e+02,-8.625150990552038488e-01,0.000000000000000000e+00
5.330000000000000000e+02,-7.300536998438924563e-01,0.000000000000000000e+00
5.340000000000000000e+02,-6.968757423420928188e-01,0.000000000000000000e+00
5.350000000000000000e+02,-6.526007776069647770e-01,0.000000000000000000e+00
5.360000000000000000e+02,-3.878437466426531421e-01,0.000000000000000000e+00
5.370000000000000000e+02,-5.741461428478404905e-01,0.000000000000000000e+00
5.380000000000000000e+02,-3.309315132498759082e-01,0.000000000000000000e+00
5.390000000000000000e+02,-3.369869933896641467e-01,0.000000000000000000e+00
5.400000000000000000e+02,-2.160037109516779186e-01,0.000000000000000000e+00
5.410000000000000000e+02,-2.110651584067849418e-01,0.000000000000000000e+00
5.420000000000000000e+02,-9.774434514755747649e-02,0.000000000000000000e+00
5.430000000000000000e+02,-2.674474871492883987e-01,0.000000000000000000e+00
5.440000000000000000e+02,-1.205664962358031361e-01,0.000000000000000000e+00
5.450000000000000000e+02,-1.130535387329362623e-01,0.000000000000000000e+00
5.460000000000000000e+02,-6.742335259071144220e-03,0.000000000000000000e+00
5.470000000000000000e+02,-8.071311073729131591e-02,0.000000000000000000e+00
5.480000000000000000e+02,4.629582344993212091e-03,0.000000000000000000e+00
5.490000000000000000e+02,1.650465294479223910e-01,0.000000000000000000e+00
5.500000000000000000e+02,9.606067572505661012e-02,0.000000000000000000e+00
5.510000000000000000e+02,-1.335497795783645823e-02,0.000000000000000000e+00
5.520000000000000000e+02,3.423463528517982635e-01,0.000000000000000000e+00
5.530000000000000000e+02,1.529325720299990754e-01,0.000000000000000000e+00
5.540000000000000000e+02,3.805576297142876374e-01,0.000000000000000000e+00
5.550000000000000000e+02,5.165833646507009824e-01,0.000000000000000000e+00
5.560000000000000000e+02,5.207371197624891535e-01,0.000000000000000000e+00
5.570000000000000000e+02,3.265345856967150628e-01,0.000000000000000000e+00
5.580000000000000000e+02,-1.958678632149164767e-01,0.000000000000000000e+00
5.590000000000000000e+02,1.554712405370010098e-01,0.000000000000000000e+00
5.600000000000000000e+02,-1.936594574946652603e-01,0.000000000000000000e+00
5.610000000000000000e+02,1.468751905916843847e-01,0.000000000000000000e+00
5.620000000000000000e+02,-2.276532880081663657e-01,0.000000000000000000e+00
5.630000000000000000e+02,3.511367343629947069e+00,0.000000000000000000e+00
5.640000000000000000e+02,5.160272116865817438e+00,0.000000000000000000e+00
5.650000000000000000e+02,-2.369868392139334201e+00,1.000000000000000000e+00
5.660000000000000000e+02,-1.053437170609149209e+00,0.000000000000000000e+00
5.670000000000000000e+02,-8.342240138798983073e-01,0.000000000000000000e+00
5.680000000000000000e+02,-3.391799700829048470e-01,0.000000000000000000e+00
5.690000000000000000e+02,-6.073101480291541732e-01,0.000000000000000000e+00
5.700000000000000000e+02,-2.090643676153098873e-01,0.000000000000000000e+00
5.710000000000000000e+02,-2.374499085481030780e-01,0.000000000000000000e+00
5.720000000000000000e+02,-2.562295191688048965e-02,0.000000000000000000e+00
5.730000000000000000e+02,-3.015316967201290832e-01,0.000000000000000000e+00
5.740000000000000000e+02,2.826556714563411288e-01,0.000000000000000000e+00
5.750000000000000000e+02,1.979475853165729160e-01,0.000000000000000000e+00
5.760000000000000000e+02,6.782157750313529965e-01,0.000000000000000000e+00
5.770000000000000000e+02,7.883441698748072657e-01,0.000000000000000000e+00
5.780000000000000000e+02,1.215547309175778468e+00,0.000000000000000000e+00
5.790000000000000000e+02,1.023208852015124348e+00,0.000000000000000000e+00
5.800000000000000000e+02,6.827981327119960753e-01,0.000000000000000000e+00
5.810000000000000000e+02,-1.585083906314579405e-01,0.000000000000000000e+00
5.820000000000000000e+02,-4.582025641621295664e-01,0.000000000000000000e+00
5.830000000000000000e+02,-1.058425912147842984e+00,0.000000000000000000e+00
5.840000000000000000e+02,-7.912632042252821796e-01,0.000000000000000000e+00
5.850000000000000000e+02,-9.844389026371989093e-01,0.000000000000000000e+00
5.860000000000000000e+02,-7.247142520756865158e-01,0.000000000000000000e+00
5.870000000000000000e+02,-7.376907434755142212e-01,0.000000000000000000e+00
5.880000000000000000e+02,-6.168862818907719925e-01,0.000000000000000000e+00
5.890000000000000000e+02,-5.861163661785546708e-01,0.000000000000000000e+00
5.900000000000000000e+02,-4.862049830865722289e-01,0.000000000000000000e+00
5.910000000000000000e+02,-4.458135725463356347e-01,0.000000000000000000e+00
5.920000000000000000e+02,-3.022858163466496939e-01,0.000000000000000000e+00
5.930000000000000000e+02,-3.173290678638016615e-01,0.000000000000000000e+00
5.940000000000000000e+02,-2.575856190107723709e-01,0.000000000000000000e+00
5.950000000000000000e+02,-3.378537339963187947e-01,0.000000000000000000e+00
5.960000000000000000e+02,-8.375823524398334774e-02,0.000000000000000000e+00
5.970000000000000000e+02,-2.149639254593678495e-01,0.000000000000000000e+00
5.980000000000000000e+02,-2.139355961605749964e-02,0.000000000000000000e+00
5.990000000000000000e+02,-2.998418001021946333e-01,0.000000000000000000e+00
6.000000000000000000e+02,1.061933680694643056e-01,0.000000000000000000e+00
6.010000000000000000e+02,-2.081515180575612967e-01,0.000000000000000000e+00
6.020000000000000000e+02,1.286790575010533511e-01,0.000000000000000000e+00
6.030000000000000000e+02,4.396870784916435439e-03,0.000000000000000000e+00
6.040000000000000000e+02,3.311664473417414434e-01,0.000000000000000000e+00
6.050000000000000000e+02,-2.162767071166915300e-01,0.000000000000000000e+00
6.060000000000000000e+02,2.977643938611912455e-01,0.000000000000000000e+00
6.070000000000000000e+02,3.737439494098821618e-02,0.000000000000000000e+00
6.080000000000000000e+02,3.774801668146648415e-01,0.000000000000000000e+00
6.090000000000000000e+02,3.980860383142581505e-01,0.000000000000000000e+00
6.100000000000000000e+02,6.896754530742071898e-01,0.000000000000000000e+00
6.110000000000000000e+02,2.600806410703601634e-01,0.000000000000000000e+00
6.120000000000000000e+02,2.770154188099280823e-01,0.000000000000000000e+00
6.130000000000000000e+02,-1.963899019647037947e-01,0.000000000000000000e+00
6.140000000000000000e+02,1.858404440216779863e-01,0.000000000000000000e+00
6.150000000000000000e+02,-2.789874206136558898e-01,0.000000000000000000e+00
6.160000000000000000e+02,3.533129309188663969e-01,0.000000000000000000e+00
6.170000000000000000e+02,-5.955826623210024040e-02,0.000000000000000000e+00
6.180000000000000000e+02,5.138376652122926380e+00,0.000000000000000000e+00
6.190000000000000000e+02,2.799836567164325274e+00,1.000000000000000000e+00
6.200000000000000000e+02,-3.000992376492875646e+00,0.000000000000000000e+00
6.210000000000000000e+02,-6.021747024876381582e-01,0.000000000000000000e+00
6.220000000000000000e+02,-8.528822822174249030e-01,0.000000000000000000e+00
6.230000000000000000e+02,-1.605309232770806560e-01,0.000000000000000000e+00
6.240000000000000000e+02,-5.564293664381133597e-01,0.000000000000000000e+00
6.250000000000000000e+02,-1.813708101391882377e-01,0.000000000000000000e+00
6.260000000000000000e+02,-3.363175218762016194e-01,0.000000000000000000e+00
6.270000000000000000e+02,-7.719791364938104195e-02,0.000000000000000000e+00
6.280000000000000000e+02,-3.825820618928554850e-02,0.000000000000000000e+00
6.290000000000000000e+02,1.582444345073882874e-01,0.000000000000000000e+00
6.300000000000000000e+02,3.233726094826353537e-01,0.000000000000000000e+00
6.310000000000000000e+02,6.362371128115910102e-01,0.000000000000000000e+00
6.320000000000000000e+02,1.014983334338982912e+00,0.000000000000000000e+00
6.330000000000000000e+02,1.013658562490027393e+00,0.000000000000000000e+00
6.340000000000000000e+02,1.066137353916036812e+00,0.000000000000000000e+00
6.350000000000000000e+02,2.986344430842584052e-01,0.000000000000000000e+00
6.360000000000000000e+02,-4.409899662439653589e-01,0.000000000000000000e+00
6.370000000000000000e+02,-7.844301842606724584e-01,0.000000000000000000e+00
6.380000000000000000e+02,-1.149612520118697745e+00,0.000000000000000000e+00
6.390000000000000000e+02,-8.773487484138630110e-01,0.000000000000000000e+00
6.400000000000000000e+02,-1.031567481112067197e+00,0.000000000000000000e+00
6.410000000000000000e+02,-8.731430559316611939e-01,0.000000000000000000e+00
6.420000000000000000e+02,-7.078410419880205584e-01,0.000000000000000000e+00
6.430000000000000000e+02,-7.026962729115819872e-01,0.000000000000000000e+00
6.440000000000000000e+02,-5.472998674865056090e-01,0.000000000000000000e+00
6.450000000000000000e+02,-5.674928922670621212e-01,0.000000000000000000e+00
6.460000000000000000e+02,-3.869142334801977112e-01,0.000000000000000000e+00
6.470000000000000000e+02,-4.200218784128954552e-01,0.000000000000000000e+00
6.480000000000000000e+02,-1.975244186845035999e-01,0.000000000000000000e+00
6.490000000000000000e+02,-2.395035205630216824e-01,0.000000000000000000e+00
6.500000000000000000e+02,-2.041434871728683154e-01,0.000000000000000000e+00
6.510000000000000000e+02,-2.543807143267766691e-01,0.000000000000000000e+00
6.520000000000000000e+02,-1.872005074445388662e-01,0.000000000000000000e+00
6.530000000000000000e+02,-1.927435977691800695e-01,0.000000000000000000e+00
6.540000000000000000e+02,-5.235088060971268553e-02,0.000000000000000000e+00
6.550000000000000000e+02,-1.041293496954007053e-01,0.000000000000000000e+00
6.560000000000000000e+02,6.230897749388684265e-02,0.000000000000000000e+00
6.570000000000000000e+02,-9.300066076054881725e-02,0.000000000000000000e+00
6.580000000000000000e+02,6.286444424903116224e-02,0.000000000000000000e+00
6.590000000000000000e+02,3.967850878238155660e-02,0.000000000000000000e+00
6.600000000000000000e+02,1.230910558918829334e-01,0.000000000000000000e+00
6.610000000000000000e+02,1.001386935455172017e-01,0.000000000000000000e+00
6.620000000000000000e+02,2.328493815071836781e-01,0.000000000000000000e+00
6.630000000000000000e+02,4.521225303083135083e-01,0.000000000000000000e+00
6.640000000000000000e+02,5.319162279039605368e-01,0.000000000000000000e+00
6.650000000000000000e+02,2.492151233713143232e-01,0.000000000000000000e+00
6.660000000000000000e+02,2.331731799678856409e-01,0.000000000000000000e+00
6.670000000000000000e+02,-1.326301431286012467e-01,0.000000000000000000e+00
6.680000000000000000e+02,1.963911553849004288e-01,0.000000000000000000e+00
6.690000000000000000e+02,-7.393470289566335396e-02,0.000000000000000000e+00
6.700000000000000000e+02,2.266133828268169503e-01,0.000000000000000000e+00
6.710000000000000000e+02,-2.567139303112345172e-01,0.000000000000000000e+00
6.720000000000000000e+02,4.677332672004006042e+00,0.000000000000000000e+00
6.730000000000000000e+02,3.058600395121036986e+00,1.000000000000000000e+00
6.740000000000000000e+02,-2.756152857020205627e+00,0.000000000000000000e+00
6.750000000000000000e+02,-5.752550415885676616e-01,0.000000000000000000e+00
6.760000000000000000e+02,-7.560451348345021971e-01,0.000000000000000000e+00
6.770000000000000000e+02,-2.523564611314775274e-01,0.000000000000000000e+00
6.780000000000000000e+02,-5.096875156089717418e-01,0.000000000000000000e+00
6.790000000000000000e+02,-9.937756904118257018e-02,0.000000000000000000e+00
6.800000000000000000e+02,-1.885416965467228978e-01,0.000000000000000000e+00
6.810000000000000000e+02,-3.282454550424088180e-02,0.000000000000000000e+00
6.820000000000000000e+02,1.059630001515691339e-01,0.000000000000000000e+00
6.830000000000000000e+02,2.739456786874934213e-01,0.000000000000000000e+00
6.840000000000000000e+02,2.023958551997052380e-01,0.000000000000000000e+00
6.850000000000000000e+02,7.278116949316827400e-01,0.000000000000000000e+00
6.860000000000000000e+02,9.233527745287899435e-01,0.000000000000000000e+00
6.870000000000000000e+02,1.123706716232694802e+00,0.000000000000000000e+00
6.880000000000000000e+02,1.025464410541885751e+00,0.000000000000000000e+00
6.890000000000000000e+02,5.546337995225688600e-01,0.000000000000000000e+00
6.900000000000000000e+02,-3.037358898662829154e-01,0.000000000000000000e+00
6.910000000000000000e+02,-6.675763021678949860e-01,0.000000000000000000e+00
6.920000000000000000e+02,-1.023429068069962700e+00,0.000000000000000000e+00
6.930000000000000000e+02,-8.926865686400290434e-01,0.000000000000000000e+00
6.940000000000000000e+02,-9.463369620805163196e-01,0.000000000000000000e+00
6.950000000000000000e+02,-6.960382500720052601e-01,0.000000000000000000e+00
6.960000000000000000e+02,-7.242289828428187803e-01,0.000000000000000000e+00
6.970000000000000000e+02,-5.716397958137851010e-01,0.000000000000000000e+00
6.980000000000000000e+02,-6.964596439060565247e-01,0.000000000000000000e+00
6.990000000000000000e+02,-5.046685313507935922e-01,0.000000000000000000e+00
7.000000000000000000e+02,-4.332758061680321293e-01,0.000000000000000000e+00
7.010000000000000000e+02,-1.048112101625748166e-01,0.000000000000000000e+00
7.020000000000000000e+02,-3.329527929344354154e-01,0.000000000000000000e+00
7.030000000000000000e+02,-2.959083694783530838e-01,0.000000000000000000e+00
7.040000000000000000e+02,-2.426143258742473885e-01,0.000000000000000000e+00
7.050000000000000000e+02,-1.392436782210823565e-01,0.000000000000000000e+00
7.060000000000000000e+02,-2.383470558452188415e-01,0.000000000000000000e+00
7.070000000000000000e+02,-5.331935782053510813e-03,0.000000000000000000e+00
7.080000000000000000e+02,-1.400876342412351594e-01,0.000000000000000000e+00
7.090000000000000000e+02,4.612717138939760597e-02,0.000000000000000000e+00
7.100000000000000000e+02,-9.041415401356357739e-02,0.000000000000000000e+00
7.110000000000000000e+02,5.818760169588419601e-02,0.000000000000000000e+00
7.120000000000000000e+02,-5.836476007261985448e-03,0.000000000000000000e+00
7.130000000000000000e+02,1.304982460853428561e-01,0.000000000000000000e+00
7.140000000000000000e+02,7.674049977951581669e-02,0.000000000000000000e+00
7.150000000000000000e+02,2.868009194188448352e-01,0.000000000000000000e+00
7.160000000000000000e+02,2.516949646660283577e-02,0.000000000000000000e+00
7.170000000000000000e+02,4.130441101146999916e-01,0.000000000000000000e+00
7.180000000000000000e+02,4.874465452958375300e-01,0.000000000000000000e+00
7.190000000000000000e+02,5.893564894431627676e-01,0.000000000000000000e+00
7.200000000000000000e+02,2.957023582508325199e-01,0.000000000000000000e+00
7.210000000000000000e+02,5.403951137943611288e-02,0.000000000000000000e+00
7.220000000000000000e+02,-4.570670156573480164e-02,0.000000000000000000e+00
7.230000000000000000e+02,1.628910562321814470e-01,0.000000000000000000e+00
7.240000000000000000e+02,-3.135160973232053311e-02,0.000000000000000000e+00
7.250000000000000000e+02,-5.911514382591388089e-02,0.000000000000000000e+00
7.260000000000000000e+02,1.544492263533894238e+00,0.000000000000000000e+00
7.270000000000000000e+02,6.229979819770749216e+00,0.000000000000000000e+00
7.280000000000000000e+02,-7.553879447182836326e-01,1.000000000000000000e+00
7.290000000000000000e+02,-1.894929090831682927e+00,0.000000000000000000e+00
7.300000000000000000e+02,-4.894773339974454185e-01,0.000000000000000000e+00
7.310000000000000000e+02,-6.849589734122206730e-01,0.000000000000000000e+00
7.320000000000000000e+02,-4.036093193718488514e-01,0.000000000000000000e+00
7.330000000000000000e+02,-3.654927285726874420e-01,0.000000000000000000e+00
7.340000000000000000e+02,-2.715387369748399338e-01,0.000000000000000000e+00
7.350000000000000000e+02,-2.100941081554469347e-01,0.000000000000000000e+00
7.360000000000000000e+02,-1.225954802777106251e-01,0.000000000000000000e+00
7.370000000000000000e+02,3.809080938786966845e-03,0.000000000000000000e+00
7.380000000000000000e+02,2.198776092588020370e-01,0.000000000000000000e+00
7.390000000000000000e+02,4.610814408855476443e-01,0.000000000000000000e+00
7.400000000000000000e+02,7.748808626076072459e-01,0.000000000000000000e+00
7.410000000000000000e+02,1.075535182708769133e+00,0.000000000000000000e+00
7.420000000000000000e+02,1.022325457211525679e+00,0.000000000000000000e+00
7.430000000000000000e+02,8.250641914887366646e-01,0.000000000000000000e+00
7.440000000000000000e+02,4.317729873672087985e-03,0.000000000000000000e+00
7.450000000000000000e+02,-5.597215708236694676e-01,0.000000000000000000e+00
7.460000000000000000e+02,-8.864813989893920443e-01,0.000000000000000000e+00
7.470000000000000000e+02,-9.007617647029922958e-01,0.000000000000000000e+00
7.480000000000000000e+02,-1.035142171807819089e+00,0.000000000000000000e+00
7.490000000000000000e+02,-8.434861347139621657e-01,0.000000000000000000e+00
7.500000000000000000e+02,-8.663770813725670816e-01,0.000000000000000000e+00
7.510000000000000000e+02,-7.026687796671943209e-01,0.000000000000000000e+00
7.520000000000000000e+02,-6.962801572565775476e-01,0.000000000000000000e+00
7.530000000000000000e+02,-6.026087981000400884e-01,0.000000000000000000e+00
7.540000000000000000e+02,-3.821097187701020803e-01,0.000000000000000000e+00
7.550000000000000000e+02,-3.555389289196883018e-01,0.000000000000000000e+00
7.560000000000000000e+02,-4.394996264670109065e-01,0.000000000000000000e+00
7.570000000000000000e+02,-1.656966793332314003e-01,0.000000000000000000e+00
7.580000000000000000e+02,-2.868680377562772832e-01,0.000000000000000000e+00
7.590000000000000000e+02,-1.793724001648433486e-01,0.000000000000000000e+00
7.600000000000000000e+02,-2.062273726196510726e-01,0.000000000000000000e+00
7.610000000000000000e+02,-1.257553467041585826e-01,0.000000000000000000e+00
7.620000000000000000e+02,-2.231544856213813210e-01,0.000000000000000000e+00
7.630000000000000000e+02,-6.491513742975144052e-02,0.000000000000000000e+00
7.640000000000000000e+02,-8.892733409592272487e-02,0.000000000000000000e+00
7.650000000000000000e+02,2.031866970078284942e-02,0.000000000000000000e+00
7.660000000000000000e+02,-5.444288069479704534e-02,0.000000000000000000e+00
7.670000000000000000e+02,2.325146827164622787e-01,0.000000000000000000e+00
7.680000000000000000e+02,-1.883614940347773103e-01,0.000000000000000000e+00
7.690000000000000000e+02,1.948375649248437758e-01,0.000000000000000000e+00
7.700000000000000000e+02,4.323848895252566105e-02,0.000000000000000000e+00
7.710000000000000000e+02,4.234114619106535971e-01,0.000000000000000000e+00
7.720000000000000000e+02,3.610822123365871050e-01,0.000000000000000000e+00
7.730000000000000000e+02,6.280801868372511976e-01,0.000000000000000000e+00
7.740000000000000000e+02,1.473171489221311858e-01,0.000000000000000000e+00
7.750000000000000000e+02,3.642181254155362619e-02,0.000000000000000000e+00
7.760000000000000000e+02,-5.240750841378440800e-02,0.000000000000000000e+00
7.770000000000000000e+02,5.653668409454677343e-03,0.000000000000000000e+00
7.780000000000000000e+02,-1.182862546628287159e-01,0.000000000000000000e+00
7.790000000000000000e+02,1.406849286317925218e-01,0.000000000000000000e+00
7.800000000000000000e+02,2.851655428997010300e-01,0.000000000000000000e+00
7.810000000000000000e+02,5.926621071850084022e+00,0.000000000000000000e+00
7.820000000000000000e+02,1.469342872832372970e+00,1.000000000000000000e+00
7.830000000000000000e+02,-2.761494127315922587e+00,0.000000000000000000e+00
7.840000000000000000e+02,-3.838048174692139103e-01,0.000000000000000000e+00
7.850000000000000000e+02,-6.621782317931391715e-01,0.000000000000000000e+00
7.860000000000000000e+02,-3.474606438805697972e-01,0.000000000000000000e+00
7.870000000000000000e+02,-5.522840475407400085e-01,0.000000000000000000e+00
7.880000000000000000e+02,-2.260859777161385309e-01,0.000000000000000000e+00
7.890000000000000000e+02,-3.177677176643349810e-01,0.000000000000000000e+00
7.900000000000000000e+02,-1.245660470858277885e-02,0.000000000000000000e+00
7.910000000000000000e+02,-8.148318050164768053e-03,0.000000000000000000e+00
7.920000000000000000e+02,3.198282542672648554e-01,0.000000000000000000e+00
7.930000000000000000e+02,4.567617093156640107e-01,0.000000000000000000e+00
7.940000000000000000e+02,7.713593116490945478e-01,0.000000000000000000e+00
7.950000000000000000e+02,8.325484672441687550e-01,0.000000000000000000e+00
7.960000000000000000e+02,1.211960891497014803e+00,0.000000000000000000e+00
7.970000000000000000e+02,9.367317041214304751e-01,0.000000000000000000e+00
7.980000000000000000e+02,3.067991025112054571e-01,0.000000000000000000e+00
7.990000000000000000e+02,-3.449569521320424714e-01,0.000000000000000000e+00
8.000000000000000000e+02,-6.556980325913955854e-01,0.000000000000000000e+00
8.010000000000000000e+02,-1.047651832362464397e+00,0.000000000000000000e+00
8.020000000000000000e+02,-9.542635599522852896e-01,0.000000000000000000e+00
8.030000000000000000e+02,-8.709250955153473583e-01,0.000000000000000000e+00
8.040000000000000000e+02,-7.165433709994640799e-01,0.000000000000000000e+00
8.050000000000000000e+02,-7.188986431000551347e-01,0.000000000000000000e+00
8.060000000000000000e+02,-6.144627405470670656e-01,0.000000000000000000e+00
8.070000000000000000e+02,-4.566773225489128007e-01,0.000000000000000000e+00
8.080000000000000000e+02,-5.673050021270499288e-01,0.000000000000000000e+00
8.090000000000000000e+02,-3.602920105612336110e-01,0.000000000000000000e+00
8.100000000000000000e+02,-3.569254866908356250e-01,0.000000000000000000e+00
8.110000000000000000e+02,-2.568097861121680370e-01,0.000000000000000000e+00
8.120000000000000000e+02,-1.852472028035032359e-01,0.000000000000000000e+00
8.130000000000000000e+02,-1.372918703385967165e-01,0.000000000000000000e+00
8.140000000000000000e+02,-2.583790350154369087e-01,0.000000000000000000e+00
8.150000000000000000e+02,-4.966666012008991160e-02,0.000000000000000000e+00
8.160000000000000000e+02,-1.694956854726742956e-01,0.000000000000000000e+00
8.170000000000000000e+02,-6.513620093107032327e-02,0.000000000000000000e+00
8.180000000000000000e+02,-5.334557183200974023e-02,0.000000000000000000e+00
8.190000000000000000e+02,5.450573228221081146e-02,0.000000000000000000e+00
8.200000000000000000e+02,-9.267973464233547620e-02,0.000000000000000000e+00
8.210000000000000000e+02,1.357849589752973540e-01,0.000000000000000000e+00
8.220000000000000000e+02,1.382312858816782224e-02,0.000000000000000000e+00
8.230000000000000000e+02,1.409514140203486088e-01,0.000000000000000000e+00
8.240000000000000000e+02,2.058510754356822625e-01,0.000000000000000000e+00
8.250000000000000000e+02,3.166013107970033769e-01,0.000000000000000000e+00
8.260000000000000000e+02,6.257423070032176460e-01,0.000000000000000000e+00
8.270000000000000000e+02,4.921467241066149745e-01,0.000000000000000000e+00
8.280000000000000000e+02,3.922758994755045081e-01,0.000000000000000000e+00
8.290000000000000000e+02,9.581657160002811369e-02,0.000000000000000000e+00
8.300000000000000000e+02,-2.986967089622671184e-02,0.000000000000000000e+00
8.310000000000000000e+02,-8.240314088838933057e-03,0.000000000000000000e+00
8.320000000000000000e+02,2.603828444036016335e-02,0.000000000000000000e+00
8.330000000000000000e+02,1.834961914602974697e-01,0.000000000000000000e+00
8.340000000000000000e+02,5.325994153359276950e-01,0.000000000000000000e+00
8.350000000000000000e+02,5.790204812931596834e+00,0.000000000000000000e+00
8.360000000000000000e+02,8.798284117627978018e-01,1.000000000000000000e+00
8.370000000000000000e+02,-2.651511506579942612e+00,0.000000000000000000e+00
8.380000000000000000e+02,-3.174154432678961690e-01,0.000000000000000000e+00
8.390000000000000000e+02,-7.654489182963190030e-01,0.000000000000000000e+00
8.400000000000000000e+02,-1.676172237587285341e-01,0.000000000000000000e+00
8.410000000000000000e+02,-3.835415108477592816e-01,0.000000000000000000e+00
8.420000000000000000e+02,-1.027868707777719465e-01,0.000000000000000000e+00
8.430000000000000000e+02,-2.051757304687009675e-01,0.000000000000000000e+00
8.440000000000000000e+02,3.590164114202850504e-02,0.000000000000000000e+00
8.450000000000000000e+02,-9.644639996290629846e-02,0.000000000000000000e+00
8.460000000000000000e+02,3.915184922608993534e-01,0.000000000000000000e+00
8.470000000000000000e+02,4.041418174392475970e-01,0.000000000000000000e+00
8.480000000000000000e+02,8.599483934936014151e-01,0.000000000000000000e+00
8.490000000000000000e+02,9.809116630871466125e-01,0.000000000000000000e+00
8.500000000000000000e+02,1.122433589184590463e+00,0.000000000000000000e+00
8.510000000000000000e+02,7.887265615758420889e-01,0.000000000000000000e+00
8.520000000000000000e+02,3.464202703068448019e-01,0.000000000000000000e+00
8.530000000000000000e+02,-5.794565711587709167e-01,0.000000000000000000e+00
8.540000000000000000e+02,-8.905506776425932136e-01,0.000000000000000000e+00
8.550000000000000000e+02,-1.080826579465429704e+00,0.000000000000000000e+00
8.560000000000000000e+02,-8.909647244786632614e-01,0.000000000000000000e+00
8.570000000000000000e+02,-9.207289226339164800e-01,0.000000000000000000e+00
8.580000000000000000e+02,-7.173854795899373693e-01,0.000000000000000000e+00
8.590000000000000000e+02,-8.005245778742132723e-01,0.000000000000000000e+00
8.600000000000000000e+02,-6.744897044232596173e-01,0.000000000000000000e+00
8.610000000000000000e+02,-5.677345471756788386e-01,0.000000000000000000e+00
8.620000000000000000e+02,-4.643811983152129619e-01,0.000000000000000000e+00
8.630000000000000000e+02,-4.455797198212644861e-01,0.000000000000000000e+00
8.640000000000000000e+02,-4.052850271306769336e-01,0.000000000000000000e+00
8.650000000000000000e+02,-2.174403291033064345e-01,0.000000000000000000e+00
8.660000000000000000e+02,-1.795497876633959378e-01,0.000000000000000000e+00
8.670000000000000000e+02,-2.904467209215819135e-01,0.000000000000000000e+00
8.680000000000000000e+02,-3.044665554333919610e-01,0.000000000000000000e+00
8.690000000000000000e+02,-1.621027865641991583e-01,0.000000000000000000e+00
8.700000000000000000e+02,-1.885057065481785810e-01,0.000000000000000000e+00
8.710000000000000000e+02,-1.286235663895885228e-01,0.000000000000000000e+00
8.720000000000000000e+02,-4.202262951027641025e-02,0.000000000000000000e+00
8.730000000000000000e+02,3.156290829776804002e-02,0.000000000000000000e+00
8.740000000000000000e+02,-1.444122792782292219e-01,0.000000000000000000e+00
8.750000000000000000e+02,-1.604858400110777716e-05,0.000000000000000000e+00
8.760000000000000000e+02,5.402862347830429679e-02,0.000000000000000000e+00
8.770000000000000000e+02,3.164349804276158501e-02,0.000000000000000000e+00
8.780000000000000000e+02,2.269925958775869390e-01,0.000000000000000000e+00
8.790000000000000000e+02,1.946930164538310803e-01,0.000000000000000000e+00
8.800000000000000000e+02,4.412140623702567876e-01,0.000000000000000000e+00
8.810000000000000000e+02,4.178184011140250176e-01,0.000000000000000000e+00
8.820000000000000000e+02,1.064177238395124653e-01,0.000000000000000000e+00
8.830000000000000000e+02,3.499642184919875970e-02,0.000000000000000000e+00
8.840000000000000000e+02,2.354505387405380831e-02,0.000000000000000000e+00
8.850000000000000000e+02,8.597330475345407730e-02,0.000000000000000000e+00
8.860000000000000000e+02,-4.014050587856262536e-02,0.000000000000000000e+00
8.870000000000000000e+02,-6.616476750493159587e-02,0.000000000000000000e+00
8.880000000000000000e+02,1.168370540205205366e+00,0.000000000000000000e+00
8.890000000000000000e+02,5.736083256701130395e+00,0.000000000000000000e+00
8.900000000000000000e+02,-9.451974606792980238e-02,1.000000000000000000e+00
8.910000000000000000e+02,-2.060907673280794938e+00,0.000000000000000000e+00
8.920000000000000000e+02,-3.350723633339504071e-01,0.000000000000000000e+00
8.930000000000000000e+02,-6.500691603013782904e-01,0.000000000000000000e+00
8.940000000000000000e+02,-2.340781068656744568e-01,0.000000000000000000e+00
8.950000000000000000e+02,-5.344167669592847503e-01,0.000000000000000000e+00
8.960000000000000000e+02,-5.560287105347422321e-02,0.000000000000000000e+00
8.970000000000000000e+02,-2.440963281759108705e-01,0.000000000000000000e+00
8.980000000000000000e+02,6.875883103565481880e-02,0.000000000000000000e+00
8.990000000000000000e+02,-3.447569347755720381e-02,0.000000000000000000e+00
9.000000000000000000e+02,3.573765375942826172e-01,0.000000000000000000e+00
9.010000000000000000e+02,3.671592277276860550e-01,0.000000000000000000e+00
9.020000000000000000e+02,7.223070938820667086e-01,0.000000000000000000e+00
9.030000000000000000e+02,9.574607980482251479e-01,0.000000000000000000e+00
9.040000000000000000e+02,1.141434391764214684e+00,0.000000000000000000e+00
9.050000000000000000e+02,7.917241313557732418e-01,0.000000000000000000e+00
9.060000000000000000e+02,5.962981958049538150e-02,0.000000000000000000e+00
9.070000000000000000e+02,-5.188578345735390673e-01,0.000000000000000000e+00
9.080000000000000000e+02,-9.116122080914275116e-01,0.000000000000000000e+00
9.090000000000000000e+02,-1.053015953785989112e+00,0.000000000000000000e+00
9.100000000000000000e+02,-8.233199626092052581e-01,0.000000000000000000e+00
9.110000000000000000e+02,-7.918465578320179610e-01,0.000000000000000000e+00
9.120000000000000000e+02,-7.504543675135756375e-01,0.000000000000000000e+00
9.130000000000000000e+02,-7.149797849025424368e-01,0.000000000000000000e+00
9.140000000000000000e+02,-5.779600175126429207e-01,0.000000000000000000e+00
9.150000000000000000e+02,-6.209703383599038951e-01,0.000000000000000000e+00
9.160000000000000000e+02,-3.909696816630310323e-01,0.000000000000000000e+00
9.170000000000000000e+02,-3.863734758020090920e-01,0.000000000000000000e+00
9.180000000000000000e+02,-1.417257154234168037e-01,0.000000000000000000e+00
9.190000000000000000e+02,-2.956607539248181094e-01,0.000000000000000000e+00
9.200000000000000000e+02,-1.774568935206956022e-01,0.000000000000000000e+00
9.210000000000000000e+02,-2.640699828256721782e-01,0.000000000000000000e+00
9.220000000000000000e+02,-5.484238377217977300e-02,0.000000000000000000e+00
9.230000000000000000e+02,-1.680530301739875665e-01,0.000000000000000000e+00
9.240000000000000000e+02,-1.684126585492762840e-01,0.000000000000000000e+00
9.250000000000000000e+02,-1.135460816956579966e-01,0.000000000000000000e+00
9.260000000000000000e+02,-8.604509297100276441e-03,0.000000000000000000e+00
9.270000000000000000e+02,-1.752975938890911911e-01,0.000000000000000000e+00
9.280000000000000000e+02,1.004355385232074960e-01,0.000000000000000000e+00
9.290000000000000000e+02,1.152937999069885838e-01,0.000000000000000000e+00
9.300000000000000000e+02,-5.595771594555789402e-02,0.000000000000000000e+00
9.310000000000000000e+02,2.073905857206590764e-01,0.000000000000000000e+00
9.320000000000000000e+02,1.412847157377138119e-01,0.000000000000000000e+00
9.330000000000000000e+02,4.891553017867690811e-01,0.000000000000000000e+00
9.340000000000000000e+02,5.788982573197749559e-01,0.000000000000000000e+00
9.350000000000000000e+02,4.284180880589171792e-01,0.000000000000000000e+00
9.360000000000000000e+02,3.233970236424479339e-01,0.000000000000000000e+00
9.370000000000000000e+02,-5.831200261117851225e-02,0.000000000000000000e+00
9.380000000000000000e+02,-3.088980452328930239e-03,0.000000000000000000e+00
9.390000000000000000e+02,-6.816888980927451880e-02,0.000000000000000000e+00
9.400000000000000000e+02,1.740833274518720220e-01,0.000000000000000000e+00
9.410000000000000000e+02,-1.154391375859727953e-01,0.000000000000000000e+00
9.420000000000000000e+02,1.697531482468024322e+00,0.000000000000000000e+00
9.430000000000000000e+02,6.165623451538859712e+00,0.000000000000000000e+00
9.440000000000000000e+02,-8.597857931636595508e-01,1.000000000000000000e+00
9.450000000000000000e+02,-1.967816251802480432e+00,0.000000000000000000e+00
9.460000000000000000e+02,-2.582640330153639918e-01,0.000000000000000000e+00
9.470000000000000000e+02,-6.652593432379221294e-01,0.000000000000000000e+00
9.480000000000000000e+02,-3.216901681817206926e-01,0.000000000000000000e+00
9.490000000000000000e+02,-4.238666059176461887e-01,0.000000000000000000e+00
9.500000000000000000e+02,-1.954696571499987823e-01,0.000000000000000000e+00
9.510000000000000000e+02,-2.490763716311469311e-01,0.000000000000000000e+00
9.520000000000000000e+02,1.192694469765048920e-01,0.000000000000000000e+00
9.530000000000000000e+02,1.428536100707228536e-02,0.000000000000000000e+00
9.540000000000000000e+02,2.581722070041048145e-01,0.000000000000000000e+00
9.550000000000000000e+02,4.316134363351703529e-01,0.000000000000000000e+00
9.560000000000000000e+02,8.617802973031580827e-01,0.000000000000000000e+00
9.570000000000000000e+02,1.007829919267531738e+00,0.000000000000000000e+00
9.580000000000000000e+02,1.189656675180309930e+00,0.000000000000000000e+00
9.590000000000000000e+02,6.917462344397957708e-01,0.000000000000000000e+00
9.600000000000000000e+02,6.088421595964928212e-02,0.000000000000000000e+00
9.610000000000000000e+02,-6.018454488937321489e-01,0.000000000000000000e+00
9.620000000000000000e+02,-7.773785118309309849e-01,0.000000000000000000e+00
9.630000000000000000e+02,-1.043580694348452242e+00,0.000000000000000000e+00
9.640000000000000000e+02,-9.839258612910366519e-01,0.000000000000000000e+00
9.650000000000000000e+02,-7.188655949493393260e-01,0.000000000000000000e+00
9.660000000000000000e+02,-7.398192745173812757e-01,0.000000000000000000e+00
9.670000000000000000e+02,-8.386994816008657150e-01,0.000000000000000000e+00
9.680000000000000000e+02,-5.518544454324632031e-01,0.000000000000000000e+00
9.690000000000000000e+02,-5.564205581672375667e-01,0.000000000000000000e+00
9.700000000000000000e+02,-3.648681642057018948e-01,0.000000000000000000e+00
9.710000000000000000e+02,-4.156468202891058228e-01,0.000000000000000000e+00
9.720000000000000000e+02,-3.297088424874859980e-01,0.000000000000000000e+00
9.730000000000000000e+02,-2.872499186507975200e-01,0.000000000000000000e+00
9.740000000000000000e+02,-3.234837050266027858e-01,0.000000000000000000e+00
9.750000000000000000e+02,-1.508159967804636181e-01,0.000000000000000000e+00
9.760000000000000000e+02,-1.500193054273693816e-01,0.000000000000000000e+00
9.770000000000000000e+02,-1.254268915148146479e-01,0.000000000000000000e+00
9.780000000000000000e+02,-8.962387581212780119e-02,0.000000000000000000e+00
9.790000000000000000e+02,-1.864621327791896876e-01,0.000000000000000000e+00
9.800000000000000000e+02,5.411029046463966541e-02,0.000000000000000000e+00
9.810000000000000000e+02,1.403041336176529819e-01,0.000000000000000000e+00
9.820000000000000000e+02,-2.459695623068729013e-03,0.000000000000000000e+00
9.830000000000000000e+02,8.527966160700601803e-03,0.000000000000000000e+00
9.840000000000000000e+02,6.486494462978556474e-02,0.000000000000000000e+00
9.850000000000000000e+02,3.034351174882017887e-01,0.000000000000000000e+00
9.860000000000000000e+02,2.349245042359044133e-01,0.000000000000000000e+00
9.870000000000000000e+02,4.199583120671370184e-01,0.000000000000000000e+00
9.880000000000000000e+02,5.089437358358122054e-01,0.000000000000000000e+00
9.890000000000000000e+02,4.941433500064431050e-01,0.000000000000000000e+00
9.900000000000000000e+02,4.368082615544927605e-01,0.000000000000000000e+00
9.910000000000000000e+02,1.847013353795120549e-01,0.000000000000000000e+00
9.920000000000000000e+02,-1.233263110711946414e-01,0.000000000000000000e+00
9.930000000000000000e+02,1.599222369768097951e-01,0.000000000000000000e+00
9.940000000000000000e+02,-6.000781726421794415e-02,0.000000000000000000e+00
9.950000000000000000e+02,1.305710987878624940e-01,0.000000000000000000e+00
9.960000000000000000e+02,-2.154309559986828659e-01,0.000000000000000000e+00
9.970000000000000000e+02,4.714183969035889987e+00,0.000000000000000000e+00
9.980000000000000000e+02,3.205011699062731534e+00,1.000000000000000000e+00
9.990000000000000000e+02,-2.956890447870009542e+00,0.000000000000000000e+00
1.000000000000000000e+03,-5.101556082158358318e-01,0.000000000000000000e+00
1.001000000000000000e+03,-8.577269703144877466e-01,0.000000000000000000e+00
1.002000000000000000e+03,-2.873495333050265499e-01,0.000000000000000000e+00
1.003000000000000000e+03,-6.161425076957914859e-01,0.000000000000000000e+00
1.004000000000000000e+03,-1.136024723622240939e-01,0.000000000000000000e+00
1.005000000000000000e+03,-3.141112140057116808e-01,0.000000000000000000e+00
1.006000000000000000e+03,6.294014153918660315e-02,0.000000000000000000e+00
1.007000000000000000e+03,-1.491787903409983740e-01,0.000000000000000000e+00
1.008000000000000000e+03,2.657114704126310456e-01,0.000000000000000000e+00
1.009000000000000000e+03,2.691678522561085085e-01,0.000000000000000000e+00
1.010000000000000000e+03,8.028580214005368587e-01,0.000000000000000000e+00
1.011000000000000000e+03,8.980519451439005207e-01,0.000000000000000000e+00
1.012000000000000000e+03,1.123193519999595491e+00,0.000000000000000000e+00
1.013000000000000000e+03,9.009580328647885938e-01,0.000000000000000000e+00
1.014000000000000000e+03,4.283438142046954722e-01,0.000000000000000000e+00
1.015000000000000000e+03,-4.307610260154486337e-01,0.000000000000000000e+00
1.016000000000000000e+03,-6.765247557492763963e-01,0.000000000000000000e+00
1.017000000000000000e+03,-9.809122733906404656e-01,0.000000000000000000e+00
1.018000000000000000e+03,-1.039191295011517413e+00,0.000000000000000000e+00
1.019000000000000000e+03,-9.077824885262584242e-01,0.000000000000000000e+00
1.020000000000000000e+03,-9.253849960301842037e-01,0.000000000000000000e+00
1.021000000000000000e+03,-6.987494763357912086e-01,0.000000000000000000e+00
1.022000000000000000e+03,-7.281609581927046548e-01,0.000000000000000000e+00
1.023000000000000000e+03,-7.245374862672212535e-01,0.000000000000000000e+00
1.024000000000000000e+03,-4.409763189089822011e-01,0.000000000000000000e+00
1.025000000000000000e+03,-4.892391456739261235e-01,0.000000000000000000e+00
1.026000000000000000e+03,-2.857367706848966127e-01,0.000000000000000000e+00
1.027000000000000000e+03,-3.937423181571964026e-01,0.000000000000000000e+00
1.028000000000000000e+03,-1.744349172872577403e-01,0.000000000000000000e+00
1.029000000000000000e+03,-3.194524510631876479e-01,0.000000000000000000e+00
1.030000000000000000e+03,-2.434806448221242536e-01,0.000000000000000000e+00
1.031000000000000000e+03,-1.625885874397564324e-01,0.000000000000000000e+00
1.032000000000000000e+03,-1.287691499132351536e-01,0.000000000000000000e+00
1.033000000000000000e+03,-1.755133717362195866e-01,0.000000000000000000e+00
1.034000000000000000e+03,-1.412395312353170451e-01,0.000000000000000000e+00
1.035000000000000000e+03,-7.444450803948453321e-02,0.000000000000000000e+00
1.036000000000000000e+03,1.160954096517587963e-01,0.000000000000000000e+00
1.037000000000000000e+03,-5.054815785076102047e-03,0.000000000000000000e+00
1.038000000000000000e+03,-1.415202127022351358e-03,0.000000000000000000e+00
1.039000000000000000e+03,2.163881353217341208e-01,0.000000000000000000e+00
1.040000000000000000e+03,4.855147842517051893e-02,0.000000000000000000e+00
1.041000000000000000e+03,2.128378460690389662e-01,0.000000000000000000e+00
1.042000000000000000e+03,4.057003624294476252e-01,0.000000000000000000e+00
1.043000000000000000e+03,4.674473187042735844e-01,0.000000000000000000e+00
1.044000000000000000e+03,3.828318536877120537e-01,0.000000000000000000e+00
1.045000000000000000e+03,5.934979289368785133e-02,0.000000000000000000e+00
1.046000000000000000e+03,-4.720285599419348638e-02,0.000000000000000000e+00
1.047000000000000000e+03,1.213974194178588789e-01,0.000000000000000000e+00
1.048000000000000000e+03,-8.083843608473907649e-02,0.000000000000000000e+00
1.049000000000000000e+03,9.564849634570267434e-02,0.000000000000000000e+00
1.050000000000000000e+03,2.181452006515838260e-01,0.000000000000000000e+00
1.051000000000000000e+03,5.442458124390478602e+00,0.000000000000000000e+00
1.052000000000000000e+03,1.701726955661738705e+00,1.000000000000000000e+00
1.053000000000000000e+03,-2.690176142365079404e+00,0.000000000000000000e+00
1.054000000000000000e+03,-2.724538556145747470e-01,0.000000000000000000e+00
1.055000000000000000e+03,-8.818482512570098297e-01,0.000000000000000000e+00
1.056000000000000000e+03,-1.421681813584382281e-01,0.000000000000000000e+00
1.057000000000000000e+03,-5.701829959832025452e-01,0.000000000000000000e+00
1.058000000000000000e+03,-1.076333507685572483e-01,0.000000000000000000e+00
1.059000000000000000e+03,-2.191822108594578544e-01,0.000000000000000000e+00
1.060000000000000000e+03,1.664594247145978756e-01,0.000000000000000000e+00
1.061000000000000000e+03,-1.758191900387363060e-01,0.000000000000000000e+00
1.062000000000000000e+03,3.096505376395003450e-01,0.000000000000000000e+00
1.063000000000000000e+03,3.007630438654158023e-01,0.000000000000000000e+00
1.064000000000000000e+03,9.360464199217166659e-01,0.000000000000000000e+00
1.065000000000000000e+03,9.243904350827517602e-01,0.000000000000000000e+00
1.066000000000000000e+03,1.225637400515726005e+00,0.000000000000000000e+00
1.067000000000000000e+03,8.486848191875681069e-01,0.000000000000000000e+00
1.068000000000000000e+03,4.569452573148950481e-01,0.000000000000000000e+00
1.069000000000000000e+03,-5.067879276600582017e-01,0.000000000000000000e+00
1.070000000000000000e+03,-7.238746501674276912e-01,0.000000000000000000e+00
1.071000000000000000e+03,-8.914872689312208776e-01,0.000000000000000000e+00
1.072000000000000000e+03,-8.394163890951690243e-01,0.000000000000000000e+00
1.073000000000000000e+03,-9.070152555286268292e-01,0.000000000000000000e+00
1.074000000000000000e+03,-6.973630728215802765e-01,0.000000000000000000e+00
1.075000000000000000e+03,-8.314681070663849649e-01,0.000000000000000000e+00
1.076000000000000000e+03,-5.706973206169114743e-01,0.000000000000000000e+00
1.077000000000000000e+03,-6.080935920142632733e-01,0.000000000000000000e+00
1.078000000000000000e+03,-4.028424960024480361e-01,0.000000000000000000e+00
1.079000000000000000e+03,-3.602877168937260732e-01,0.000000000000000000e+00
1.080000000000000000e+03,-2.908070256360372197e-01,0.000000000000000000e+00
1.081000000000000000e+03,-3.149300013627685524e-01,0.000000000000000000e+00
1.082000000000000000e+03,-1.363961910087628515e-01,0.000000000000000000e+00
1.083000000000000000e+03,-2.581458761309800010e-01,0.000000000000000000e+00
1.084000000000000000e+03,-1.793287281398079080e-01,0.000000000000000000e+00
1.085000000000000000e+03,-1.258361950840092280e-01,0.000000000000000000e+00
1.086000000000000000e+03,-1.728095467600437030e-01,0.000000000000000000e+00
1.087000000000000000e+03,-4.094160560658908349e-02,0.000000000000000000e+00
1.088000000000000000e+03,-8.935183154869054400e-02,0.000000000000000000e+00
1.089000000000000000e+03,-3.312501163311788819e-03,0.000000000000000000e+00
1.090000000000000000e+03,4.249967231991724770e-02,0.000000000000000000e+00
1.091000000000000000e+03,9.088681088213505788e-02,0.000000000000000000e+00
1.092000000000000000e+03,1.371846290400735927e-02,0.000000000000000000e+00
1.093000000000000000e+03,1.835443971395906981e-01,0.000000000000000000e+00
1.094000000000000000e+03,1.691692257795738563e-01,0.000000000000000000e+00
1.095000000000000000e+03,3.047840108207692245e-01,0.000000000000000000e+00
1.096000000000000000e+03,4.528745632578393687e-01,0.000000000000000000e+00
1.097000000000000000e+03,5.545726649859952229e-01,0.000000000000000000e+00
1.098000000000000000e+03,3.740314405040757184e-01,0.000000000000000000e+00
1.099000000000000000e+03,2.711692774884535972e-01,0.000000000000000000e+00
1.100000000000000000e+03,4.501201564758659096e-02,0.000000000000000000e+00
1.101000000000000000e+03,3.734763869260053493e-02,0.000000000000000000e+00
1.102000000000000000e+03,-1.323194948118282810e-01,0.000000000000000000e+00
1.103000000000000000e+03,1.793462025233499013e-01,0.000000000000000000e+00
1.104000000000000000e+03,-4.012301405148896438e-01,0.000000000000000000e+00
1.105000000000000000e+03,3.480345132192847135e+00,0.000000000000000000e+00
1.106000000000000000e+03,5.002741402819363081e+00,0.000000000000000000e+00
1.107000000000000000e+03,-2.351127417627579153e+00,1.000000000000000000e+00
1.108000000000000000e+03,-9.880862537977935789e-01,0.000000000000000000e+00
1.109000000000000000e+03,-7.967663721432048929e-01,0.000000000000000000e+00
1.110000000000000000e+03,-3.526649310404022519e-01,0.000000000000000000e+00
1.111000000000000000e+03,-6.985743418876854127e-01,0.000000000000000000e+00
1.112000000000000000e+03,-1.047800660331950490e-01,0.000000000000000000e+00
1.113000000000000000e+03,-3.160431074649808214e-01,0.000000000000000000e+00
1.114000000000000000e+03,-1.458275777564730369e-01,0.000000000000000000e+00
1.115000000000000000e+03,-2.825614744042929602e-02,0.000000000000000000e+00
1.116000000000000000e+03,1.487644793454949710e-01,0.000000000000000000e+00
1.117000000000000000e+03,7.799763936191952962e-02,0.000000000000000000e+00
1.118000000000000000e+03,6.678416806875705491e-01,0.000000000000000000e+00
1.119000000000000000e+03,8.170064199207303091e-01,0.000000000000000000e+00
1.120000000000000000e+03,1.110996672723273848e+00,0.000000000000000000e+00
1.121000000000000000e+03,1.047906266834905731e+00,0.000000000000000000e+00
1.122000000000000000e+03,5.405203150351720609e-01,0.000000000000000000e+00
1.123000000000000000e+03,-2.567990350021147616e-01,0.000000000000000000e+00
1.124000000000000000e+03,-5.952453168699441965e-01,0.000000000000000000e+00
1.125000000000000000e+03,-9.455734549380040432e-01,0.000000000000000000e+00
1.126000000000000000e+03,-8.203081745502255329e-01,0.000000000000000000e+00
1.127000000000000000e+03,-1.007235870586421056e+00,0.000000000000000000e+00
1.128000000000000000e+03,-8.768604329517363238e-01,0.000000000000000000e+00
1.129000000000000000e+03,-8.472663318062925164e-01,0.000000000000000000e+00
1.130000000000000000e+03,-6.197928989509415842e-01,0.000000000000000000e+00
1.131000000000000000e+03,-6.997699457444355176e-01,0.000000000000000000e+00
1.132000000000000000e+03,-3.562192060554839612e-01,0.000000000000000000e+00
1.133000000000000000e+03,-5.374232115812848098e-01,0.000000000000000000e+00
1.134000000000000000e+03,-3.069824638557812069e-01,0.000000000000000000e+00
1.135000000000000000e+03,-3.822995822832628288e-01,0.000000000000000000e+00
1.136000000000000000e+03,-2.409726160940911521e-01,0.000000000000000000e+00
1.137000000000000000e+03,-3.295988221397464502e-01,0.000000000000000000e+00
1.138000000000000000e+03,-8.053710849851672404e-02,0.000000000000000000e+00
1.139000000000000000e+03,-1.223829511357728134e-01,0.000000000000000000e+00
1.140000000000000000e+03,-9.866541452860644323e-02,0.000000000000000000e+00
1.141000000000000000e+03,-2.263248329842641460e-01,0.000000000000000000e+00
1.142000000000000000e+03,-1.400329789298672238e-02,0.000000000000000000e+00
1.143000000000000000e+03,-1.077162675832025879e-01,0.000000000000000000e+00
1.144000000000000000e+03,8.620270550080395833e-02,0.000000000000000000e+00
1.145000000000000000e+03,-1.850113956575000218e-01,0.000000000000000000e+00
1.146000000000000000e+03,1.589808698930044450e-01,0.000000000000000000e+00
1.147000000000000000e+03,-1.261330966761870301e-02,0.000000000000000000e+00
1.148000000000000000e+03,2.995863680903718129e-01,0.000000000000000000e+00
1.149000000000000000e+03,7.648440965622187171e-02,0.000000000000000000e+00
1.150000000000000000e+03,4.814699258121444836e-01,0.000000000000000000e+00
1.151000000000000000e+03,3.056587018295879310e-01,0.000000000000000000e+00
1.152000000000000000e+03,6.773650362532479541e-01,0.000000000000000000e+00
1.153000000000000000e+03,1.858678807129879595e-01,0.000000000000000000e+00
1.154000000000000000e+03,2.318958601045748857e-01,0.000000000000000000e+00
1.155000000000000000e+03,-7.372135719049992264e-02,0.000000000000000000e+00
1.156000000000000000e+03,1.839557466283116005e-01,0.000000000000000000e+00
1.157000000000000000e+03,-2.445224257523263833e-01,0.000000000000000000e+00
1.158000000000000000e+03,2.035340075140739668e-01,0.000000000000000000e+00
1.159000000000000000e+03,3.393049094387206588e-01,0.000000000000000000e+00
1.160000000000000000e+03,6.097396573582543056e+00,0.000000000000000000e+00
1.161000000000000000e+03,1.086586747905610384e+00,1.000000000000000000e+00
1.162000000000000000e+03,-2.592677883615565726e+00,0.000000000000000000e+00
1.163000000000000000e+03,-4.609059565071739195e-01,0.000000000000000000e+00
1.164000000000000000e+03,-7.592128841731256017e-01,0.000000000000000000e+00
1.165000000000000000e+03,-3.327941995473269188e-01,0.000000000000000000e+00
1.166000000000000000e+03,-6.960305786270248873e-01,0.000000000000000000e+00
1.167000000000000000e+03,-5.737925467715560696e-02,0.000000000000000000e+00
1.168000000000000000e+03,-3.712940078305404512e-01,0.000000000000000000e+00
1.169000000000000000e+03,-2.967262927562517097e-02,0.000000000000000000e+00
1.170000000000000000e+03,6.739994153620791628e-02,0.000000000000000000e+00
1.171000000000000000e+03,2.239865064017303453e-01,0.000000000000000000e+00
1.172000000000000000e+03,3.626322634681586887e-01,0.000000000000000000e+00
1.173000000000000000e+03,8.217632027014944995e-01,0.000000000000000000e+00
1.174000000000000000e+03,1.033682707839478132e+00,0.000000000000000000e+00
1.175000000000000000e+03,1.095503111248256722e+00,0.000000000000000000e+00
1.176000000000000000e+03,9.208857938669207099e-01,0.000000000000000000e+00
1.177000000000000000e+03,3.243400079323812135e-01,0.000000000000000000e+00
1.178000000000000000e+03,-4.437769970657831631e-01,0.000000000000000000e+00
1.179000000000000000e+03,-9.483076877134569704e-01,0.000000000000000000e+00
1.180000000000000000e+03,-9.477665353547007898e-01,0.000000000000000000e+00
1.181000000000000000e+03,-8.960182047488013390e-01,0.000000000000000000e+00
1.182000000000000000e+03,-9.396511562440107435e-01,0.000000000000000000e+00
1.183000000000000000e+03,-8.418705227916911671e-01,0.000000000000000000e+00
1.184000000000000000e+03,-6.818566186245652583e-01,0.000000000000000000e+00
1.185000000000000000e+03,-7.798326599229401523e-01,0.000000000000000000e+00
1.186000000000000000e+03,-5.123798647503000625e-01,0.000000000000000000e+00
1.187000000000000000e+03,-3.835993420169974133e-01,0.000000000000000000e+00
1.188000000000000000e+03,-4.299168906135116264e-01,0.000000000000000000e+00
1.189000000000000000e+03,-3.852069733595355761e-01,0.000000000000000000e+00
1.190000000000000000e+03,-2.165540394919796274e-01,0.000000000000000000e+00
1.191000000000000000e+03,-3.179109378792871476e-01,0.000000000000000000e+00
1.192000000000000000e+03,-2.517474505034107413e-01,0.000000000000000000e+00
1.193000000000000000e+03,-9.361389599952095464e-02,0.000000000000000000e+00
1.194000000000000000e+03,-1.569286398159908114e-01,0.000000000000000000e+00
1.195000000000000000e+03,-3.097676842107823236e-01,0.000000000000000000e+00
1.196000000000000000e+03,-2.410360556073704377e-02,0.000000000000000000e+00
1.197000000000000000e+03,-5.708291454104225116e-02,0.000000000000000000e+00
1.198000000000000000e+03,-5.105144687490768829e-02,0.000000000000000000e+00
1.199000000000000000e+03,-2.382876057449180573e-02,0.000000000000000000e+00
1.200000000000000000e+03,1.041384354000927243e-01,0.000000000000000000e+00
1.201000000000000000e+03,-6.285352922106586526e-03,0.000000000000000000e+00
1.202000000000000000e+03,1.233195509936804851e-01,0.000000000000000000e+00
1.203000000000000000e+03,1.173220499134963041e-01,0.000000000000000000e+00
1.204000000000000000e+03,3.418878059816111703e-01,0.000000000000000000e+00
1.205000000000000000e+03,4.264066369052088024e-01,0.000000000000000000e+00
1.206000000000000000e+03,4.670181574853108919e-01,0.000000000000000000e+00
1.207000000000000000e+03,3.545846643768742479e-01,0.000000000000000000e+00
1.208000000000000000e+03,3.172854798053282854e-01,0.000000000000000000e+00
1.209000000000000000e+03,-6.390214807087866988e-02,0.000000000000000000e+00
1.210000000000000000e+03,2.024139312374872990e-01,0.000000000000000000e+00
1.211000000000000000e+03,-8.237880162166295872e-02,0.000000000000000000e+00
1.212000000000000000e+03,3.222401862606373291e-01,0.000000000000000000e+00
1.213000000000000000e+03,-4.075236712128795236e-01,0.000000000000000000e+00
1.214000000000000000e+03,2.820717831882319171e+00,0.000000000000000000e+00
1.215000000000000000e+03,5.140930029426817427e+00,0.000000000000000000e+00
1.216000000000000000e+03,-1.998339299618513198e+00,1.000000000000000000e+00
1.217000000000000000e+03,-1.317124613610432204e+00,0.000000000000000000e+00
1.218000000000000000e+03,-5.274700732905813760e-01,0.000000000000000000e+00
1.219000000000000000e+03,-4.946194630370758794e-01,0.000000000000000000e+00
1.220000000000000000e+03,-2.494550236131790888e-01,0.000000000000000000e+00
1.221000000000000000e+03,-2.660912224158212824e-01,0.000000000000000000e+00
1.222000000000000000e+03,-1.760822563737887425e-01,0.000000000000000000e+00
1.223000000000000000e+03,-5.525236487490781806e-02,0.000000000000000000e+00
1.224000000000000000e+03,6.608533672945764159e-02,0.000000000000000000e+00
1.225000000000000000e+03,1.006374322471387389e-01,0.000000000000000000e+00
1.226000000000000000e+03,4.040435589672961569e-01,0.000000000000000000e+00
1.227000000000000000e+03,7.027419631131570643e-01,0.000000000000000000e+00
1.228000000000000000e+03,8.062670576350661200e-01,0.000000000000000000e+00
1.229000000000000000e+03,1.050064492727027066e+00,0.000000000000000000e+00
1.230000000000000000e+03,1.080213661341792974e+00,0.000000000000000000e+00
1.231000000000000000e+03,5.816616942094721132e-01,0.000000000000000000e+00
1.232000000000000000e+03,5.973325925928506253e-02,0.000000000000000000e+00
1.233000000000000000e+03,-7.141064438393325275e-01,0.000000000000000000e+00
1.234000000000000000e+03,-9.242381641114254531e-01,0.000000000000000000e+00
1.235000000000000000e+03,-1.025129695095601479e+00,0.000000000000000000e+00
1.236000000000000000e+03,-1.042554727116481450e+00,0.000000000000000000e+00
1.237000000000000000e+03,-8.357761703358733696e-01,0.000000000000000000e+00
1.238000000000000000e+03,-7.586804277354582959e-01,0.000000000000000000e+00
1.239000000000000000e+03,-7.016848312803033449e-01,0.000000000000000000e+00
1.240000000000000000e+03,-6.433336379190723875e-01,0.000000000000000000e+00
1.241000000000000000e+03,-4.345681490006139125e-01,0.000000000000000000e+00
1.242000000000000000e+03,-4.179627465182409463e-01,0.000000000000000000e+00
1.243000000000000000e+03,-4.601160321418662491e-01,0.000000000000000000e+00
1.244000000000000000e+03,-2.401210658670860643e-01,0.000000000000000000e+00
1.245000000000000000e+03,-2.750062176852371421e-01,0.000000000000000000e+00
1.246000000000000000e+03,-3.124755768406533019e-01,0.000000000000000000e+00
1.247000000000000000e+03,-4.919430525496325257e-02,0.000000000000000000e+00
1.248000000000000000e+03,-2.615033574050286136e-01,0.000000000000000000e+00
1.249000000000000000e+03,-1.754959355037415680e-01,0.000000000000000000e+00
1.250000000000000000e+03,-1.269808967083898288e-01,0.000000000000000000e+00
1.251000000000000000e+03,6.697330546537691442e-03,0.000000000000000000e+00
1.252000000000000000e+03,-4.924842104079770605e-02,0.000000000000000000e+00
1.253000000000000000e+03,-1.013527900951029098e-01,0.000000000000000000e+00
1.254000000000000000e+03,3.339266860820905986e-02,0.000000000000000000e+00
1.255000000000000000e+03,-2.084901222327355599e-02,0.000000000000000000e+00
1.256000000000000000e+03,6.264563830304072101e-02,0.000000000000000000e+00
1.257000000000000000e+03,1.377842015513806306e-01,0.000000000000000000e+00
1.258000000000000000e+03,6.398513518757940888e-02,0.000000000000000000e+00
1.259000000000000000e+03,3.216749327646085677e-01,0.000000000000000000e+00
1.260000000000000000e+03,4.635984624873441540e-01,0.000000000000000000e+00
1.261000000000000000e+03,4.305568774457340098e-01,0.000000000000000000e+00
1.262000000000000000e+03,4.213668963862874928e-01,0.000000000000000000e+00
1.263000000000000000e+03,1.421595017145964313e-01,0.000000000000000000e+00
1.264000000000000000e+03,-1.540936946836521382e-01,0.000000000000000000e+00
1.265000000000000000e+03,2.223368739608508893e-01,0.000000000000000000e+00
1.266000000000000000e+03,-1.270809053456163906e-01,0.000000000000000000e+00
1.267000000000000000e+03,1.585413822560921004e-01,0.000000000000000000e+00
1.268000000000000000e+03,-2.399184882961537604e-02,0.000000000000000000e+00
1.269000000000000000e+03,5.164698136156079755e+00,0.000000000000000000e+00
1.270000000000000000e+03,2.578703679384318992e+00,1.000000000000000000e+00
1.271000000000000000e+03,-2.874056352287359228e+00,0.000000000000000000e+00
1.272000000000000000e+03,-3.575115191670054093e-01,0.000000000000000000e+00
1.273000000000000000e+03,-7.739588865254742878e-01,0.000000000000000000e+00
1.274000000000000000e+03,-2.904489919414536825e-01,0.000000000000000000e+00
1.275000000000000000e+03,-6.114469314791578514e-01,0.000000000000000000e+00
1.276000000000000000e+03,-8.761335416175530799e-02,0.000000000000000000e+00
1.277000000000000000e+03,-2.842226852742992804e-01,0.000000000000000000e+00
1.278000000000000000e+03,-3.319444090956674698e-02,0.000000000000000000e+00
1.279000000000000000e+03,-1.444376137194345877e-01,0.000000000000000000e+00
1.280000000000000000e+03,4.154982332868160655e-01,0.000000000000000000e+00
1.281000000000000000e+03,1.953906385413852198e-01,0.000000000000000000e+00
1.282000000000000000e+03,8.170883862170116307e-01,0.000000000000000000e+00
1.283000000000000000e+03,8.630409217803922672e-01,0.000000000000000000e+00
1.284000000000000000e+03,1.115245677782719991e+00,0.000000000000000000e+00
1.285000000000000000e+03,7.990712060857706467e-01,0.000000000000000000e+00
1.286000000000000000e+03,5.249553863674040199e-01,0.000000000000000000e+00
1.287000000000000000e+03,-5.151574594483466774e-01,0.000000000000000000e+00
1.288000000000000000e+03,-7.735459230249596141e-01,0.000000000000000000e+00
1.289000000000000000e+03,-1.018601174016793509e+00,0.000000000000000000e+00
1.290000000000000000e+03,-9.763410139131958321e-01,0.000000000000000000e+00
1.291000000000000000e+03,-7.594926054513287950e-01,0.000000000000000000e+00
1.292000000000000000e+03,-8.301690363346608814e-01,0.000000000000000000e+00
1.293000000000000000e+03,-8.491723700922093609e-01,0.000000000000000000e+00
1.294000000000000000e+03,-4.940451399232649865e-01,0.000000000000000000e+00
1.295000000000000000e+03,-6.960659043314332273e-01,0.000000000000000000e+00
1.296000000000000000e+03,-3.946999131054909071e-01,0.000000000000000000e+00
1.297000000000000000e+03,-4.474463411935349910e-01,0.000000000000000000e+00
1.298000000000000000e+03,-2.273100132014585217e-01,0.000000000000000000e+00
1.299000000000000000e+03,-4.289554788140524932e-01,0.000000000000000000e+00
1.300000000000000000e+03,-1.832894435499259345e-01,0.000000000000000000e+00
1.301000000000000000e+03,-3.293905048225782006e-01,0.000000000000000000e+00
1.302000000000000000e+03,-1.976852030812589756e-02,0.000000000000000000e+00
1.303000000000000000e+03,-2.105375034631173370e-01,0.000000000000000000e+00
1.304000000000000000e+03,6.131919932021032832e-03,0.000000000000000000e+00
1.305000000000000000e+03,-2.904916353991185973e-01,0.000000000000000000e+00
1.306000000000000000e+03,-3.767359236479535245e-02,0.000000000000000000e+00
1.307000000000000000e+03,-6.539645548814163045e-02,0.000000000000000000e+00
1.308000000000000000e+03,4.225276167884601392e-02,0.000000000000000000e+00
1.309000000000000000e+03,4.384728636468370605e-02,0.000000000000000000e+00
1.310000000000000000e+03,1.790098635420156181e-01,0.000000000000000000e+00
1.311000000000000000e+03,-4.610207686783639874e-02,0.000000000000000000e+00
1.312000000000000000e+03,3.260377052941306197e-01,0.000000000000000000e+00
1.313000000000000000e+03,1.048152676902668751e-01,0.000000000000000000e+00
1.314000000000000000e+03,4.778511309724630118e-01,0.000000000000000000e+00
1.315000000000000000e+03,4.045166825583075831e-01,0.000000000000000000e+00
1.316000000000000000e+03,6.078037806803288090e-01,0.000000000000000000e+00
1.317000000000000000e+03,2.211204267631625697e-01,0.000000000000000000e+00
1.318000000000000000e+03,3.375813165933803095e-01,0.000000000000000000e+00
1.319000000000000000e+03,-2.548916045449118317e-01,0.000000000000000000e+00
1.320000000000000000e+03,1.981582439846635846e-01,0.000000000000000000e+00
1.321000000000000000e+03,-8.909266045268283973e-02,0.000000000000000000e+00
1.322000000000000000e+03,1.581602058712982262e-01,0.000000000000000000e+00
1.323000000000000000e+03,9.339059093541672574e-02,0.000000000000000000e+00
1.324000000000000000e+03,5.902840186573046211e+00,0.000000000000000000e+00
1.325000000000000000e+03,1.778444472830958967e+00,1.000000000000000000e+00
1.326000000000000000e+03,-2.733683817712624808e+00,0.000000000000000000e+00
1.327000000000000000e+03,-3.660919516861122491e-01,0.000000000000000000e+00
1.328000000000000000e+03,-7.350413765492377349e-01,0.000000000000000000e+00
1.329000000000000000e+03,-4.441147692258026747e-01,0.000000000000000000e+00
1.330000000000000000e+03,-4.203495417749620877e-01,0.000000000000000000e+00
1.331000000000000000e+03,-2.996883473239511653e-01,0.000000000000000000e+00
1.332000000000000000e+03,-1.882005632404266660e-01,0.000000000000000000e+00
1.333000000000000000e+03,-1.407170672720788884e-01,0.000000000000000000e+00
1.334000000000000000e+03,2.372848656428183656e-02,0.000000000000000000e+00
1.335000000000000000e+03,2.365380733680731151e-01,0.000000000000000000e+00
1.336000000000000000e+03,2.397308956881854802e-01,0.000000000000000000e+00
1.337000000000000000e+03,6.157321722892835636e-01,0.000000000000000000e+00
1.338000000000000000e+03,9.660468540781197433e-01,0.000000000000000000e+00
1.339000000000000000e+03,1.007297249458124266e+00,0.000000000000000000e+00
1.340000000000000000e+03,1.064493992264505140e+00,0.000000000000000000e+00
1.341000000000000000e+03,1.889853647418050231e-01,0.000000000000000000e+00
1.342000000000000000e+03,-3.422219902688958260e-01,0.000000000000000000e+00
1.343000000000000000e+03,-9.809088372490665231e-01,0.000000000000000000e+00
1.344000000000000000e+03,-9.493728566551392634e-01,0.000000000000000000e+00
1.345000000000000000e+03,-9.334260221774332011e-01,0.000000000000000000e+00
1.346000000000000000e+03,-8.431701413126789779e-01,0.000000000000000000e+00
1.347000000000000000e+03,-8.396830716508604242e-01,0.000000000000000000e+00
1.348000000000000000e+03,-7.086274749521694893e-01,0.000000000000000000e+00
1.349000000000000000e+03,-7.522685657859840003e-01,0.000000000000000000e+00
1.350000000000000000e+03,-5.245713233173536771e-01,0.000000000000000000e+00
1.351000000000000000e+03,-4.675153041689441014e-01,0.000000000000000000e+00
1.352000000000000000e+03,-4.835477071007432404e-01,0.000000000000000000e+00
1.353000000000000000e+03,-3.013395686612791446e-01,0.000000000000000000e+00
1.354000000000000000e+03,-2.082148832533035065e-01,0.000000000000000000e+00
1.355000000000000000e+03,-4.498521797081732609e-01,0.000000000000000000e+00
1.356000000000000000e+03,-1.173801928212436646e-01,0.000000000000000000e+00
1.357000000000000000e+03,-3.395813989046432280e-01,0.000000000000000000e+00
1.358000000000000000e+03,-3.957135455733834517e-02,0.000000000000000000e+00
1.359000000000000000e+03,-1.941791446628625128e-01,0.000000000000000000e+00
1.360000000000000000e+03,-6.689167090178308600e-03,0.000000000000000000e+00
1.361000000000000000e+03,-5.131820593330026908e-02,0.000000000000000000e+00
1.362000000000000000e+03,1.571355172007976586e-02,0.000000000000000000e+00
1.363000000000000000e+03,-2.787449851906994430e-02,0.000000000000000000e+00
1.364000000000000000e+03,6.363187342533972723e-02,0.000000000000000000e+00
1.365000000000000000e+03,-1.617207267472155208e-02,0.000000000000000000e+00
1.366000000000000000e+03,3.587778642898732384e-01,0.000000000000000000e+00
1.367000000000000000e+03,1.250725441119495684e-01,0.000000000000000000e+00
1.368000000000000000e+03,3.222538244327848300e-01,0.000000000000000000e+00
1.369000000000000000e+03,3.292411843843735531e-01,0.000000000000000000e+00
1.370000000000000000e+03,6.288424763618285507e-01,0.000000000000000000e+00
1.371000000000000000e+03,3.342044949614115801e-01,0.000000000000000000e+00
1.372000000000000000e+03,3.578656436349683112e-01,0.000000000000000000e+00
1.373000000000000000e+03,-1.108498838700702760e-01,0.000000000000000000e+00
1.374000000000000000e+03,2.357529596005208394e-01,0.000000000000000000e+00
1.375000000000000000e+03,-3.652248433540298822e-01,0.000000000000000000e+00
1.376000000000000000e+03,2.479470992786593220e-01,0.000000000000000000e+00
1.377000000000000000e+03,-8.593225592069989038e-02,0.000000000000000000e+00
1.378000000000000000e+03,4.805741208425872379e+00,0.000000000000000000e+00
1.379000000000000000e+03,3.026966325173735761e+00,1.000000000000000000e+00
1.380000000000000000e+03,-2.820519946978703452e+00,0.000000000000000000e+00
1.381000000000000000e+03,-6.594213143928955301e-01,0.000000000000000000e+00
1.382000000000000000e+03,-7.016964269027072820e-01,0.000000000000000000e+00
1.383000000000000000e+03,-8.784807919581039126e-02,0.000000000000000000e+00
1.384000000000000000e+03,-4.720637654651331228e-01,0.000000000000000000e+00
1.385000000000000000e+03,-2.015701876857803609e-01,0.000000000000000000e+00
1.386000000000000000e+03,-2.292887899909490101e-01,0.000000000000000000e+00
1.387000000000000000e+03,1.546785207823130580e-02,0.000000000000000000e+00
1.388000000000000000e+03,8.287771369897539708e-02,0.000000000000000000e+00
1.389000000000000000e+03,1.485551800815100854e-01,0.000000000000000000e+00
1.390000000000000000e+03,4.322628113201309463e-01,0.000000000000000000e+00
1.391000000000000000e+03,5.927551885479930283e-01,0.000000000000000000e+00
1.392000000000000000e+03,1.060532304041536866e+00,0.000000000000000000e+00
1.393000000000000000e+03,1.129200145532125665e+00,0.000000000000000000e+00
1.394000000000000000e+03,1.066071872494714023e+00,0.000000000000000000e+00
1.395000000000000000e+03,3.845650041451434409e-01,0.000000000000000000e+00
1.396000000000000000e+03,-2.871083803089305442e-01,0.000000000000000000e+00
1.397000000000000000e+03,-8.289705087196378441e-01,0.000000000000000000e+00
1.398000000000000000e+03,-9.835220628732594950e-01,0.000000000000000000e+00
1.399000000000000000e+03,-7.748490373625399608e-01,0.000000000000000000e+00
1.400000000000000000e+03,-1.005192058119601217e+00,0.000000000000000000e+00
1.401000000000000000e+03,-8.002749508965039116e-01,0.000000000000000000e+00
1.402000000000000000e+03,-6.506027575132597995e-01,0.000000000000000000e+00
1.403000000000000000e+03,-6.944051788413435622e-01,0.000000000000000000e+00
1.404000000000000000e+03,-5.728901140865557684e-01,0.000000000000000000e+00
1.405000000000000000e+03,-4.361254979522726782e-01,0.000000000000000000e+00
1.406000000000000000e+03,-4.748166305072184512e-01,0.000000000000000000e+00
1.407000000000000000e+03,-2.175435310521554588e-01,0.000000000000000000e+00
1.408000000000000000e+03,-4.386885596565388568e-01,0.000000000000000000e+00
1.409000000000000000e+03,-2.501852795256450657e-01,0.000000000000000000e+00
1.410000000000000000e+03,-1.543522778932020223e-01,0.000000000000000000e+00
1.411000000000000000e+03,-2.276561301009398519e-01,0.000000000000000000e+00
1.412000000000000000e+03,-1.755649465585905622e-01,0.000000000000000000e+00
1.413000000000000000e+03,-1.376754929311972131e-01,0.000000000000000000e+00
1.414000000000000000e+03,-1.303609331110845149e-01,0.000000000000000000e+00
1.415000000000000000e+03,-1.192695847583600949e-01,0.000000000000000000e+00
1.416000000000000000e+03,1.398407546925647671e-01,0.000000000000000000e+00
1.417000000000000000e+03,-1.080614629001365179e-01,0.000000000000000000e+00
1.418000000000000000e+03,5.263524762492182568e-02,0.000000000000000000e+00
1.419000000000000000e+03,-7.843937804278817982e-02,0.000000000000000000e+00
1.420000000000000000e+03,1.781276119595197049e-01,0.000000000000000000e+00
1.421000000000000000e+03,1.889590742582036853e-01,0.000000000000000000e+00
1.422000000000000000e+03,3.666042602049696675e-01,0.000000000000000000e+00
1.423000000000000000e+03,3.890661076253592032e-01,0.000000000000000000e+00
1.424000000000000000e+03,5.751172577962445631e-01,0.000000000000000000e+00
1.425000000000000000e+03,2.132957891935578776e-01,0.000000000000000000e+00
1.426000000000000000e+03,2.141151673913282427e-01,0.000000000000000000e+00
1.427000000000000000e+03,-4.030074133537367431e-02,0.000000000000000000e+00
1.428000000000000000e+03,2.116249065548689023e-01,0.000000000000000000e+00
1.429000000000000000e+03,-2.542146118189350101e-01,0.000000000000000000e+00
1.430000000000000000e+03,2.263626641061335654e-01,0.000000000000000000e+00
1.431000000000000000e+03,-3.336058652390813672e-01,0.000000000000000000e+00
1.432000000000000000e+03,4.568548265876371417e+00,0.000000000000000000e+00
1.433000000000000000e+03,3.434642755998033703e+00,1.000000000000000000e+00
1.434000000000000000e+03,-2.723898276674441288e+00,0.000000000000000000e+00
1.435000000000000000e+03,-5.488136341512355187e-01,0.000000000000000000e+00
1.436000000000000000e+03,-8.903690681164758702e-01,0.000000000000000000e+00
1.437000000000000000e+03,-2.208966067818713963e-01,0.000000000000000000e+00
1.438000000000000000e+03,-5.514056671602101112e-01,0.000000000000000000e+00
1.439000000000000000e+03,-1.282736512464870693e-01,0.000000000000000000e+00
1.440000000000000000e+03,-3.237198646190681539e-01,0.000000000000000000e+00
1.441000000000000000e+03,4.572345058271260615e-02,0.000000000000000000e+00
1.442000000000000000e+03,-1.717901593726975928e-01,0.000000000000000000e+00
1.443000000000000000e+03,2.290565059608472009e-01,0.000000000000000000e+00
1.444000000000000000e+03,4.774801257917052899e-01,0.000000000000000000e+00
1.445000000000000000e+03,6.302476835233697949e-01,0.000000000000000000e+00
1.446000000000000000e+03,8.973321452780269603e-01,0.000000000000000000e+00
1.447000000000000000e+03,1.128463367687277730e+00,0.000000000000000000e+00
1.448000000000000000e+03,1.050996120101850506e+00,0.000000000000000000e+00
1.449000000000000000e+03,2.909258801130502614e-01,0.000000000000000000e+00
1.450000000000000000e+03,-2.188382836151440691e-01,0.000000000000000000e+00
1.451000000000000000e+03,-8.037204981788295122e-01,0.000000000000000000e+00
1.452000000000000000e+03,-9.215221969481410813e-01,0.000000000000000000e+00
1.453000000000000000e+03,-9.573683318524849328e-01,0.000000000000000000e+00
1.454000000000000000e+03,-9.932499344930697527e-01,0.000000000000000000e+00
1.455000000000000000e+03,-7.709936823635989978e-01,0.000000000000000000e+00
1.456000000000000000e+03,-7.478587619016074939e-01,0.000000000000000000e+00
1.457000000000000000e+03,-5.793042186037102859e-01,0.000000000000000000e+00
1.458000000000000000e+03,-6.810458719424007379e-01,0.000000000000000000e+00
1.459000000000000000e+03,-4.244685067984469984e-01,0.000000000000000000e+00
1.460000000000000000e+03,-4.827231093933418427e-01,0.000000000000000000e+00
1.461000000000000000e+03,-4.049626761939388864e-01,0.000000000000000000e+00
1.462000000000000000e+03,-3.325224180213929293e-01,0.000000000000000000e+00
1.463000000000000000e+03,-2.941897226473406679e-01,0.000000000000000000e+00
1.464000000000000000e+03,-2.661382774524446160e-01,0.000000000000000000e+00
1.465000000000000000e+03,-1.655791288322596422e-01,0.000000000000000000e+00
1.466000000000000000e+03,-2.040207498409702946e-01,0.000000000000000000e+00
1.467000000000000000e+03,-1.428246236052578000e-01,0.000000000000000000e+00
1.468000000000000000e+03,-3.016539823528531852e-02,0.000000000000000000e+00
1.469000000000000000e+03,-1.418106712095470456e-01,0.000000000000000000e+00
1.470000000000000000e+03,-1.911079693892894435e-02,0.000000000000000000e+00
1.471000000000000000e+03,2.932591855053925251e-02,0.000000000000000000e+00
1.472000000000000000e+03,8.927835356840155279e-02,0.000000000000000000e+00
1.473000000000000000e+03,1.017933346111263813e-02,0.000000000000000000e+00
1.474000000000000000e+03,7.278733954509988835e-02,0.000000000000000000e+00
1.475000000000000000e+03,1.322376465846219484e-01,0.000000000000000000e+00
1.476000000000000000e+03,3.320748626183063212e-01,0.000000000000000000e+00
1.477000000000000000e+03,4.017239326240376052e-01,0.000000000000000000e+00
1.478000000000000000e+03,4.850626952660490043e-01,0.000000000000000000e+00
1.479000000000000000e+03,3.876105152850272684e-01,0.000000000000000000e+00
1.480000000000000000e+03,2.202920014157278006e-01,0.000000000000000000e+00
1.481000000000000000e+03,-2.707573757265739345e-01,0.000000000000000000e+00
1.482000000000000000e+03,1.132526911315731716e-01,0.000000000000000000e+00
1.483000000000000000e+03,-1.141911747000894373e-01,0.000000000000000000e+00
1.484000000000000000e+03,2.189188985325456471e-01,0.000000000000000000e+00
1.485000000000000000e+03,-4.379275894091684829e-01,0.000000000000000000e+00
1.486000000000000000e+03,4.093279306470540391e+00,0.000000000000000000e+00
1.487000000000000000e+03,4.165951993115298180e+00,0.000000000000000000e+00
1.488000000000000000e+03,-2.749112358192971506e+00,1.000000000000000000e+00
1.489000000000000000e+03,-7.841859688668886275e-01,0.000000000000000000e+00
1.490000000000000000e+03,-7.713766456438236885e-01,0.000000000000000000e+00
1.491000000000000000e+03,-3.614131349721932396e-01,0.000000000000000000e+00
1.492000000000000000e+03,-5.889558252736027955e-01,0.000000000000000000e+00
1.493000000000000000e+03,-2.731166928923783321e-01,0.000000000000000000e+00
1.494000000000000000e+03,-3.675443503476308882e-01,0.000000000000000000e+00
1.495000000000000000e+03,-6.033571425333411620e-02,0.000000000000000000e+00
1.496000000000000000e+03,3.850491988404104032e-02,0.000000000000000000e+00
1.497000000000000000e+03,3.110139112994310118e-01,0.000000000000000000e+00
1.498000000000000000e+03,1.406533296679844947e-01,0.000000000000000000e+00
1.499000000000000000e+03,6.912789153033682688e-01,0.000000000000000000e+00
1.500000000000000000e+03,9.694320932563380566e-01,0.000000000000000000e+00
1.501000000000000000e+03,1.198314769331965346e+00,0.000000000000000000e+00
1.502000000000000000e+03,1.089052930628443105e+00,0.000000000000000000e+00
1.503000000000000000e+03,6.413274587700378282e-01,0.000000000000000000e+00
1.504000000000000000e+03,-2.524977358742635514e-01,0.000000000000000000e+00
1.505000000000000000e+03,-7.583605550567926734e-01,0.000000000000000000e+00
1.506000000000000000e+03,-1.037341710324899635e+00,0.000000000000000000e+00
1.507000000000000000e+03,-1.020742049312125532e+00,0.000000000000000000e+00
1.508000000000000000e+03,-8.591971269502302055e-01,0.000000000000000000e+00
1.509000000000000000e+03,-7.956018159588271743e-01,0.000000000000000000e+00
1.510000000000000000e+03,-7.671413617543695329e-01,0.000000000000000000e+00
1.511000000000000000e+03,-7.093914803416566661e-01,0.000000000000000000e+00
1.512000000000000000e+03,-5.787607135653677348e-01,0.000000000000000000e+00
1.513000000000000000e+03,-3.934837353786403424e-01,0.000000000000000000e+00
1.514000000000000000e+03,-4.472407390722298315e-01,0.000000000000000000e+00
1.515000000000000000e+03,-2.593525675311273426e-01,0.000000000000000000e+00
1.516000000000000000e+03,-2.070409836862052433e-01,0.000000000000000000e+00
1.517000000000000000e+03,-2.833016037727761338e-01,0.000000000000000000e+00
1.518000000000000000e+03,-5.535578613850990204e-02,0.000000000000000000e+00
1.519000000000000000e+03,-1.390385536520390430e-01,0.000000000000000000e+00
1.520000000000000000e+03,-5.366545791144377783e-03,0.000000000000000000e+00
1.521000000000000000e+03,-1.348315400389363539e-01,0.000000000000000000e+00
1.522000000000000000e+03,-9.497524843567878294e-02,0.000000000000000000e+00
1.523000000000000000e+03,-9.701693800221244945e-02,0.000000000000000000e+00
1.524000000000000000e+03,6.863517470351318539e-02,0.000000000000000000e+00
1.525000000000000000e+03,-1.098670167078602718e-02,0.000000000000000000e+00
1.526000000000000000e+03,1.684020592255579818e-01,0.000000000000000000e+00
1.527000000000000000e+03,6.395071993879601624e-02,0.000000000000000000e+00
1.528000000000000000e+03,1.861772979255834348e-01,0.000000000000000000e+00
1.529000000000000000e+03,9.543865660514083693e-02,0.000000000000000000e+00
1.530000000000000000e+03,4.674876062139433075e-01,0.000000000000000000e+00
1.531000000000000000e+03,3.670550002637672504e-01,0.000000000000000000e+00
1.532000000000000000e+03,3.272659601909005955e-01,0.000000000000000000e+00
1.533000000000000000e+03,3.712096898050831761e-01,0.000000000000000000e+00
1.534000000000000000e+03,1.315075643136894845e-01,0.000000000000000000e+00
1.535000000000000000e+03,-3.484204007449339530e-02,0.000000000000000000e+00
1.536000000000000000e+03,8.641289202394639157e-02,0.000000000000000000e+00
1.537000000000000000e+03,-7.763375068151993907e-02,0.000000000000000000e+00
1.538000000000000000e+03,-4.562942010049937658e-02,0.000000000000000000e+00
1.539000000000000000e+03,1.335944242287418149e+00,0.000000000000000000e+00
1.540000000000000000e+03,5.479601414886980493e+00,0.000000000000000000e+00
1.541000000000000000e+03,-6.553998610066226194e-01,1.000000000000000000e+00
1.542000000000000000e+03,-2.031766231996117611e+00,0.000000000000000000e+00
1.543000000000000000e+03,-2.839689217433545299e-01,0.000000000000000000e+00
1.544000000000000000e+03,-4.416374526909513931e-01,0.000000000000000000e+00
1.545000000000000000e+03,-2.018154494218210027e-01,0.000000000000000000e+00
1.546000000000000000e+03,-3.868868863351243581e-01,0.000000000000000000e+00
1.547000000000000000e+03,-6.027691160098719997e-02,0.000000000000000000e+00
1.548000000000000000e+03,-9.244064420519211567e-02,0.000000000000000000e+00
1.549000000000000000e+03,-1.038347233339081271e-02,0.000000000000000000e+00
1.550000000000000000e+03,2.032790751079986413e-01,0.000000000000000000e+00
1.551000000000000000e+03,4.282577920938462901e-01,0.000000000000000000e+00
1.552000000000000000e+03,5.891012543866371853e-01,0.000000000000000000e+00
1.553000000000000000e+03,8.115159633390254257e-01,0.000000000000000000e+00
1.554000000000000000e+03,1.030650606405962844e+00,0.000000000000000000e+00
1.555000000000000000e+03,1.081514311173044529e+00,0.000000000000000000e+00
1.556000000000000000e+03,8.516197840394326146e-01,0.000000000000000000e+00
1.557000000000000000e+03,9.787858933363371983e-02,0.000000000000000000e+00
1.558000000000000000e+03,-5.320827873913691608e-01,0.000000000000000000e+00
1.559000000000000000e+03,-9.717567938275822881e-01,0.000000000000000000e+00
1.560000000000000000e+03,-9.433827703979227319e-01,0.000000000000000000e+00
1.561000000000000000e+03,-9.547999671080760198e-01,0.000000000000000000e+00
1.562000000000000000e+03,-9.897900395945423702e-01,0.000000000000000000e+00
1.563000000000000000e+03,-7.514566634194684847e-01,0.000000000000000000e+00
1.564000000000000000e+03,-7.634550708786842499e-01,0.000000000000000000e+00
1.565000000000000000e+03,-6.951459694777386566e-01,0.000000000000000000e+00
1.566000000000000000e+03,-5.792540547642959226e-01,0.000000000000000000e+00
1.567000000000000000e+03,-4.859531904685313042e-01,0.000000000000000000e+00
1.568000000000000000e+03,-4.703618185747842628e-01,0.000000000000000000e+00
1.569000000000000000e+03,-3.429111734075546702e-01,0.000000000000000000e+00
1.570000000000000000e+03,-3.133599822252105538e-01,0.000000000000000000e+00
1.571000000000000000e+03,-2.851294270814396237e-01,0.000000000000000000e+00
1.572000000000000000e+03,-2.539278344459906522e-01,0.000000000000000000e+00
1.573000000000000000e+03,-1.495579641785884928e-01,0.000000000000000000e+00
1.574000000000000000e+03,-2.964968160976512723e-01,0.000000000000000000e+00
1.575000000000000000e+03,-1.352907655839772905e-01,0.000000000000000000e+00
1.576000000000000000e+03,-9.977074573443379946e-02,0.000000000000000000e+00
1.577000000000000000e+03,-3.022976538878157857e-02,0.000000000000000000e+00
1.578000000000000000e+03,-4.200839508526893473e-02,0.000000000000000000e+00
1.579000000000000000e+03,8.195027955596428937e-02,0.000000000000000000e+00
1.580000000000000000e+03,3.871329656708043937e-02,0.000000000000000000e+00
1.581000000000000000e+03,6.389050386857912309e-03,0.000000000000000000e+00
1.582000000000000000e+03,2.437675235152713671e-01,0.000000000000000000e+00
1.583000000000000000e+03,3.650210452933920768e-01,0.000000000000000000e+00
1.584000000000000000e+03,5.859018641666373650e-01,0.000000000000000000e+00
1.585000000000000000e+03,2.075769594861412159e-01,0.000000000000000000e+00
