timestamp,ecg_measurement,qrs_detected
0.000000000000000000e+00,2.643970995417216363e-01,0.000000000000000000e+00
1.000000000000000000e+00,1.783638395057094150e-01,0.000000000000000000e+00
2.000000000000000000e+00,-1.482693771819141790e-02,0.000000000000000000e+00
3.000000000000000000e+00,1.063557572880867996e-01,0.000000000000000000e+00
4.000000000000000000e+00,-1.916176061171102618e-01,0.000000000000000000e+00
5.000000000000000000e+00,1.599470435351626682e-02,0.000000000000000000e+00
6.000000000000000000e+00,6.031472143433540545e-01,0.000000000000000000e+00
7.000000000000000000e+00,5.667719123740270426e+00,0.000000000000000000e+00
8.000000000000000000e+00,3.830567416725284002e-01,1.000000000000000000e+00
9.000000000000000000e+00,-2.442642359684250142e+00,0.000000000000000000e+00
1.000000000000000000e+01,-3.387013464030816379e-01,0.000000000000000000e+00
1.100000000000000000e+01,-8.778806370338116949e-01,0.000000000000000000e+00
1.200000000000000000e+01,-2.327485779707280100e-01,0.000000000000000000e+00
1.300000000000000000e+01,-5.004397055686845563e-01,0.000000000000000000e+00
1.400000000000000000e+01,-1.361933170630163226e-01,0.000000000000000000e+00
1.500000000000000000e+01,-3.246934469307804494e-01,0.000000000000000000e+00
1.600000000000000000e+01,2.968829646937800812e-02,0.000000000000000000e+00
1.700000000000000000e+01,3.178493684469588330e-03,0.000000000000000000e+00
1.800000000000000000e+01,3.738359423663947800e-01,0.000000000000000000e+00
1.900000000000000000e+01,3.886468338383882171e-01,0.000000000000000000e+00
2.000000000000000000e+01,9.135884309919527491e-01,0.000000000000000000e+00
2.100000000000000000e+01,9.313617015763214768e-01,0.000000000000000000e+00
2.200000000000000000e+01,1.040227586610640076e+00,0.000000000000000000e+00
2.300000000000000000e+01,8.629481058536468963e-01,0.000000000000000000e+00
2.400000000000000000e+01,1.088192791787793434e-01,0.000000000000000000e+00
2.500000000000000000e+01,-5.205781912782286858e-01,0.000000000000000000e+00
2.600000000000000000e+01,-8.239931448705533068e-01,0.000000000000000000e+00
2.700000000000000000e+01,-1.112906788338073438e+00,0.000000000000000000e+00
2.800000000000000000e+01,-9.508098722004507675e-01,0.000000000000000000e+00
2.900000000000000000e+01,-9.026433952215081602e-01,0.000000000000000000e+00
3.000000000000000000e+01,-8.007117149832366776e-01,0.000000000000000000e+00
3.100000000000000000e+01,-7.312097980203935421e-01,0.000000000000000000e+00
3.200000000000000000e+01,-5.889979006964704000e-01,0.000000000000000000e+00
3.300000000000000000e+01,-6.226605137799214873e-01,0.000000000000000000e+00
3.400000000000000000e+01,-5.674292887741596569e-01,0.000000000000000000e+00
3.500000000000000000e+01,-5.390233181827586151e-01,0.000000000000000000e+00
3.600000000000000000e+01,-3.062581922190608097e-01,0.000000000000000000e+00
3.700000000000000000e+01,-1.943445950834041813e-01,0.000000000000000000e+00
3.800000000000000000e+01,-3.916965079060796828e-01,0.000000000000000000e+00
3.900000000000000000e+01,-2.489045834298245774e-01,0.000000000000000000e+00
4.000000000000000000e+01,-2.050498693409470163e-01,0.000000000000000000e+00
4.100000000000000000e+01,-7.688717251110571693e-02,0.000000000000000000e+00
4.200000000000000000e+01,-2.638892163223520715e-01,0.000000000000000000e+00
4.300000000000000000e+01,-1.145274396177809184e-01,0.000000000000000000e+00
4.400000000000000000e+01,-1.457316089808488591e-01,0.000000000000000000e+00
4.500000000000000000e+01,-1.040174555687263871e-02,0.000000000000000000e+00
4.600000000000000000e+01,-8.979118296934643362e-02,0.000000000000000000e+00
4.700000000000000000e+01,1.094900283046715411e-01,0.000000000000000000e+00
4.800000000000000000e+01,-3.453634838681091807e-02,0.000000000000000000e+00
4.900000000000000000e+01,1.945722045416705681e-01,0.000000000000000000e+00
5.000000000000000000e+01,1.085879528870528216e-01,0.000000000000000000e+00
5.100000000000000000e+01,2.950175270928523386e-01,0.000000000000000000e+00
5.200000000000000000e+01,3.926420735105518589e-01,0.000000000000000000e+00
5.300000000000000000e+01,5.585921739699207800e-01,0.000000000000000000e+00
5.400000000000000000e+01,4.459344663521110919e-01,0.000000000000000000e+00
5.500000000000000000e+01,1.715978853733503562e-01,0.000000000000000000e+00
5.600000000000000000e+01,-1.420402450637413272e-01,0.000000000000000000e+00
5.700000000000000000e+01,1.898147279275432253e-01,0.000000000000000000e+00
5.800000000000000000e+01,-5.943050009495932234e-02,0.000000000000000000e+00
5.900000000000000000e+01,1.704813165483690107e-01,0.000000000000000000e+00
6.000000000000000000e+01,-2.148418182955593170e-01,0.000000000000000000e+00
6.100000000000000000e+01,4.699741746157093836e+00,0.000000000000000000e+00
6.200000000000000000e+01,3.449834861910076267e+00,1.000000000000000000e+00
6.300000000000000000e+01,-2.700734506228701814e+00,0.000000000000000000e+00
6.400000000000000000e+01,-6.013084299849402736e-01,0.000000000000000000e+00
6.500000000000000000e+01,-7.211253072482340931e-01,0.000000000000000000e+00
6.600000000000000000e+01,-2.471754327596343004e-01,0.000000000000000000e+00
6.700000000000000000e+01,-5.387091273698627614e-01,0.000000000000000000e+00
6.800000000000000000e+01,-1.831161759385177279e-01,0.000000000000000000e+00
6.900000000000000000e+01,-2.441956231502576402e-01,0.000000000000000000e+00
7.000000000000000000e+01,3.550931614468330610e-02,0.000000000000000000e+00
7.100000000000000000e+01,-2.314198010497885843e-02,0.000000000000000000e+00
7.200000000000000000e+01,2.544617293837351246e-01,0.000000000000000000e+00
7.300000000000000000e+01,3.290294141800179095e-01,0.000000000000000000e+00
7.400000000000000000e+01,6.827087311011753590e-01,0.000000000000000000e+00
7.500000000000000000e+01,9.555003271033882806e-01,0.000000000000000000e+00
7.600000000000000000e+01,1.131817334981634504e+00,0.000000000000000000e+00
7.700000000000000000e+01,8.864952921771072081e-01,0.000000000000000000e+00
7.800000000000000000e+01,4.423087008150831667e-01,0.000000000000000000e+00
7.900000000000000000e+01,-4.072178132732440781e-01,0.000000000000000000e+00
8.000000000000000000e+01,-7.317709392961291304e-01,0.000000000000000000e+00
8.100000000000000000e+01,-1.142008681175608498e+00,0.000000000000000000e+00
8.200000000000000000e+01,-8.557114777072790668e-01,0.000000000000000000e+00
8.300000000000000000e+01,-9.942686088293259949e-01,0.000000000000000000e+00
8.400000000000000000e+01,-7.722755365237807812e-01,0.000000000000000000e+00
8.500000000000000000e+01,-7.829371825660056405e-01,0.000000000000000000e+00
8.600000000000000000e+01,-6.843637677641158934e-01,0.000000000000000000e+00
8.700000000000000000e+01,-5.882874791320286123e-01,0.000000000000000000e+00
8.800000000000000000e+01,-4.494767918164701559e-01,0.000000000000000000e+00
8.900000000000000000e+01,-3.696383907041245753e-01,0.000000000000000000e+00
9.000000000000000000e+01,-4.368835108498178021e-01,0.000000000000000000e+00
9.100000000000000000e+01,-2.059495566319959614e-01,0.000000000000000000e+00
9.200000000000000000e+01,-2.273360313272959621e-01,0.000000000000000000e+00
9.300000000000000000e+01,-2.441669326028245712e-01,0.000000000000000000e+00
9.400000000000000000e+01,-6.535781734154791356e-02,0.000000000000000000e+00
9.500000000000000000e+01,-2.467934359185547655e-01,0.000000000000000000e+00
9.600000000000000000e+01,-3.262359112428597080e-02,0.000000000000000000e+00
9.700000000000000000e+01,-1.060675649286028782e-01,0.000000000000000000e+00
9.800000000000000000e+01,6.620973630580918867e-02,0.000000000000000000e+00
9.900000000000000000e+01,2.832470620000520842e-02,0.000000000000000000e+00
1.000000000000000000e+02,1.299442145423753900e-02,0.000000000000000000e+00
1.010000000000000000e+02,1.286580967367270678e-01,0.000000000000000000e+00
1.020000000000000000e+02,1.224335003249833881e-01,0.000000000000000000e+00
1.030000000000000000e+02,1.051791938623090200e-01,0.000000000000000000e+00
1.040000000000000000e+02,1.299588593786817348e-01,0.000000000000000000e+00
1.050000000000000000e+02,2.449154980604157372e-01,0.000000000000000000e+00
1.060000000000000000e+02,2.388975538318307279e-01,0.000000000000000000e+00
1.070000000000000000e+02,5.328803886120530020e-01,0.000000000000000000e+00
1.080000000000000000e+02,4.394614440520985821e-01,0.000000000000000000e+00
1.090000000000000000e+02,5.271141847460389940e-01,0.000000000000000000e+00
1.100000000000000000e+02,3.711204882939940219e-01,0.000000000000000000e+00
1.110000000000000000e+02,2.040709954670829815e-02,0.000000000000000000e+00
1.120000000000000000e+02,-5.296062273464893083e-02,0.000000000000000000e+00
1.130000000000000000e+02,-5.658437157025486032e-03,0.000000000000000000e+00
1.140000000000000000e+02,5.828240666949442012e-02,0.000000000000000000e+00
1.150000000000000000e+02,-1.765133222690093151e-01,0.000000000000000000e+00
1.160000000000000000e+02,1.647515820499799055e+00,0.000000000000000000e+00
1.170000000000000000e+02,6.300504602618453909e+00,0.000000000000000000e+00
1.180000000000000000e+02,-4.670604491981249495e-01,1.000000000000000000e+00
1.190000000000000000e+02,-1.958986475333457378e+00,0.000000000000000000e+00
1.200000000000000000e+02,-4.705375756321044101e-01,0.000000000000000000e+00
1.210000000000000000e+02,-9.273786020118851559e-01,0.000000000000000000e+00
1.220000000000000000e+02,-3.874267622682293077e-01,0.000000000000000000e+00
1.230000000000000000e+02,-5.644018088053899262e-01,0.000000000000000000e+00
1.240000000000000000e+02,-3.554724497797058791e-01,0.000000000000000000e+00
1.250000000000000000e+02,-3.670503134308459869e-01,0.000000000000000000e+00
1.260000000000000000e+02,-3.605491257446383907e-02,0.000000000000000000e+00
1.270000000000000000e+02,-1.189855588184944579e-01,0.000000000000000000e+00
1.280000000000000000e+02,2.983982626854146947e-01,0.000000000000000000e+00
1.290000000000000000e+02,3.234247768116696453e-01,0.000000000000000000e+00
1.300000000000000000e+02,7.829884098197652520e-01,0.000000000000000000e+00
1.310000000000000000e+02,9.237066109629383792e-01,0.000000000000000000e+00
1.320000000000000000e+02,1.022065433345808794e+00,0.000000000000000000e+00
1.330000000000000000e+02,7.835938594005342761e-01,0.000000000000000000e+00
1.340000000000000000e+02,-7.412377760994124862e-03,0.000000000000000000e+00
1.350000000000000000e+02,-7.016791928333162565e-01,0.000000000000000000e+00
1.360000000000000000e+02,-8.135183044134722818e-01,0.000000000000000000e+00
1.370000000000000000e+02,-1.096971463449841089e+00,0.000000000000000000e+00
1.380000000000000000e+02,-9.956375420265526355e-01,0.000000000000000000e+00
1.390000000000000000e+02,-8.792025027577501373e-01,0.000000000000000000e+00
1.400000000000000000e+02,-8.411242605805221428e-01,0.000000000000000000e+00
1.410000000000000000e+02,-6.205963810422223670e-01,0.000000000000000000e+00
1.420000000000000000e+02,-6.244523440716516216e-01,0.000000000000000000e+00
1.430000000000000000e+02,-6.322187081605094017e-01,0.000000000000000000e+00
1.440000000000000000e+02,-4.910598425525327104e-01,0.000000000000000000e+00
1.450000000000000000e+02,-4.539421942279647793e-01,0.000000000000000000e+00
1.460000000000000000e+02,-3.361620299137530465e-01,0.000000000000000000e+00
1.470000000000000000e+02,-3.689395287605414797e-01,0.000000000000000000e+00
1.480000000000000000e+02,-1.355511617259133050e-01,0.000000000000000000e+00
1.490000000000000000e+02,-1.234379769788846865e-01,0.000000000000000000e+00
1.500000000000000000e+02,-1.141943575485858953e-01,0.000000000000000000e+00
1.510000000000000000e+02,-2.525015272560365842e-01,0.000000000000000000e+00
1.520000000000000000e+02,-7.648032056212673846e-02,0.000000000000000000e+00
1.530000000000000000e+02,-3.116513162027362976e-02,0.000000000000000000e+00
1.540000000000000000e+02,-3.990218733500921350e-02,0.000000000000000000e+00
1.550000000000000000e+02,8.599023274712130904e-02,0.000000000000000000e+00
1.560000000000000000e+02,-6.706528115796588085e-02,0.000000000000000000e+00
1.570000000000000000e+02,1.328644446163833037e-01,0.000000000000000000e+00
1.580000000000000000e+02,4.515656659960780306e-02,0.000000000000000000e+00
1.590000000000000000e+02,2.107888141779499513e-01,0.000000000000000000e+00
1.600000000000000000e+02,-9.890519186196088108e-02,0.000000000000000000e+00
1.610000000000000000e+02,3.558911067398473627e-01,0.000000000000000000e+00
1.620000000000000000e+02,2.691576383987286381e-01,0.000000000000000000e+00
1.630000000000000000e+02,3.899677769702210028e-01,0.000000000000000000e+00
1.640000000000000000e+02,4.959424168378049336e-01,0.000000000000000000e+00
1.650000000000000000e+02,5.600108305496515060e-01,0.000000000000000000e+00
1.660000000000000000e+02,4.766814785953457645e-01,0.000000000000000000e+00
1.670000000000000000e+02,1.706099981429053114e-01,0.000000000000000000e+00
1.680000000000000000e+02,-1.258006265219988873e-01,0.000000000000000000e+00
1.690000000000000000e+02,2.725813541574956811e-01,0.000000000000000000e+00
1.700000000000000000e+02,-7.596351380806669329e-02,0.000000000000000000e+00
1.710000000000000000e+02,1.974895398912154265e-01,0.000000000000000000e+00
1.720000000000000000e+02,2.806080224717917848e-01,0.000000000000000000e+00
1.730000000000000000e+02,5.842360449001336775e+00,0.000000000000000000e+00
1.740000000000000000e+02,1.987600309381819974e+00,1.000000000000000000e+00
1.750000000000000000e+02,-2.744728331737209537e+00,0.000000000000000000e+00
1.760000000000000000e+02,-2.305573406922380164e-01,0.000000000000000000e+00
1.770000000000000000e+02,-8.672984434916100049e-01,0.000000000000000000e+00
1.780000000000000000e+02,-2.331231439873247269e-01,0.000000000000000000e+00
1.790000000000000000e+02,-6.183884244929044316e-01,0.000000000000000000e+00
1.800000000000000000e+02,-1.067624839729161695e-01,0.000000000000000000e+00
1.810000000000000000e+02,-3.854599332524253352e-01,0.000000000000000000e+00
1.820000000000000000e+02,-3.592692642942586084e-02,0.000000000000000000e+00
1.830000000000000000e+02,-9.058659209524287659e-02,0.000000000000000000e+00
1.840000000000000000e+02,1.731407660002469706e-01,0.000000000000000000e+00
1.850000000000000000e+02,2.554262956762121117e-01,0.000000000000000000e+00
1.860000000000000000e+02,7.475305868847853530e-01,0.000000000000000000e+00
1.870000000000000000e+02,9.124754796342552376e-01,0.000000000000000000e+00
1.880000000000000000e+02,1.145179481607780492e+00,0.000000000000000000e+00
1.890000000000000000e+02,8.304351013546593663e-01,0.000000000000000000e+00
1.900000000000000000e+02,3.263384123501021916e-01,0.000000000000000000e+00
1.910000000000000000e+02,-6.112996163566463137e-01,0.000000000000000000e+00
1.920000000000000000e+02,-8.062021076913471473e-01,0.000000000000000000e+00
1.930000000000000000e+02,-1.167005709725802198e+00,0.000000000000000000e+00
1.940000000000000000e+02,-9.958518382920859002e-01,0.000000000000000000e+00
1.950000000000000000e+02,-9.373454168580585000e-01,0.000000000000000000e+00
1.960000000000000000e+02,-8.241132704949216681e-01,0.000000000000000000e+00
1.970000000000000000e+02,-7.846953603769032393e-01,0.000000000000000000e+00
1.980000000000000000e+02,-7.090052572219475158e-01,0.000000000000000000e+00
1.990000000000000000e+02,-6.577890415165920102e-01,0.000000000000000000e+00
2.000000000000000000e+02,-6.255477634763010331e-01,0.000000000000000000e+00
2.010000000000000000e+02,-4.558267034634291837e-01,0.000000000000000000e+00
2.020000000000000000e+02,-3.122150149117692841e-01,0.000000000000000000e+00
2.030000000000000000e+02,-4.166128177872072125e-01,0.000000000000000000e+00
2.040000000000000000e+02,-1.640962310378496491e-01,0.000000000000000000e+00
2.050000000000000000e+02,-2.798989688715239343e-01,0.000000000000000000e+00
2.060000000000000000e+02,-1.640239979850623420e-01,0.000000000000000000e+00
2.070000000000000000e+02,-2.039937631768575788e-01,0.000000000000000000e+00
2.080000000000000000e+02,-1.009218216088220710e-01,0.000000000000000000e+00
2.090000000000000000e+02,-1.086042261086442445e-01,0.000000000000000000e+00
2.100000000000000000e+02,1.482149914776384192e-01,0.000000000000000000e+00
2.110000000000000000e+02,-5.401469205222830805e-02,0.000000000000000000e+00
2.120000000000000000e+02,-3.848387175864921572e-02,0.000000000000000000e+00
2.130000000000000000e+02,1.467476587938905744e-02,0.000000000000000000e+00
2.140000000000000000e+02,1.321054341866768345e-01,0.000000000000000000e+00
2.150000000000000000e+02,1.299959309925931839e-01,0.000000000000000000e+00
2.160000000000000000e+02,1.257958241453216719e-01,0.000000000000000000e+00
2.170000000000000000e+02,2.184667114330536841e-01,0.000000000000000000e+00
2.180000000000000000e+02,2.150176856588594254e-01,0.000000000000000000e+00
2.190000000000000000e+02,4.099416563314621786e-01,0.000000000000000000e+00
2.200000000000000000e+02,5.534355070987962977e-01,0.000000000000000000e+00
2.210000000000000000e+02,6.237712935006044512e-01,0.000000000000000000e+00
2.220000000000000000e+02,3.421968390102079760e-01,0.000000000000000000e+00
2.230000000000000000e+02,1.743718744587691993e-01,0.000000000000000000e+00
2.240000000000000000e+02,-6.659011439192674686e-02,0.000000000000000000e+00
2.250000000000000000e+02,1.746312723070548023e-01,0.000000000000000000e+00
2.260000000000000000e+02,-6.585069230416612518e-02,0.000000000000000000e+00
2.270000000000000000e+02,2.394495296447431976e-01,0.000000000000000000e+00
2.280000000000000000e+02,1.871982724718517788e-01,0.000000000000000000e+00
2.290000000000000000e+02,5.446021751014606949e+00,0.000000000000000000e+00
2.300000000000000000e+02,1.815633048682392170e+00,1.000000000000000000e+00
2.310000000000000000e+02,-2.621072131131356731e+00,0.000000000000000000e+00
2.320000000000000000e+02,-3.545462813304470773e-01,0.000000000000000000e+00
2.330000000000000000e+02,-7.858453611065572275e-01,0.000000000000000000e+00
2.340000000000000000e+02,-2.323034974749615122e-01,0.000000000000000000e+00
2.350000000000000000e+02,-5.551070577225437619e-01,0.000000000000000000e+00
2.360000000000000000e+02,-1.883321021538978957e-01,0.000000000000000000e+00
2.370000000000000000e+02,-3.255511791928532572e-01,0.000000000000000000e+00
2.380000000000000000e+02,-1.538255962138532044e-02,0.000000000000000000e+00
2.390000000000000000e+02,3.533306303519366531e-02,0.000000000000000000e+00
2.400000000000000000e+02,2.319015794349734705e-01,0.000000000000000000e+00
2.410000000000000000e+02,2.869178123773385991e-01,0.000000000000000000e+00
2.420000000000000000e+02,7.512485831249879897e-01,0.000000000000000000e+00
2.430000000000000000e+02,8.788817137483985187e-01,0.000000000000000000e+00
2.440000000000000000e+02,1.120138953346108801e+00,0.000000000000000000e+00
2.450000000000000000e+02,7.842800587117486621e-01,0.000000000000000000e+00
2.460000000000000000e+02,4.183798622197847372e-01,0.000000000000000000e+00
2.470000000000000000e+02,-5.982103065459078994e-01,0.000000000000000000e+00
2.480000000000000000e+02,-7.859663050215369706e-01,0.000000000000000000e+00
2.490000000000000000e+02,-1.255459019608862858e+00,0.000000000000000000e+00
2.500000000000000000e+02,-9.326050803492801355e-01,0.000000000000000000e+00
2.510000000000000000e+02,-1.026102907153469745e+00,0.000000000000000000e+00
2.520000000000000000e+02,-8.489170544649277117e-01,0.000000000000000000e+00
2.530000000000000000e+02,-8.651020018040365134e-01,0.000000000000000000e+00
2.540000000000000000e+02,-6.724554858852368477e-01,0.000000000000000000e+00
2.550000000000000000e+02,-7.586927842570925229e-01,0.000000000000000000e+00
2.560000000000000000e+02,-4.920959094736094830e-01,0.000000000000000000e+00
2.570000000000000000e+02,-5.023242579421144383e-01,0.000000000000000000e+00
2.580000000000000000e+02,-3.140027347269521707e-01,0.000000000000000000e+00
2.590000000000000000e+02,-4.129731868502529712e-01,0.000000000000000000e+00
2.600000000000000000e+02,-1.052616422118006489e-01,0.000000000000000000e+00
2.610000000000000000e+02,-2.445237221824780871e-01,0.000000000000000000e+00
2.620000000000000000e+02,-8.884813435723480646e-02,0.000000000000000000e+00
2.630000000000000000e+02,-1.578615509342951584e-01,0.000000000000000000e+00
2.640000000000000000e+02,-2.014915338465703490e-02,0.000000000000000000e+00
2.650000000000000000e+02,-1.169786008481630557e-01,0.000000000000000000e+00
2.660000000000000000e+02,5.503416335477786386e-02,0.000000000000000000e+00
2.670000000000000000e+02,-2.509238348665340790e-02,0.000000000000000000e+00
2.680000000000000000e+02,1.372732430658169245e-01,0.000000000000000000e+00
2.690000000000000000e+02,4.316298975417268841e-02,0.000000000000000000e+00
2.700000000000000000e+02,1.773034941679016985e-01,0.000000000000000000e+00
2.710000000000000000e+02,2.997284090064356379e-02,0.000000000000000000e+00
2.720000000000000000e+02,1.127497537558154739e-01,0.000000000000000000e+00
2.730000000000000000e+02,1.540306029103979679e-01,0.000000000000000000e+00
2.740000000000000000e+02,1.991764695060871115e-01,0.000000000000000000e+00
2.750000000000000000e+02,3.760145341291298293e-01,0.000000000000000000e+00
2.760000000000000000e+02,5.729007657528562003e-01,0.000000000000000000e+00
2.770000000000000000e+02,5.374405417078688130e-01,0.000000000000000000e+00
2.780000000000000000e+02,5.118455383812764437e-01,0.000000000000000000e+00
2.790000000000000000e+02,3.829307189795783661e-01,0.000000000000000000e+00
2.800000000000000000e+02,2.499780661986302499e-01,0.000000000000000000e+00
2.810000000000000000e+02,7.136340631569089432e-02,0.000000000000000000e+00
2.820000000000000000e+02,1.018342164394906574e-01,0.000000000000000000e+00
2.830000000000000000e+02,5.685717427210804087e-02,0.000000000000000000e+00
2.840000000000000000e+02,-1.173740220118736771e-01,0.000000000000000000e+00
2.850000000000000000e+02,2.402772004607819589e+00,0.000000000000000000e+00
2.860000000000000000e+02,5.831213028690380717e+00,0.000000000000000000e+00
2.870000000000000000e+02,-1.546292062377373266e+00,1.000000000000000000e+00
2.880000000000000000e+02,-1.463016851982674282e+00,0.000000000000000000e+00
2.890000000000000000e+02,-4.209770830935006258e-01,0.000000000000000000e+00
2.900000000000000000e+02,-7.416056416507796900e-01,0.000000000000000000e+00
2.910000000000000000e+02,-5.352866740107750099e-01,0.000000000000000000e+00
2.920000000000000000e+02,-3.838290816525444793e-01,0.000000000000000000e+00
2.930000000000000000e+02,-2.557933846912670561e-01,0.000000000000000000e+00
2.940000000000000000e+02,-1.669145281971172734e-01,0.000000000000000000e+00
2.950000000000000000e+02,-1.334907514901459702e-01,0.000000000000000000e+00
2.960000000000000000e+02,5.430033993307793738e-02,0.000000000000000000e+00
2.970000000000000000e+02,2.238354893583812677e-01,0.000000000000000000e+00
2.980000000000000000e+02,3.926888683201610886e-01,0.000000000000000000e+00
2.990000000000000000e+02,7.659231875096743636e-01,0.000000000000000000e+00
3.000000000000000000e+02,1.021379722421734026e+00,0.000000000000000000e+00
3.010000000000000000e+02,8.660160627043889114e-01,0.000000000000000000e+00
3.020000000000000000e+02,6.498815310254301147e-01,0.000000000000000000e+00
3.030000000000000000e+02,-1.285662205316994433e-01,0.000000000000000000e+00
3.040000000000000000e+02,-6.109674118742208782e-01,0.000000000000000000e+00
3.050000000000000000e+02,-1.081360160948205085e+00,0.000000000000000000e+00
3.060000000000000000e+02,-9.718280058026496082e-01,0.000000000000000000e+00
3.070000000000000000e+02,-1.000390501046340752e+00,0.000000000000000000e+00
3.080000000000000000e+02,-9.409883744743228196e-01,0.000000000000000000e+00
3.090000000000000000e+02,-8.376039283163602134e-01,0.000000000000000000e+00
3.100000000000000000e+02,-6.548798413417660225e-01,0.000000000000000000e+00
3.110000000000000000e+02,-6.721484852875015958e-01,0.000000000000000000e+00
3.120000000000000000e+02,-4.461018347419755670e-01,0.000000000000000000e+00
3.130000000000000000e+02,-5.799565441209312278e-01,0.000000000000000000e+00
3.140000000000000000e+02,-2.846598156527139767e-01,0.000000000000000000e+00
3.150000000000000000e+02,-4.222330776812681097e-01,0.000000000000000000e+00
3.160000000000000000e+02,-2.014302859047240046e-01,0.000000000000000000e+00
3.170000000000000000e+02,-4.380332843325218106e-01,0.000000000000000000e+00
3.180000000000000000e+02,-7.616818213970380502e-02,0.000000000000000000e+00
3.190000000000000000e+02,-2.586715161219335646e-01,0.000000000000000000e+00
3.200000000000000000e+02,-9.327752909199582554e-02,0.000000000000000000e+00
3.210000000000000000e+02,-3.107595743774546060e-01,0.000000000000000000e+00
3.220000000000000000e+02,-1.099196030939984456e-02,0.000000000000000000e+00
3.230000000000000000e+02,-2.106867112657878904e-01,0.000000000000000000e+00
3.240000000000000000e+02,8.031134342670170900e-02,0.000000000000000000e+00
3.250000000000000000e+02,-2.716955244832945215e-03,0.000000000000000000e+00
3.260000000000000000e+02,3.362410783821971616e-02,0.000000000000000000e+00
3.270000000000000000e+02,5.507279868101307152e-02,0.000000000000000000e+00
3.280000000000000000e+02,3.999618574632179957e-02,0.000000000000000000e+00
3.290000000000000000e+02,3.153625057371630541e-02,0.000000000000000000e+00
3.300000000000000000e+02,3.596419260174012478e-01,0.000000000000000000e+00
3.310000000000000000e+02,1.434951450158016284e-01,0.000000000000000000e+00
3.320000000000000000e+02,5.902288770929930983e-01,0.000000000000000000e+00
3.330000000000000000e+02,4.549677618399127765e-01,0.000000000000000000e+00
3.340000000000000000e+02,6.152506877274032115e-01,0.000000000000000000e+00
3.350000000000000000e+02,2.489222619059180963e-01,0.000000000000000000e+00
3.360000000000000000e+02,6.918771300346450437e-02,0.000000000000000000e+00
3.370000000000000000e+02,-3.425418644122692636e-03,0.000000000000000000e+00
3.380000000000000000e+02,1.338171477924978703e-01,0.000000000000000000e+00
3.390000000000000000e+02,-4.689176547109571297e-02,0.000000000000000000e+00
3.400000000000000000e+02,-5.705418071410883057e-02,0.000000000000000000e+00
3.410000000000000000e+02,1.269797283250019504e+00,0.000000000000000000e+00
3.420000000000000000e+02,6.324068355921671269e+00,0.000000000000000000e+00
3.430000000000000000e+02,-6.156444119813732352e-02,1.000000000000000000e+00
3.440000000000000000e+02,-2.033204952557039480e+00,0.000000000000000000e+00
3.450000000000000000e+02,-3.544715783234353434e-01,0.000000000000000000e+00
3.460000000000000000e+02,-7.988238074269737865e-01,0.000000000000000000e+00
3.470000000000000000e+02,-4.291163262142569379e-01,0.000000000000000000e+00
3.480000000000000000e+02,-5.100963290925606408e-01,0.000000000000000000e+00
3.490000000000000000e+02,-2.746175197154173131e-01,0.000000000000000000e+00
3.500000000000000000e+02,-2.934863466538721322e-01,0.000000000000000000e+00
3.510000000000000000e+02,7.961325854725569834e-03,0.000000000000000000e+00
3.520000000000000000e+02,-5.699817224857017112e-02,0.000000000000000000e+00
3.530000000000000000e+02,2.111312605421382105e-01,0.000000000000000000e+00
3.540000000000000000e+02,3.290759395492648398e-01,0.000000000000000000e+00
3.550000000000000000e+02,6.855839945092458976e-01,0.000000000000000000e+00
3.560000000000000000e+02,9.640082922470221138e-01,0.000000000000000000e+00
3.570000000000000000e+02,9.284874785264665142e-01,0.000000000000000000e+00
3.580000000000000000e+02,8.113603974388341467e-01,0.000000000000000000e+00
3.590000000000000000e+02,3.997300583403258500e-02,0.000000000000000000e+00
3.600000000000000000e+02,-4.807949266738010818e-01,0.000000000000000000e+00
3.610000000000000000e+02,-8.518045223598068594e-01,0.000000000000000000e+00
3.620000000000000000e+02,-1.026437383712857088e+00,0.000000000000000000e+00
3.630000000000000000e+02,-9.551679849417040735e-01,0.000000000000000000e+00
3.640000000000000000e+02,-9.520276213036641400e-01,0.000000000000000000e+00
3.650000000000000000e+02,-7.655519519640319182e-01,0.000000000000000000e+00
3.660000000000000000e+02,-7.291932108424979964e-01,0.000000000000000000e+00
3.670000000000000000e+02,-5.974712586646148127e-01,0.000000000000000000e+00
3.680000000000000000e+02,-6.104220856203484979e-01,0.000000000000000000e+00
3.690000000000000000e+02,-4.665633954582884546e-01,0.000000000000000000e+00
3.700000000000000000e+02,-4.084164012724263992e-01,0.000000000000000000e+00
3.710000000000000000e+02,-4.524111743254643492e-01,0.000000000000000000e+00
3.720000000000000000e+02,-2.731273327135530504e-01,0.000000000000000000e+00
3.730000000000000000e+02,-2.689955813673582941e-01,0.000000000000000000e+00
3.740000000000000000e+02,-1.915801156780533032e-01,0.000000000000000000e+00
3.750000000000000000e+02,-2.285868931527265113e-01,0.000000000000000000e+00
3.760000000000000000e+02,-1.539567672525623543e-01,0.000000000000000000e+00
3.770000000000000000e+02,-4.190174794984942441e-02,0.000000000000000000e+00
3.780000000000000000e+02,-8.623176715266687997e-02,0.000000000000000000e+00
3.790000000000000000e+02,-8.206028276172366853e-02,0.000000000000000000e+00
3.800000000000000000e+02,2.675970642707282271e-02,0.000000000000000000e+00
3.810000000000000000e+02,-4.416115862569011674e-02,0.000000000000000000e+00
3.820000000000000000e+02,1.522141766195377888e-01,0.000000000000000000e+00
3.830000000000000000e+02,7.818492290993303562e-02,0.000000000000000000e+00
3.840000000000000000e+02,1.310785436576432927e-01,0.000000000000000000e+00
3.850000000000000000e+02,9.877128621793551666e-02,0.000000000000000000e+00
3.860000000000000000e+02,2.666098288179234443e-01,0.000000000000000000e+00
3.870000000000000000e+02,3.177715754200799436e-01,0.000000000000000000e+00
3.880000000000000000e+02,3.381790636824497098e-01,0.000000000000000000e+00
3.890000000000000000e+02,5.067667775817702447e-01,0.000000000000000000e+00
3.900000000000000000e+02,6.973699838472503520e-01,0.000000000000000000e+00
3.910000000000000000e+02,3.365078200251086504e-01,0.000000000000000000e+00
3.920000000000000000e+02,9.249715724768785285e-02,0.000000000000000000e+00
3.930000000000000000e+02,1.496211833440941885e-01,0.000000000000000000e+00
3.940000000000000000e+02,1.731954236136996061e-01,0.000000000000000000e+00
3.950000000000000000e+02,-9.223921764130626338e-03,0.000000000000000000e+00
3.960000000000000000e+02,-8.908033236524533216e-02,0.000000000000000000e+00
3.970000000000000000e+02,9.219289657279041705e-01,0.000000000000000000e+00
3.980000000000000000e+02,5.896290593910701539e+00,0.000000000000000000e+00
3.990000000000000000e+02,2.041569833602058515e-01,1.000000000000000000e+00
4.000000000000000000e+02,-2.420822139628150627e+00,0.000000000000000000e+00
4.010000000000000000e+02,-1.626741969448479153e-01,0.000000000000000000e+00
4.020000000000000000e+02,-6.070206772218009750e-01,0.000000000000000000e+00
4.030000000000000000e+02,-2.244969353205068796e-01,0.000000000000000000e+00
4.040000000000000000e+02,-3.977709112800124625e-01,0.000000000000000000e+00
4.050000000000000000e+02,-8.637797821479387128e-02,0.000000000000000000e+00
4.060000000000000000e+02,-1.732434458783896070e-01,0.000000000000000000e+00
4.070000000000000000e+02,4.411849134427333480e-02,0.000000000000000000e+00
4.080000000000000000e+02,1.550124973369878811e-01,0.000000000000000000e+00
4.090000000000000000e+02,3.740781246631258994e-01,0.000000000000000000e+00
4.100000000000000000e+02,4.828093178095617111e-01,0.000000000000000000e+00
4.110000000000000000e+02,7.969228226195851361e-01,0.000000000000000000e+00
4.120000000000000000e+02,9.638505570439774850e-01,0.000000000000000000e+00
4.130000000000000000e+02,1.228116081196745091e+00,0.000000000000000000e+00
4.140000000000000000e+02,7.060743735837432533e-01,0.000000000000000000e+00
4.150000000000000000e+02,2.097826900360111602e-01,0.000000000000000000e+00
4.160000000000000000e+02,-5.707250459974687606e-01,0.000000000000000000e+00
4.170000000000000000e+02,-9.181431352563718118e-01,0.000000000000000000e+00
4.180000000000000000e+02,-1.107353593038769457e+00,0.000000000000000000e+00
4.190000000000000000e+02,-8.581671063791324050e-01,0.000000000000000000e+00
4.200000000000000000e+02,-9.010493515677295839e-01,0.000000000000000000e+00
4.210000000000000000e+02,-7.607646056579351335e-01,0.000000000000000000e+00
4.220000000000000000e+02,-8.199521440777832737e-01,0.000000000000000000e+00
4.230000000000000000e+02,-5.351873494501878659e-01,0.000000000000000000e+00
4.240000000000000000e+02,-6.261091037442183538e-01,0.000000000000000000e+00
4.250000000000000000e+02,-4.181781151561504983e-01,0.000000000000000000e+00
4.260000000000000000e+02,-4.766007665570733409e-01,0.000000000000000000e+00
4.270000000000000000e+02,-2.977211849232627161e-01,0.000000000000000000e+00
4.280000000000000000e+02,-3.761266032887943256e-01,0.000000000000000000e+00
4.290000000000000000e+02,-2.752701541195052837e-01,0.000000000000000000e+00
4.300000000000000000e+02,-2.559600353092320590e-01,0.000000000000000000e+00
4.310000000000000000e+02,-1.199177430847450793e-01,0.000000000000000000e+00
4.320000000000000000e+02,-1.637933788508891542e-01,0.000000000000000000e+00
4.330000000000000000e+02,-1.876879180196738550e-01,0.000000000000000000e+00
4.340000000000000000e+02,-1.264565806060619635e-01,0.000000000000000000e+00
4.350000000000000000e+02,-6.450135959787367534e-02,0.000000000000000000e+00
4.360000000000000000e+02,-1.901523407385353193e-01,0.000000000000000000e+00
4.370000000000000000e+02,5.504258558580091276e-02,0.000000000000000000e+00
4.380000000000000000e+02,-1.062069258025152285e-01,0.000000000000000000e+00
4.390000000000000000e+02,1.020556994421864677e-01,0.000000000000000000e+00
4.400000000000000000e+02,-8.416362896700986182e-03,0.000000000000000000e+00
4.410000000000000000e+02,1.396189789291411854e-01,0.000000000000000000e+00
4.420000000000000000e+02,6.591249087685165098e-02,0.000000000000000000e+00
4.430000000000000000e+02,2.797831619898858424e-01,0.000000000000000000e+00
4.440000000000000000e+02,4.259415279841701762e-01,0.000000000000000000e+00
4.450000000000000000e+02,5.107405716268192952e-01,0.000000000000000000e+00
4.460000000000000000e+02,3.115334934613685491e-01,0.000000000000000000e+00
4.470000000000000000e+02,1.896127886267148788e-01,0.000000000000000000e+00
4.480000000000000000e+02,-1.054637620772955198e-01,0.000000000000000000e+00
4.490000000000000000e+02,1.798205595407095791e-01,0.000000000000000000e+00
4.500000000000000000e+02,-1.182407438279041573e-01,0.000000000000000000e+00
4.510000000000000000e+02,3.117812859832330696e-01,0.000000000000000000e+00
4.520000000000000000e+02,-7.479884318731699899e-02,0.000000000000000000e+00
4.530000000000000000e+02,5.370266413331883371e+00,0.000000000000000000e+00
4.540000000000000000e+02,2.157423951443653731e+00,1.000000000000000000e+00
4.550000000000000000e+02,-2.575905387380051259e+00,0.000000000000000000e+00
4.560000000000000000e+02,-4.665894305291020672e-01,0.000000000000000000e+00
4.570000000000000000e+02,-8.508155494684660480e-01,0.000000000000000000e+00
4.580000000000000000e+02,-2.159355844379426403e-01,0.000000000000000000e+00
4.590000000000000000e+02,-6.296199259286452410e-01,0.000000000000000000e+00
4.600000000000000000e+02,-1.858763251210076850e-01,0.000000000000000000e+00
4.610000000000000000e+02,-3.156897884171091517e-01,0.000000000000000000e+00
4.620000000000000000e+02,-2.820955455362847766e-02,0.000000000000000000e+00
4.630000000000000000e+02,-1.146890522674909457e-01,0.000000000000000000e+00
4.640000000000000000e+02,1.468942397145679701e-01,0.000000000000000000e+00
4.650000000000000000e+02,4.068550034393222381e-01,0.000000000000000000e+00
4.660000000000000000e+02,7.638385822218388688e-01,0.000000000000000000e+00
4.670000000000000000e+02,8.219493873844019305e-01,0.000000000000000000e+00
4.680000000000000000e+02,9.968654600162519808e-01,0.000000000000000000e+00
4.690000000000000000e+02,8.422352416148274346e-01,0.000000000000000000e+00
4.700000000000000000e+02,3.333650734907153690e-01,0.000000000000000000e+00
4.710000000000000000e+02,-3.239474813656919028e-01,0.000000000000000000e+00
4.720000000000000000e+02,-7.559259206826602906e-01,0.000000000000000000e+00
4.730000000000000000e+02,-1.094106089516049485e+00,0.000000000000000000e+00
4.740000000000000000e+02,-9.697113096733869231e-01,0.000000000000000000e+00
4.750000000000000000e+02,-9.941844646990312118e-01,0.000000000000000000e+00
4.760000000000000000e+02,-7.832405783142371014e-01,0.000000000000000000e+00
4.770000000000000000e+02,-8.017743488495751025e-01,0.000000000000000000e+00
4.780000000000000000e+02,-6.175605651055059431e-01,0.000000000000000000e+00
4.790000000000000000e+02,-6.865826431021790910e-01,0.000000000000000000e+00
4.800000000000000000e+02,-4.739222522568358742e-01,0.000000000000000000e+00
4.810000000000000000e+02,-5.305958112490124501e-01,0.000000000000000000e+00
4.820000000000000000e+02,-3.228766673935114517e-01,0.000000000000000000e+00
4.830000000000000000e+02,-2.918769185714233383e-01,0.000000000000000000e+00
4.840000000000000000e+02,-2.348588438160251479e-01,0.000000000000000000e+00
4.850000000000000000e+02,-2.654372695408049876e-01,0.000000000000000000e+00
4.860000000000000000e+02,-1.278353978892654286e-01,0.000000000000000000e+00
4.870000000000000000e+02,-1.313626091008603669e-01,0.000000000000000000e+00
4.880000000000000000e+02,-1.191686522471823717e-01,0.000000000000000000e+00
4.890000000000000000e+02,-7.118896672766938938e-02,0.000000000000000000e+00
4.900000000000000000e+02,4.827024027639525983e-02,0.000000000000000000e+00
4.910000000000000000e+02,3.430712286449111303e-02,0.000000000000000000e+00
4.920000000000000000e+02,-5.914883392697778408e-02,0.000000000000000000e+00
4.930000000000000000e+02,1.482509708377474644e-01,0.000000000000000000e+00
4.940000000000000000e+02,3.377246505011141653e-02,0.000000000000000000e+00
4.950000000000000000e+02,1.384033302832242684e-01,0.000000000000000000e+00
4.960000000000000000e+02,1.340417525396165321e-01,0.000000000000000000e+00
4.970000000000000000e+02,2.455281379081569459e-01,0.000000000000000000e+00
4.980000000000000000e+02,2.531358653435337724e-01,0.000000000000000000e+00
4.990000000000000000e+02,4.773797257084403944e-01,0.000000000000000000e+00
5.000000000000000000e+02,5.045811600857988966e-01,0.000000000000000000e+00
5.010000000000000000e+02,6.878636265496298474e-01,0.000000000000000000e+00
5.020000000000000000e+02,4.003143813958938146e-01,0.000000000000000000e+00
5.030000000000000000e+02,1.787866196239855932e-01,0.000000000000000000e+00
5.040000000000000000e+02,-5.155723551260148890e-02,0.000000000000000000e+00
5.050000000000000000e+02,1.742171991597518121e-01,0.000000000000000000e+00
5.060000000000000000e+02,5.250401446769240033e-02,0.000000000000000000e+00
5.070000000000000000e+02,-2.238249201395902180e-02,0.000000000000000000e+00
5.080000000000000000e+02,8.504557834128738669e-01,0.000000000000000000e+00
5.090000000000000000e+02,6.188037770939849302e+00,0.000000000000000000e+00
5.100000000000000000e+02,4.299589584779849316e-01,1.000000000000000000e+00
5.110000000000000000e+02,-2.350191499996791222e+00,0.000000000000000000e+00
5.120000000000000000e+02,-2.037064908767918514e-01,0.000000000000000000e+00
5.130000000000000000e+02,-9.640102085412597388e-01,0.000000000000000000e+00
5.140000000000000000e+02,-2.941471149096950843e-01,0.000000000000000000e+00
5.150000000000000000e+02,-5.688278444062737638e-01,0.000000000000000000e+00
5.160000000000000000e+02,-1.460744130977271460e-01,0.000000000000000000e+00
5.170000000000000000e+02,-2.300923315132045455e-01,0.000000000000000000e+00
5.180000000000000000e+02,2.371567892657508447e-02,0.000000000000000000e+00
5.190000000000000000e+02,-9.489284370892440978e-02,0.000000000000000000e+00
5.200000000000000000e+02,2.126529109973086529e-01,0.000000000000000000e+00
5.210000000000000000e+02,4.023609769109985912e-01,0.000000000000000000e+00
5.220000000000000000e+02,7.659099946866592123e-01,0.000000000000000000e+00
5.230000000000000000e+02,9.520793499490509681e-01,0.000000000000000000e+00
5.240000000000000000e+02,1.127772014873594797e+00,0.000000000000000000e+00
5.250000000000000000e+02,6.985934236928011964e-01,0.000000000000000000e+00
5.260000000000000000e+02,1.761818889911102581e-01,0.000000000000000000e+00
5.270000000000000000e+02,-5.315788332864934684e-01,0.000000000000000000e+00
5.280000000000000000e+02,-8.009398633713797899e-01,0.000000000000000000e+00
5.290000000000000000e+02,-1.110548409623871802e+00,0.000000000000000000e+00
5.300000000000000000e+02,-8.123830114645165246e-01,0.000000000000000000e+00
5.310000000000000000e+02,-9.755215570228517041e-01,0.000000000000000000e+00
5.320000000000000000e+02,-8.786954733728484790e-01,0.000000000000000000e+00
5.330000000000000000e+02,-8.148814782202983276e-01,0.000000000000000000e+00
5.340000000000000000e+02,-6.223043687152988168e-01,0.000000000000000000e+00
5.350000000000000000e+02,-6.792846680009759774e-01,0.000000000000000000e+00
5.360000000000000000e+02,-3.906161458338645587e-01,0.000000000000000000e+00
5.370000000000000000e+02,-4.387176751940815023e-01,0.000000000000000000e+00
5.380000000000000000e+02,-3.548362398433660969e-01,0.000000000000000000e+00
5.390000000000000000e+02,-3.286899795357074439e-01,0.000000000000000000e+00
5.400000000000000000e+02,-1.791328942988783812e-01,0.000000000000000000e+00
5.410000000000000000e+02,-2.484396844601687304e-01,0.000000000000000000e+00
5.420000000000000000e+02,-1.707778793174758170e-01,0.000000000000000000e+00
5.430000000000000000e+02,-2.601934282623948880e-01,0.000000000000000000e+00
5.440000000000000000e+02,-4.103775772597003518e-02,0.000000000000000000e+00
5.450000000000000000e+02,-1.348026204338019785e-01,0.000000000000000000e+00
5.460000000000000000e+02,3.797156585245628491e-02,0.000000000000000000e+00
5.470000000000000000e+02,-6.766124144595814238e-02,0.000000000000000000e+00
5.480000000000000000e+02,1.595319751556979748e-01,0.000000000000000000e+00
5.490000000000000000e+02,5.279471002011034558e-02,0.000000000000000000e+00
5.500000000000000000e+02,1.461810759721524633e-01,0.000000000000000000e+00
5.510000000000000000e+02,9.486787523532855954e-03,0.000000000000000000e+00
5.520000000000000000e+02,2.318589543293098354e-01,0.000000000000000000e+00
5.530000000000000000e+02,1.461446222481044277e-01,0.000000000000000000e+00
5.540000000000000000e+02,3.600194441629341324e-01,0.000000000000000000e+00
5.550000000000000000e+02,4.190336266584545055e-01,0.000000000000000000e+00
5.560000000000000000e+02,5.700715373547100562e-01,0.000000000000000000e+00
5.570000000000000000e+02,3.817954582813645747e-01,0.000000000000000000e+00
5.580000000000000000e+02,2.478916867092001153e-01,0.000000000000000000e+00
5.590000000000000000e+02,-1.123311912487544306e-01,0.000000000000000000e+00
5.600000000000000000e+02,1.762291345428642630e-01,0.000000000000000000e+00
5.610000000000000000e+02,-1.403873950796902803e-01,0.000000000000000000e+00
5.620000000000000000e+02,2.954257782598569970e-01,0.000000000000000000e+00
5.630000000000000000e+02,-4.606958638289267438e-01,0.000000000000000000e+00
5.640000000000000000e+02,3.866647252711251426e+00,0.000000000000000000e+00
5.650000000000000000e+02,4.274790939723707162e+00,0.000000000000000000e+00
5.660000000000000000e+02,-2.695719242369993829e+00,1.000000000000000000e+00
5.670000000000000000e+02,-7.049485585001861176e-01,0.000000000000000000e+00
5.680000000000000000e+02,-6.699958330201640777e-01,0.000000000000000000e+00
5.690000000000000000e+02,-4.088412299655572735e-01,0.000000000000000000e+00
5.700000000000000000e+02,-3.652630676422581879e-01,0.000000000000000000e+00
5.710000000000000000e+02,-2.547081247613129373e-01,0.000000000000000000e+00
5.720000000000000000e+02,-2.307439368859221518e-01,0.000000000000000000e+00
5.730000000000000000e+02,-4.706491573582500393e-02,0.000000000000000000e+00
5.740000000000000000e+02,-1.043276551114833833e-01,0.000000000000000000e+00
5.750000000000000000e+02,1.751819861059511485e-01,0.000000000000000000e+00
5.760000000000000000e+02,3.230499116141066773e-01,0.000000000000000000e+00
5.770000000000000000e+02,6.376327236637066020e-01,0.000000000000000000e+00
5.780000000000000000e+02,8.562434460628481903e-01,0.000000000000000000e+00
5.790000000000000000e+02,1.059842698138075079e+00,0.000000000000000000e+00
5.800000000000000000e+02,9.114765340025222651e-01,0.000000000000000000e+00
5.810000000000000000e+02,4.768794737579480914e-01,0.000000000000000000e+00
5.820000000000000000e+02,-2.791186086857112003e-01,0.000000000000000000e+00
5.830000000000000000e+02,-8.510033711602404960e-01,0.000000000000000000e+00
5.840000000000000000e+02,-1.006204927030438290e+00,0.000000000000000000e+00
5.850000000000000000e+02,-9.954798314415770344e-01,0.000000000000000000e+00
5.860000000000000000e+02,-9.576414187161693681e-01,0.000000000000000000e+00
5.870000000000000000e+02,-7.779382609494305267e-01,0.000000000000000000e+00
5.880000000000000000e+02,-8.663671601238712716e-01,0.000000000000000000e+00
5.890000000000000000e+02,-7.363796589331768061e-01,0.000000000000000000e+00
5.900000000000000000e+02,-5.687029459715665647e-01,0.000000000000000000e+00
5.910000000000000000e+02,-4.950294400709766007e-01,0.000000000000000000e+00
5.920000000000000000e+02,-3.998869981103375104e-01,0.000000000000000000e+00
5.930000000000000000e+02,-3.303406472352254375e-01,0.000000000000000000e+00
5.940000000000000000e+02,-3.552459519745679861e-01,0.000000000000000000e+00
5.950000000000000000e+02,-3.788779355274530802e-01,0.000000000000000000e+00
5.960000000000000000e+02,-2.255288833858657138e-01,0.000000000000000000e+00
5.970000000000000000e+02,-1.622820813937856099e-01,0.000000000000000000e+00
5.980000000000000000e+02,-1.499597060096138634e-01,0.000000000000000000e+00
5.990000000000000000e+02,-5.933000767936166819e-02,0.000000000000000000e+00
6.000000000000000000e+02,-1.574740520025249557e-01,0.000000000000000000e+00
6.010000000000000000e+02,-1.792098538913253561e-02,0.000000000000000000e+00
6.020000000000000000e+02,-3.651954508082221745e-02,0.000000000000000000e+00
6.030000000000000000e+02,5.560052083191617880e-03,0.000000000000000000e+00
6.040000000000000000e+02,9.786835838544769017e-02,0.000000000000000000e+00
6.050000000000000000e+02,5.873234956007451768e-02,0.000000000000000000e+00
6.060000000000000000e+02,7.236529960701634789e-02,0.000000000000000000e+00
6.070000000000000000e+02,1.860797886244760502e-01,0.000000000000000000e+00
6.080000000000000000e+02,2.549994160016266775e-01,0.000000000000000000e+00
6.090000000000000000e+02,3.140264769070956752e-01,0.000000000000000000e+00
6.100000000000000000e+02,5.826997682602620410e-01,0.000000000000000000e+00
6.110000000000000000e+02,6.097070108630175955e-01,0.000000000000000000e+00
6.120000000000000000e+02,3.613639071669014768e-01,0.000000000000000000e+00
6.130000000000000000e+02,7.072174419905424836e-02,0.000000000000000000e+00
6.140000000000000000e+02,1.864494846151276003e-02,0.000000000000000000e+00
6.150000000000000000e+02,7.742077924674881095e-02,0.000000000000000000e+00
6.160000000000000000e+02,-4.141855418700973041e-02,0.000000000000000000e+00
6.170000000000000000e+02,4.871311780548845394e-02,0.000000000000000000e+00
6.180000000000000000e+02,7.882747830789356147e-01,0.000000000000000000e+00
6.190000000000000000e+02,5.721130366614902485e+00,0.000000000000000000e+00
6.200000000000000000e+02,3.261996342674221006e-01,1.000000000000000000e+00
6.210000000000000000e+02,-2.236357765378991225e+00,0.000000000000000000e+00
6.220000000000000000e+02,-2.356026139491385341e-01,0.000000000000000000e+00
6.230000000000000000e+02,-7.043295220316578842e-01,0.000000000000000000e+00
6.240000000000000000e+02,-2.325223211057163009e-01,0.000000000000000000e+00
6.250000000000000000e+02,-3.562770350632816219e-01,0.000000000000000000e+00
6.260000000000000000e+02,-2.922125495983718402e-02,0.000000000000000000e+00
6.270000000000000000e+02,-1.904309957986822510e-01,0.000000000000000000e+00
6.280000000000000000e+02,7.833399381271410888e-02,0.000000000000000000e+00
6.290000000000000000e+02,-3.113582467923373814e-02,0.000000000000000000e+00
6.300000000000000000e+02,3.718710696979206642e-01,0.000000000000000000e+00
6.310000000000000000e+02,3.715369832253554994e-01,0.000000000000000000e+00
6.320000000000000000e+02,8.181595915541453046e-01,0.000000000000000000e+00
6.330000000000000000e+02,8.480039293978315351e-01,0.000000000000000000e+00
6.340000000000000000e+02,1.103346946380076687e+00,0.000000000000000000e+00
6.350000000000000000e+02,8.101420341606619946e-01,0.000000000000000000e+00
6.360000000000000000e+02,2.405192108809189877e-01,0.000000000000000000e+00
6.370000000000000000e+02,-4.823318171890816353e-01,0.000000000000000000e+00
6.380000000000000000e+02,-7.354227336148064786e-01,0.000000000000000000e+00
6.390000000000000000e+02,-9.557178664659050638e-01,0.000000000000000000e+00
6.400000000000000000e+02,-9.546313237410007924e-01,0.000000000000000000e+00
6.410000000000000000e+02,-8.862003281354311479e-01,0.000000000000000000e+00
6.420000000000000000e+02,-7.815773473384924896e-01,0.000000000000000000e+00
6.430000000000000000e+02,-7.497021917231468935e-01,0.000000000000000000e+00
6.440000000000000000e+02,-5.354496125400881601e-01,0.000000000000000000e+00
6.450000000000000000e+02,-5.141632893312670927e-01,0.000000000000000000e+00
6.460000000000000000e+02,-3.697676294239276018e-01,0.000000000000000000e+00
6.470000000000000000e+02,-4.285491236543433891e-01,0.000000000000000000e+00
6.480000000000000000e+02,-2.963627341411167460e-01,0.000000000000000000e+00
6.490000000000000000e+02,-3.176313654712043522e-01,0.000000000000000000e+00
6.500000000000000000e+02,-1.296396318838418660e-01,0.000000000000000000e+00
6.510000000000000000e+02,-2.819887103011600726e-01,0.000000000000000000e+00
6.520000000000000000e+02,-1.884694309702508452e-01,0.000000000000000000e+00
6.530000000000000000e+02,-2.585882868050877748e-01,0.000000000000000000e+00
6.540000000000000000e+02,-1.571794342124321897e-01,0.000000000000000000e+00
6.550000000000000000e+02,-2.074131449812693373e-01,0.000000000000000000e+00
6.560000000000000000e+02,-1.007000747329235696e-01,0.000000000000000000e+00
6.570000000000000000e+02,-9.723830983195631827e-02,0.000000000000000000e+00
6.580000000000000000e+02,2.174358032533749152e-02,0.000000000000000000e+00
6.590000000000000000e+02,-8.117285613223983176e-02,0.000000000000000000e+00
6.600000000000000000e+02,1.186371892929410088e-01,0.000000000000000000e+00
6.610000000000000000e+02,1.275153553197599411e-02,0.000000000000000000e+00
6.620000000000000000e+02,1.004474324579406608e-01,0.000000000000000000e+00
6.630000000000000000e+02,1.738509805775206585e-01,0.000000000000000000e+00
6.640000000000000000e+02,3.477630035452738966e-01,0.000000000000000000e+00
6.650000000000000000e+02,5.407809815562469868e-01,0.000000000000000000e+00
6.660000000000000000e+02,5.402964106373467912e-01,0.000000000000000000e+00
6.670000000000000000e+02,2.675227250212478536e-01,0.000000000000000000e+00
6.680000000000000000e+02,1.417347081594400038e-01,0.000000000000000000e+00
6.690000000000000000e+02,-5.237205597379757799e-02,0.000000000000000000e+00
6.700000000000000000e+02,6.411619806339044492e-02,0.000000000000000000e+00
6.710000000000000000e+02,-1.208425695386460968e-01,0.000000000000000000e+00
6.720000000000000000e+02,-1.255523202857185966e-02,0.000000000000000000e+00
6.730000000000000000e+02,5.925419512267025013e-01,0.000000000000000000e+00
6.740000000000000000e+02,6.014199952495184576e+00,0.000000000000000000e+00
6.750000000000000000e+02,4.551043930436021734e-01,1.000000000000000000e+00
6.760000000000000000e+02,-2.400684839263115933e+00,0.000000000000000000e+00
6.770000000000000000e+02,-2.901593985588249991e-01,0.000000000000000000e+00
6.780000000000000000e+02,-8.577567207187951626e-01,0.000000000000000000e+00
6.790000000000000000e+02,-3.444917570878636703e-01,0.000000000000000000e+00
6.800000000000000000e+02,-5.824283861494415904e-01,0.000000000000000000e+00
6.810000000000000000e+02,-1.972328300500179321e-01,0.000000000000000000e+00
6.820000000000000000e+02,-2.897449466779628557e-01,0.000000000000000000e+00
6.830000000000000000e+02,-1.410141373709068377e-02,0.000000000000000000e+00
6.840000000000000000e+02,-1.879174950338800484e-02,0.000000000000000000e+00
6.850000000000000000e+02,2.508418123347051498e-01,0.000000000000000000e+00
6.860000000000000000e+02,2.773410900099620990e-01,0.000000000000000000e+00
6.870000000000000000e+02,7.168734641689240572e-01,0.000000000000000000e+00
6.880000000000000000e+02,9.100165179694553741e-01,0.000000000000000000e+00
6.890000000000000000e+02,1.067422433709408702e+00,0.000000000000000000e+00
6.900000000000000000e+02,8.867221665230400340e-01,0.000000000000000000e+00
6.910000000000000000e+02,2.071331885593580280e-01,0.000000000000000000e+00
6.920000000000000000e+02,-4.740665282098109334e-01,0.000000000000000000e+00
6.930000000000000000e+02,-9.055913854676688191e-01,0.000000000000000000e+00
6.940000000000000000e+02,-8.507795416071216588e-01,0.000000000000000000e+00
6.950000000000000000e+02,-8.660404193176926002e-01,0.000000000000000000e+00
6.960000000000000000e+02,-8.874490434904260816e-01,0.000000000000000000e+00
6.970000000000000000e+02,-7.021526989254434081e-01,0.000000000000000000e+00
6.980000000000000000e+02,-7.473030439952772497e-01,0.000000000000000000e+00
6.990000000000000000e+02,-5.527931680166051631e-01,0.000000000000000000e+00
7.000000000000000000e+02,-5.117636675576664462e-01,0.000000000000000000e+00
7.010000000000000000e+02,-3.017345515205401840e-01,0.000000000000000000e+00
7.020000000000000000e+02,-4.502164642767711444e-01,0.000000000000000000e+00
7.030000000000000000e+02,-2.479937739486565429e-01,0.000000000000000000e+00
7.040000000000000000e+02,-3.053391543978611344e-01,0.000000000000000000e+00
7.050000000000000000e+02,-1.859190740646267381e-01,0.000000000000000000e+00
7.060000000000000000e+02,-1.519479924297956752e-01,0.000000000000000000e+00
7.070000000000000000e+02,-1.820470547169054099e-01,0.000000000000000000e+00
7.080000000000000000e+02,-1.886315011912323147e-01,0.000000000000000000e+00
7.090000000000000000e+02,-1.264143418610278458e-01,0.000000000000000000e+00
7.100000000000000000e+02,-3.164511231521231760e-02,0.000000000000000000e+00
7.110000000000000000e+02,-4.965202437436504884e-02,0.000000000000000000e+00
7.120000000000000000e+02,-9.052741533961970732e-02,0.000000000000000000e+00
7.130000000000000000e+02,6.628900136901458295e-02,0.000000000000000000e+00
7.140000000000000000e+02,1.572431110007898453e-02,0.000000000000000000e+00
7.150000000000000000e+02,1.804901093562120418e-01,0.000000000000000000e+00
7.160000000000000000e+02,-5.376774250970610403e-02,0.000000000000000000e+00
7.170000000000000000e+02,2.325526569978481062e-01,0.000000000000000000e+00
7.180000000000000000e+02,2.482891341544866681e-01,0.000000000000000000e+00
7.190000000000000000e+02,4.166747779017891951e-01,0.000000000000000000e+00
7.200000000000000000e+02,5.078327113077012456e-01,0.000000000000000000e+00
7.210000000000000000e+02,5.967673841558266412e-01,0.000000000000000000e+00
7.220000000000000000e+02,3.815757117449583569e-01,0.000000000000000000e+00
7.230000000000000000e+02,7.021127608616378746e-02,0.000000000000000000e+00
7.240000000000000000e+02,-1.594954492095710871e-02,0.000000000000000000e+00
7.250000000000000000e+02,1.399548001903012651e-01,0.000000000000000000e+00
7.260000000000000000e+02,-6.037366096555005918e-02,0.000000000000000000e+00
7.270000000000000000e+02,-1.342857347263620715e-01,0.000000000000000000e+00
7.280000000000000000e+02,8.704824234432002594e-01,0.000000000000000000e+00
7.290000000000000000e+02,6.052774374908374888e+00,0.000000000000000000e+00
7.300000000000000000e+02,3.741573952610569020e-01,1.000000000000000000e+00
7.310000000000000000e+02,-2.301131880111653594e+00,0.000000000000000000e+00
7.320000000000000000e+02,-3.698129446380222229e-01,0.000000000000000000e+00
7.330000000000000000e+02,-8.189350036067450933e-01,0.000000000000000000e+00
7.340000000000000000e+02,-2.445356767763852135e-01,0.000000000000000000e+00
7.350000000000000000e+02,-4.829867214231752803e-01,0.000000000000000000e+00
7.360000000000000000e+02,-2.404738096489982546e-01,0.000000000000000000e+00
7.370000000000000000e+02,-3.347928747635895985e-01,0.000000000000000000e+00
7.380000000000000000e+02,-9.425936645939864134e-02,0.000000000000000000e+00
7.390000000000000000e+02,2.772223937329868632e-02,0.000000000000000000e+00
7.400000000000000000e+02,2.456833629018053966e-01,0.000000000000000000e+00
7.410000000000000000e+02,4.137776080675897861e-01,0.000000000000000000e+00
7.420000000000000000e+02,8.808040637681407992e-01,0.000000000000000000e+00
7.430000000000000000e+02,8.614924117552907878e-01,0.000000000000000000e+00
7.440000000000000000e+02,1.080116643935772780e+00,0.000000000000000000e+00
7.450000000000000000e+02,8.336107714558552706e-01,0.000000000000000000e+00
7.460000000000000000e+02,2.030804739813945603e-01,0.000000000000000000e+00
7.470000000000000000e+02,-4.558071042881687851e-01,0.000000000000000000e+00
7.480000000000000000e+02,-8.507878422700876353e-01,0.000000000000000000e+00
7.490000000000000000e+02,-1.089816015390011605e+00,0.000000000000000000e+00
7.500000000000000000e+02,-9.671795721802307622e-01,0.000000000000000000e+00
7.510000000000000000e+02,-9.010343120480754919e-01,0.000000000000000000e+00
7.520000000000000000e+02,-8.383231517824083490e-01,0.000000000000000000e+00
7.530000000000000000e+02,-7.050704090701149784e-01,0.000000000000000000e+00
7.540000000000000000e+02,-7.047475659552940863e-01,0.000000000000000000e+00
7.550000000000000000e+02,-5.959376233680186985e-01,0.000000000000000000e+00
7.560000000000000000e+02,-3.987915923633896798e-01,0.000000000000000000e+00
7.570000000000000000e+02,-4.575560650196497936e-01,0.000000000000000000e+00
7.580000000000000000e+02,-3.201900693098248540e-01,0.000000000000000000e+00
7.590000000000000000e+02,-3.175610274076717254e-01,0.000000000000000000e+00
7.600000000000000000e+02,-2.166738335905038226e-01,0.000000000000000000e+00
7.610000000000000000e+02,-2.449208963051730248e-01,0.000000000000000000e+00
7.620000000000000000e+02,-1.339018025857441063e-01,0.000000000000000000e+00
7.630000000000000000e+02,-1.745166313434688143e-01,0.000000000000000000e+00
7.640000000000000000e+02,4.413745598941568038e-02,0.000000000000000000e+00
7.650000000000000000e+02,-6.315121239713185342e-02,0.000000000000000000e+00
7.660000000000000000e+02,-1.187948954849224054e-01,0.000000000000000000e+00
7.670000000000000000e+02,-6.424373486255137433e-02,0.000000000000000000e+00
7.680000000000000000e+02,-3.812104433808463731e-03,0.000000000000000000e+00
7.690000000000000000e+02,1.340490070095993469e-01,0.000000000000000000e+00
7.700000000000000000e+02,1.061037494895388650e-01,0.000000000000000000e+00
7.710000000000000000e+02,1.471869619342448636e-02,0.000000000000000000e+00
7.720000000000000000e+02,2.215482026867401921e-01,0.000000000000000000e+00
7.730000000000000000e+02,2.765683308557526643e-01,0.000000000000000000e+00
7.740000000000000000e+02,3.799460118809495635e-01,0.000000000000000000e+00
7.750000000000000000e+02,6.405310270804913664e-01,0.000000000000000000e+00
7.760000000000000000e+02,3.662306422988328425e-01,0.000000000000000000e+00
7.770000000000000000e+02,2.180248668797652445e-01,0.000000000000000000e+00
7.780000000000000000e+02,-4.583945735485257106e-02,0.000000000000000000e+00
7.790000000000000000e+02,1.852431386096178023e-01,0.000000000000000000e+00
7.800000000000000000e+02,-1.491345222966412032e-01,0.000000000000000000e+00
7.810000000000000000e+02,2.368197479862135246e-01,0.000000000000000000e+00
7.820000000000000000e+02,-3.945081897195833465e-01,0.000000000000000000e+00
7.830000000000000000e+02,3.418209360044377920e+00,0.000000000000000000e+00
7.840000000000000000e+02,4.463003206424469127e+00,0.000000000000000000e+00
7.850000000000000000e+02,-2.527209832229597719e+00,1.000000000000000000e+00
7.860000000000000000e+02,-9.527139052819563192e-01,0.000000000000000000e+00
7.870000000000000000e+02,-5.628166748159594279e-01,0.000000000000000000e+00
7.880000000000000000e+02,-3.998812375564312904e-01,0.000000000000000000e+00
7.890000000000000000e+02,-3.515345337434027106e-01,0.000000000000000000e+00
7.900000000000000000e+02,-2.099133147537179944e-01,0.000000000000000000e+00
7.910000000000000000e+02,-2.733390145742118360e-01,0.000000000000000000e+00
7.920000000000000000e+02,4.688280108286654868e-02,0.000000000000000000e+00
7.930000000000000000e+02,-2.741285631012552182e-02,0.000000000000000000e+00
7.940000000000000000e+02,2.458715640335384367e-01,0.000000000000000000e+00
7.950000000000000000e+02,2.972734184232854737e-01,0.000000000000000000e+00
7.960000000000000000e+02,6.919853557148742951e-01,0.000000000000000000e+00
7.970000000000000000e+02,8.734969231893157104e-01,0.000000000000000000e+00
7.980000000000000000e+02,1.078891842485401265e+00,0.000000000000000000e+00
7.990000000000000000e+02,9.657999224926467896e-01,0.000000000000000000e+00
8.000000000000000000e+02,4.738130144731834692e-01,0.000000000000000000e+00
8.010000000000000000e+02,-8.049143251423818146e-02,0.000000000000000000e+00
8.020000000000000000e+02,-6.303650524455446380e-01,0.000000000000000000e+00
8.030000000000000000e+02,-8.719113397784502562e-01,0.000000000000000000e+00
8.040000000000000000e+02,-9.038014939040212026e-01,0.000000000000000000e+00
8.050000000000000000e+02,-9.624687001182284929e-01,0.000000000000000000e+00
8.060000000000000000e+02,-8.416564618947740550e-01,0.000000000000000000e+00
8.070000000000000000e+02,-6.424174357245251432e-01,0.000000000000000000e+00
8.080000000000000000e+02,-6.291618810221409896e-01,0.000000000000000000e+00
8.090000000000000000e+02,-6.979633632196631243e-01,0.000000000000000000e+00
8.100000000000000000e+02,-4.367197691321926256e-01,0.000000000000000000e+00
8.110000000000000000e+02,-4.861303774966350688e-01,0.000000000000000000e+00
8.120000000000000000e+02,-3.572537811092653670e-01,0.000000000000000000e+00
8.130000000000000000e+02,-2.922003886296914987e-01,0.000000000000000000e+00
8.140000000000000000e+02,-3.378369388088306446e-01,0.000000000000000000e+00
8.150000000000000000e+02,-3.006883484618907421e-01,0.000000000000000000e+00
8.160000000000000000e+02,-2.813644610803842649e-01,0.000000000000000000e+00
8.170000000000000000e+02,-2.426850203642657300e-01,0.000000000000000000e+00
8.180000000000000000e+02,-1.341888707763508048e-01,0.000000000000000000e+00
8.190000000000000000e+02,-1.417344997261588135e-01,0.000000000000000000e+00
8.200000000000000000e+02,-2.599334101614512310e-02,0.000000000000000000e+00
8.210000000000000000e+02,-2.024266905078273837e-01,0.000000000000000000e+00
8.220000000000000000e+02,1.957040396009728650e-02,0.000000000000000000e+00
8.230000000000000000e+02,3.355895629118393897e-02,0.000000000000000000e+00
8.240000000000000000e+02,5.037552063715180356e-02,0.000000000000000000e+00
8.250000000000000000e+02,1.573846808802461250e-01,0.000000000000000000e+00
8.260000000000000000e+02,1.752831243470269751e-01,0.000000000000000000e+00
8.270000000000000000e+02,2.914339950403422308e-01,0.000000000000000000e+00
8.280000000000000000e+02,4.137006388614180574e-01,0.000000000000000000e+00
8.290000000000000000e+02,5.149653025453495570e-01,0.000000000000000000e+00
8.300000000000000000e+02,4.548885877419111545e-01,0.000000000000000000e+00
8.310000000000000000e+02,1.574860872529341149e-01,0.000000000000000000e+00
8.320000000000000000e+02,-3.743504385936110429e-02,0.000000000000000000e+00
8.330000000000000000e+02,1.778643334739694881e-01,0.000000000000000000e+00
8.340000000000000000e+02,-1.671389922877724032e-01,0.000000000000000000e+00
8.350000000000000000e+02,1.877962691535527973e-01,0.000000000000000000e+00
8.360000000000000000e+02,-3.855000154538718582e-01,0.000000000000000000e+00
8.370000000000000000e+02,4.228955650429656821e+00,0.000000000000000000e+00
8.380000000000000000e+02,3.966393147821603460e+00,0.000000000000000000e+00
8.390000000000000000e+02,-2.730306404637388606e+00,1.000000000000000000e+00
8.400000000000000000e+02,-5.644941645085331805e-01,0.000000000000000000e+00
8.410000000000000000e+02,-7.082788765917590323e-01,0.000000000000000000e+00
8.420000000000000000e+02,-1.999672329477813482e-01,0.000000000000000000e+00
8.430000000000000000e+02,-4.988454947267476625e-01,0.000000000000000000e+00
8.440000000000000000e+02,-1.146893587482936128e-01,0.000000000000000000e+00
8.450000000000000000e+02,-2.066329195952211484e-01,0.000000000000000000e+00
8.460000000000000000e+02,-5.009859007242484924e-02,0.000000000000000000e+00
8.470000000000000000e+02,-6.796598314748490688e-02,0.000000000000000000e+00
8.480000000000000000e+02,3.631873126185310441e-01,0.000000000000000000e+00
8.490000000000000000e+02,1.864276380193519711e-01,0.000000000000000000e+00
8.500000000000000000e+02,8.687967651531394164e-01,0.000000000000000000e+00
8.510000000000000000e+02,8.798029361559634998e-01,0.000000000000000000e+00
8.520000000000000000e+02,1.131013215422284501e+00,0.000000000000000000e+00
8.530000000000000000e+02,9.329904167718306995e-01,0.000000000000000000e+00
8.540000000000000000e+02,4.952684871657412335e-01,0.000000000000000000e+00
8.550000000000000000e+02,-2.175121622724960624e-01,0.000000000000000000e+00
8.560000000000000000e+02,-5.587133475597733101e-01,0.000000000000000000e+00
8.570000000000000000e+02,-9.329861233623966132e-01,0.000000000000000000e+00
8.580000000000000000e+02,-8.171347332563394517e-01,0.000000000000000000e+00
8.590000000000000000e+02,-9.309114201617166851e-01,0.000000000000000000e+00
8.600000000000000000e+02,-6.719295854354817576e-01,0.000000000000000000e+00
8.610000000000000000e+02,-6.662751859505435803e-01,0.000000000000000000e+00
8.620000000000000000e+02,-5.783516545356984784e-01,0.000000000000000000e+00
8.630000000000000000e+02,-6.911041838748145372e-01,0.000000000000000000e+00
8.640000000000000000e+02,-3.549977192388825142e-01,0.000000000000000000e+00
8.650000000000000000e+02,-5.608334508007445374e-01,0.000000000000000000e+00
8.660000000000000000e+02,-1.163017089012601535e-01,0.000000000000000000e+00
8.670000000000000000e+02,-3.928810646408365526e-01,0.000000000000000000e+00
8.680000000000000000e+02,-1.835396109419133448e-01,0.000000000000000000e+00
8.690000000000000000e+02,-3.850503856117242218e-01,0.000000000000000000e+00
8.700000000000000000e+02,-8.358997195204631581e-02,0.000000000000000000e+00
8.710000000000000000e+02,-3.861853140456528721e-01,0.000000000000000000e+00
8.720000000000000000e+02,-9.371183103295289973e-02,0.000000000000000000e+00
8.730000000000000000e+02,-1.909779455953173055e-01,0.000000000000000000e+00
8.740000000000000000e+02,6.472405474745697267e-03,0.000000000000000000e+00
8.750000000000000000e+02,-2.306870850869996159e-01,0.000000000000000000e+00
8.760000000000000000e+02,1.461486653729987366e-02,0.000000000000000000e+00
8.770000000000000000e+02,-1.445318948966455852e-01,0.000000000000000000e+00
8.780000000000000000e+02,1.692799188620311146e-01,0.000000000000000000e+00
8.790000000000000000e+02,-4.907909033094912110e-02,0.000000000000000000e+00
8.800000000000000000e+02,3.916913024748239769e-01,0.000000000000000000e+00
8.810000000000000000e+02,3.268269430468307424e-01,0.000000000000000000e+00
8.820000000000000000e+02,3.552101077206826774e-01,0.000000000000000000e+00
8.830000000000000000e+02,3.390689440645806019e-01,0.000000000000000000e+00
8.840000000000000000e+02,1.986527704755835511e-01,0.000000000000000000e+00
8.850000000000000000e+02,-2.050095803398958305e-01,0.000000000000000000e+00
8.860000000000000000e+02,1.740268431022228279e-01,0.000000000000000000e+00
8.870000000000000000e+02,-2.610312404985972168e-01,0.000000000000000000e+00
8.880000000000000000e+02,2.221661076697534210e-01,0.000000000000000000e+00
8.890000000000000000e+02,-2.596905643433085609e-01,0.000000000000000000e+00
8.900000000000000000e+02,5.202140360703925381e+00,0.000000000000000000e+00
8.910000000000000000e+02,2.672417291697320341e+00,1.000000000000000000e+00
8.920000000000000000e+02,-2.779734559546934491e+00,0.000000000000000000e+00
8.930000000000000000e+02,-5.087230623027995113e-01,0.000000000000000000e+00
8.940000000000000000e+02,-8.482102103044633079e-01,0.000000000000000000e+00
8.950000000000000000e+02,-3.491177184646480636e-01,0.000000000000000000e+00
8.960000000000000000e+02,-4.789049600071910717e-01,0.000000000000000000e+00
8.970000000000000000e+02,-3.085543698839153803e-01,0.000000000000000000e+00
8.980000000000000000e+02,-2.337157506761010362e-01,0.000000000000000000e+00
8.990000000000000000e+02,-1.196850715004317417e-01,0.000000000000000000e+00
9.000000000000000000e+02,-1.685271964827702446e-02,0.000000000000000000e+00
9.010000000000000000e+02,2.249691828829786522e-01,0.000000000000000000e+00
9.020000000000000000e+02,3.603129146064900645e-01,0.000000000000000000e+00
9.030000000000000000e+02,7.892277460775170006e-01,0.000000000000000000e+00
9.040000000000000000e+02,8.649418362990387577e-01,0.000000000000000000e+00
9.050000000000000000e+02,1.052194553541738964e+00,0.000000000000000000e+00
9.060000000000000000e+02,9.958814962180440045e-01,0.000000000000000000e+00
9.070000000000000000e+02,4.229508557653250955e-01,0.000000000000000000e+00
9.080000000000000000e+02,-4.431086848011998591e-01,0.000000000000000000e+00
9.090000000000000000e+02,-7.693190697968991243e-01,0.000000000000000000e+00
9.100000000000000000e+02,-9.894713133950194806e-01,0.000000000000000000e+00
9.110000000000000000e+02,-9.452438608648183749e-01,0.000000000000000000e+00
9.120000000000000000e+02,-9.441265764755889522e-01,0.000000000000000000e+00
9.130000000000000000e+02,-8.191659393279179247e-01,0.000000000000000000e+00
9.140000000000000000e+02,-7.992466676484841770e-01,0.000000000000000000e+00
9.150000000000000000e+02,-6.822588702004321881e-01,0.000000000000000000e+00
9.160000000000000000e+02,-5.813220309583047030e-01,0.000000000000000000e+00
9.170000000000000000e+02,-3.354721470343868250e-01,0.000000000000000000e+00
9.180000000000000000e+02,-3.624722978929560968e-01,0.000000000000000000e+00
9.190000000000000000e+02,-3.356791366299440860e-01,0.000000000000000000e+00
9.200000000000000000e+02,-3.438577961543466954e-01,0.000000000000000000e+00
9.210000000000000000e+02,-1.832349498137555988e-01,0.000000000000000000e+00
9.220000000000000000e+02,-6.527668082607407385e-02,0.000000000000000000e+00
9.230000000000000000e+02,-1.847242447885002470e-01,0.000000000000000000e+00
9.240000000000000000e+02,-2.018495510804539650e-01,0.000000000000000000e+00
9.250000000000000000e+02,-1.526076313714123667e-01,0.000000000000000000e+00
9.260000000000000000e+02,-2.279339477291047675e-02,0.000000000000000000e+00
9.270000000000000000e+02,-4.229208995105150637e-02,0.000000000000000000e+00
9.280000000000000000e+02,-6.110629113320471817e-02,0.000000000000000000e+00
9.290000000000000000e+02,3.453208486408353844e-02,0.000000000000000000e+00
9.300000000000000000e+02,4.685011957572799562e-02,0.000000000000000000e+00
9.310000000000000000e+02,1.246239092461786935e-01,0.000000000000000000e+00
9.320000000000000000e+02,3.330495461424271553e-01,0.000000000000000000e+00
9.330000000000000000e+02,5.440184969810044624e-01,0.000000000000000000e+00
9.340000000000000000e+02,4.384198575395419351e-01,0.000000000000000000e+00
9.350000000000000000e+02,2.848046431001096668e-01,0.000000000000000000e+00
9.360000000000000000e+02,-1.680268920941171973e-01,0.000000000000000000e+00
9.370000000000000000e+02,9.127759238208477122e-02,0.000000000000000000e+00
9.380000000000000000e+02,-1.684824893725715145e-01,0.000000000000000000e+00
9.390000000000000000e+02,2.242089441237434533e-01,0.000000000000000000e+00
9.400000000000000000e+02,-4.250670214749398546e-01,0.000000000000000000e+00
9.410000000000000000e+02,3.653828710323284490e+00,0.000000000000000000e+00
9.420000000000000000e+02,4.610532178457770414e+00,0.000000000000000000e+00
9.430000000000000000e+02,-2.534663532446133072e+00,1.000000000000000000e+00
9.440000000000000000e+02,-8.852614937691758445e-01,0.000000000000000000e+00
9.450000000000000000e+02,-7.146480065042226659e-01,0.000000000000000000e+00
9.460000000000000000e+02,-4.562311988459803458e-01,0.000000000000000000e+00
9.470000000000000000e+02,-3.673790745046913164e-01,0.000000000000000000e+00
9.480000000000000000e+02,-1.521944153723156501e-01,0.000000000000000000e+00
9.490000000000000000e+02,-2.270302320764451265e-01,0.000000000000000000e+00
9.500000000000000000e+02,3.092270238625707129e-02,0.000000000000000000e+00
9.510000000000000000e+02,-7.693162497697163260e-02,0.000000000000000000e+00
9.520000000000000000e+02,3.499163003579133235e-01,0.000000000000000000e+00
9.530000000000000000e+02,3.117862733743159698e-01,0.000000000000000000e+00
9.540000000000000000e+02,8.685277642764703820e-01,0.000000000000000000e+00
9.550000000000000000e+02,8.923855706719461267e-01,0.000000000000000000e+00
9.560000000000000000e+02,1.254331274291883291e+00,0.000000000000000000e+00
9.570000000000000000e+02,9.647088443654948664e-01,0.000000000000000000e+00
9.580000000000000000e+02,7.786197392185433275e-01,0.000000000000000000e+00
9.590000000000000000e+02,-2.414154290364204647e-01,0.000000000000000000e+00
9.600000000000000000e+02,-5.589122768008500941e-01,0.000000000000000000e+00
9.610000000000000000e+02,-1.014065041596065475e+00,0.000000000000000000e+00
9.620000000000000000e+02,-8.545111588859461982e-01,0.000000000000000000e+00
9.630000000000000000e+02,-8.637822180867550381e-01,0.000000000000000000e+00
9.640000000000000000e+02,-7.175712656212490659e-01,0.000000000000000000e+00
9.650000000000000000e+02,-8.421782789764317156e-01,0.000000000000000000e+00
9.660000000000000000e+02,-4.966698137994513540e-01,0.000000000000000000e+00
9.670000000000000000e+02,-6.478218170737355397e-01,0.000000000000000000e+00
9.680000000000000000e+02,-2.505523151446608088e-01,0.000000000000000000e+00
9.690000000000000000e+02,-3.205726504041470637e-01,0.000000000000000000e+00
9.700000000000000000e+02,-2.491539148491557498e-01,0.000000000000000000e+00
9.710000000000000000e+02,-4.189068841228337226e-01,0.000000000000000000e+00
9.720000000000000000e+02,-1.407564945636535780e-02,0.000000000000000000e+00
9.730000000000000000e+02,-1.336598979025671596e-01,0.000000000000000000e+00
9.740000000000000000e+02,-8.602321275334451345e-02,0.000000000000000000e+00
9.750000000000000000e+02,-2.641558731560676443e-01,0.000000000000000000e+00
9.760000000000000000e+02,-6.865830157189636851e-02,0.000000000000000000e+00
9.770000000000000000e+02,-1.249940894575768402e-01,0.000000000000000000e+00
9.780000000000000000e+02,7.160592192484657725e-02,0.000000000000000000e+00
9.790000000000000000e+02,1.596568421456639672e-02,0.000000000000000000e+00
9.800000000000000000e+02,5.370103946858817423e-02,0.000000000000000000e+00
9.810000000000000000e+02,3.080506468302536202e-02,0.000000000000000000e+00
9.820000000000000000e+02,2.540685547153376245e-01,0.000000000000000000e+00
9.830000000000000000e+02,3.978092658950861393e-01,0.000000000000000000e+00
9.840000000000000000e+02,5.669500234941394767e-01,0.000000000000000000e+00
9.850000000000000000e+02,2.958588643215261382e-01,0.000000000000000000e+00
9.860000000000000000e+02,6.566926280601995125e-02,0.000000000000000000e+00
9.870000000000000000e+02,-2.954148635927376643e-01,0.000000000000000000e+00
9.880000000000000000e+02,1.558365679404796200e-01,0.000000000000000000e+00
9.890000000000000000e+02,-2.861227778327766202e-01,0.000000000000000000e+00
9.900000000000000000e+02,1.156586203699292853e-01,0.000000000000000000e+00
9.910000000000000000e+02,1.421969028743192420e-01,0.000000000000000000e+00
9.920000000000000000e+02,5.684101811694023176e+00,0.000000000000000000e+00
9.930000000000000000e+02,1.326151648124950677e+00,1.000000000000000000e+00
9.940000000000000000e+02,-2.754900152425672655e+00,0.000000000000000000e+00
9.950000000000000000e+02,-3.784047331364349676e-01,0.000000000000000000e+00
9.960000000000000000e+02,-9.137033434411891974e-01,0.000000000000000000e+00
9.970000000000000000e+02,-2.460435761871699600e-01,0.000000000000000000e+00
9.980000000000000000e+02,-5.003237078495604839e-01,0.000000000000000000e+00
9.990000000000000000e+02,-1.208944637539822037e-01,0.000000000000000000e+00
1.000000000000000000e+03,-3.990290827741677648e-01,0.000000000000000000e+00
1.001000000000000000e+03,-8.125150938644987511e-03,0.000000000000000000e+00
1.002000000000000000e+03,7.528366918162773813e-02,0.000000000000000000e+00
1.003000000000000000e+03,3.370350312136838888e-01,0.000000000000000000e+00
1.004000000000000000e+03,3.193034472818810365e-01,0.000000000000000000e+00
1.005000000000000000e+03,7.162735874055784491e-01,0.000000000000000000e+00
1.006000000000000000e+03,1.041386510956801015e+00,0.000000000000000000e+00
1.007000000000000000e+03,1.023620444228283910e+00,0.000000000000000000e+00
1.008000000000000000e+03,8.998936972640692034e-01,0.000000000000000000e+00
1.009000000000000000e+03,2.356013525497994143e-01,0.000000000000000000e+00
1.010000000000000000e+03,-3.874366341210795928e-01,0.000000000000000000e+00
1.011000000000000000e+03,-8.828972831508531405e-01,0.000000000000000000e+00
1.012000000000000000e+03,-9.252977823606753915e-01,0.000000000000000000e+00
1.013000000000000000e+03,-8.295700168414208431e-01,0.000000000000000000e+00
1.014000000000000000e+03,-8.800883947098661064e-01,0.000000000000000000e+00
1.015000000000000000e+03,-8.379567615500229660e-01,0.000000000000000000e+00
1.016000000000000000e+03,-7.913340344419739214e-01,0.000000000000000000e+00
1.017000000000000000e+03,-5.287053043838794153e-01,0.000000000000000000e+00
1.018000000000000000e+03,-6.005033300080225844e-01,0.000000000000000000e+00
1.019000000000000000e+03,-4.709623113594683663e-01,0.000000000000000000e+00
1.020000000000000000e+03,-3.460729080598674567e-01,0.000000000000000000e+00
1.021000000000000000e+03,-2.765592625481502198e-01,0.000000000000000000e+00
1.022000000000000000e+03,-2.151114561454103569e-01,0.000000000000000000e+00
1.023000000000000000e+03,-2.385141000994455418e-01,0.000000000000000000e+00
1.024000000000000000e+03,-1.137545040068416030e-01,0.000000000000000000e+00
1.025000000000000000e+03,-1.844056556801897950e-01,0.000000000000000000e+00
1.026000000000000000e+03,-2.848682197592619994e-02,0.000000000000000000e+00
1.027000000000000000e+03,-8.938850332664731446e-02,0.000000000000000000e+00
1.028000000000000000e+03,-5.868375978291033579e-02,0.000000000000000000e+00
1.029000000000000000e+03,-1.234036191787417774e-01,0.000000000000000000e+00
1.030000000000000000e+03,9.153091531999625607e-02,0.000000000000000000e+00
1.031000000000000000e+03,-1.506028994968359735e-01,0.000000000000000000e+00
1.032000000000000000e+03,9.363455704481186970e-02,0.000000000000000000e+00
1.033000000000000000e+03,8.575774397944307958e-02,0.000000000000000000e+00
1.034000000000000000e+03,3.130721222639459289e-01,0.000000000000000000e+00
1.035000000000000000e+03,3.662110745371858211e-01,0.000000000000000000e+00
1.036000000000000000e+03,4.921109459763735594e-01,0.000000000000000000e+00
1.037000000000000000e+03,2.117355529229731081e-01,0.000000000000000000e+00
1.038000000000000000e+03,-3.825784179592457701e-02,0.000000000000000000e+00
1.039000000000000000e+03,-1.261338940551773591e-01,0.000000000000000000e+00
1.040000000000000000e+03,2.367513302852420481e-02,0.000000000000000000e+00
1.041000000000000000e+03,-4.751999091587896101e-02,0.000000000000000000e+00
1.042000000000000000e+03,2.099026736164856868e-02,0.000000000000000000e+00
1.043000000000000000e+03,6.985150163004725243e-01,0.000000000000000000e+00
1.044000000000000000e+03,5.891228918337538367e+00,0.000000000000000000e+00
1.045000000000000000e+03,4.163215224465928108e-03,1.000000000000000000e+00
1.046000000000000000e+03,-2.414286753482808745e+00,0.000000000000000000e+00
1.047000000000000000e+03,-1.241166397992801984e-01,0.000000000000000000e+00
1.048000000000000000e+03,-8.222573560319673680e-01,0.000000000000000000e+00
1.049000000000000000e+03,-1.512123505815300140e-01,0.000000000000000000e+00
1.050000000000000000e+03,-4.852196408553627327e-01,0.000000000000000000e+00
1.051000000000000000e+03,-6.226646160981876010e-02,0.000000000000000000e+00
1.052000000000000000e+03,-1.713493469645366862e-01,0.000000000000000000e+00
1.053000000000000000e+03,1.968736995915969512e-01,0.000000000000000000e+00
1.054000000000000000e+03,5.047645822160444495e-02,0.000000000000000000e+00
1.055000000000000000e+03,4.825217339090676627e-01,0.000000000000000000e+00
1.056000000000000000e+03,4.735457873948442087e-01,0.000000000000000000e+00
1.057000000000000000e+03,8.793258641208677728e-01,0.000000000000000000e+00
1.058000000000000000e+03,1.092640525052759992e+00,0.000000000000000000e+00
1.059000000000000000e+03,1.174751588836384864e+00,0.000000000000000000e+00
1.060000000000000000e+03,8.208747673746300544e-01,0.000000000000000000e+00
1.061000000000000000e+03,2.407858581539490950e-01,0.000000000000000000e+00
1.062000000000000000e+03,-5.013313712172529080e-01,0.000000000000000000e+00
1.063000000000000000e+03,-8.164078101842590085e-01,0.000000000000000000e+00
1.064000000000000000e+03,-8.390661586450232079e-01,0.000000000000000000e+00
1.065000000000000000e+03,-8.715626200006203472e-01,0.000000000000000000e+00
1.066000000000000000e+03,-7.521089221716233952e-01,0.000000000000000000e+00
1.067000000000000000e+03,-6.743595629174693462e-01,0.000000000000000000e+00
1.068000000000000000e+03,-6.947668104690798430e-01,0.000000000000000000e+00
1.069000000000000000e+03,-4.930949422425456308e-01,0.000000000000000000e+00
1.070000000000000000e+03,-5.312092631331668535e-01,0.000000000000000000e+00
1.071000000000000000e+03,-4.319547327018258276e-01,0.000000000000000000e+00
1.072000000000000000e+03,-4.020243271988238054e-01,0.000000000000000000e+00
1.073000000000000000e+03,-2.934625882443870348e-01,0.000000000000000000e+00
1.074000000000000000e+03,-3.266041032444704229e-01,0.000000000000000000e+00
1.075000000000000000e+03,-2.282979684936260467e-01,0.000000000000000000e+00
1.076000000000000000e+03,-1.890237414105536973e-01,0.000000000000000000e+00
1.077000000000000000e+03,-2.656701736390682522e-01,0.000000000000000000e+00
1.078000000000000000e+03,-1.171215562307795360e-01,0.000000000000000000e+00
1.079000000000000000e+03,3.179661575756843970e-03,0.000000000000000000e+00
1.080000000000000000e+03,-7.428183358247357482e-02,0.000000000000000000e+00
1.081000000000000000e+03,-9.908979335950429679e-02,0.000000000000000000e+00
1.082000000000000000e+03,7.878858769521464300e-02,0.000000000000000000e+00
1.083000000000000000e+03,4.916897537763713355e-02,0.000000000000000000e+00
1.084000000000000000e+03,7.237435667436231679e-02,0.000000000000000000e+00
1.085000000000000000e+03,1.318548339522308266e-01,0.000000000000000000e+00
1.086000000000000000e+03,2.638981174101414640e-01,0.000000000000000000e+00
1.087000000000000000e+03,3.106402708170911131e-01,0.000000000000000000e+00
1.088000000000000000e+03,5.139295612677540204e-01,0.000000000000000000e+00
1.089000000000000000e+03,3.955277844985907176e-01,0.000000000000000000e+00
1.090000000000000000e+03,2.601515865548702511e-01,0.000000000000000000e+00
1.091000000000000000e+03,-6.383936076885594890e-02,0.000000000000000000e+00
1.092000000000000000e+03,1.757920569460980353e-01,0.000000000000000000e+00
1.093000000000000000e+03,-2.389043363916456830e-01,0.000000000000000000e+00
1.094000000000000000e+03,2.292333710909944811e-01,0.000000000000000000e+00
1.095000000000000000e+03,-3.535471472475462673e-01,0.000000000000000000e+00
1.096000000000000000e+03,2.811682518019415600e+00,0.000000000000000000e+00
1.097000000000000000e+03,4.934140400970083107e+00,0.000000000000000000e+00
1.098000000000000000e+03,-2.145733477132840239e+00,1.000000000000000000e+00
1.099000000000000000e+03,-1.048441838241778390e+00,0.000000000000000000e+00
1.100000000000000000e+03,-5.597314265616197826e-01,0.000000000000000000e+00
1.101000000000000000e+03,-3.518626318028690858e-01,0.000000000000000000e+00
1.102000000000000000e+03,-3.310384482022610819e-01,0.000000000000000000e+00
1.103000000000000000e+03,-1.504467944695599413e-01,0.000000000000000000e+00
1.104000000000000000e+03,-2.467167369159193324e-01,0.000000000000000000e+00
1.105000000000000000e+03,-9.677297223762997003e-02,0.000000000000000000e+00
1.106000000000000000e+03,-7.913928337157606629e-02,0.000000000000000000e+00
1.107000000000000000e+03,2.548292055594479355e-01,0.000000000000000000e+00
1.108000000000000000e+03,1.281669851150701867e-01,0.000000000000000000e+00
1.109000000000000000e+03,5.711164026268918947e-01,0.000000000000000000e+00
1.110000000000000000e+03,8.090009796329630243e-01,0.000000000000000000e+00
1.111000000000000000e+03,1.062365878379929462e+00,0.000000000000000000e+00
1.112000000000000000e+03,9.098961626845817330e-01,0.000000000000000000e+00
1.113000000000000000e+03,5.980464708693966625e-01,0.000000000000000000e+00
1.114000000000000000e+03,-1.832772922360767220e-01,0.000000000000000000e+00
1.115000000000000000e+03,-5.893119243306205179e-01,0.000000000000000000e+00
1.116000000000000000e+03,-8.978201859473846635e-01,0.000000000000000000e+00
1.117000000000000000e+03,-9.484539238432908581e-01,0.000000000000000000e+00
1.118000000000000000e+03,-8.905303276492925191e-01,0.000000000000000000e+00
1.119000000000000000e+03,-7.115131106500324210e-01,0.000000000000000000e+00
1.120000000000000000e+03,-7.136041276579734305e-01,0.000000000000000000e+00
1.121000000000000000e+03,-7.026781142305928984e-01,0.000000000000000000e+00
1.122000000000000000e+03,-5.130795288586299518e-01,0.000000000000000000e+00
1.123000000000000000e+03,-5.208047544164419174e-01,0.000000000000000000e+00
1.124000000000000000e+03,-4.589481331616089843e-01,0.000000000000000000e+00
1.125000000000000000e+03,-4.026043287700320494e-01,0.000000000000000000e+00
1.126000000000000000e+03,-2.871740940298847522e-01,0.000000000000000000e+00
1.127000000000000000e+03,-2.637230307668628204e-01,0.000000000000000000e+00
1.128000000000000000e+03,-3.251294167682960423e-01,0.000000000000000000e+00
1.129000000000000000e+03,-1.039106529731420731e-01,0.000000000000000000e+00
1.130000000000000000e+03,-2.854128810136768446e-01,0.000000000000000000e+00
1.131000000000000000e+03,-1.298361027606819151e-01,0.000000000000000000e+00
1.132000000000000000e+03,-1.269461237426579292e-01,0.000000000000000000e+00
1.133000000000000000e+03,-6.575000372221384559e-02,0.000000000000000000e+00
1.134000000000000000e+03,-1.036625363398597233e-01,0.000000000000000000e+00
1.135000000000000000e+03,-1.960183224026201473e-02,0.000000000000000000e+00
1.136000000000000000e+03,-1.427738198444632456e-01,0.000000000000000000e+00
1.137000000000000000e+03,3.292776503667620841e-02,0.000000000000000000e+00
1.138000000000000000e+03,6.594323488442929704e-02,0.000000000000000000e+00
1.139000000000000000e+03,1.807400920149857537e-01,0.000000000000000000e+00
1.140000000000000000e+03,1.004042861776705958e-01,0.000000000000000000e+00
1.141000000000000000e+03,4.965765371629698444e-01,0.000000000000000000e+00
1.142000000000000000e+03,5.897746838034699790e-01,0.000000000000000000e+00
1.143000000000000000e+03,3.927014653019746393e-01,0.000000000000000000e+00
1.144000000000000000e+03,3.719159311427871484e-01,0.000000000000000000e+00
1.145000000000000000e+03,-5.641705393050170519e-02,0.000000000000000000e+00
1.146000000000000000e+03,-3.742077833511708168e-02,0.000000000000000000e+00
1.147000000000000000e+03,-1.038712273962953160e-02,0.000000000000000000e+00
1.148000000000000000e+03,5.352257101721034221e-02,0.000000000000000000e+00
1.149000000000000000e+03,-2.579927722309623417e-01,0.000000000000000000e+00
1.150000000000000000e+03,1.459088068201848776e+00,0.000000000000000000e+00
1.151000000000000000e+03,5.836951104125891021e+00,0.000000000000000000e+00
1.152000000000000000e+03,-9.814798103916719807e-01,1.000000000000000000e+00
1.153000000000000000e+03,-1.880631755052644349e+00,0.000000000000000000e+00
1.154000000000000000e+03,-4.098592547369035444e-01,0.000000000000000000e+00
1.155000000000000000e+03,-5.815676520722397047e-01,0.000000000000000000e+00
1.156000000000000000e+03,-4.645626936753466940e-01,0.000000000000000000e+00
1.157000000000000000e+03,-4.594518400162383442e-01,0.000000000000000000e+00
1.158000000000000000e+03,-2.141121309173417420e-01,0.000000000000000000e+00
1.159000000000000000e+03,-1.085977371656344087e-01,0.000000000000000000e+00
1.160000000000000000e+03,-3.666053008326648072e-02,0.000000000000000000e+00
1.161000000000000000e+03,3.129738939937628389e-02,0.000000000000000000e+00
1.162000000000000000e+03,2.708613320349400611e-01,0.000000000000000000e+00
1.163000000000000000e+03,5.063647732475438090e-01,0.000000000000000000e+00
1.164000000000000000e+03,8.415989893692527035e-01,0.000000000000000000e+00
1.165000000000000000e+03,9.528649796271776440e-01,0.000000000000000000e+00
1.166000000000000000e+03,9.450041606367457492e-01,0.000000000000000000e+00
1.167000000000000000e+03,7.511970418084744638e-01,0.000000000000000000e+00
1.168000000000000000e+03,1.227109618014591980e-01,0.000000000000000000e+00
1.169000000000000000e+03,-5.714492616339459374e-01,0.000000000000000000e+00
1.170000000000000000e+03,-7.893973366050386353e-01,0.000000000000000000e+00
1.171000000000000000e+03,-9.591740963463269987e-01,0.000000000000000000e+00
1.172000000000000000e+03,-8.776211225187878773e-01,0.000000000000000000e+00
1.173000000000000000e+03,-6.967856662479740004e-01,0.000000000000000000e+00
1.174000000000000000e+03,-8.042250077976873524e-01,0.000000000000000000e+00
1.175000000000000000e+03,-6.925664974727017142e-01,0.000000000000000000e+00
1.176000000000000000e+03,-4.910747546645602979e-01,0.000000000000000000e+00
1.177000000000000000e+03,-4.402910856864454270e-01,0.000000000000000000e+00
1.178000000000000000e+03,-4.935007674613494100e-01,0.000000000000000000e+00
1.179000000000000000e+03,-3.271310282824667071e-01,0.000000000000000000e+00
1.180000000000000000e+03,-4.191491394473307874e-01,0.000000000000000000e+00
1.181000000000000000e+03,-2.152854429983941109e-01,0.000000000000000000e+00
1.182000000000000000e+03,-2.353678842093372414e-01,0.000000000000000000e+00
1.183000000000000000e+03,-2.135157548155536267e-01,0.000000000000000000e+00
1.184000000000000000e+03,-2.034829308506514445e-01,0.000000000000000000e+00
1.185000000000000000e+03,-2.021800245668455009e-02,0.000000000000000000e+00
1.186000000000000000e+03,-9.776447784195023416e-02,0.000000000000000000e+00
1.187000000000000000e+03,-2.189997671820232972e-01,0.000000000000000000e+00
1.188000000000000000e+03,-6.197263710204428677e-02,0.000000000000000000e+00
1.189000000000000000e+03,4.710006567795449635e-03,0.000000000000000000e+00
1.190000000000000000e+03,3.851286395668371276e-02,0.000000000000000000e+00
1.191000000000000000e+03,5.310747823382938604e-02,0.000000000000000000e+00
1.192000000000000000e+03,1.242075838330766596e-01,0.000000000000000000e+00
1.193000000000000000e+03,2.051091800408734456e-01,0.000000000000000000e+00
1.194000000000000000e+03,1.364423553738587924e-01,0.000000000000000000e+00
1.195000000000000000e+03,4.666275714540893405e-01,0.000000000000000000e+00
1.196000000000000000e+03,5.312390638566397705e-01,0.000000000000000000e+00
1.197000000000000000e+03,5.757202435313839572e-01,0.000000000000000000e+00
1.198000000000000000e+03,3.932449251515475752e-01,0.000000000000000000e+00
1.199000000000000000e+03,2.462696449233116869e-01,0.000000000000000000e+00
1.200000000000000000e+03,-1.106837773476358477e-01,0.000000000000000000e+00
1.201000000000000000e+03,1.517367784117728269e-01,0.000000000000000000e+00
1.202000000000000000e+03,-1.168693327433277668e-01,0.000000000000000000e+00
1.203000000000000000e+03,2.282880719986972451e-01,0.000000000000000000e+00
1.204000000000000000e+03,-2.949238605921882250e-01,0.000000000000000000e+00
1.205000000000000000e+03,4.738082117841320162e+00,0.000000000000000000e+00
1.206000000000000000e+03,3.556751243192373124e+00,1.000000000000000000e+00
1.207000000000000000e+03,-2.797677266099633187e+00,0.000000000000000000e+00
1.208000000000000000e+03,-5.023008645437101460e-01,0.000000000000000000e+00
1.209000000000000000e+03,-9.403589636189803036e-01,0.000000000000000000e+00
1.210000000000000000e+03,-2.486795701302220440e-01,0.000000000000000000e+00
1.211000000000000000e+03,-5.517939425433919798e-01,0.000000000000000000e+00
1.212000000000000000e+03,-2.052771282566714928e-01,0.000000000000000000e+00
1.213000000000000000e+03,-4.054834501689636994e-01,0.000000000000000000e+00
1.214000000000000000e+03,-9.333991721286180598e-02,0.000000000000000000e+00
1.215000000000000000e+03,-1.335492057001173849e-01,0.000000000000000000e+00
1.216000000000000000e+03,2.634863870003567587e-01,0.000000000000000000e+00
1.217000000000000000e+03,2.127335178428128304e-01,0.000000000000000000e+00
1.218000000000000000e+03,6.834286542447040036e-01,0.000000000000000000e+00
1.219000000000000000e+03,7.484162621883317934e-01,0.000000000000000000e+00
1.220000000000000000e+03,1.035358672539166580e+00,0.000000000000000000e+00
1.221000000000000000e+03,9.394800567946270942e-01,0.000000000000000000e+00
1.222000000000000000e+03,5.371285327517518748e-01,0.000000000000000000e+00
1.223000000000000000e+03,-3.454957408412158704e-01,0.000000000000000000e+00
1.224000000000000000e+03,-6.696097817861870194e-01,0.000000000000000000e+00
1.225000000000000000e+03,-9.923936917927189683e-01,0.000000000000000000e+00
1.226000000000000000e+03,-9.156305552760555244e-01,0.000000000000000000e+00
1.227000000000000000e+03,-8.610234755555007391e-01,0.000000000000000000e+00
1.228000000000000000e+03,-6.507436158887303090e-01,0.000000000000000000e+00
1.229000000000000000e+03,-9.207780511294062498e-01,0.000000000000000000e+00
1.230000000000000000e+03,-4.938019498306119304e-01,0.000000000000000000e+00
1.231000000000000000e+03,-6.152502626081162163e-01,0.000000000000000000e+00
1.232000000000000000e+03,-3.287834791240534238e-01,0.000000000000000000e+00
1.233000000000000000e+03,-4.601842889481012611e-01,0.000000000000000000e+00
1.234000000000000000e+03,-2.192573346933969769e-01,0.000000000000000000e+00
1.235000000000000000e+03,-3.819566736049028743e-01,0.000000000000000000e+00
1.236000000000000000e+03,-9.240006202092324039e-02,0.000000000000000000e+00
1.237000000000000000e+03,-2.528583306311862344e-01,0.000000000000000000e+00
1.238000000000000000e+03,-2.353004777778383849e-01,0.000000000000000000e+00
1.239000000000000000e+03,-1.947134017972592668e-01,0.000000000000000000e+00
1.240000000000000000e+03,-8.926417864050222029e-02,0.000000000000000000e+00
1.241000000000000000e+03,-1.439933481125355574e-01,0.000000000000000000e+00
1.242000000000000000e+03,1.079654526093576546e-02,0.000000000000000000e+00
1.243000000000000000e+03,-1.607814963783070761e-01,0.000000000000000000e+00
1.244000000000000000e+03,6.547437547510367994e-02,0.000000000000000000e+00
1.245000000000000000e+03,-3.551041616050634037e-02,0.000000000000000000e+00
1.246000000000000000e+03,3.453112105497422313e-01,0.000000000000000000e+00
1.247000000000000000e+03,-1.129233369236693763e-01,0.000000000000000000e+00
1.248000000000000000e+03,2.094635031165114625e-01,0.000000000000000000e+00
1.249000000000000000e+03,1.861380868139413391e-01,0.000000000000000000e+00
1.250000000000000000e+03,4.641809254582662803e-01,0.000000000000000000e+00
1.251000000000000000e+03,3.395767675939208585e-01,0.000000000000000000e+00
1.252000000000000000e+03,6.168433824743021487e-01,0.000000000000000000e+00
1.253000000000000000e+03,2.480351953813448307e-01,0.000000000000000000e+00
1.254000000000000000e+03,1.974008068261236537e-01,0.000000000000000000e+00
1.255000000000000000e+03,-1.537857993810194668e-01,0.000000000000000000e+00
1.256000000000000000e+03,2.657089221704239668e-01,0.000000000000000000e+00
1.257000000000000000e+03,-1.927502268519540318e-01,0.000000000000000000e+00
1.258000000000000000e+03,1.577213995247479239e-01,0.000000000000000000e+00
1.259000000000000000e+03,2.464276712688889120e-02,0.000000000000000000e+00
1.260000000000000000e+03,5.338766890633758422e+00,0.000000000000000000e+00
1.261000000000000000e+03,1.747521718607791597e+00,1.000000000000000000e+00
1.262000000000000000e+03,-2.840366170809050406e+00,0.000000000000000000e+00
1.263000000000000000e+03,-1.893027985323448847e-01,0.000000000000000000e+00
1.264000000000000000e+03,-9.205982921928604901e-01,0.000000000000000000e+00
1.265000000000000000e+03,-1.697815584729269467e-01,0.000000000000000000e+00
1.266000000000000000e+03,-3.978134962753948622e-01,0.000000000000000000e+00
1.267000000000000000e+03,1.088287539502482727e-02,0.000000000000000000e+00
1.268000000000000000e+03,-2.811995060913439204e-01,0.000000000000000000e+00
1.269000000000000000e+03,-5.505789733569638189e-02,0.000000000000000000e+00
1.270000000000000000e+03,8.203717446128345331e-03,0.000000000000000000e+00
1.271000000000000000e+03,2.517713751677240763e-01,0.000000000000000000e+00
1.272000000000000000e+03,3.927292291412271541e-01,0.000000000000000000e+00
1.273000000000000000e+03,7.855851094491501652e-01,0.000000000000000000e+00
1.274000000000000000e+03,9.053288008036498580e-01,0.000000000000000000e+00
1.275000000000000000e+03,1.032672218671280007e+00,0.000000000000000000e+00
1.276000000000000000e+03,8.445597682112888638e-01,0.000000000000000000e+00
1.277000000000000000e+03,3.007396158632732464e-01,0.000000000000000000e+00
1.278000000000000000e+03,-3.856844024464694543e-01,0.000000000000000000e+00
1.279000000000000000e+03,-7.104791657478253253e-01,0.000000000000000000e+00
1.280000000000000000e+03,-1.020866012552535729e+00,0.000000000000000000e+00
1.281000000000000000e+03,-9.572216476112028749e-01,0.000000000000000000e+00
1.282000000000000000e+03,-8.877478512922095666e-01,0.000000000000000000e+00
1.283000000000000000e+03,-7.160513113938141716e-01,0.000000000000000000e+00
1.284000000000000000e+03,-7.314248801535685462e-01,0.000000000000000000e+00
1.285000000000000000e+03,-5.842587511499487407e-01,0.000000000000000000e+00
1.286000000000000000e+03,-4.971145835477984165e-01,0.000000000000000000e+00
1.287000000000000000e+03,-5.312179597019612842e-01,0.000000000000000000e+00
1.288000000000000000e+03,-4.487004137685472460e-01,0.000000000000000000e+00
1.289000000000000000e+03,-2.765379490821077146e-01,0.000000000000000000e+00
1.290000000000000000e+03,-3.237389559597633748e-01,0.000000000000000000e+00
1.291000000000000000e+03,-1.800510811427161462e-01,0.000000000000000000e+00
1.292000000000000000e+03,-3.831201770609826140e-01,0.000000000000000000e+00
1.293000000000000000e+03,-1.629202870496178346e-01,0.000000000000000000e+00
1.294000000000000000e+03,-3.030978641611934976e-01,0.000000000000000000e+00
1.295000000000000000e+03,-6.917262579305930026e-02,0.000000000000000000e+00
1.296000000000000000e+03,-1.304154328783127259e-01,0.000000000000000000e+00
1.297000000000000000e+03,5.257672592784774085e-02,0.000000000000000000e+00
1.298000000000000000e+03,-1.505151693281614467e-01,0.000000000000000000e+00
1.299000000000000000e+03,9.809903385032843481e-02,0.000000000000000000e+00
1.300000000000000000e+03,-2.745371435591685907e-02,0.000000000000000000e+00
1.301000000000000000e+03,2.281631265939119690e-01,0.000000000000000000e+00
1.302000000000000000e+03,2.961068797972915903e-02,0.000000000000000000e+00
1.303000000000000000e+03,2.919416032063812949e-01,0.000000000000000000e+00
1.304000000000000000e+03,1.883932687414982543e-01,0.000000000000000000e+00
1.305000000000000000e+03,4.851014870528227996e-01,0.000000000000000000e+00
1.306000000000000000e+03,4.596244578551668680e-01,0.000000000000000000e+00
1.307000000000000000e+03,6.347948703070307452e-01,0.000000000000000000e+00
1.308000000000000000e+03,3.029365483072304355e-01,0.000000000000000000e+00
1.309000000000000000e+03,1.439428019636604383e-01,0.000000000000000000e+00
1.310000000000000000e+03,-1.126275575999043793e-02,0.000000000000000000e+00
1.311000000000000000e+03,1.325070343258813177e-01,0.000000000000000000e+00
1.312000000000000000e+03,-1.394077610091068731e-01,0.000000000000000000e+00
1.313000000000000000e+03,1.325424522963221385e-01,0.000000000000000000e+00
1.314000000000000000e+03,2.133462823856399349e-01,0.000000000000000000e+00
1.315000000000000000e+03,5.538102839624238882e+00,0.000000000000000000e+00
1.316000000000000000e+03,1.334110222434998771e+00,1.000000000000000000e+00
1.317000000000000000e+03,-2.650666334695020332e+00,0.000000000000000000e+00
1.318000000000000000e+03,-2.101044913639027734e-01,0.000000000000000000e+00
1.319000000000000000e+03,-8.782235025977247478e-01,0.000000000000000000e+00
1.320000000000000000e+03,-2.478422285581160234e-01,0.000000000000000000e+00
1.321000000000000000e+03,-5.175730742911480720e-01,0.000000000000000000e+00
1.322000000000000000e+03,-1.842001224316986152e-01,0.000000000000000000e+00
1.323000000000000000e+03,-3.683593195482244842e-01,0.000000000000000000e+00
1.324000000000000000e+03,8.265946825976420650e-03,0.000000000000000000e+00
1.325000000000000000e+03,-1.848912789172595939e-01,0.000000000000000000e+00
1.326000000000000000e+03,1.869689142992958519e-01,0.000000000000000000e+00
1.327000000000000000e+03,3.136703838002317113e-01,0.000000000000000000e+00
1.328000000000000000e+03,6.766550227745037338e-01,0.000000000000000000e+00
1.329000000000000000e+03,7.895838477034186065e-01,0.000000000000000000e+00
1.330000000000000000e+03,9.345583119929833371e-01,0.000000000000000000e+00
1.331000000000000000e+03,5.395871160032266189e-01,0.000000000000000000e+00
1.332000000000000000e+03,2.769335072581666779e-01,0.000000000000000000e+00
1.333000000000000000e+03,-6.161487485008733112e-01,0.000000000000000000e+00
1.334000000000000000e+03,-8.080325139580880611e-01,0.000000000000000000e+00
1.335000000000000000e+03,-1.084836705615934704e+00,0.000000000000000000e+00
1.336000000000000000e+03,-8.682010779778900345e-01,0.000000000000000000e+00
1.337000000000000000e+03,-9.391250939375869189e-01,0.000000000000000000e+00
1.338000000000000000e+03,-7.488881019479696199e-01,0.000000000000000000e+00
1.339000000000000000e+03,-8.174205644965610862e-01,0.000000000000000000e+00
1.340000000000000000e+03,-5.486700008872037460e-01,0.000000000000000000e+00
1.341000000000000000e+03,-5.447934837889719661e-01,0.000000000000000000e+00
1.342000000000000000e+03,-4.773841968251003598e-01,0.000000000000000000e+00
1.343000000000000000e+03,-4.786510938451634667e-01,0.000000000000000000e+00
1.344000000000000000e+03,-2.405007873183943878e-01,0.000000000000000000e+00
1.345000000000000000e+03,-2.946302083057218413e-01,0.000000000000000000e+00
1.346000000000000000e+03,-1.557543594274242993e-01,0.000000000000000000e+00
1.347000000000000000e+03,-2.713026592322579922e-01,0.000000000000000000e+00
1.348000000000000000e+03,-1.585487462347716925e-01,0.000000000000000000e+00
1.349000000000000000e+03,-2.151631337483406736e-01,0.000000000000000000e+00
1.350000000000000000e+03,1.580951262712598088e-02,0.000000000000000000e+00
1.351000000000000000e+03,-1.127849060020043453e-01,0.000000000000000000e+00
1.352000000000000000e+03,-4.246299904331516523e-02,0.000000000000000000e+00
1.353000000000000000e+03,-1.054566062482693717e-01,0.000000000000000000e+00
1.354000000000000000e+03,1.753410889136942930e-01,0.000000000000000000e+00
1.355000000000000000e+03,1.731217534489977103e-02,0.000000000000000000e+00
1.356000000000000000e+03,1.192358742962500856e-01,0.000000000000000000e+00
1.357000000000000000e+03,8.374102017392097419e-02,0.000000000000000000e+00
1.358000000000000000e+03,2.994763579696297362e-01,0.000000000000000000e+00
1.359000000000000000e+03,1.372463318541488897e-01,0.000000000000000000e+00
1.360000000000000000e+03,4.788232086464348503e-01,0.000000000000000000e+00
1.361000000000000000e+03,5.234830849235164729e-01,0.000000000000000000e+00
1.362000000000000000e+03,6.607034861616445376e-01,0.000000000000000000e+00
1.363000000000000000e+03,4.290867614893107973e-01,0.000000000000000000e+00
1.364000000000000000e+03,2.181940811040287143e-01,0.000000000000000000e+00
1.365000000000000000e+03,-7.439365913615686443e-02,0.000000000000000000e+00
1.366000000000000000e+03,2.266063290828394527e-01,0.000000000000000000e+00
1.367000000000000000e+03,-1.329389555893961128e-01,0.000000000000000000e+00
1.368000000000000000e+03,2.656705406839096062e-01,0.000000000000000000e+00
1.369000000000000000e+03,-3.565790491474159496e-01,0.000000000000000000e+00
1.370000000000000000e+03,4.432166101146403747e+00,0.000000000000000000e+00
1.371000000000000000e+03,4.056167187098014715e+00,0.000000000000000000e+00
1.372000000000000000e+03,-2.544223126705535520e+00,1.000000000000000000e+00
1.373000000000000000e+03,-7.087497229780868047e-01,0.000000000000000000e+00
1.374000000000000000e+03,-7.977606297358508236e-01,0.000000000000000000e+00
1.375000000000000000e+03,-3.424468902255037306e-01,0.000000000000000000e+00
1.376000000000000000e+03,-5.663775415044386419e-01,0.000000000000000000e+00
1.377000000000000000e+03,-2.028052710475180265e-01,0.000000000000000000e+00
1.378000000000000000e+03,-2.730705224061796277e-01,0.000000000000000000e+00
1.379000000000000000e+03,-1.134423276982826634e-01,0.000000000000000000e+00
1.380000000000000000e+03,-1.138453466094609401e-01,0.000000000000000000e+00
1.381000000000000000e+03,2.255985104256992280e-01,0.000000000000000000e+00
1.382000000000000000e+03,3.855034282466723861e-01,0.000000000000000000e+00
1.383000000000000000e+03,6.592922546569346398e-01,0.000000000000000000e+00
1.384000000000000000e+03,9.121993940988578631e-01,0.000000000000000000e+00
1.385000000000000000e+03,1.076443318133046834e+00,0.000000000000000000e+00
1.386000000000000000e+03,8.627550104793457741e-01,0.000000000000000000e+00
1.387000000000000000e+03,5.999789606998197078e-01,0.000000000000000000e+00
1.388000000000000000e+03,-2.748006997883247760e-01,0.000000000000000000e+00
1.389000000000000000e+03,-7.197489192686457038e-01,0.000000000000000000e+00
1.390000000000000000e+03,-9.099987496235629747e-01,0.000000000000000000e+00
1.391000000000000000e+03,-8.351818457173532106e-01,0.000000000000000000e+00
1.392000000000000000e+03,-8.460439876155839700e-01,0.000000000000000000e+00
1.393000000000000000e+03,-7.654051799684138402e-01,0.000000000000000000e+00
1.394000000000000000e+03,-7.291735701042900697e-01,0.000000000000000000e+00
1.395000000000000000e+03,-6.682738869462075959e-01,0.000000000000000000e+00
1.396000000000000000e+03,-5.454114318358823654e-01,0.000000000000000000e+00
1.397000000000000000e+03,-5.189841223516282742e-01,0.000000000000000000e+00
1.398000000000000000e+03,-4.231676862606862932e-01,0.000000000000000000e+00
1.399000000000000000e+03,-2.954828953142965564e-01,0.000000000000000000e+00
1.400000000000000000e+03,-2.689537048198309410e-01,0.000000000000000000e+00
1.401000000000000000e+03,-2.742536216573025487e-01,0.000000000000000000e+00
1.402000000000000000e+03,-2.334821750610502622e-01,0.000000000000000000e+00
1.403000000000000000e+03,-2.837621881506282029e-01,0.000000000000000000e+00
1.404000000000000000e+03,-9.925953824228071765e-02,0.000000000000000000e+00
1.405000000000000000e+03,-1.171366250671249110e-01,0.000000000000000000e+00
1.406000000000000000e+03,-1.606574516066653913e-01,0.000000000000000000e+00
1.407000000000000000e+03,-1.224611571790056447e-01,0.000000000000000000e+00
1.408000000000000000e+03,-7.119342358101057866e-02,0.000000000000000000e+00
1.409000000000000000e+03,-8.371318237266564544e-02,0.000000000000000000e+00
1.410000000000000000e+03,-1.529843209386053809e-02,0.000000000000000000e+00
1.411000000000000000e+03,-3.545674691483381019e-02,0.000000000000000000e+00
1.412000000000000000e+03,1.058243565211713505e-01,0.000000000000000000e+00
1.413000000000000000e+03,7.216181871075103005e-02,0.000000000000000000e+00
1.414000000000000000e+03,1.435316932437908644e-01,0.000000000000000000e+00
1.415000000000000000e+03,2.194743437974540912e-01,0.000000000000000000e+00
1.416000000000000000e+03,3.555404784130876128e-01,0.000000000000000000e+00
1.417000000000000000e+03,5.026152063174650353e-01,0.000000000000000000e+00
1.418000000000000000e+03,4.831361233330901950e-01,0.000000000000000000e+00
1.419000000000000000e+03,2.771705382153323294e-01,0.000000000000000000e+00
1.420000000000000000e+03,1.002251382591016621e-01,0.000000000000000000e+00
1.421000000000000000e+03,-3.108280593127415656e-02,0.000000000000000000e+00
1.422000000000000000e+03,-5.861585329357530544e-02,0.000000000000000000e+00
1.423000000000000000e+03,-4.733982829734879882e-02,0.000000000000000000e+00
1.424000000000000000e+03,-5.593583694903168230e-02,0.000000000000000000e+00
1.425000000000000000e+03,1.039087445184061487e+00,0.000000000000000000e+00
1.426000000000000000e+03,6.098578633951332151e+00,0.000000000000000000e+00
1.427000000000000000e+03,-2.358217326099964484e-01,1.000000000000000000e+00
1.428000000000000000e+03,-2.265200419959206179e+00,0.000000000000000000e+00
1.429000000000000000e+03,-2.292176828205506334e-01,0.000000000000000000e+00
1.430000000000000000e+03,-7.500229218328823277e-01,0.000000000000000000e+00
1.431000000000000000e+03,-1.698320614288535424e-01,0.000000000000000000e+00
1.432000000000000000e+03,-5.161740350332596483e-01,0.000000000000000000e+00
1.433000000000000000e+03,-1.697132753257442339e-01,0.000000000000000000e+00
1.434000000000000000e+03,-2.525942436538757829e-01,0.000000000000000000e+00
1.435000000000000000e+03,6.604974671320074098e-02,0.000000000000000000e+00
1.436000000000000000e+03,-4.003940549847128869e-03,0.000000000000000000e+00
1.437000000000000000e+03,3.842993537623482503e-01,0.000000000000000000e+00
1.438000000000000000e+03,5.030521720541009101e-01,0.000000000000000000e+00
1.439000000000000000e+03,8.011860898269530518e-01,0.000000000000000000e+00
1.440000000000000000e+03,9.865493495327417595e-01,0.000000000000000000e+00
1.441000000000000000e+03,1.199896740072786017e+00,0.000000000000000000e+00
1.442000000000000000e+03,7.479157848512875129e-01,0.000000000000000000e+00
1.443000000000000000e+03,2.440090342155583625e-01,0.000000000000000000e+00
1.444000000000000000e+03,-5.610912080706941252e-01,0.000000000000000000e+00
1.445000000000000000e+03,-8.933577659371002566e-01,0.000000000000000000e+00
1.446000000000000000e+03,-9.187354954872993806e-01,0.000000000000000000e+00
1.447000000000000000e+03,-1.023607127185205412e+00,0.000000000000000000e+00
1.448000000000000000e+03,-9.427804770817669322e-01,0.000000000000000000e+00
1.449000000000000000e+03,-7.941903756774484346e-01,0.000000000000000000e+00
1.450000000000000000e+03,-6.735532123980240149e-01,0.000000000000000000e+00
1.451000000000000000e+03,-6.457356925364060585e-01,0.000000000000000000e+00
1.452000000000000000e+03,-5.978880871534684172e-01,0.000000000000000000e+00
1.453000000000000000e+03,-4.543598009830888684e-01,0.000000000000000000e+00
1.454000000000000000e+03,-3.746473166167259006e-01,0.000000000000000000e+00
1.455000000000000000e+03,-3.588287153259643869e-01,0.000000000000000000e+00
1.456000000000000000e+03,-4.039508570988394331e-01,0.000000000000000000e+00
1.457000000000000000e+03,-2.618892905396860149e-01,0.000000000000000000e+00
1.458000000000000000e+03,-2.436636117980956195e-01,0.000000000000000000e+00
1.459000000000000000e+03,-1.581834475404883256e-01,0.000000000000000000e+00
1.460000000000000000e+03,-8.783091851176651199e-02,0.000000000000000000e+00
1.461000000000000000e+03,-1.474764336254527353e-01,0.000000000000000000e+00
1.462000000000000000e+03,-1.183191560381346985e-01,0.000000000000000000e+00
1.463000000000000000e+03,-1.413993443388273652e-01,0.000000000000000000e+00
1.464000000000000000e+03,-5.131910962803756110e-02,0.000000000000000000e+00
1.465000000000000000e+03,1.469730282938146171e-01,0.000000000000000000e+00
1.466000000000000000e+03,2.184336426804079495e-02,0.000000000000000000e+00
1.467000000000000000e+03,1.145526781278559947e-01,0.000000000000000000e+00
1.468000000000000000e+03,1.596360630769597111e-01,0.000000000000000000e+00
1.469000000000000000e+03,1.985876426749758339e-01,0.000000000000000000e+00
1.470000000000000000e+03,1.843140789004182045e-01,0.000000000000000000e+00
1.471000000000000000e+03,4.775046377470476000e-01,0.000000000000000000e+00
1.472000000000000000e+03,4.551517187485293880e-01,0.000000000000000000e+00
1.473000000000000000e+03,4.717509092335604448e-01,0.000000000000000000e+00
1.474000000000000000e+03,3.873278382260854080e-01,0.000000000000000000e+00
1.475000000000000000e+03,-5.913666948493735698e-02,0.000000000000000000e+00
1.476000000000000000e+03,6.521409348638469716e-02,0.000000000000000000e+00
1.477000000000000000e+03,-2.143306758259198863e-02,0.000000000000000000e+00
1.478000000000000000e+03,3.005637625786416675e-02,0.000000000000000000e+00
1.479000000000000000e+03,-2.863492572320754936e-01,0.000000000000000000e+00
1.480000000000000000e+03,1.930627435512174195e+00,0.000000000000000000e+00
1.481000000000000000e+03,5.506977526941502887e+00,0.000000000000000000e+00
1.482000000000000000e+03,-1.319349317512543251e+00,1.000000000000000000e+00
1.483000000000000000e+03,-1.656907427473358396e+00,0.000000000000000000e+00
1.484000000000000000e+03,-5.090730636040040613e-01,0.000000000000000000e+00
1.485000000000000000e+03,-6.142699930178072698e-01,0.000000000000000000e+00
1.486000000000000000e+03,-3.012671754066376106e-01,0.000000000000000000e+00
1.487000000000000000e+03,-4.654539807168357468e-01,0.000000000000000000e+00
1.488000000000000000e+03,-1.831964307378205759e-01,0.000000000000000000e+00
1.489000000000000000e+03,-2.371105228232599782e-01,0.000000000000000000e+00
1.490000000000000000e+03,-2.044654875266497529e-01,0.000000000000000000e+00
1.491000000000000000e+03,1.250615464462939974e-01,0.000000000000000000e+00
1.492000000000000000e+03,1.822557771523724002e-01,0.000000000000000000e+00
1.493000000000000000e+03,5.254976931412292940e-01,0.000000000000000000e+00
1.494000000000000000e+03,7.248589437416286252e-01,0.000000000000000000e+00
1.495000000000000000e+03,9.808880990397083055e-01,0.000000000000000000e+00
1.496000000000000000e+03,9.943048831115836039e-01,0.000000000000000000e+00
1.497000000000000000e+03,7.064754074185121135e-01,0.000000000000000000e+00
1.498000000000000000e+03,-6.150252256203851686e-02,0.000000000000000000e+00
1.499000000000000000e+03,-6.587313907723939543e-01,0.000000000000000000e+00
1.500000000000000000e+03,-8.857799452527146400e-01,0.000000000000000000e+00
1.501000000000000000e+03,-9.536046779274279794e-01,0.000000000000000000e+00
1.502000000000000000e+03,-9.966065992790120731e-01,0.000000000000000000e+00
1.503000000000000000e+03,-9.291544631974029134e-01,0.000000000000000000e+00
1.504000000000000000e+03,-8.195832397902961253e-01,0.000000000000000000e+00
1.505000000000000000e+03,-6.332942528451213082e-01,0.000000000000000000e+00
1.506000000000000000e+03,-6.636171352192153927e-01,0.000000000000000000e+00
1.507000000000000000e+03,-5.201554822792019417e-01,0.000000000000000000e+00
1.508000000000000000e+03,-4.893096671958458432e-01,0.000000000000000000e+00
1.509000000000000000e+03,-4.078455835154783937e-01,0.000000000000000000e+00
1.510000000000000000e+03,-3.002913572063459213e-01,0.000000000000000000e+00
1.511000000000000000e+03,-2.306113333083824879e-01,0.000000000000000000e+00
1.512000000000000000e+03,-1.434713616095121269e-01,0.000000000000000000e+00
1.513000000000000000e+03,-1.320279562253789951e-01,0.000000000000000000e+00
1.514000000000000000e+03,-1.701355073043101795e-01,0.000000000000000000e+00
1.515000000000000000e+03,-2.799843086933487962e-02,0.000000000000000000e+00
1.516000000000000000e+03,-1.611234913872192920e-01,0.000000000000000000e+00
1.517000000000000000e+03,-1.406908971371032858e-02,0.000000000000000000e+00
1.518000000000000000e+03,2.596618153525460937e-02,0.000000000000000000e+00
1.519000000000000000e+03,1.340601992967110911e-01,0.000000000000000000e+00
1.520000000000000000e+03,-1.583578951548724996e-03,0.000000000000000000e+00
1.521000000000000000e+03,1.861332858968994530e-01,0.000000000000000000e+00
1.522000000000000000e+03,1.540606650040282910e-01,0.000000000000000000e+00
1.523000000000000000e+03,1.692789458229137511e-01,0.000000000000000000e+00
1.524000000000000000e+03,2.158368001212573606e-01,0.000000000000000000e+00
1.525000000000000000e+03,3.362657715189776853e-01,0.000000000000000000e+00
1.526000000000000000e+03,5.351983560522233230e-01,0.000000000000000000e+00
1.527000000000000000e+03,6.658851060189997506e-01,0.000000000000000000e+00
1.528000000000000000e+03,4.761463978226191940e-01,0.000000000000000000e+00
1.529000000000000000e+03,3.385798499584139476e-01,0.000000000000000000e+00
1.530000000000000000e+03,-5.263827054115950699e-02,0.000000000000000000e+00
1.531000000000000000e+03,1.574120610648865048e-01,0.000000000000000000e+00
1.532000000000000000e+03,-7.155754485014212407e-02,0.000000000000000000e+00
1.533000000000000000e+03,3.304193359847607536e-01,0.000000000000000000e+00
1.534000000000000000e+03,-4.088252630785205732e-01,0.000000000000000000e+00
1.535000000000000000e+03,3.717428203566062628e+00,0.000000000000000000e+00
1.536000000000000000e+03,4.846637508806091788e+00,0.000000000000000000e+00
1.537000000000000000e+03,-2.340515373583210490e+00,1.000000000000000000e+00
1.538000000000000000e+03,-9.249083597990218619e-01,0.000000000000000000e+00
1.539000000000000000e+03,-6.909888295871620123e-01,0.000000000000000000e+00
1.540000000000000000e+03,-4.169982189063336508e-01,0.000000000000000000e+00
1.541000000000000000e+03,-5.707188868630500567e-01,0.000000000000000000e+00
1.542000000000000000e+03,-1.874225564540813460e-01,0.000000000000000000e+00
1.543000000000000000e+03,-3.529917402708308560e-01,0.000000000000000000e+00
1.544000000000000000e+03,-5.266492218441171796e-02,0.000000000000000000e+00
1.545000000000000000e+03,-1.160242497043398845e-02,0.000000000000000000e+00
1.546000000000000000e+03,2.052475897238026092e-01,0.000000000000000000e+00
1.547000000000000000e+03,3.529333764613664659e-01,0.000000000000000000e+00
1.548000000000000000e+03,6.643043231018510575e-01,0.000000000000000000e+00
1.549000000000000000e+03,7.910588037938818262e-01,0.000000000000000000e+00
1.550000000000000000e+03,1.123560074531357200e+00,0.000000000000000000e+00
1.551000000000000000e+03,8.812526625199389452e-01,0.000000000000000000e+00
1.552000000000000000e+03,5.034330481776021493e-01,0.000000000000000000e+00
1.553000000000000000e+03,-2.508827070175745910e-01,0.000000000000000000e+00
1.554000000000000000e+03,-6.182766648694109080e-01,0.000000000000000000e+00
1.555000000000000000e+03,-9.716603857365804231e-01,0.000000000000000000e+00
1.556000000000000000e+03,-9.487443930962374816e-01,0.000000000000000000e+00
1.557000000000000000e+03,-9.723540810238032739e-01,0.000000000000000000e+00
1.558000000000000000e+03,-8.197346787771240262e-01,0.000000000000000000e+00
1.559000000000000000e+03,-8.794538527693561702e-01,0.000000000000000000e+00
1.560000000000000000e+03,-6.949757716699953569e-01,0.000000000000000000e+00
1.561000000000000000e+03,-7.125269785404834133e-01,0.000000000000000000e+00
1.562000000000000000e+03,-4.990343313366740197e-01,0.000000000000000000e+00
1.563000000000000000e+03,-6.017762162039178575e-01,0.000000000000000000e+00
1.564000000000000000e+03,-3.196032003802956600e-01,0.000000000000000000e+00
1.565000000000000000e+03,-4.695012592284082409e-01,0.000000000000000000e+00
1.566000000000000000e+03,-2.183335160343587988e-01,0.000000000000000000e+00
1.567000000000000000e+03,-1.657166346257429590e-01,0.000000000000000000e+00
1.568000000000000000e+03,-1.345491381338660419e-01,0.000000000000000000e+00
1.569000000000000000e+03,-3.313049444408051047e-01,0.000000000000000000e+00
1.570000000000000000e+03,-1.700530389731025674e-02,0.000000000000000000e+00
1.571000000000000000e+03,-1.409543257526244542e-01,0.000000000000000000e+00
1.572000000000000000e+03,-6.972191930487767197e-02,0.000000000000000000e+00
1.573000000000000000e+03,-7.922169929243033648e-02,0.000000000000000000e+00
1.574000000000000000e+03,7.806386125351842675e-02,0.000000000000000000e+00
1.575000000000000000e+03,-7.468126228335369987e-02,0.000000000000000000e+00
1.576000000000000000e+03,2.576873305935915848e-02,0.000000000000000000e+00
1.577000000000000000e+03,9.251777699054281046e-02,0.000000000000000000e+00
1.578000000000000000e+03,2.388088160504443780e-01,0.000000000000000000e+00
1.579000000000000000e+03,1.739033411184549571e-01,0.000000000000000000e+00
1.580000000000000000e+03,4.845323155943687676e-01,0.000000000000000000e+00
1.581000000000000000e+03,6.461076711335157485e-01,0.000000000000000000e+00
1.582000000000000000e+03,5.260138772616279601e-01,0.000000000000000000e+00
1.583000000000000000e+03,9.771212759609949894e-02,0.000000000000000000e+00
1.584000000000000000e+03,1.328227109297094310e-01,0.000000000000000000e+00
1.585000000000000000e+03,-6.133455801320643330e-02,0.000000000000000000e+00
