timestamp,ecg_measurement,qrs_detected
0.000000000000000000e+00,1.024978690464132924e+00,0.000000000000000000e+00
1.000000000000000000e+00,8.782233312235802059e-01,0.000000000000000000e+00
2.000000000000000000e+00,5.552724365800338485e-02,0.000000000000000000e+00
3.000000000000000000e+00,2.155181083171296974e-01,0.000000000000000000e+00
4.000000000000000000e+00,-3.043480452155481464e-01,0.000000000000000000e+00
5.000000000000000000e+00,3.476870468159846683e-01,0.000000000000000000e+00
6.000000000000000000e+00,-4.139355413998290212e-01,0.000000000000000000e+00
7.000000000000000000e+00,2.327593227869400039e+00,0.000000000000000000e+00
8.000000000000000000e+00,5.359730014094086670e+00,0.000000000000000000e+00
9.000000000000000000e+00,-1.459102568698020352e+00,1.000000000000000000e+00
1.000000000000000000e+01,-1.454483136749739947e+00,0.000000000000000000e+00
1.100000000000000000e+01,-6.420490363927371380e-01,0.000000000000000000e+00
1.200000000000000000e+01,-1.130693161290903664e-01,0.000000000000000000e+00
1.300000000000000000e+01,-1.665474253742350308e-01,0.000000000000000000e+00
1.400000000000000000e+01,-1.662703114168997270e-02,0.000000000000000000e+00
1.500000000000000000e+01,-7.010127093992629677e-02,0.000000000000000000e+00
1.600000000000000000e+01,1.993549475739588295e-01,0.000000000000000000e+00
1.700000000000000000e+01,1.811670037893246543e-01,0.000000000000000000e+00
1.800000000000000000e+01,2.540228068345943835e-01,0.000000000000000000e+00
1.900000000000000000e+01,3.299679877698465380e-01,0.000000000000000000e+00
2.000000000000000000e+01,2.373687717927670249e-01,0.000000000000000000e+00
2.100000000000000000e+01,4.979018431803418632e-01,0.000000000000000000e+00
2.200000000000000000e+01,4.994873348627819620e-01,0.000000000000000000e+00
2.300000000000000000e+01,9.387370045058295309e-01,0.000000000000000000e+00
2.400000000000000000e+01,9.813805754660581693e-01,0.000000000000000000e+00
2.500000000000000000e+01,1.212193514271002970e+00,0.000000000000000000e+00
2.600000000000000000e+01,1.056492655813397574e+00,0.000000000000000000e+00
2.700000000000000000e+01,4.327076011497530406e-01,0.000000000000000000e+00
2.800000000000000000e+01,-5.676581607858763867e-01,0.000000000000000000e+00
2.900000000000000000e+01,-1.131848632051467574e+00,0.000000000000000000e+00
3.000000000000000000e+01,-1.492223021036367836e+00,0.000000000000000000e+00
3.100000000000000000e+01,-1.314784923462772426e+00,0.000000000000000000e+00
3.200000000000000000e+01,-1.474751720467611493e+00,0.000000000000000000e+00
3.300000000000000000e+01,-1.423384431514795878e+00,0.000000000000000000e+00
3.400000000000000000e+01,-1.332385608558275258e+00,0.000000000000000000e+00
3.500000000000000000e+01,-1.121408684124521660e+00,0.000000000000000000e+00
3.600000000000000000e+01,-1.154851409416953745e+00,0.000000000000000000e+00
3.700000000000000000e+01,-9.309045607257460109e-01,0.000000000000000000e+00
3.800000000000000000e+01,-1.058330343461568956e+00,0.000000000000000000e+00
3.900000000000000000e+01,-6.732474141871677142e-01,0.000000000000000000e+00
4.000000000000000000e+01,-5.026836490381220157e-01,0.000000000000000000e+00
4.100000000000000000e+01,-4.660154520259469635e-01,0.000000000000000000e+00
4.200000000000000000e+01,-3.969592827437967708e-01,0.000000000000000000e+00
4.300000000000000000e+01,-4.277702907876754779e-01,0.000000000000000000e+00
4.400000000000000000e+01,-2.376020100535691792e-01,0.000000000000000000e+00
4.500000000000000000e+01,-4.056922709190209364e-01,0.000000000000000000e+00
4.600000000000000000e+01,-2.120855972231587283e-01,0.000000000000000000e+00
4.700000000000000000e+01,-2.291187407563471667e-01,0.000000000000000000e+00
4.800000000000000000e+01,3.980294092986447207e-02,0.000000000000000000e+00
4.900000000000000000e+01,1.428156203584989570e-01,0.000000000000000000e+00
5.000000000000000000e+01,-2.012490191862366731e-02,0.000000000000000000e+00
5.100000000000000000e+01,1.285918907476099604e-01,0.000000000000000000e+00
5.200000000000000000e+01,2.123681737764402666e-01,0.000000000000000000e+00
5.300000000000000000e+01,2.136217430094193570e-01,0.000000000000000000e+00
5.400000000000000000e+01,2.458675837292176036e-01,0.000000000000000000e+00
5.500000000000000000e+01,2.840414276245001313e-01,0.000000000000000000e+00
5.600000000000000000e+01,2.323974553294625156e-01,0.000000000000000000e+00
5.700000000000000000e+01,5.155675068363497759e-01,0.000000000000000000e+00
5.800000000000000000e+01,6.338729697420646403e-01,0.000000000000000000e+00
5.900000000000000000e+01,9.853672359104473921e-01,0.000000000000000000e+00
6.000000000000000000e+01,9.431497228057229565e-01,0.000000000000000000e+00
6.100000000000000000e+01,8.331739236530992798e-01,0.000000000000000000e+00
6.200000000000000000e+01,-2.684526362804249416e-02,0.000000000000000000e+00
6.300000000000000000e+01,2.920760476848529019e-01,0.000000000000000000e+00
6.400000000000000000e+01,-1.373360661780342606e-01,0.000000000000000000e+00
6.500000000000000000e+01,3.164890521560619896e-01,0.000000000000000000e+00
6.600000000000000000e+01,-5.509365764636798835e-01,0.000000000000000000e+00
6.700000000000000000e+01,2.788835752989183625e+00,0.000000000000000000e+00
6.800000000000000000e+01,5.293309333414243589e+00,0.000000000000000000e+00
6.900000000000000000e+01,-2.032102267958014075e+00,1.000000000000000000e+00
7.000000000000000000e+01,-1.453388738223051702e+00,0.000000000000000000e+00
7.100000000000000000e+01,-3.331371366490370467e-01,0.000000000000000000e+00
7.200000000000000000e+01,-8.574511608208328084e-02,0.000000000000000000e+00
7.300000000000000000e+01,-3.783496324576299807e-01,0.000000000000000000e+00
7.400000000000000000e+01,1.281071315926410603e-01,0.000000000000000000e+00
7.500000000000000000e+01,-7.903750267630552107e-02,0.000000000000000000e+00
7.600000000000000000e+01,-1.671214864114824172e-01,0.000000000000000000e+00
7.700000000000000000e+01,-8.126861006821646527e-02,0.000000000000000000e+00
7.800000000000000000e+01,3.235723628330254391e-03,0.000000000000000000e+00
7.900000000000000000e+01,1.617982255585570794e-01,0.000000000000000000e+00
8.000000000000000000e+01,2.570829626661804146e-01,0.000000000000000000e+00
8.100000000000000000e+01,1.891987014253851684e-01,0.000000000000000000e+00
8.200000000000000000e+01,4.566735123500915705e-01,0.000000000000000000e+00
8.300000000000000000e+01,8.234536834596444255e-01,0.000000000000000000e+00
8.400000000000000000e+01,9.900594937886875169e-01,0.000000000000000000e+00
8.500000000000000000e+01,9.995967734911715974e-01,0.000000000000000000e+00
8.600000000000000000e+01,1.123883912436331345e+00,0.000000000000000000e+00
8.700000000000000000e+01,2.066566425636876814e-01,0.000000000000000000e+00
8.800000000000000000e+01,-5.943066380854428177e-01,0.000000000000000000e+00
8.900000000000000000e+01,-1.367807801069064633e+00,0.000000000000000000e+00
9.000000000000000000e+01,-1.643552800719201512e+00,0.000000000000000000e+00
9.100000000000000000e+01,-1.638246859189842253e+00,0.000000000000000000e+00
9.200000000000000000e+01,-1.513694671505289469e+00,0.000000000000000000e+00
9.300000000000000000e+01,-1.658078871973810431e+00,0.000000000000000000e+00
9.400000000000000000e+01,-1.238061638404105658e+00,0.000000000000000000e+00
9.500000000000000000e+01,-1.211463214010038536e+00,0.000000000000000000e+00
9.600000000000000000e+01,-1.182332116780972830e+00,0.000000000000000000e+00
9.700000000000000000e+01,-1.146250430704865320e+00,0.000000000000000000e+00
9.800000000000000000e+01,-9.996244615469092043e-01,0.000000000000000000e+00
9.900000000000000000e+01,-8.627830020005997635e-01,0.000000000000000000e+00
1.000000000000000000e+02,-8.290797326885621654e-01,0.000000000000000000e+00
1.010000000000000000e+02,-8.868097081202752641e-01,0.000000000000000000e+00
1.020000000000000000e+02,-5.863472808005630865e-01,0.000000000000000000e+00
1.030000000000000000e+02,-4.698878653269564221e-01,0.000000000000000000e+00
1.040000000000000000e+02,-5.438603411962780187e-01,0.000000000000000000e+00
1.050000000000000000e+02,-4.789413764603440149e-01,0.000000000000000000e+00
1.060000000000000000e+02,-3.273698501835263230e-01,0.000000000000000000e+00
1.070000000000000000e+02,-3.157784204667794525e-01,0.000000000000000000e+00
1.080000000000000000e+02,-3.283395969125001979e-01,0.000000000000000000e+00
1.090000000000000000e+02,-1.872407978050170674e-01,0.000000000000000000e+00
1.100000000000000000e+02,6.090909880358894718e-02,0.000000000000000000e+00
1.110000000000000000e+02,-1.282834364020306872e-01,0.000000000000000000e+00
1.120000000000000000e+02,1.713852365905248754e-01,0.000000000000000000e+00
1.130000000000000000e+02,4.799839076076922034e-02,0.000000000000000000e+00
1.140000000000000000e+02,2.391014901303884777e-01,0.000000000000000000e+00
1.150000000000000000e+02,2.821172565900365026e-01,0.000000000000000000e+00
1.160000000000000000e+02,5.645689811980402206e-01,0.000000000000000000e+00
1.170000000000000000e+02,6.349572599281853025e-01,0.000000000000000000e+00
1.180000000000000000e+02,8.431627375037641370e-01,0.000000000000000000e+00
1.190000000000000000e+02,7.731883695234373910e-01,0.000000000000000000e+00
1.200000000000000000e+02,4.925673472051271540e-02,0.000000000000000000e+00
1.210000000000000000e+02,-9.314531710211043647e-02,0.000000000000000000e+00
1.220000000000000000e+02,1.003848578097764241e-04,0.000000000000000000e+00
1.230000000000000000e+02,1.068979550891195895e-01,0.000000000000000000e+00
1.240000000000000000e+02,-1.335483593695900306e-01,0.000000000000000000e+00
1.250000000000000000e+02,1.092171683084089295e+00,0.000000000000000000e+00
1.260000000000000000e+02,5.807641797474939693e+00,0.000000000000000000e+00
1.270000000000000000e+02,-8.649559521469156742e-01,1.000000000000000000e+00
1.280000000000000000e+02,-2.074688323686679325e+00,0.000000000000000000e+00
1.290000000000000000e+02,-5.777744567017274457e-01,0.000000000000000000e+00
1.300000000000000000e+02,-5.051989134809509174e-02,0.000000000000000000e+00
1.310000000000000000e+02,-6.151060713591643275e-02,0.000000000000000000e+00
1.320000000000000000e+02,-5.570970281504123572e-03,0.000000000000000000e+00
1.330000000000000000e+02,1.282016936012933539e-01,0.000000000000000000e+00
1.340000000000000000e+02,1.379489202980425377e-01,0.000000000000000000e+00
1.350000000000000000e+02,-5.604158632530782669e-02,0.000000000000000000e+00
1.360000000000000000e+02,1.592917226864939972e-01,0.000000000000000000e+00
1.370000000000000000e+02,2.011352769047857481e-01,0.000000000000000000e+00
1.380000000000000000e+02,3.842100457958984028e-01,0.000000000000000000e+00
1.390000000000000000e+02,5.013005549213906953e-01,0.000000000000000000e+00
1.400000000000000000e+02,5.948609166530659520e-01,0.000000000000000000e+00
1.410000000000000000e+02,1.196652281630581349e+00,0.000000000000000000e+00
1.420000000000000000e+02,1.171958831723030281e+00,0.000000000000000000e+00
1.430000000000000000e+02,1.411533456269076225e+00,0.000000000000000000e+00
1.440000000000000000e+02,1.591509784366670788e+00,0.000000000000000000e+00
1.450000000000000000e+02,8.865842150289517942e-01,0.000000000000000000e+00
1.460000000000000000e+02,1.690415126276847979e-02,0.000000000000000000e+00
1.470000000000000000e+02,-6.805228223263128928e-01,0.000000000000000000e+00
1.480000000000000000e+02,-9.468259615798099160e-01,0.000000000000000000e+00
1.490000000000000000e+02,-9.623368149632217650e-01,0.000000000000000000e+00
1.500000000000000000e+02,-1.092841933868029969e+00,0.000000000000000000e+00
1.510000000000000000e+02,-9.627371597920075796e-01,0.000000000000000000e+00
1.520000000000000000e+02,-8.560128149217824944e-01,0.000000000000000000e+00
1.530000000000000000e+02,-9.936032485084089760e-01,0.000000000000000000e+00
1.540000000000000000e+02,-7.133492440872333251e-01,0.000000000000000000e+00
1.550000000000000000e+02,-6.979593630416069949e-01,0.000000000000000000e+00
1.560000000000000000e+02,-5.005731046483407054e-01,0.000000000000000000e+00
1.570000000000000000e+02,-4.187612516062724222e-01,0.000000000000000000e+00
1.580000000000000000e+02,-1.799105245019669841e-01,0.000000000000000000e+00
1.590000000000000000e+02,-1.496110220582511363e-01,0.000000000000000000e+00
1.600000000000000000e+02,-1.181127058532274732e-01,0.000000000000000000e+00
1.610000000000000000e+02,2.317720542874857070e-02,0.000000000000000000e+00
1.620000000000000000e+02,1.363049275402997973e-01,0.000000000000000000e+00
1.630000000000000000e+02,1.674245689405825521e-01,0.000000000000000000e+00
1.640000000000000000e+02,1.927344636623127550e-01,0.000000000000000000e+00
1.650000000000000000e+02,3.224980959434413652e-01,0.000000000000000000e+00
1.660000000000000000e+02,2.586500592432008916e-01,0.000000000000000000e+00
1.670000000000000000e+02,1.883023723312898801e-01,0.000000000000000000e+00
1.680000000000000000e+02,3.723048937372804290e-01,0.000000000000000000e+00
1.690000000000000000e+02,4.786222737341343514e-01,0.000000000000000000e+00
1.700000000000000000e+02,3.644346818653019238e-01,0.000000000000000000e+00
1.710000000000000000e+02,3.075303716602730830e-01,0.000000000000000000e+00
1.720000000000000000e+02,3.250857239260271925e-01,0.000000000000000000e+00
1.730000000000000000e+02,3.491255445879731800e-01,0.000000000000000000e+00
1.740000000000000000e+02,5.720970450631920334e-01,0.000000000000000000e+00
1.750000000000000000e+02,5.025367801924293110e-01,0.000000000000000000e+00
1.760000000000000000e+02,6.880361144467261880e-01,0.000000000000000000e+00
1.770000000000000000e+02,6.271656397743448075e-01,0.000000000000000000e+00
1.780000000000000000e+02,4.250673481555663491e-01,0.000000000000000000e+00
1.790000000000000000e+02,6.440332447159515146e-03,0.000000000000000000e+00
1.800000000000000000e+02,-1.244111779939213180e-01,0.000000000000000000e+00
1.810000000000000000e+02,-4.420992883281026353e-01,0.000000000000000000e+00
1.820000000000000000e+02,-1.497588060919409769e-01,0.000000000000000000e+00
1.830000000000000000e+02,-6.062399851518684990e-01,0.000000000000000000e+00
1.840000000000000000e+02,1.028430900612234744e+00,0.000000000000000000e+00
1.850000000000000000e+02,5.271380947964828145e+00,0.000000000000000000e+00
1.860000000000000000e+02,-1.069679749064758711e+00,1.000000000000000000e+00
1.870000000000000000e+02,-1.900933724656006518e+00,0.000000000000000000e+00
1.880000000000000000e+02,-7.023921386162711444e-01,0.000000000000000000e+00
1.890000000000000000e+02,-3.467164982555477892e-01,0.000000000000000000e+00
1.900000000000000000e+02,-3.681987511674014169e-01,0.000000000000000000e+00
1.910000000000000000e+02,-1.609399031453691009e-01,0.000000000000000000e+00
1.920000000000000000e+02,-1.482247730309657341e-01,0.000000000000000000e+00
1.930000000000000000e+02,-1.549341564650614789e-01,0.000000000000000000e+00
1.940000000000000000e+02,7.501412993587126821e-02,0.000000000000000000e+00
1.950000000000000000e+02,2.050991299486857600e-01,0.000000000000000000e+00
1.960000000000000000e+02,1.904820028497355711e-01,0.000000000000000000e+00
1.970000000000000000e+02,3.707639362396083493e-01,0.000000000000000000e+00
1.980000000000000000e+02,5.257329417736568145e-01,0.000000000000000000e+00
1.990000000000000000e+02,8.167671864510758217e-01,0.000000000000000000e+00
2.000000000000000000e+02,9.504223308298637152e-01,0.000000000000000000e+00
2.010000000000000000e+02,1.431919445408166069e+00,0.000000000000000000e+00
2.020000000000000000e+02,1.636507710047156783e+00,0.000000000000000000e+00
2.030000000000000000e+02,1.341336821262958390e+00,0.000000000000000000e+00
2.040000000000000000e+02,9.943791500159036012e-01,0.000000000000000000e+00
2.050000000000000000e+02,9.171830651425741388e-02,0.000000000000000000e+00
2.060000000000000000e+02,-8.294835813193235374e-01,0.000000000000000000e+00
2.070000000000000000e+02,-1.165180488750512167e+00,0.000000000000000000e+00
2.080000000000000000e+02,-1.121450861430505430e+00,0.000000000000000000e+00
2.090000000000000000e+02,-1.123843145452859460e+00,0.000000000000000000e+00
2.100000000000000000e+02,-1.022670258044075853e+00,0.000000000000000000e+00
2.110000000000000000e+02,-9.290590995653852380e-01,0.000000000000000000e+00
2.120000000000000000e+02,-1.041212826349716236e+00,0.000000000000000000e+00
2.130000000000000000e+02,-8.594568931099816345e-01,0.000000000000000000e+00
2.140000000000000000e+02,-8.789729435604379804e-01,0.000000000000000000e+00
2.150000000000000000e+02,-6.598688116926455516e-01,0.000000000000000000e+00
2.160000000000000000e+02,-9.016139505713598457e-01,0.000000000000000000e+00
2.170000000000000000e+02,-4.631429267091021762e-01,0.000000000000000000e+00
2.180000000000000000e+02,-5.424928406958882121e-01,0.000000000000000000e+00
2.190000000000000000e+02,-3.596006260753250028e-01,0.000000000000000000e+00
2.200000000000000000e+02,-4.045350226442896990e-01,0.000000000000000000e+00
2.210000000000000000e+02,-1.799301003018203005e-01,0.000000000000000000e+00
2.220000000000000000e+02,-4.544712305484338577e-01,0.000000000000000000e+00
2.230000000000000000e+02,-3.841875092502957667e-01,0.000000000000000000e+00
2.240000000000000000e+02,-3.586273867017013561e-01,0.000000000000000000e+00
2.250000000000000000e+02,-2.998218429593606515e-01,0.000000000000000000e+00
2.260000000000000000e+02,-3.088063909440721400e-01,0.000000000000000000e+00
2.270000000000000000e+02,-1.353289703845666769e-01,0.000000000000000000e+00
2.280000000000000000e+02,-2.511041226133611803e-01,0.000000000000000000e+00
2.290000000000000000e+02,-2.194258577746642791e-01,0.000000000000000000e+00
2.300000000000000000e+02,-1.685066722057631805e-01,0.000000000000000000e+00
2.310000000000000000e+02,-2.775920796406502328e-02,0.000000000000000000e+00
2.320000000000000000e+02,-3.876992000550578271e-02,0.000000000000000000e+00
2.330000000000000000e+02,2.714758956550848423e-01,0.000000000000000000e+00
2.340000000000000000e+02,1.486939676281149869e-01,0.000000000000000000e+00
2.350000000000000000e+02,6.062388815262043096e-01,0.000000000000000000e+00
2.360000000000000000e+02,3.932741379558311046e-01,0.000000000000000000e+00
2.370000000000000000e+02,1.185844226158086490e-01,0.000000000000000000e+00
2.380000000000000000e+02,-6.147402671096676707e-01,0.000000000000000000e+00
2.390000000000000000e+02,-3.343683183422823668e-01,0.000000000000000000e+00
2.400000000000000000e+02,-8.355225173133969951e-01,0.000000000000000000e+00
2.410000000000000000e+02,-9.834533718881739717e-02,0.000000000000000000e+00
2.420000000000000000e+02,-1.145599473367870047e+00,0.000000000000000000e+00
2.430000000000000000e+02,3.114157623429491206e+00,0.000000000000000000e+00
2.440000000000000000e+02,3.676667193959280322e+00,0.000000000000000000e+00
2.450000000000000000e+02,-2.811647404206485845e+00,1.000000000000000000e+00
2.460000000000000000e+02,-1.691765271835144357e+00,0.000000000000000000e+00
2.470000000000000000e+02,-9.584496936425979108e-01,0.000000000000000000e+00
2.480000000000000000e+02,-3.499987883831149893e-01,0.000000000000000000e+00
2.490000000000000000e+02,-5.787544803774223867e-01,0.000000000000000000e+00
2.500000000000000000e+02,-3.843417303884043568e-01,0.000000000000000000e+00
2.510000000000000000e+02,-2.260367024576889483e-01,0.000000000000000000e+00
2.520000000000000000e+02,-2.400508496978552286e-01,0.000000000000000000e+00
2.530000000000000000e+02,-2.340675933210082105e-01,0.000000000000000000e+00
2.540000000000000000e+02,-2.366175788135992386e-01,0.000000000000000000e+00
2.550000000000000000e+02,7.565493567925128671e-02,0.000000000000000000e+00
2.560000000000000000e+02,2.088319715849943914e-01,0.000000000000000000e+00
2.570000000000000000e+02,3.723803483363851141e-01,0.000000000000000000e+00
2.580000000000000000e+02,6.172282180028049181e-01,0.000000000000000000e+00
2.590000000000000000e+02,8.103502657550749610e-01,0.000000000000000000e+00
2.600000000000000000e+02,1.260230171209938632e+00,0.000000000000000000e+00
2.610000000000000000e+02,1.099747457761321989e+00,0.000000000000000000e+00
2.620000000000000000e+02,1.158034701500137320e+00,0.000000000000000000e+00
2.630000000000000000e+02,4.106534909113642717e-01,0.000000000000000000e+00
2.640000000000000000e+02,-4.438583981350150975e-01,0.000000000000000000e+00
2.650000000000000000e+02,-1.241616495871775028e+00,0.000000000000000000e+00
2.660000000000000000e+02,-1.197523965156674697e+00,0.000000000000000000e+00
2.670000000000000000e+02,-1.198371435683339037e+00,0.000000000000000000e+00
2.680000000000000000e+02,-1.081637032288641276e+00,0.000000000000000000e+00
2.690000000000000000e+02,-1.292602078962022727e+00,0.000000000000000000e+00
2.700000000000000000e+02,-9.509542626179818825e-01,0.000000000000000000e+00
2.710000000000000000e+02,-8.737858888399542279e-01,0.000000000000000000e+00
2.720000000000000000e+02,-7.141534711954798942e-01,0.000000000000000000e+00
2.730000000000000000e+02,-5.967839328151812728e-01,0.000000000000000000e+00
2.740000000000000000e+02,-4.064135614890648784e-01,0.000000000000000000e+00
2.750000000000000000e+02,-3.367449472671100730e-01,0.000000000000000000e+00
2.760000000000000000e+02,-3.684778938653578972e-01,0.000000000000000000e+00
2.770000000000000000e+02,-5.869253044988776563e-02,0.000000000000000000e+00
2.780000000000000000e+02,-2.430847373492500685e-01,0.000000000000000000e+00
2.790000000000000000e+02,-1.915178599935439818e-01,0.000000000000000000e+00
2.800000000000000000e+02,-1.299384150966419876e-02,0.000000000000000000e+00
2.810000000000000000e+02,1.105452237077491490e-01,0.000000000000000000e+00
2.820000000000000000e+02,-9.681793095892066159e-02,0.000000000000000000e+00
2.830000000000000000e+02,3.037374732744433370e-01,0.000000000000000000e+00
2.840000000000000000e+02,1.137920924374104768e-02,0.000000000000000000e+00
2.850000000000000000e+02,1.842696720021146650e-01,0.000000000000000000e+00
2.860000000000000000e+02,2.430901970891939656e-01,0.000000000000000000e+00
2.870000000000000000e+02,3.701505667879855799e-01,0.000000000000000000e+00
2.880000000000000000e+02,3.554169893819598691e-01,0.000000000000000000e+00
2.890000000000000000e+02,3.777552561462055314e-01,0.000000000000000000e+00
2.900000000000000000e+02,5.385049723146625444e-01,0.000000000000000000e+00
2.910000000000000000e+02,7.686585746567500266e-01,0.000000000000000000e+00
2.920000000000000000e+02,1.081444761651131126e+00,0.000000000000000000e+00
2.930000000000000000e+02,1.142994194390288820e+00,0.000000000000000000e+00
2.940000000000000000e+02,9.200945526294521670e-01,0.000000000000000000e+00
2.950000000000000000e+02,6.508062634588586137e-01,0.000000000000000000e+00
2.960000000000000000e+02,-6.241976680473354522e-02,0.000000000000000000e+00
2.970000000000000000e+02,2.643746361638355524e-01,0.000000000000000000e+00
2.980000000000000000e+02,1.854384885913869518e-01,0.000000000000000000e+00
2.990000000000000000e+02,2.551114872208120610e-01,0.000000000000000000e+00
3.000000000000000000e+02,2.463564237619217945e-01,0.000000000000000000e+00
3.010000000000000000e+02,5.466185009369640468e+00,0.000000000000000000e+00
3.020000000000000000e+02,1.521402552209397907e+00,1.000000000000000000e+00
3.030000000000000000e+02,-2.172192308858692300e+00,0.000000000000000000e+00
3.040000000000000000e+02,-3.865761462195204112e-01,0.000000000000000000e+00
3.050000000000000000e+02,-2.303110520459729083e-01,0.000000000000000000e+00
3.060000000000000000e+02,3.330926448393467521e-01,0.000000000000000000e+00
3.070000000000000000e+02,-2.322729771557098255e-01,0.000000000000000000e+00
3.080000000000000000e+02,1.805616622456003573e-01,0.000000000000000000e+00
3.090000000000000000e+02,2.145268763017935953e-01,0.000000000000000000e+00
3.100000000000000000e+02,2.298143792546337993e-01,0.000000000000000000e+00
3.110000000000000000e+02,2.279849481782857124e-01,0.000000000000000000e+00
3.120000000000000000e+02,3.704799327748461990e-01,0.000000000000000000e+00
3.130000000000000000e+02,3.566574984140421511e-01,0.000000000000000000e+00
3.140000000000000000e+02,5.270496082833862062e-01,0.000000000000000000e+00
3.150000000000000000e+02,6.978662249486909941e-01,0.000000000000000000e+00
3.160000000000000000e+02,1.222251298154558130e+00,0.000000000000000000e+00
3.170000000000000000e+02,1.030804789225877816e+00,0.000000000000000000e+00
3.180000000000000000e+02,1.542312789246472748e+00,0.000000000000000000e+00
3.190000000000000000e+02,1.378601517952585009e+00,0.000000000000000000e+00
3.200000000000000000e+02,1.105536090436029850e+00,0.000000000000000000e+00
3.210000000000000000e+02,1.160858638834858791e-01,0.000000000000000000e+00
3.220000000000000000e+02,-7.331280424678117136e-01,0.000000000000000000e+00
3.230000000000000000e+02,-9.359212336128563958e-01,0.000000000000000000e+00
3.240000000000000000e+02,-1.126379339339000474e+00,0.000000000000000000e+00
3.250000000000000000e+02,-1.155571261384581883e+00,0.000000000000000000e+00
3.260000000000000000e+02,-9.223057630473402435e-01,0.000000000000000000e+00
3.270000000000000000e+02,-1.176559920748395660e+00,0.000000000000000000e+00
3.280000000000000000e+02,-7.836671101032576248e-01,0.000000000000000000e+00
3.290000000000000000e+02,-9.454708685980884875e-01,0.000000000000000000e+00
3.300000000000000000e+02,-5.809789838897839731e-01,0.000000000000000000e+00
3.310000000000000000e+02,-6.464091681900335784e-01,0.000000000000000000e+00
3.320000000000000000e+02,-4.828683635245138994e-01,0.000000000000000000e+00
3.330000000000000000e+02,-5.648085871847826622e-01,0.000000000000000000e+00
3.340000000000000000e+02,-3.071948371207322559e-01,0.000000000000000000e+00
3.350000000000000000e+02,-2.309248161807606614e-01,0.000000000000000000e+00
3.360000000000000000e+02,-5.726026292112703503e-02,0.000000000000000000e+00
3.370000000000000000e+02,-3.330045843476048817e-01,0.000000000000000000e+00
3.380000000000000000e+02,-1.572056739668482306e-01,0.000000000000000000e+00
3.390000000000000000e+02,-1.274919396341857580e-01,0.000000000000000000e+00
3.400000000000000000e+02,-9.152607629830583624e-02,0.000000000000000000e+00
3.410000000000000000e+02,-6.307569982152955168e-03,0.000000000000000000e+00
3.420000000000000000e+02,3.336715397085295715e-02,0.000000000000000000e+00
3.430000000000000000e+02,-5.434193421372398441e-02,0.000000000000000000e+00
3.440000000000000000e+02,1.189982360777309817e-01,0.000000000000000000e+00
3.450000000000000000e+02,-3.564266362196728127e-02,0.000000000000000000e+00
3.460000000000000000e+02,3.301761492280663041e-02,0.000000000000000000e+00
3.470000000000000000e+02,-2.843634311419784497e-02,0.000000000000000000e+00
3.480000000000000000e+02,1.608672166755362454e-01,0.000000000000000000e+00
3.490000000000000000e+02,1.725739178662661077e-01,0.000000000000000000e+00
3.500000000000000000e+02,5.293008392365957659e-01,0.000000000000000000e+00
3.510000000000000000e+02,3.904943920301224281e-01,0.000000000000000000e+00
3.520000000000000000e+02,8.446576160252288190e-01,0.000000000000000000e+00
3.530000000000000000e+02,8.528953408857805618e-01,0.000000000000000000e+00
3.540000000000000000e+02,5.805645219475386032e-01,0.000000000000000000e+00
3.550000000000000000e+02,-1.758795125952752614e-01,0.000000000000000000e+00
3.560000000000000000e+02,5.272124646965963002e-02,0.000000000000000000e+00
3.570000000000000000e+02,-3.881526129129714842e-01,0.000000000000000000e+00
3.580000000000000000e+02,3.025414320056206939e-03,0.000000000000000000e+00
3.590000000000000000e+02,-7.857431940826248296e-01,0.000000000000000000e+00
3.600000000000000000e+02,2.227148674408559348e+00,0.000000000000000000e+00
3.610000000000000000e+02,5.314265001212683970e+00,0.000000000000000000e+00
3.620000000000000000e+02,-1.905213894403910091e+00,1.000000000000000000e+00
3.630000000000000000e+02,-1.833777925793186547e+00,0.000000000000000000e+00
3.640000000000000000e+02,-6.029725145090667482e-01,0.000000000000000000e+00
3.650000000000000000e+02,-3.674606256638309754e-01,0.000000000000000000e+00
3.660000000000000000e+02,-4.619015925263033062e-01,0.000000000000000000e+00
3.670000000000000000e+02,-2.574148132618742091e-01,0.000000000000000000e+00
3.680000000000000000e+02,-2.292148529198906881e-01,0.000000000000000000e+00
3.690000000000000000e+02,-1.041922633736053344e-01,0.000000000000000000e+00
3.700000000000000000e+02,-2.557137772825686661e-01,0.000000000000000000e+00
3.710000000000000000e+02,-3.605492955565816476e-02,0.000000000000000000e+00
3.720000000000000000e+02,3.391161032549621507e-02,0.000000000000000000e+00
3.730000000000000000e+02,-1.699864800269938747e-02,0.000000000000000000e+00
3.740000000000000000e+02,3.151465813388444337e-01,0.000000000000000000e+00
3.750000000000000000e+02,5.507160907682878692e-01,0.000000000000000000e+00
3.760000000000000000e+02,7.959390018387190180e-01,0.000000000000000000e+00
3.770000000000000000e+02,1.037637458134773372e+00,0.000000000000000000e+00
3.780000000000000000e+02,1.198658585358331363e+00,0.000000000000000000e+00
3.790000000000000000e+02,1.315813332038589412e+00,0.000000000000000000e+00
3.800000000000000000e+02,4.817431183706204489e-01,0.000000000000000000e+00
3.810000000000000000e+02,-5.384874252221085733e-01,0.000000000000000000e+00
3.820000000000000000e+02,-9.272713856575888203e-01,0.000000000000000000e+00
3.830000000000000000e+02,-1.279469883774954297e+00,0.000000000000000000e+00
3.840000000000000000e+02,-1.374540219443878275e+00,0.000000000000000000e+00
3.850000000000000000e+02,-1.107566666008392708e+00,0.000000000000000000e+00
3.860000000000000000e+02,-1.284406522416724927e+00,0.000000000000000000e+00
3.870000000000000000e+02,-1.102745188709381985e+00,0.000000000000000000e+00
3.880000000000000000e+02,-1.035176177096785555e+00,0.000000000000000000e+00
3.890000000000000000e+02,-8.542376175229742241e-01,0.000000000000000000e+00
3.900000000000000000e+02,-9.312327849121806445e-01,0.000000000000000000e+00
3.910000000000000000e+02,-5.932177325458304340e-01,0.000000000000000000e+00
3.920000000000000000e+02,-5.560818185366404043e-01,0.000000000000000000e+00
3.930000000000000000e+02,-4.237107017354786453e-01,0.000000000000000000e+00
3.940000000000000000e+02,-3.930410351185817386e-01,0.000000000000000000e+00
3.950000000000000000e+02,-2.794803979416379813e-01,0.000000000000000000e+00
3.960000000000000000e+02,-2.600802390130464437e-01,0.000000000000000000e+00
3.970000000000000000e+02,-2.109095843486338273e-01,0.000000000000000000e+00
3.980000000000000000e+02,5.992653350471960350e-02,0.000000000000000000e+00
3.990000000000000000e+02,-1.570637836636274154e-01,0.000000000000000000e+00
4.000000000000000000e+02,4.866041255033064922e-02,0.000000000000000000e+00
4.010000000000000000e+02,-1.255021847438559379e-01,0.000000000000000000e+00
4.020000000000000000e+02,8.309268957801972666e-02,0.000000000000000000e+00
4.030000000000000000e+02,4.563132131364602828e-02,0.000000000000000000e+00
4.040000000000000000e+02,7.466941377514807465e-02,0.000000000000000000e+00
4.050000000000000000e+02,4.087038580218095296e-01,0.000000000000000000e+00
4.060000000000000000e+02,5.444614912608126273e-02,0.000000000000000000e+00
4.070000000000000000e+02,3.976211037011542215e-01,0.000000000000000000e+00
4.080000000000000000e+02,5.498829577001712599e-01,0.000000000000000000e+00
4.090000000000000000e+02,5.488956718385974431e-01,0.000000000000000000e+00
4.100000000000000000e+02,7.400228710637334339e-01,0.000000000000000000e+00
4.110000000000000000e+02,8.888251050291904320e-01,0.000000000000000000e+00
4.120000000000000000e+02,7.260033752376615634e-01,0.000000000000000000e+00
4.130000000000000000e+02,-2.743262188863765036e-02,0.000000000000000000e+00
4.140000000000000000e+02,-8.848318713074471153e-02,0.000000000000000000e+00
4.150000000000000000e+02,-2.811998341639277421e-01,0.000000000000000000e+00
4.160000000000000000e+02,1.937020548372631601e-01,0.000000000000000000e+00
4.170000000000000000e+02,-3.881473761054656246e-01,0.000000000000000000e+00
4.180000000000000000e+02,2.165811282149108230e+00,0.000000000000000000e+00
4.190000000000000000e+02,5.111841487399962247e+00,0.000000000000000000e+00
4.200000000000000000e+02,-2.233017877018211195e+00,1.000000000000000000e+00
4.210000000000000000e+02,-1.701744141796154519e+00,0.000000000000000000e+00
4.220000000000000000e+02,-6.623612618384105977e-01,0.000000000000000000e+00
4.230000000000000000e+02,6.042240760541400801e-02,0.000000000000000000e+00
4.240000000000000000e+02,-2.514230369100565188e-01,0.000000000000000000e+00
4.250000000000000000e+02,3.695794421912809019e-02,0.000000000000000000e+00
4.260000000000000000e+02,8.077757367053356452e-02,0.000000000000000000e+00
4.270000000000000000e+02,6.731340569400409701e-02,0.000000000000000000e+00
4.280000000000000000e+02,1.203605612842590100e-01,0.000000000000000000e+00
4.290000000000000000e+02,2.791154409738366149e-01,0.000000000000000000e+00
4.300000000000000000e+02,1.021086593875089182e-01,0.000000000000000000e+00
4.310000000000000000e+02,4.467011045729167851e-01,0.000000000000000000e+00
4.320000000000000000e+02,5.185128171340048775e-01,0.000000000000000000e+00
4.330000000000000000e+02,7.182271958560696445e-01,0.000000000000000000e+00
4.340000000000000000e+02,8.598798300066357037e-01,0.000000000000000000e+00
4.350000000000000000e+02,1.239220494485761437e+00,0.000000000000000000e+00
4.360000000000000000e+02,1.245574854573738399e+00,0.000000000000000000e+00
4.370000000000000000e+02,1.238105787522953527e+00,0.000000000000000000e+00
4.380000000000000000e+02,5.279018071896521835e-01,0.000000000000000000e+00
4.390000000000000000e+02,-3.182084425458353572e-01,0.000000000000000000e+00
4.400000000000000000e+02,-1.060385040298625237e+00,0.000000000000000000e+00
4.410000000000000000e+02,-1.173032614110225413e+00,0.000000000000000000e+00
4.420000000000000000e+02,-1.064574835979026579e+00,0.000000000000000000e+00
4.430000000000000000e+02,-1.225682684893839136e+00,0.000000000000000000e+00
4.440000000000000000e+02,-1.164867338898023297e+00,0.000000000000000000e+00
4.450000000000000000e+02,-8.012587411079729049e-01,0.000000000000000000e+00
4.460000000000000000e+02,-7.899657572748586265e-01,0.000000000000000000e+00
4.470000000000000000e+02,-8.867668068687176719e-01,0.000000000000000000e+00
4.480000000000000000e+02,-7.301482139348723921e-01,0.000000000000000000e+00
4.490000000000000000e+02,-5.223449003474412988e-01,0.000000000000000000e+00
4.500000000000000000e+02,-4.451597785882872027e-01,0.000000000000000000e+00
4.510000000000000000e+02,-2.640051373640791565e-01,0.000000000000000000e+00
4.520000000000000000e+02,-2.649092583435520010e-01,0.000000000000000000e+00
4.530000000000000000e+02,-1.317572106933549425e-01,0.000000000000000000e+00
4.540000000000000000e+02,-1.486372467651221052e-01,0.000000000000000000e+00
4.550000000000000000e+02,-1.114329902811266454e-01,0.000000000000000000e+00
4.560000000000000000e+02,-1.322202400212643403e-01,0.000000000000000000e+00
4.570000000000000000e+02,1.184450241997848279e-03,0.000000000000000000e+00
4.580000000000000000e+02,-2.361125941782744528e-02,0.000000000000000000e+00
4.590000000000000000e+02,-1.591261134570629565e-01,0.000000000000000000e+00
4.600000000000000000e+02,8.730966819845996374e-03,0.000000000000000000e+00
4.610000000000000000e+02,1.148717401295900886e-01,0.000000000000000000e+00
4.620000000000000000e+02,6.525604312601418489e-02,0.000000000000000000e+00
4.630000000000000000e+02,7.908160426775991125e-02,0.000000000000000000e+00
4.640000000000000000e+02,1.062393944158983722e-01,0.000000000000000000e+00
4.650000000000000000e+02,2.846902062125215571e-01,0.000000000000000000e+00
4.660000000000000000e+02,3.069124401479866315e-01,0.000000000000000000e+00
4.670000000000000000e+02,4.699173820783131283e-01,0.000000000000000000e+00
4.680000000000000000e+02,6.082029056473167161e-01,0.000000000000000000e+00
4.690000000000000000e+02,6.878420704452741230e-01,0.000000000000000000e+00
4.700000000000000000e+02,6.301191931962728532e-01,0.000000000000000000e+00
4.710000000000000000e+02,1.853701112145774987e-01,0.000000000000000000e+00
4.720000000000000000e+02,-3.965993583262691358e-01,0.000000000000000000e+00
4.730000000000000000e+02,-1.010328454361013872e-01,0.000000000000000000e+00
4.740000000000000000e+02,-1.300952030132419834e-01,0.000000000000000000e+00
4.750000000000000000e+02,-3.463408844293677236e-01,0.000000000000000000e+00
4.760000000000000000e+02,4.798397985914272246e-01,0.000000000000000000e+00
4.770000000000000000e+02,5.659351211481950195e+00,0.000000000000000000e+00
4.780000000000000000e+02,1.115985981698152107e-01,1.000000000000000000e+00
4.790000000000000000e+02,-2.199564151449475702e+00,0.000000000000000000e+00
4.800000000000000000e+02,-7.770141288760906706e-01,0.000000000000000000e+00
4.810000000000000000e+02,-4.660143276813660251e-01,0.000000000000000000e+00
4.820000000000000000e+02,-3.773200455331741643e-01,0.000000000000000000e+00
4.830000000000000000e+02,-4.050767330850195691e-01,0.000000000000000000e+00
4.840000000000000000e+02,-2.541959982202536272e-01,0.000000000000000000e+00
4.850000000000000000e+02,-1.890264483983598309e-01,0.000000000000000000e+00
4.860000000000000000e+02,-9.877363743743654279e-02,0.000000000000000000e+00
4.870000000000000000e+02,-1.027228469891259127e-01,0.000000000000000000e+00
4.880000000000000000e+02,-9.618918652437198624e-02,0.000000000000000000e+00
4.890000000000000000e+02,7.883151498059361162e-02,0.000000000000000000e+00
4.900000000000000000e+02,2.579328025954088499e-01,0.000000000000000000e+00
4.910000000000000000e+02,2.230395246651580288e-01,0.000000000000000000e+00
4.920000000000000000e+02,6.760144618245851333e-01,0.000000000000000000e+00
4.930000000000000000e+02,8.196131951902169144e-01,0.000000000000000000e+00
4.940000000000000000e+02,9.343103093903114553e-01,0.000000000000000000e+00
4.950000000000000000e+02,1.171102507078032318e+00,0.000000000000000000e+00
4.960000000000000000e+02,5.879871880661365902e-01,0.000000000000000000e+00
4.970000000000000000e+02,-4.270149947940159452e-01,0.000000000000000000e+00
4.980000000000000000e+02,-8.135238143491918539e-01,0.000000000000000000e+00
4.990000000000000000e+02,-1.319537322690951253e+00,0.000000000000000000e+00
5.000000000000000000e+02,-1.286776604730915485e+00,0.000000000000000000e+00
5.010000000000000000e+02,-1.408340773480809549e+00,0.000000000000000000e+00
5.020000000000000000e+02,-1.217177393707125521e+00,0.000000000000000000e+00
5.030000000000000000e+02,-1.158693791390706496e+00,0.000000000000000000e+00
5.040000000000000000e+02,-1.220405699797793231e+00,0.000000000000000000e+00
5.050000000000000000e+02,-9.580907346579246031e-01,0.000000000000000000e+00
5.060000000000000000e+02,-9.462544867761009115e-01,0.000000000000000000e+00
5.070000000000000000e+02,-8.299253442287377602e-01,0.000000000000000000e+00
5.080000000000000000e+02,-5.272429340746143112e-01,0.000000000000000000e+00
5.090000000000000000e+02,-5.017129233849808578e-01,0.000000000000000000e+00
5.100000000000000000e+02,-2.735776020646011331e-01,0.000000000000000000e+00
5.110000000000000000e+02,-4.031572169902372660e-01,0.000000000000000000e+00
5.120000000000000000e+02,-2.349477871550877950e-01,0.000000000000000000e+00
5.130000000000000000e+02,-3.052835172543934550e-01,0.000000000000000000e+00
5.140000000000000000e+02,-4.982477200608013967e-02,0.000000000000000000e+00
5.150000000000000000e+02,-3.758775359761461904e-02,0.000000000000000000e+00
5.160000000000000000e+02,-6.191822573959832737e-02,0.000000000000000000e+00
5.170000000000000000e+02,-1.841256975769254125e-03,0.000000000000000000e+00
5.180000000000000000e+02,3.171524249469802048e-01,0.000000000000000000e+00
5.190000000000000000e+02,1.044959597565947168e-01,0.000000000000000000e+00
5.200000000000000000e+02,1.510759595412854706e-01,0.000000000000000000e+00
5.210000000000000000e+02,2.324061748302208019e-01,0.000000000000000000e+00
5.220000000000000000e+02,4.042497589603242791e-01,0.000000000000000000e+00
5.230000000000000000e+02,2.308422904751385521e-02,0.000000000000000000e+00
5.240000000000000000e+02,3.266617596165534154e-01,0.000000000000000000e+00
5.250000000000000000e+02,6.205097605245052383e-01,0.000000000000000000e+00
5.260000000000000000e+02,6.547616530159559023e-01,0.000000000000000000e+00
5.270000000000000000e+02,7.906082447256154166e-01,0.000000000000000000e+00
5.280000000000000000e+02,8.779514872675752146e-01,0.000000000000000000e+00
5.290000000000000000e+02,8.862528340549942207e-01,0.000000000000000000e+00
5.300000000000000000e+02,2.858761475750690728e-01,0.000000000000000000e+00
5.310000000000000000e+02,-1.098705565519807470e-01,0.000000000000000000e+00
5.320000000000000000e+02,-5.981232047267472790e-02,0.000000000000000000e+00
5.330000000000000000e+02,-9.287124181696235214e-02,0.000000000000000000e+00
5.340000000000000000e+02,-8.987000079469453784e-02,0.000000000000000000e+00
5.350000000000000000e+02,6.838015903529979234e-01,0.000000000000000000e+00
5.360000000000000000e+02,6.005149202308353473e+00,0.000000000000000000e+00
5.370000000000000000e+02,-2.211606923309377970e-01,1.000000000000000000e+00
5.380000000000000000e+02,-2.417116291905751613e+00,0.000000000000000000e+00
5.390000000000000000e+02,-6.229561681653408289e-01,0.000000000000000000e+00
5.400000000000000000e+02,-3.065090754387494454e-01,0.000000000000000000e+00
5.410000000000000000e+02,-1.547898144492606265e-01,0.000000000000000000e+00
5.420000000000000000e+02,-4.891874818216964543e-02,0.000000000000000000e+00
5.430000000000000000e+02,-1.690993869688298123e-01,0.000000000000000000e+00
5.440000000000000000e+02,-2.487302347871602204e-01,0.000000000000000000e+00
5.450000000000000000e+02,4.992696507472470235e-02,0.000000000000000000e+00
5.460000000000000000e+02,-2.419768284246680626e-02,0.000000000000000000e+00
5.470000000000000000e+02,1.565298819775970685e-01,0.000000000000000000e+00
5.480000000000000000e+02,1.170275659224772474e-01,0.000000000000000000e+00
5.490000000000000000e+02,1.650094160079921546e-01,0.000000000000000000e+00
5.500000000000000000e+02,4.244779824395146228e-01,0.000000000000000000e+00
5.510000000000000000e+02,7.210854336985675905e-01,0.000000000000000000e+00
5.520000000000000000e+02,8.343365410930425607e-01,0.000000000000000000e+00
5.530000000000000000e+02,1.187623719373030129e+00,0.000000000000000000e+00
5.540000000000000000e+02,1.250397225728580697e+00,0.000000000000000000e+00
5.550000000000000000e+02,8.296741334441611881e-01,0.000000000000000000e+00
5.560000000000000000e+02,-2.005410851274617157e-01,0.000000000000000000e+00
5.570000000000000000e+02,-7.845148859012351927e-01,0.000000000000000000e+00
5.580000000000000000e+02,-1.338028632160136677e+00,0.000000000000000000e+00
5.590000000000000000e+02,-1.357320195071249680e+00,0.000000000000000000e+00
5.600000000000000000e+02,-1.340171447605565946e+00,0.000000000000000000e+00
5.610000000000000000e+02,-1.284143740665520950e+00,0.000000000000000000e+00
5.620000000000000000e+02,-1.092233024832348853e+00,0.000000000000000000e+00
5.630000000000000000e+02,-1.043977870562633026e+00,0.000000000000000000e+00
5.640000000000000000e+02,-9.220372169983159782e-01,0.000000000000000000e+00
5.650000000000000000e+02,-7.244697208868838834e-01,0.000000000000000000e+00
5.660000000000000000e+02,-7.225801790153493220e-01,0.000000000000000000e+00
5.670000000000000000e+02,-5.665435654046837577e-01,0.000000000000000000e+00
5.680000000000000000e+02,-5.466990689634861900e-01,0.000000000000000000e+00
5.690000000000000000e+02,-5.716910438016212792e-01,0.000000000000000000e+00
5.700000000000000000e+02,-4.678283716357395927e-01,0.000000000000000000e+00
5.710000000000000000e+02,-2.500360550314963404e-01,0.000000000000000000e+00
5.720000000000000000e+02,-4.276471552589299341e-01,0.000000000000000000e+00
5.730000000000000000e+02,-2.480350936984432320e-01,0.000000000000000000e+00
5.740000000000000000e+02,-2.695614643066991944e-01,0.000000000000000000e+00
5.750000000000000000e+02,-6.441991664865254208e-02,0.000000000000000000e+00
5.760000000000000000e+02,-1.845113091889172829e-01,0.000000000000000000e+00
5.770000000000000000e+02,1.558207600735357357e-01,0.000000000000000000e+00
5.780000000000000000e+02,-5.504922902119426670e-02,0.000000000000000000e+00
5.790000000000000000e+02,8.109458355708724919e-02,0.000000000000000000e+00
5.800000000000000000e+02,5.547879730419080779e-02,0.000000000000000000e+00
5.810000000000000000e+02,3.340356189342759685e-01,0.000000000000000000e+00
5.820000000000000000e+02,2.462816294120554195e-01,0.000000000000000000e+00
5.830000000000000000e+02,5.434209402075181883e-01,0.000000000000000000e+00
5.840000000000000000e+02,7.430891364979437252e-01,0.000000000000000000e+00
5.850000000000000000e+02,1.140333790948028225e+00,0.000000000000000000e+00
5.860000000000000000e+02,9.572248830555996069e-01,0.000000000000000000e+00
5.870000000000000000e+02,8.846361473243677942e-01,0.000000000000000000e+00
5.880000000000000000e+02,1.580357670847436311e-03,0.000000000000000000e+00
5.890000000000000000e+02,4.167076343754269052e-01,0.000000000000000000e+00
5.900000000000000000e+02,-1.261201281581629530e-01,0.000000000000000000e+00
5.910000000000000000e+02,5.325268643211324981e-01,0.000000000000000000e+00
5.920000000000000000e+02,-3.848434282533220174e-01,0.000000000000000000e+00
5.930000000000000000e+02,3.192324592114411885e+00,0.000000000000000000e+00
5.940000000000000000e+02,4.720195345701106326e+00,0.000000000000000000e+00
5.950000000000000000e+02,-2.170118328869327762e+00,1.000000000000000000e+00
5.960000000000000000e+02,-1.346618151451844270e+00,0.000000000000000000e+00
5.970000000000000000e+02,-2.798506305760682933e-01,0.000000000000000000e+00
5.980000000000000000e+02,2.137644402752025830e-01,0.000000000000000000e+00
5.990000000000000000e+02,3.729565927058117042e-02,0.000000000000000000e+00
6.000000000000000000e+02,2.056747205423601899e-01,0.000000000000000000e+00
6.010000000000000000e+02,-1.197550121016861639e-02,0.000000000000000000e+00
6.020000000000000000e+02,2.803577489236998566e-01,0.000000000000000000e+00
6.030000000000000000e+02,6.318053211051527507e-02,0.000000000000000000e+00
6.040000000000000000e+02,2.319046824627921666e-01,0.000000000000000000e+00
6.050000000000000000e+02,2.772343714855624031e-01,0.000000000000000000e+00
6.060000000000000000e+02,5.480240655230376179e-01,0.000000000000000000e+00
6.070000000000000000e+02,4.406120341858282274e-01,0.000000000000000000e+00
6.080000000000000000e+02,8.153989627167964604e-01,0.000000000000000000e+00
6.090000000000000000e+02,9.373592866929220113e-01,0.000000000000000000e+00
6.100000000000000000e+02,1.074896030088708265e+00,0.000000000000000000e+00
6.110000000000000000e+02,1.216211573749939490e+00,0.000000000000000000e+00
6.120000000000000000e+02,1.214897483628877062e+00,0.000000000000000000e+00
6.130000000000000000e+02,3.530517827475821990e-01,0.000000000000000000e+00
6.140000000000000000e+02,-2.950160985339266850e-01,0.000000000000000000e+00
6.150000000000000000e+02,-8.621304745512857748e-01,0.000000000000000000e+00
6.160000000000000000e+02,-1.136062532509038769e+00,0.000000000000000000e+00
6.170000000000000000e+02,-9.343365100605591778e-01,0.000000000000000000e+00
6.180000000000000000e+02,-1.192030729311279957e+00,0.000000000000000000e+00
6.190000000000000000e+02,-9.726972276154166597e-01,0.000000000000000000e+00
6.200000000000000000e+02,-9.330134989053464611e-01,0.000000000000000000e+00
6.210000000000000000e+02,-8.596369052263062027e-01,0.000000000000000000e+00
6.220000000000000000e+02,-6.164971956189987390e-01,0.000000000000000000e+00
6.230000000000000000e+02,-5.189696622226829259e-01,0.000000000000000000e+00
6.240000000000000000e+02,-4.580677813288421274e-01,0.000000000000000000e+00
6.250000000000000000e+02,-3.434326562151336359e-01,0.000000000000000000e+00
6.260000000000000000e+02,-1.220234609572461160e-01,0.000000000000000000e+00
6.270000000000000000e+02,-5.334221317715988064e-01,0.000000000000000000e+00
6.280000000000000000e+02,1.819062605261457730e-02,0.000000000000000000e+00
6.290000000000000000e+02,-1.146545086315114703e-01,0.000000000000000000e+00
6.300000000000000000e+02,-5.142322518211311921e-02,0.000000000000000000e+00
6.310000000000000000e+02,-1.104767011259959186e-01,0.000000000000000000e+00
6.320000000000000000e+02,-1.876139145165976047e-02,0.000000000000000000e+00
6.330000000000000000e+02,-1.812291339771640308e-01,0.000000000000000000e+00
6.340000000000000000e+02,1.570594565032121526e-01,0.000000000000000000e+00
6.350000000000000000e+02,-6.173448644276698788e-02,0.000000000000000000e+00
6.360000000000000000e+02,1.263385475999806440e-01,0.000000000000000000e+00
6.370000000000000000e+02,3.618567120038851392e-02,0.000000000000000000e+00
6.380000000000000000e+02,1.756220797108347109e-01,0.000000000000000000e+00
6.390000000000000000e+02,5.986715298813418545e-02,0.000000000000000000e+00
6.400000000000000000e+02,2.971670056527538351e-01,0.000000000000000000e+00
6.410000000000000000e+02,2.057563331074389323e-01,0.000000000000000000e+00
6.420000000000000000e+02,3.609756813654890206e-01,0.000000000000000000e+00
6.430000000000000000e+02,5.379919326888241704e-01,0.000000000000000000e+00
6.440000000000000000e+02,7.911624783013434525e-01,0.000000000000000000e+00
6.450000000000000000e+02,6.369794941650978037e-01,0.000000000000000000e+00
6.460000000000000000e+02,1.501033049143798981e-01,0.000000000000000000e+00
6.470000000000000000e+02,-3.614994933435627944e-01,0.000000000000000000e+00
6.480000000000000000e+02,-1.384738514223526340e-01,0.000000000000000000e+00
6.490000000000000000e+02,-3.033881252313882504e-01,0.000000000000000000e+00
6.500000000000000000e+02,3.784462535806001502e-04,0.000000000000000000e+00
6.510000000000000000e+02,-3.783882038344144605e-01,0.000000000000000000e+00
6.520000000000000000e+02,4.905228942229089562e+00,0.000000000000000000e+00
6.530000000000000000e+02,1.843922441285565927e+00,1.000000000000000000e+00
6.540000000000000000e+02,-2.607749488439631946e+00,0.000000000000000000e+00
6.550000000000000000e+02,-7.671825335750442898e-01,0.000000000000000000e+00
6.560000000000000000e+02,-5.815542857276607691e-01,0.000000000000000000e+00
6.570000000000000000e+02,-2.738054108087376037e-01,0.000000000000000000e+00
6.580000000000000000e+02,-1.948781438199733151e-01,0.000000000000000000e+00
6.590000000000000000e+02,-1.100286032345264148e-01,0.000000000000000000e+00
6.600000000000000000e+02,-5.318012994610779587e-02,0.000000000000000000e+00
6.610000000000000000e+02,-8.913435400878363946e-02,0.000000000000000000e+00
6.620000000000000000e+02,1.389207700268241252e-01,0.000000000000000000e+00
6.630000000000000000e+02,1.915801037436230510e-03,0.000000000000000000e+00
6.640000000000000000e+02,1.796677780253951862e-01,0.000000000000000000e+00
6.650000000000000000e+02,2.445437969400017786e-01,0.000000000000000000e+00
6.660000000000000000e+02,2.599974647891143964e-01,0.000000000000000000e+00
6.670000000000000000e+02,7.690949853055598640e-01,0.000000000000000000e+00
6.680000000000000000e+02,9.344458173260263845e-01,0.000000000000000000e+00
6.690000000000000000e+02,1.145747894666886202e+00,0.000000000000000000e+00
6.700000000000000000e+02,1.045432417517500934e+00,0.000000000000000000e+00
6.710000000000000000e+02,7.722641929058823296e-01,0.000000000000000000e+00
6.720000000000000000e+02,6.676092381486167099e-03,0.000000000000000000e+00
6.730000000000000000e+02,-6.496305913394675446e-01,0.000000000000000000e+00
6.740000000000000000e+02,-1.232308233855446300e+00,0.000000000000000000e+00
6.750000000000000000e+02,-1.256830712204339173e+00,0.000000000000000000e+00
6.760000000000000000e+02,-1.217411985089253301e+00,0.000000000000000000e+00
6.770000000000000000e+02,-1.380482316004278287e+00,0.000000000000000000e+00
6.780000000000000000e+02,-9.415422656376429833e-01,0.000000000000000000e+00
6.790000000000000000e+02,-9.710873862270348322e-01,0.000000000000000000e+00
6.800000000000000000e+02,-8.605362742390370023e-01,0.000000000000000000e+00
6.810000000000000000e+02,-9.742916028365850023e-01,0.000000000000000000e+00
6.820000000000000000e+02,-7.428535001190871290e-01,0.000000000000000000e+00
6.830000000000000000e+02,-6.069108793313544581e-01,0.000000000000000000e+00
6.840000000000000000e+02,-4.916556248161741416e-01,0.000000000000000000e+00
6.850000000000000000e+02,-3.227225619893915876e-01,0.000000000000000000e+00
6.860000000000000000e+02,-3.665068570871733988e-01,0.000000000000000000e+00
6.870000000000000000e+02,-2.759932866570933285e-01,0.000000000000000000e+00
6.880000000000000000e+02,-2.149140361937365573e-01,0.000000000000000000e+00
6.890000000000000000e+02,-4.128650802186493163e-01,0.000000000000000000e+00
6.900000000000000000e+02,-1.283467496230174532e-01,0.000000000000000000e+00
6.910000000000000000e+02,-8.010001063875170357e-02,0.000000000000000000e+00
6.920000000000000000e+02,-1.207042309030124938e-01,0.000000000000000000e+00
6.930000000000000000e+02,9.129305724321643348e-03,0.000000000000000000e+00
6.940000000000000000e+02,-1.115071533121412134e-01,0.000000000000000000e+00
6.950000000000000000e+02,1.707656007047513302e-01,0.000000000000000000e+00
6.960000000000000000e+02,1.112404226282569589e-02,0.000000000000000000e+00
6.970000000000000000e+02,6.302387446015962624e-02,0.000000000000000000e+00
6.980000000000000000e+02,9.623971734462745398e-02,0.000000000000000000e+00
6.990000000000000000e+02,2.268130430329093616e-01,0.000000000000000000e+00
7.000000000000000000e+02,3.828740095072520888e-01,0.000000000000000000e+00
7.010000000000000000e+02,7.116359198351103199e-01,0.000000000000000000e+00
7.020000000000000000e+02,8.321226191660122673e-01,0.000000000000000000e+00
7.030000000000000000e+02,5.822895251166392283e-01,0.000000000000000000e+00
7.040000000000000000e+02,3.734327000740758629e-01,0.000000000000000000e+00
7.050000000000000000e+02,-3.278148205090649636e-01,0.000000000000000000e+00
7.060000000000000000e+02,-1.424708304208696930e-01,0.000000000000000000e+00
7.070000000000000000e+02,-2.388371218956234776e-01,0.000000000000000000e+00
7.080000000000000000e+02,-8.231723824305217652e-02,0.000000000000000000e+00
7.090000000000000000e+02,-2.993920479051994099e-01,0.000000000000000000e+00
7.100000000000000000e+02,5.217155411666206000e+00,0.000000000000000000e+00
7.110000000000000000e+02,1.550882318113214531e+00,1.000000000000000000e+00
7.120000000000000000e+02,-3.036759241066799397e+00,0.000000000000000000e+00
7.130000000000000000e+02,-7.941558043211524032e-01,0.000000000000000000e+00
7.140000000000000000e+02,-4.166071498291160080e-01,0.000000000000000000e+00
7.150000000000000000e+02,-1.762848546743236988e-01,0.000000000000000000e+00
7.160000000000000000e+02,-3.568104109930099188e-01,0.000000000000000000e+00
7.170000000000000000e+02,2.426935964575112348e-02,0.000000000000000000e+00
7.180000000000000000e+02,-2.289259003207567700e-01,0.000000000000000000e+00
7.190000000000000000e+02,1.282700141437648766e-01,0.000000000000000000e+00
7.200000000000000000e+02,-6.283410396288859057e-02,0.000000000000000000e+00
7.210000000000000000e+02,2.199208350269730994e-01,0.000000000000000000e+00
7.220000000000000000e+02,5.864440165409979394e-02,0.000000000000000000e+00
7.230000000000000000e+02,4.102975671877598374e-01,0.000000000000000000e+00
7.240000000000000000e+02,3.547061759417763360e-01,0.000000000000000000e+00
7.250000000000000000e+02,6.105370435867153445e-01,0.000000000000000000e+00
7.260000000000000000e+02,8.316674408470347002e-01,0.000000000000000000e+00
7.270000000000000000e+02,1.063825897062191217e+00,0.000000000000000000e+00
7.280000000000000000e+02,1.177600668236824966e+00,0.000000000000000000e+00
7.290000000000000000e+02,8.947733670995324795e-01,0.000000000000000000e+00
7.300000000000000000e+02,3.961695090227110999e-02,0.000000000000000000e+00
7.310000000000000000e+02,-7.209964316349842806e-01,0.000000000000000000e+00
7.320000000000000000e+02,-1.315691234790415276e+00,0.000000000000000000e+00
7.330000000000000000e+02,-1.009401833244013780e+00,0.000000000000000000e+00
7.340000000000000000e+02,-1.306100567953111025e+00,0.000000000000000000e+00
7.350000000000000000e+02,-1.172116980743031167e+00,0.000000000000000000e+00
7.360000000000000000e+02,-1.107007699381101551e+00,0.000000000000000000e+00
7.370000000000000000e+02,-9.134883472461152731e-01,0.000000000000000000e+00
7.380000000000000000e+02,-7.794343773591954072e-01,0.000000000000000000e+00
7.390000000000000000e+02,-6.027119124790544236e-01,0.000000000000000000e+00
7.400000000000000000e+02,-5.537949023234594037e-01,0.000000000000000000e+00
7.410000000000000000e+02,-4.084960830355827133e-01,0.000000000000000000e+00
7.420000000000000000e+02,-2.951338241669814733e-01,0.000000000000000000e+00
7.430000000000000000e+02,-2.548937619475716287e-01,0.000000000000000000e+00
7.440000000000000000e+02,-3.431496532797781440e-01,0.000000000000000000e+00
7.450000000000000000e+02,-8.194091307506420896e-02,0.000000000000000000e+00
7.460000000000000000e+02,-2.937978892371023720e-01,0.000000000000000000e+00
7.470000000000000000e+02,-9.220496504320359332e-02,0.000000000000000000e+00
7.480000000000000000e+02,-2.764516346407507874e-01,0.000000000000000000e+00
7.490000000000000000e+02,-2.569117461023865193e-02,0.000000000000000000e+00
7.500000000000000000e+02,3.679942035637456116e-02,0.000000000000000000e+00
7.510000000000000000e+02,3.354338278182491390e-02,0.000000000000000000e+00
7.520000000000000000e+02,9.264913074023800599e-02,0.000000000000000000e+00
7.530000000000000000e+02,1.790915575952533589e-01,0.000000000000000000e+00
7.540000000000000000e+02,8.717879299725056486e-02,0.000000000000000000e+00
7.550000000000000000e+02,4.771764140573213075e-01,0.000000000000000000e+00
7.560000000000000000e+02,4.349757134130823322e-01,0.000000000000000000e+00
7.570000000000000000e+02,6.241328405602029061e-01,0.000000000000000000e+00
7.580000000000000000e+02,5.129295780581621944e-01,0.000000000000000000e+00
7.590000000000000000e+02,1.117286963401392219e+00,0.000000000000000000e+00
7.600000000000000000e+02,8.054517072964955116e-01,0.000000000000000000e+00
7.610000000000000000e+02,4.799293650461200489e-01,0.000000000000000000e+00
7.620000000000000000e+02,-3.072270209236682703e-01,0.000000000000000000e+00
7.630000000000000000e+02,1.227108527231739465e-01,0.000000000000000000e+00
7.640000000000000000e+02,-2.235203290225676875e-01,0.000000000000000000e+00
7.650000000000000000e+02,8.017920098679585938e-02,0.000000000000000000e+00
7.660000000000000000e+02,-7.502799692138191479e-02,0.000000000000000000e+00
7.670000000000000000e+02,5.192141925967567850e+00,0.000000000000000000e+00
7.680000000000000000e+02,1.275430536007131410e+00,1.000000000000000000e+00
7.690000000000000000e+02,-2.553454486268917467e+00,0.000000000000000000e+00
7.700000000000000000e+02,-6.745812340861035983e-01,0.000000000000000000e+00
7.710000000000000000e+02,-3.508067565565001766e-01,0.000000000000000000e+00
7.720000000000000000e+02,1.947114223210146336e-02,0.000000000000000000e+00
7.730000000000000000e+02,-6.452370008840138671e-02,0.000000000000000000e+00
7.740000000000000000e+02,2.272533377827218109e-04,0.000000000000000000e+00
7.750000000000000000e+02,3.596988121350558343e-02,0.000000000000000000e+00
7.760000000000000000e+02,1.053037575216618366e-01,0.000000000000000000e+00
7.770000000000000000e+02,1.393286287087934228e-01,0.000000000000000000e+00
7.780000000000000000e+02,2.326262453110159167e-01,0.000000000000000000e+00
7.790000000000000000e+02,3.412017643399531952e-01,0.000000000000000000e+00
7.800000000000000000e+02,3.466771167905975948e-01,0.000000000000000000e+00
7.810000000000000000e+02,6.370937055635775836e-01,0.000000000000000000e+00
7.820000000000000000e+02,7.615634757868159355e-01,0.000000000000000000e+00
7.830000000000000000e+02,1.041961872634762365e+00,0.000000000000000000e+00
7.840000000000000000e+02,1.160623330394310759e+00,0.000000000000000000e+00
7.850000000000000000e+02,1.242153941195220490e+00,0.000000000000000000e+00
7.860000000000000000e+02,6.949159751459625944e-01,0.000000000000000000e+00
7.870000000000000000e+02,1.068525199034194711e-01,0.000000000000000000e+00
7.880000000000000000e+02,-8.399937644691272132e-01,0.000000000000000000e+00
7.890000000000000000e+02,-1.203123936367297864e+00,0.000000000000000000e+00
7.900000000000000000e+02,-1.073298871651104713e+00,0.000000000000000000e+00
7.910000000000000000e+02,-1.080225110911885888e+00,0.000000000000000000e+00
7.920000000000000000e+02,-1.218445204597284448e+00,0.000000000000000000e+00
7.930000000000000000e+02,-1.063436590480836941e+00,0.000000000000000000e+00
7.940000000000000000e+02,-8.901892757822782443e-01,0.000000000000000000e+00
7.950000000000000000e+02,-9.389501844663851182e-01,0.000000000000000000e+00
7.960000000000000000e+02,-7.680460482046196358e-01,0.000000000000000000e+00
7.970000000000000000e+02,-6.045800582446948512e-01,0.000000000000000000e+00
7.980000000000000000e+02,-5.039936284097386032e-01,0.000000000000000000e+00
7.990000000000000000e+02,-4.197986685402039786e-01,0.000000000000000000e+00
8.000000000000000000e+02,-4.158465433415878265e-01,0.000000000000000000e+00
8.010000000000000000e+02,-3.242475177754743365e-01,0.000000000000000000e+00
8.020000000000000000e+02,-2.731718311547501887e-01,0.000000000000000000e+00
8.030000000000000000e+02,-2.084921870371540809e-01,0.000000000000000000e+00
8.040000000000000000e+02,-2.732465334002593393e-01,0.000000000000000000e+00
8.050000000000000000e+02,-1.605431137554539089e-01,0.000000000000000000e+00
8.060000000000000000e+02,-2.358136669452435552e-01,0.000000000000000000e+00
8.070000000000000000e+02,2.576831604668572764e-02,0.000000000000000000e+00
8.080000000000000000e+02,1.283748826732598967e-03,0.000000000000000000e+00
8.090000000000000000e+02,1.080746601515218119e-01,0.000000000000000000e+00
8.100000000000000000e+02,-2.820404706111229523e-02,0.000000000000000000e+00
8.110000000000000000e+02,2.517546920851239656e-01,0.000000000000000000e+00
8.120000000000000000e+02,2.076563815504326171e-01,0.000000000000000000e+00
8.130000000000000000e+02,3.367456265851082042e-01,0.000000000000000000e+00
8.140000000000000000e+02,4.054605809216508261e-01,0.000000000000000000e+00
8.150000000000000000e+02,5.756166472534418599e-01,0.000000000000000000e+00
8.160000000000000000e+02,7.418425939673833902e-01,0.000000000000000000e+00
8.170000000000000000e+02,7.773252746384791134e-01,0.000000000000000000e+00
8.180000000000000000e+02,6.979293932288235247e-01,0.000000000000000000e+00
8.190000000000000000e+02,2.630980100184736048e-01,0.000000000000000000e+00
8.200000000000000000e+02,-2.274180162515815895e-01,0.000000000000000000e+00
8.210000000000000000e+02,3.984588579266710312e-02,0.000000000000000000e+00
8.220000000000000000e+02,-3.332845715166666278e-01,0.000000000000000000e+00
8.230000000000000000e+02,-1.182100553605407991e-03,0.000000000000000000e+00
8.240000000000000000e+02,8.244284719361191782e-02,0.000000000000000000e+00
8.250000000000000000e+02,5.232968616648737026e+00,0.000000000000000000e+00
8.260000000000000000e+02,1.246883848687282192e+00,1.000000000000000000e+00
8.270000000000000000e+02,-2.222206832849571434e+00,0.000000000000000000e+00
8.280000000000000000e+02,-6.237539002243452924e-01,0.000000000000000000e+00
8.290000000000000000e+02,-4.526485986034478604e-01,0.000000000000000000e+00
8.300000000000000000e+02,-1.103435802823580364e-01,0.000000000000000000e+00
8.310000000000000000e+02,-2.241593272679667237e-01,0.000000000000000000e+00
8.320000000000000000e+02,8.025930332673647527e-02,0.000000000000000000e+00
8.330000000000000000e+02,-1.323173886198578397e-01,0.000000000000000000e+00
8.340000000000000000e+02,1.144143699216740029e-01,0.000000000000000000e+00
8.350000000000000000e+02,5.500188521158167615e-02,0.000000000000000000e+00
8.360000000000000000e+02,4.104274415803250697e-01,0.000000000000000000e+00
8.370000000000000000e+02,1.497215955805600018e-01,0.000000000000000000e+00
8.380000000000000000e+02,4.934529464160561929e-01,0.000000000000000000e+00
8.390000000000000000e+02,4.220662958705022616e-01,0.000000000000000000e+00
8.400000000000000000e+02,6.616051518753267580e-01,0.000000000000000000e+00
8.410000000000000000e+02,9.115533312640416996e-01,0.000000000000000000e+00
8.420000000000000000e+02,1.156687937653581022e+00,0.000000000000000000e+00
8.430000000000000000e+02,1.275533761694953805e+00,0.000000000000000000e+00
8.440000000000000000e+02,8.492960031657131870e-01,0.000000000000000000e+00
8.450000000000000000e+02,5.436529224292174778e-02,0.000000000000000000e+00
8.460000000000000000e+02,-7.000607932569056224e-01,0.000000000000000000e+00
8.470000000000000000e+02,-1.143701333264483422e+00,0.000000000000000000e+00
8.480000000000000000e+02,-1.249351217268255709e+00,0.000000000000000000e+00
8.490000000000000000e+02,-1.265617187838302460e+00,0.000000000000000000e+00
8.500000000000000000e+02,-1.079823280790485729e+00,0.000000000000000000e+00
8.510000000000000000e+02,-1.067330963594958160e+00,0.000000000000000000e+00
8.520000000000000000e+02,-9.165792604361924223e-01,0.000000000000000000e+00
8.530000000000000000e+02,-7.587044090994666812e-01,0.000000000000000000e+00
8.540000000000000000e+02,-7.081969482610465105e-01,0.000000000000000000e+00
8.550000000000000000e+02,-6.132736398113808329e-01,0.000000000000000000e+00
8.560000000000000000e+02,-4.601385916561666067e-01,0.000000000000000000e+00
8.570000000000000000e+02,-4.133272976078869454e-01,0.000000000000000000e+00
8.580000000000000000e+02,-2.998293780400661523e-01,0.000000000000000000e+00
8.590000000000000000e+02,-3.018369797913222907e-01,0.000000000000000000e+00
8.600000000000000000e+02,-1.008453323742445756e-01,0.000000000000000000e+00
8.610000000000000000e+02,-3.017407048063978081e-01,0.000000000000000000e+00
8.620000000000000000e+02,-2.596124650219487906e-01,0.000000000000000000e+00
8.630000000000000000e+02,-7.943950274899674868e-02,0.000000000000000000e+00
8.640000000000000000e+02,-5.049202766580985352e-02,0.000000000000000000e+00
8.650000000000000000e+02,7.366749110185299813e-03,0.000000000000000000e+00
8.660000000000000000e+02,5.226930907075263977e-02,0.000000000000000000e+00
8.670000000000000000e+02,1.876730791683834942e-01,0.000000000000000000e+00
8.680000000000000000e+02,-7.292762282580636567e-04,0.000000000000000000e+00
8.690000000000000000e+02,1.473758269517883579e-01,0.000000000000000000e+00
8.700000000000000000e+02,2.840086071591453321e-01,0.000000000000000000e+00
8.710000000000000000e+02,2.362037086612683023e-01,0.000000000000000000e+00
8.720000000000000000e+02,4.441012041836465696e-01,0.000000000000000000e+00
8.730000000000000000e+02,5.524424016684695848e-01,0.000000000000000000e+00
8.740000000000000000e+02,8.713119374765355696e-01,0.000000000000000000e+00
8.750000000000000000e+02,8.343239996660031244e-01,0.000000000000000000e+00
8.760000000000000000e+02,5.525731235258175555e-01,0.000000000000000000e+00
8.770000000000000000e+02,2.570645749155953674e-01,0.000000000000000000e+00
8.780000000000000000e+02,-1.162241929678038965e-01,0.000000000000000000e+00
8.790000000000000000e+02,-6.158236558990893422e-02,0.000000000000000000e+00
8.800000000000000000e+02,1.761889865379326001e-02,0.000000000000000000e+00
8.810000000000000000e+02,-5.304054839451689540e-01,0.000000000000000000e+00
8.820000000000000000e+02,1.241296984295839012e+00,0.000000000000000000e+00
8.830000000000000000e+02,5.518552870428642620e+00,0.000000000000000000e+00
8.840000000000000000e+02,-9.742100413498183675e-01,1.000000000000000000e+00
8.850000000000000000e+02,-2.330421091179850190e+00,0.000000000000000000e+00
8.860000000000000000e+02,-6.497045369092929734e-01,0.000000000000000000e+00
8.870000000000000000e+02,-3.768503558397489073e-01,0.000000000000000000e+00
8.880000000000000000e+02,-9.736695879034151790e-02,0.000000000000000000e+00
8.890000000000000000e+02,-8.651370973932379083e-02,0.000000000000000000e+00
8.900000000000000000e+02,-1.708892891041554618e-01,0.000000000000000000e+00
8.910000000000000000e+02,-6.953822524067689026e-02,0.000000000000000000e+00
8.920000000000000000e+02,-9.039041520862048373e-02,0.000000000000000000e+00
8.930000000000000000e+02,6.743649543347320086e-02,0.000000000000000000e+00
8.940000000000000000e+02,1.371722195933516852e-01,0.000000000000000000e+00
8.950000000000000000e+02,1.732361851364144500e-01,0.000000000000000000e+00
8.960000000000000000e+02,3.592521188657533671e-01,0.000000000000000000e+00
8.970000000000000000e+02,4.137408971045998252e-01,0.000000000000000000e+00
8.980000000000000000e+02,6.210511401231028072e-01,0.000000000000000000e+00
8.990000000000000000e+02,9.320592241116775201e-01,0.000000000000000000e+00
9.000000000000000000e+02,9.380817139028747587e-01,0.000000000000000000e+00
9.010000000000000000e+02,9.606767741196817756e-01,0.000000000000000000e+00
9.020000000000000000e+02,6.849184499294662665e-01,0.000000000000000000e+00
9.030000000000000000e+02,-3.264167110952627127e-01,0.000000000000000000e+00
9.040000000000000000e+02,-9.604902870931543157e-01,0.000000000000000000e+00
9.050000000000000000e+02,-1.073624645254382726e+00,0.000000000000000000e+00
9.060000000000000000e+02,-1.416522051406836180e+00,0.000000000000000000e+00
9.070000000000000000e+02,-1.233820641003056995e+00,0.000000000000000000e+00
9.080000000000000000e+02,-1.205084689427721178e+00,0.000000000000000000e+00
9.090000000000000000e+02,-1.159541193459920905e+00,0.000000000000000000e+00
9.100000000000000000e+02,-1.114458734135575169e+00,0.000000000000000000e+00
9.110000000000000000e+02,-8.105453814846211857e-01,0.000000000000000000e+00
9.120000000000000000e+02,-7.404486268694111528e-01,0.000000000000000000e+00
9.130000000000000000e+02,-5.520236064269945508e-01,0.000000000000000000e+00
9.140000000000000000e+02,-4.609294600097241790e-01,0.000000000000000000e+00
9.150000000000000000e+02,-3.234482067555640161e-01,0.000000000000000000e+00
9.160000000000000000e+02,-3.654453897743733526e-01,0.000000000000000000e+00
9.170000000000000000e+02,-2.494499200349766521e-01,0.000000000000000000e+00
9.180000000000000000e+02,-2.996598271598073238e-01,0.000000000000000000e+00
9.190000000000000000e+02,-2.549797697352408909e-01,0.000000000000000000e+00
9.200000000000000000e+02,-6.124850680409785891e-02,0.000000000000000000e+00
9.210000000000000000e+02,-2.133780436337327502e-01,0.000000000000000000e+00
9.220000000000000000e+02,-1.285100977224141183e-01,0.000000000000000000e+00
9.230000000000000000e+02,-1.142490127769809072e-01,0.000000000000000000e+00
9.240000000000000000e+02,3.113870007811937041e-02,0.000000000000000000e+00
9.250000000000000000e+02,1.872948841969504508e-02,0.000000000000000000e+00
9.260000000000000000e+02,-1.117041515849361427e-01,0.000000000000000000e+00
9.270000000000000000e+02,1.883788428751522470e-01,0.000000000000000000e+00
9.280000000000000000e+02,2.627231646596923098e-01,0.000000000000000000e+00
9.290000000000000000e+02,4.296067413699128368e-01,0.000000000000000000e+00
9.300000000000000000e+02,3.332152688736279011e-01,0.000000000000000000e+00
9.310000000000000000e+02,6.742676265901863530e-01,0.000000000000000000e+00
9.320000000000000000e+02,6.657257572790971079e-01,0.000000000000000000e+00
9.330000000000000000e+02,4.378515523816697841e-01,0.000000000000000000e+00
9.340000000000000000e+02,-1.322461031575855317e-01,0.000000000000000000e+00
9.350000000000000000e+02,-2.464958007763734249e-01,0.000000000000000000e+00
9.360000000000000000e+02,-3.623641212222923902e-01,0.000000000000000000e+00
9.370000000000000000e+02,-7.341372466308690101e-03,0.000000000000000000e+00
9.380000000000000000e+02,-7.758522899748374613e-01,0.000000000000000000e+00
9.390000000000000000e+02,2.464224336355035128e+00,0.000000000000000000e+00
9.400000000000000000e+02,4.556449737840529757e+00,0.000000000000000000e+00
9.410000000000000000e+02,-2.275420170722891822e+00,1.000000000000000000e+00
9.420000000000000000e+02,-1.651694935444611101e+00,0.000000000000000000e+00
9.430000000000000000e+02,-6.768037026994890848e-01,0.000000000000000000e+00
9.440000000000000000e+02,-5.309017760072422959e-02,0.000000000000000000e+00
9.450000000000000000e+02,-4.640226981869005063e-01,0.000000000000000000e+00
9.460000000000000000e+02,-3.842902392091843405e-03,0.000000000000000000e+00
9.470000000000000000e+02,6.828522897215663634e-02,0.000000000000000000e+00
9.480000000000000000e+02,8.864221932328857079e-02,0.000000000000000000e+00
9.490000000000000000e+02,7.524068789359320171e-03,0.000000000000000000e+00
9.500000000000000000e+02,2.449045425039263202e-01,0.000000000000000000e+00
9.510000000000000000e+02,2.269485796569337410e-01,0.000000000000000000e+00
9.520000000000000000e+02,3.213598390838944829e-01,0.000000000000000000e+00
9.530000000000000000e+02,4.448117070979329957e-01,0.000000000000000000e+00
9.540000000000000000e+02,5.638162538515997246e-01,0.000000000000000000e+00
9.550000000000000000e+02,8.414209165394220813e-01,0.000000000000000000e+00
9.560000000000000000e+02,1.060120471346186477e+00,0.000000000000000000e+00
9.570000000000000000e+02,1.045339706447341310e+00,0.000000000000000000e+00
9.580000000000000000e+02,1.196646427749550767e+00,0.000000000000000000e+00
9.590000000000000000e+02,4.395701220583951851e-01,0.000000000000000000e+00
9.600000000000000000e+02,-2.318216845316117547e-01,0.000000000000000000e+00
9.610000000000000000e+02,-8.241475543019776140e-01,0.000000000000000000e+00
9.620000000000000000e+02,-1.087775781592607904e+00,0.000000000000000000e+00
9.630000000000000000e+02,-1.201036479868589302e+00,0.000000000000000000e+00
9.640000000000000000e+02,-9.616318996856418888e-01,0.000000000000000000e+00
9.650000000000000000e+02,-1.145819387627697861e+00,0.000000000000000000e+00
9.660000000000000000e+02,-8.654614014985413384e-01,0.000000000000000000e+00
9.670000000000000000e+02,-6.840674700509991046e-01,0.000000000000000000e+00
9.680000000000000000e+02,-7.157358615306418370e-01,0.000000000000000000e+00
9.690000000000000000e+02,-3.663613369691217647e-01,0.000000000000000000e+00
9.700000000000000000e+02,-3.565424572088253252e-01,0.000000000000000000e+00
9.710000000000000000e+02,-3.194371405123622165e-01,0.000000000000000000e+00
9.720000000000000000e+02,-3.121710933958344314e-01,0.000000000000000000e+00
9.730000000000000000e+02,-2.435418626625153737e-01,0.000000000000000000e+00
9.740000000000000000e+02,-1.602783233766896520e-01,0.000000000000000000e+00
9.750000000000000000e+02,-2.550727301432259564e-01,0.000000000000000000e+00
9.760000000000000000e+02,-7.767490322783368595e-02,0.000000000000000000e+00
9.770000000000000000e+02,1.085665572008832069e-01,0.000000000000000000e+00
9.780000000000000000e+02,-4.370491592530897224e-02,0.000000000000000000e+00
9.790000000000000000e+02,-1.592253380015494837e-02,0.000000000000000000e+00
9.800000000000000000e+02,-6.608422590365271854e-02,0.000000000000000000e+00
9.810000000000000000e+02,7.407220347587130382e-02,0.000000000000000000e+00
9.820000000000000000e+02,6.852757609389785454e-02,0.000000000000000000e+00
9.830000000000000000e+02,6.100342410643663088e-02,0.000000000000000000e+00
9.840000000000000000e+02,1.102960422993056883e-01,0.000000000000000000e+00
9.850000000000000000e+02,2.087962364947738569e-01,0.000000000000000000e+00
9.860000000000000000e+02,4.254353481301410556e-01,0.000000000000000000e+00
9.870000000000000000e+02,4.978499126664137076e-01,0.000000000000000000e+00
9.880000000000000000e+02,7.148792528159619852e-01,0.000000000000000000e+00
9.890000000000000000e+02,9.379470956124212888e-01,0.000000000000000000e+00
9.900000000000000000e+02,8.361867826398212689e-01,0.000000000000000000e+00
9.910000000000000000e+02,2.239791826036615641e-01,0.000000000000000000e+00
9.920000000000000000e+02,-5.603198253017384334e-02,0.000000000000000000e+00
9.930000000000000000e+02,-2.302815509033197955e-02,0.000000000000000000e+00
9.940000000000000000e+02,-5.288483784168690471e-02,0.000000000000000000e+00
9.950000000000000000e+02,-5.956444847814876264e-02,0.000000000000000000e+00
9.960000000000000000e+02,2.192226464148478715e-01,0.000000000000000000e+00
9.970000000000000000e+02,5.464175808254539746e+00,0.000000000000000000e+00
9.980000000000000000e+02,1.072703019979873718e+00,1.000000000000000000e+00
9.990000000000000000e+02,-2.298486279515950859e+00,0.000000000000000000e+00
1.000000000000000000e+03,-3.765186844452770298e-01,0.000000000000000000e+00
1.001000000000000000e+03,-4.180317654273044692e-01,0.000000000000000000e+00
1.002000000000000000e+03,-1.048512736103249521e-01,0.000000000000000000e+00
1.003000000000000000e+03,-1.701280508484796228e-01,0.000000000000000000e+00
1.004000000000000000e+03,5.224620024585627243e-02,0.000000000000000000e+00
1.005000000000000000e+03,1.861628278115028123e-02,0.000000000000000000e+00
1.006000000000000000e+03,2.141553600461523488e-01,0.000000000000000000e+00
1.007000000000000000e+03,9.995185711156610864e-02,0.000000000000000000e+00
1.008000000000000000e+03,4.627577192936000450e-01,0.000000000000000000e+00
1.009000000000000000e+03,3.511319295584000577e-01,0.000000000000000000e+00
1.010000000000000000e+03,5.632795621941985020e-01,0.000000000000000000e+00
1.011000000000000000e+03,6.738402699117642669e-01,0.000000000000000000e+00
1.012000000000000000e+03,1.072911153004545870e+00,0.000000000000000000e+00
1.013000000000000000e+03,1.100097126607975984e+00,0.000000000000000000e+00
1.014000000000000000e+03,1.277101618911125946e+00,0.000000000000000000e+00
1.015000000000000000e+03,1.359859439786062385e+00,0.000000000000000000e+00
1.016000000000000000e+03,1.095064379381922137e+00,0.000000000000000000e+00
1.017000000000000000e+03,9.378091333396931795e-02,0.000000000000000000e+00
1.018000000000000000e+03,-5.230483564720046497e-01,0.000000000000000000e+00
1.019000000000000000e+03,-1.010389669817340907e+00,0.000000000000000000e+00
1.020000000000000000e+03,-7.341034293405833688e-01,0.000000000000000000e+00
1.021000000000000000e+03,-9.822843650209877042e-01,0.000000000000000000e+00
1.022000000000000000e+03,-8.051582354560350430e-01,0.000000000000000000e+00
1.023000000000000000e+03,-9.816948545960549888e-01,0.000000000000000000e+00
1.024000000000000000e+03,-6.804316256818496722e-01,0.000000000000000000e+00
1.025000000000000000e+03,-6.624767174618281240e-01,0.000000000000000000e+00
1.026000000000000000e+03,-5.384162279025231923e-01,0.000000000000000000e+00
1.027000000000000000e+03,-6.064757238575905207e-01,0.000000000000000000e+00
1.028000000000000000e+03,-2.943064219953053784e-01,0.000000000000000000e+00
1.029000000000000000e+03,-3.171207315458156040e-01,0.000000000000000000e+00
1.030000000000000000e+03,-2.151107874596817904e-01,0.000000000000000000e+00
1.031000000000000000e+03,-1.013716500145207811e-01,0.000000000000000000e+00
1.032000000000000000e+03,-3.486720287844533722e-02,0.000000000000000000e+00
1.033000000000000000e+03,-2.191617550937874359e-01,0.000000000000000000e+00
1.034000000000000000e+03,-1.480276496923514651e-01,0.000000000000000000e+00
1.035000000000000000e+03,-2.402930258015106846e-01,0.000000000000000000e+00
1.036000000000000000e+03,-1.485375512601493780e-02,0.000000000000000000e+00
1.037000000000000000e+03,-1.724975609662874054e-01,0.000000000000000000e+00
1.038000000000000000e+03,-5.095851782132094360e-02,0.000000000000000000e+00
1.039000000000000000e+03,-9.874846012109093907e-02,0.000000000000000000e+00
1.040000000000000000e+03,8.713849723752034593e-02,0.000000000000000000e+00
1.041000000000000000e+03,-7.711206847222810967e-02,0.000000000000000000e+00
1.042000000000000000e+03,1.125875633895963429e-01,0.000000000000000000e+00
1.043000000000000000e+03,1.015369205537741855e-02,0.000000000000000000e+00
1.044000000000000000e+03,3.731874568213155996e-01,0.000000000000000000e+00
1.045000000000000000e+03,3.507910989426409332e-01,0.000000000000000000e+00
1.046000000000000000e+03,6.935612028096764803e-01,0.000000000000000000e+00
1.047000000000000000e+03,3.734638104798096991e-01,0.000000000000000000e+00
1.048000000000000000e+03,2.386437867827608805e-01,0.000000000000000000e+00
1.049000000000000000e+03,-4.104887016427014590e-01,0.000000000000000000e+00
1.050000000000000000e+03,-2.130998716607045707e-01,0.000000000000000000e+00
1.051000000000000000e+03,-6.631588947089948061e-01,0.000000000000000000e+00
1.052000000000000000e+03,1.288578113108295731e-01,0.000000000000000000e+00
1.053000000000000000e+03,-9.300829006495544560e-01,0.000000000000000000e+00
1.054000000000000000e+03,3.930296262428407683e+00,0.000000000000000000e+00
1.055000000000000000e+03,2.857529831871459702e+00,0.000000000000000000e+00
1.056000000000000000e+03,-2.897710472609912102e+00,1.000000000000000000e+00
1.057000000000000000e+03,-1.160835793510090586e+00,0.000000000000000000e+00
1.058000000000000000e+03,-9.911750395045114681e-01,0.000000000000000000e+00
1.059000000000000000e+03,-5.008321891472258119e-02,0.000000000000000000e+00
1.060000000000000000e+03,-3.786760890335857943e-01,0.000000000000000000e+00
1.061000000000000000e+03,-2.620417776921476483e-01,0.000000000000000000e+00
1.062000000000000000e+03,-1.278736058305968426e-01,0.000000000000000000e+00
1.063000000000000000e+03,-1.848206824073310717e-01,0.000000000000000000e+00
1.064000000000000000e+03,-2.469322037666192016e-01,0.000000000000000000e+00
1.065000000000000000e+03,-1.780702679723481507e-01,0.000000000000000000e+00
1.066000000000000000e+03,8.060421612461489416e-02,0.000000000000000000e+00
1.067000000000000000e+03,1.768714094448710084e-01,0.000000000000000000e+00
1.068000000000000000e+03,2.457280073138084775e-01,0.000000000000000000e+00
1.069000000000000000e+03,6.688595996598569737e-01,0.000000000000000000e+00
1.070000000000000000e+03,7.368654201062676545e-01,0.000000000000000000e+00
1.071000000000000000e+03,9.582099082261971157e-01,0.000000000000000000e+00
1.072000000000000000e+03,9.615188742532260191e-01,0.000000000000000000e+00
1.073000000000000000e+03,6.695757335484675554e-01,0.000000000000000000e+00
1.074000000000000000e+03,3.576782354334053227e-01,0.000000000000000000e+00
1.075000000000000000e+03,-7.799905363876460385e-01,0.000000000000000000e+00
1.076000000000000000e+03,-1.182175673897273960e+00,0.000000000000000000e+00
1.077000000000000000e+03,-1.235511613456591773e+00,0.000000000000000000e+00
1.078000000000000000e+03,-1.409682658618784057e+00,0.000000000000000000e+00
1.079000000000000000e+03,-1.233543596647441731e+00,0.000000000000000000e+00
1.080000000000000000e+03,-1.118635760806228285e+00,0.000000000000000000e+00
1.081000000000000000e+03,-1.107802382935173080e+00,0.000000000000000000e+00
1.082000000000000000e+03,-9.903111136132582981e-01,0.000000000000000000e+00
1.083000000000000000e+03,-7.471736559973235492e-01,0.000000000000000000e+00
1.084000000000000000e+03,-6.895278885776147115e-01,0.000000000000000000e+00
1.085000000000000000e+03,-8.362503804336219870e-01,0.000000000000000000e+00
1.086000000000000000e+03,-4.604033280293694519e-01,0.000000000000000000e+00
1.087000000000000000e+03,-3.959962559632617118e-01,0.000000000000000000e+00
1.088000000000000000e+03,-3.321730235001869036e-01,0.000000000000000000e+00
1.089000000000000000e+03,-5.154332007123263448e-01,0.000000000000000000e+00
1.090000000000000000e+03,-4.068257388514298079e-01,0.000000000000000000e+00
1.091000000000000000e+03,-1.362149431285403500e-01,0.000000000000000000e+00
1.092000000000000000e+03,-4.545691451970408914e-01,0.000000000000000000e+00
1.093000000000000000e+03,-1.702223680437628117e-01,0.000000000000000000e+00
1.094000000000000000e+03,-2.428841187502272514e-01,0.000000000000000000e+00
1.095000000000000000e+03,-2.209931026293311118e-01,0.000000000000000000e+00
1.096000000000000000e+03,-1.940978042512262469e-01,0.000000000000000000e+00
1.097000000000000000e+03,5.020793779524899275e-02,0.000000000000000000e+00
1.098000000000000000e+03,-5.197552901599431646e-02,0.000000000000000000e+00
1.099000000000000000e+03,6.787468851095100619e-02,0.000000000000000000e+00
1.100000000000000000e+03,3.319718257303571618e-01,0.000000000000000000e+00
1.101000000000000000e+03,3.691391454915218806e-01,0.000000000000000000e+00
1.102000000000000000e+03,4.526347126289918532e-01,0.000000000000000000e+00
1.103000000000000000e+03,5.843518866254664434e-01,0.000000000000000000e+00
1.104000000000000000e+03,4.980656855606761524e-01,0.000000000000000000e+00
1.105000000000000000e+03,-1.936711005926169960e-01,0.000000000000000000e+00
1.106000000000000000e+03,-2.568780902609530403e-01,0.000000000000000000e+00
1.107000000000000000e+03,-3.002418019451376097e-01,0.000000000000000000e+00
1.108000000000000000e+03,-5.349865243101321888e-02,0.000000000000000000e+00
1.109000000000000000e+03,-2.946422399725975305e-01,0.000000000000000000e+00
1.110000000000000000e+03,1.118913156359873540e+00,0.000000000000000000e+00
1.111000000000000000e+03,5.503721197749265492e+00,0.000000000000000000e+00
1.112000000000000000e+03,-5.672166179512738715e-01,1.000000000000000000e+00
1.113000000000000000e+03,-1.864653378333104961e+00,0.000000000000000000e+00
1.114000000000000000e+03,-5.440303989958806818e-01,0.000000000000000000e+00
1.115000000000000000e+03,-1.200040808842711346e-02,0.000000000000000000e+00
1.116000000000000000e+03,1.214313193048012218e-01,0.000000000000000000e+00
1.117000000000000000e+03,2.611401245114025049e-01,0.000000000000000000e+00
1.118000000000000000e+03,4.004423894958452079e-01,0.000000000000000000e+00
1.119000000000000000e+03,2.857452019073123961e-01,0.000000000000000000e+00
1.120000000000000000e+03,4.422586866114086024e-01,0.000000000000000000e+00
1.121000000000000000e+03,5.456143452158003226e-01,0.000000000000000000e+00
1.122000000000000000e+03,4.470162819249763886e-01,0.000000000000000000e+00
1.123000000000000000e+03,7.252117791844120420e-01,0.000000000000000000e+00
1.124000000000000000e+03,8.754183558451321678e-01,0.000000000000000000e+00
1.125000000000000000e+03,1.005080041091378940e+00,0.000000000000000000e+00
1.126000000000000000e+03,1.129467606320659234e+00,0.000000000000000000e+00
1.127000000000000000e+03,1.314564104892384622e+00,0.000000000000000000e+00
1.128000000000000000e+03,1.382756243394845486e+00,0.000000000000000000e+00
1.129000000000000000e+03,1.363852050088218970e+00,0.000000000000000000e+00
1.130000000000000000e+03,8.075039286174803266e-01,0.000000000000000000e+00
1.131000000000000000e+03,4.860356655819480370e-02,0.000000000000000000e+00
1.132000000000000000e+03,-5.388329505303181000e-01,0.000000000000000000e+00
1.133000000000000000e+03,-8.842798254051392748e-01,0.000000000000000000e+00
1.134000000000000000e+03,-8.729976840432046581e-01,0.000000000000000000e+00
1.135000000000000000e+03,-1.015605056183920940e+00,0.000000000000000000e+00
1.136000000000000000e+03,-9.592126283101058970e-01,0.000000000000000000e+00
1.137000000000000000e+03,-9.409651559691837308e-01,0.000000000000000000e+00
1.138000000000000000e+03,-7.378683750844308165e-01,0.000000000000000000e+00
1.139000000000000000e+03,-7.330606709178586478e-01,0.000000000000000000e+00
1.140000000000000000e+03,-5.282287257351998555e-01,0.000000000000000000e+00
1.141000000000000000e+03,-5.807960123526721974e-01,0.000000000000000000e+00
1.142000000000000000e+03,-5.106998604253120133e-01,0.000000000000000000e+00
1.143000000000000000e+03,-3.656844248600500946e-01,0.000000000000000000e+00
1.144000000000000000e+03,-4.000561801237405568e-01,0.000000000000000000e+00
1.145000000000000000e+03,-3.512626802356455524e-01,0.000000000000000000e+00
1.146000000000000000e+03,-1.672208088443797591e-01,0.000000000000000000e+00
1.147000000000000000e+03,-3.583563762983579815e-01,0.000000000000000000e+00
1.148000000000000000e+03,-1.730445374234621525e-01,0.000000000000000000e+00
1.149000000000000000e+03,-2.978492620089654430e-01,0.000000000000000000e+00
1.150000000000000000e+03,-1.759296932539060887e-01,0.000000000000000000e+00
1.151000000000000000e+03,-1.752311022191012646e-01,0.000000000000000000e+00
1.152000000000000000e+03,1.050679758111064954e-01,0.000000000000000000e+00
1.153000000000000000e+03,-4.029203211120720163e-02,0.000000000000000000e+00
1.154000000000000000e+03,-1.155475438263788429e-01,0.000000000000000000e+00
1.155000000000000000e+03,-1.083868676683698157e-01,0.000000000000000000e+00
1.156000000000000000e+03,1.179150496704602646e-01,0.000000000000000000e+00
1.157000000000000000e+03,1.357767955396515791e-01,0.000000000000000000e+00
1.158000000000000000e+03,3.503662224744797382e-01,0.000000000000000000e+00
1.159000000000000000e+03,3.850346378218213461e-01,0.000000000000000000e+00
1.160000000000000000e+03,7.267791930458707972e-01,0.000000000000000000e+00
1.161000000000000000e+03,6.889852543582051236e-01,0.000000000000000000e+00
1.162000000000000000e+03,6.427357320681831299e-01,0.000000000000000000e+00
1.163000000000000000e+03,-1.638041009697672745e-01,0.000000000000000000e+00
1.164000000000000000e+03,-1.195306263478441156e-01,0.000000000000000000e+00
1.165000000000000000e+03,-3.966433345748737183e-01,0.000000000000000000e+00
1.166000000000000000e+03,6.993026338970757816e-02,0.000000000000000000e+00
1.167000000000000000e+03,-6.774315844350644600e-01,0.000000000000000000e+00
1.168000000000000000e+03,2.227833461027326489e+00,0.000000000000000000e+00
1.169000000000000000e+03,4.821975995494225842e+00,0.000000000000000000e+00
1.170000000000000000e+03,-1.853868149484216854e+00,1.000000000000000000e+00
1.171000000000000000e+03,-1.535425989372950939e+00,0.000000000000000000e+00
1.172000000000000000e+03,-7.912457604204166106e-01,0.000000000000000000e+00
1.173000000000000000e+03,-3.730876985023349190e-01,0.000000000000000000e+00
1.174000000000000000e+03,-4.612206343637414996e-01,0.000000000000000000e+00
1.175000000000000000e+03,-1.616131939100801385e-01,0.000000000000000000e+00
1.176000000000000000e+03,-4.405761871424319631e-01,0.000000000000000000e+00
1.177000000000000000e+03,-3.676386796085529679e-02,0.000000000000000000e+00
1.178000000000000000e+03,-1.417897650865817538e-01,0.000000000000000000e+00
1.179000000000000000e+03,-3.925967067822517392e-02,0.000000000000000000e+00
1.180000000000000000e+03,-1.076158007326720283e-02,0.000000000000000000e+00
1.181000000000000000e+03,3.473259668393822164e-01,0.000000000000000000e+00
1.182000000000000000e+03,3.299791786645258629e-01,0.000000000000000000e+00
1.183000000000000000e+03,5.461135316426231068e-01,0.000000000000000000e+00
1.184000000000000000e+03,6.906050951612984212e-01,0.000000000000000000e+00
1.185000000000000000e+03,9.792531802401591712e-01,0.000000000000000000e+00
1.186000000000000000e+03,9.152575259917334893e-01,0.000000000000000000e+00
1.187000000000000000e+03,1.245366684453880435e+00,0.000000000000000000e+00
1.188000000000000000e+03,5.572534901711877486e-01,0.000000000000000000e+00
1.189000000000000000e+03,-2.820851099743817980e-01,0.000000000000000000e+00
1.190000000000000000e+03,-9.620956787900544205e-01,0.000000000000000000e+00
1.191000000000000000e+03,-9.686442901612732914e-01,0.000000000000000000e+00
1.192000000000000000e+03,-1.160322893709690772e+00,0.000000000000000000e+00
1.193000000000000000e+03,-1.137459199923057218e+00,0.000000000000000000e+00
1.194000000000000000e+03,-1.229113703557402459e+00,0.000000000000000000e+00
1.195000000000000000e+03,-7.604319395754080002e-01,0.000000000000000000e+00
1.196000000000000000e+03,-9.819942494332151162e-01,0.000000000000000000e+00
1.197000000000000000e+03,-6.435380832663730732e-01,0.000000000000000000e+00
1.198000000000000000e+03,-6.204209925416630522e-01,0.000000000000000000e+00
1.199000000000000000e+03,-3.833977357270213493e-01,0.000000000000000000e+00
1.200000000000000000e+03,-4.178672732782153232e-01,0.000000000000000000e+00
1.201000000000000000e+03,-4.783422311987889364e-02,0.000000000000000000e+00
1.202000000000000000e+03,-2.726852936646134706e-01,0.000000000000000000e+00
1.203000000000000000e+03,-6.245920599280593150e-02,0.000000000000000000e+00
1.204000000000000000e+03,-1.076050137185872585e-01,0.000000000000000000e+00
1.205000000000000000e+03,7.656500140415260780e-02,0.000000000000000000e+00
1.206000000000000000e+03,2.205108586602253506e-01,0.000000000000000000e+00
1.207000000000000000e+03,2.305570286710592887e-01,0.000000000000000000e+00
1.208000000000000000e+03,7.650403085237093836e-02,0.000000000000000000e+00
1.209000000000000000e+03,4.141516128703174315e-01,0.000000000000000000e+00
1.210000000000000000e+03,2.443469011732767870e-01,0.000000000000000000e+00
1.211000000000000000e+03,4.476186162090753373e-01,0.000000000000000000e+00
1.212000000000000000e+03,1.923493614724055001e-01,0.000000000000000000e+00
1.213000000000000000e+03,4.410593736652637653e-01,0.000000000000000000e+00
1.214000000000000000e+03,5.204789679132494351e-01,0.000000000000000000e+00
1.215000000000000000e+03,7.313858988500638869e-01,0.000000000000000000e+00
1.216000000000000000e+03,8.144972735364914840e-01,0.000000000000000000e+00
1.217000000000000000e+03,1.104882520123407375e+00,0.000000000000000000e+00
1.218000000000000000e+03,9.616472922047061278e-01,0.000000000000000000e+00
1.219000000000000000e+03,7.871899562756327073e-01,0.000000000000000000e+00
1.220000000000000000e+03,3.469436468027919940e-01,0.000000000000000000e+00
1.221000000000000000e+03,2.190243537076051183e-01,0.000000000000000000e+00
1.222000000000000000e+03,-7.732154521340789399e-02,0.000000000000000000e+00
1.223000000000000000e+03,4.732609222924495929e-01,0.000000000000000000e+00
1.224000000000000000e+03,-3.875605739234216918e-01,0.000000000000000000e+00
1.225000000000000000e+03,2.453924854518918952e+00,0.000000000000000000e+00
1.226000000000000000e+03,5.302225512956354692e+00,0.000000000000000000e+00
1.227000000000000000e+03,-1.851008661051319670e+00,1.000000000000000000e+00
1.228000000000000000e+03,-1.666928510221482140e+00,0.000000000000000000e+00
1.229000000000000000e+03,-2.582761566653478669e-01,0.000000000000000000e+00
1.230000000000000000e+03,4.623605630354594986e-02,0.000000000000000000e+00
1.231000000000000000e+03,-1.278655704494024159e-01,0.000000000000000000e+00
1.232000000000000000e+03,2.051172192746887335e-01,0.000000000000000000e+00
1.233000000000000000e+03,-1.247379461225250723e-02,0.000000000000000000e+00
1.234000000000000000e+03,7.524339193053301844e-02,0.000000000000000000e+00
1.235000000000000000e+03,2.309218380900577572e-01,0.000000000000000000e+00
1.236000000000000000e+03,2.935632143540484740e-01,0.000000000000000000e+00
1.237000000000000000e+03,3.473294519326140528e-01,0.000000000000000000e+00
1.238000000000000000e+03,4.587884720467597655e-01,0.000000000000000000e+00
1.239000000000000000e+03,3.381230343224080337e-01,0.000000000000000000e+00
1.240000000000000000e+03,5.288662034654532107e-01,0.000000000000000000e+00
1.241000000000000000e+03,7.188986948561830737e-01,0.000000000000000000e+00
1.242000000000000000e+03,9.813196107025099479e-01,0.000000000000000000e+00
1.243000000000000000e+03,1.140490033429567340e+00,0.000000000000000000e+00
1.244000000000000000e+03,8.884160282185518120e-01,0.000000000000000000e+00
1.245000000000000000e+03,3.921930903947542513e-01,0.000000000000000000e+00
1.246000000000000000e+03,-4.931322478657990671e-01,0.000000000000000000e+00
1.247000000000000000e+03,-1.057860304235707094e+00,0.000000000000000000e+00
1.248000000000000000e+03,-1.394889510148989098e+00,0.000000000000000000e+00
1.249000000000000000e+03,-1.274318970065340340e+00,0.000000000000000000e+00
1.250000000000000000e+03,-1.508548922771686618e+00,0.000000000000000000e+00
1.251000000000000000e+03,-1.271139949270826852e+00,0.000000000000000000e+00
1.252000000000000000e+03,-1.285514649470087090e+00,0.000000000000000000e+00
1.253000000000000000e+03,-1.252574621173782710e+00,0.000000000000000000e+00
1.254000000000000000e+03,-1.013996310313072025e+00,0.000000000000000000e+00
1.255000000000000000e+03,-1.011671583205600022e+00,0.000000000000000000e+00
1.256000000000000000e+03,-9.307002369273353892e-01,0.000000000000000000e+00
1.257000000000000000e+03,-7.618236023575779559e-01,0.000000000000000000e+00
1.258000000000000000e+03,-7.074107259793861457e-01,0.000000000000000000e+00
1.259000000000000000e+03,-7.194882058453320184e-01,0.000000000000000000e+00
1.260000000000000000e+03,-6.561660066076131503e-01,0.000000000000000000e+00
1.261000000000000000e+03,-5.595219540847982120e-01,0.000000000000000000e+00
1.262000000000000000e+03,-6.058260369455439331e-01,0.000000000000000000e+00
1.263000000000000000e+03,-3.814236588720970045e-01,0.000000000000000000e+00
1.264000000000000000e+03,-4.159138538975774013e-01,0.000000000000000000e+00
1.265000000000000000e+03,-4.297331730238351799e-01,0.000000000000000000e+00
1.266000000000000000e+03,-2.193051100956262267e-01,0.000000000000000000e+00
1.267000000000000000e+03,-9.793167893286784664e-02,0.000000000000000000e+00
1.268000000000000000e+03,-3.005034866115533498e-01,0.000000000000000000e+00
1.269000000000000000e+03,-2.874523680804370040e-01,0.000000000000000000e+00
1.270000000000000000e+03,1.851444827018146055e-01,0.000000000000000000e+00
1.271000000000000000e+03,1.983456898815574854e-01,0.000000000000000000e+00
1.272000000000000000e+03,4.213236346648641661e-01,0.000000000000000000e+00
1.273000000000000000e+03,3.958345024890984054e-01,0.000000000000000000e+00
1.274000000000000000e+03,7.629177836730323126e-01,0.000000000000000000e+00
1.275000000000000000e+03,4.364692126740172817e-01,0.000000000000000000e+00
1.276000000000000000e+03,2.492529987860456486e-01,0.000000000000000000e+00
1.277000000000000000e+03,-2.571014597185024009e-01,0.000000000000000000e+00
1.278000000000000000e+03,-1.434076356215057968e-01,0.000000000000000000e+00
1.279000000000000000e+03,-7.718093555543872886e-02,0.000000000000000000e+00
1.280000000000000000e+03,-1.475143919176996610e-01,0.000000000000000000e+00
1.281000000000000000e+03,2.235686488297551275e-02,0.000000000000000000e+00
1.282000000000000000e+03,5.182516534652821250e+00,0.000000000000000000e+00
1.283000000000000000e+03,1.130676267821988379e+00,1.000000000000000000e+00
1.284000000000000000e+03,-2.573058976314821500e+00,0.000000000000000000e+00
1.285000000000000000e+03,-5.397525589686579250e-01,0.000000000000000000e+00
1.286000000000000000e+03,-4.417409727841977718e-01,0.000000000000000000e+00
1.287000000000000000e+03,-2.567527282809849848e-02,0.000000000000000000e+00
1.288000000000000000e+03,-1.202764987106947625e-01,0.000000000000000000e+00
1.289000000000000000e+03,2.061790816218546721e-02,0.000000000000000000e+00
1.290000000000000000e+03,1.809498596489674677e-02,0.000000000000000000e+00
1.291000000000000000e+03,1.467291116731377631e-01,0.000000000000000000e+00
1.292000000000000000e+03,4.172270405992365219e-03,0.000000000000000000e+00
1.293000000000000000e+03,2.535620220488607468e-01,0.000000000000000000e+00
1.294000000000000000e+03,1.871494359085015824e-01,0.000000000000000000e+00
1.295000000000000000e+03,4.022677857665359902e-01,0.000000000000000000e+00
1.296000000000000000e+03,5.326588772483136225e-01,0.000000000000000000e+00
1.297000000000000000e+03,9.233672182566032838e-01,0.000000000000000000e+00
1.298000000000000000e+03,6.962079045312433712e-01,0.000000000000000000e+00
1.299000000000000000e+03,1.233806035213032004e+00,0.000000000000000000e+00
1.300000000000000000e+03,1.173077302508499509e+00,0.000000000000000000e+00
1.301000000000000000e+03,7.158636781423801665e-01,0.000000000000000000e+00
1.302000000000000000e+03,-5.954664620318964735e-02,0.000000000000000000e+00
1.303000000000000000e+03,-7.981333013700138146e-01,0.000000000000000000e+00
1.304000000000000000e+03,-9.366461811260700099e-01,0.000000000000000000e+00
1.305000000000000000e+03,-9.946776868725929477e-01,0.000000000000000000e+00
1.306000000000000000e+03,-1.017582333131531902e+00,0.000000000000000000e+00
1.307000000000000000e+03,-1.094097313948451555e+00,0.000000000000000000e+00
1.308000000000000000e+03,-1.082692946641011345e+00,0.000000000000000000e+00
1.309000000000000000e+03,-6.284060302758974759e-01,0.000000000000000000e+00
1.310000000000000000e+03,-6.133669600225530871e-01,0.000000000000000000e+00
1.311000000000000000e+03,-5.810321230013100191e-01,0.000000000000000000e+00
1.312000000000000000e+03,-3.859772277353494818e-01,0.000000000000000000e+00
1.313000000000000000e+03,-2.642931222345990538e-01,0.000000000000000000e+00
1.314000000000000000e+03,-3.454170094272573377e-01,0.000000000000000000e+00
1.315000000000000000e+03,-1.774575195248559722e-01,0.000000000000000000e+00
1.316000000000000000e+03,-5.614888596529212655e-02,0.000000000000000000e+00
1.317000000000000000e+03,-1.568950361485253464e-01,0.000000000000000000e+00
1.318000000000000000e+03,-1.940003057432909128e-01,0.000000000000000000e+00
1.319000000000000000e+03,-5.891202016623996174e-02,0.000000000000000000e+00
1.320000000000000000e+03,-1.258638637893051693e-01,0.000000000000000000e+00
1.321000000000000000e+03,3.889251770717851771e-03,0.000000000000000000e+00
1.322000000000000000e+03,-1.993029446248666403e-01,0.000000000000000000e+00
1.323000000000000000e+03,4.789595943097704756e-02,0.000000000000000000e+00
1.324000000000000000e+03,-1.141408796989634156e-01,0.000000000000000000e+00
1.325000000000000000e+03,2.371045439292540080e-01,0.000000000000000000e+00
1.326000000000000000e+03,1.295469307737861370e-02,0.000000000000000000e+00
1.327000000000000000e+03,2.471604237699074891e-01,0.000000000000000000e+00
1.328000000000000000e+03,2.305743803694484118e-01,0.000000000000000000e+00
1.329000000000000000e+03,5.575642752433161986e-01,0.000000000000000000e+00
1.330000000000000000e+03,4.808783218463474340e-01,0.000000000000000000e+00
1.331000000000000000e+03,9.513411038703357692e-01,0.000000000000000000e+00
1.332000000000000000e+03,6.382916003871760280e-01,0.000000000000000000e+00
1.333000000000000000e+03,7.351956632409961667e-01,0.000000000000000000e+00
1.334000000000000000e+03,-5.280375779860025931e-01,0.000000000000000000e+00
1.335000000000000000e+03,2.381588324468088269e-01,0.000000000000000000e+00
1.336000000000000000e+03,-3.828948189236243693e-01,0.000000000000000000e+00
1.337000000000000000e+03,3.754934203119787428e-01,0.000000000000000000e+00
1.338000000000000000e+03,-8.218460084675832666e-01,0.000000000000000000e+00
1.339000000000000000e+03,3.418636059693940688e+00,0.000000000000000000e+00
1.340000000000000000e+03,3.962383897758524398e+00,0.000000000000000000e+00
1.341000000000000000e+03,-2.536796554576672413e+00,1.000000000000000000e+00
1.342000000000000000e+03,-1.279959363246778947e+00,0.000000000000000000e+00
1.343000000000000000e+03,-5.861479907703104342e-01,0.000000000000000000e+00
1.344000000000000000e+03,-1.716188938882229897e-01,0.000000000000000000e+00
1.345000000000000000e+03,-3.854150706874430177e-01,0.000000000000000000e+00
1.346000000000000000e+03,-4.220913197913577636e-02,0.000000000000000000e+00
1.347000000000000000e+03,-1.598775861696249689e-01,0.000000000000000000e+00
1.348000000000000000e+03,7.818855386415765607e-02,0.000000000000000000e+00
1.349000000000000000e+03,7.804153517642327398e-02,0.000000000000000000e+00
1.350000000000000000e+03,1.928154282980184819e-01,0.000000000000000000e+00
1.351000000000000000e+03,1.771848816426675743e-02,0.000000000000000000e+00
1.352000000000000000e+03,3.244574001444623934e-01,0.000000000000000000e+00
1.353000000000000000e+03,3.297502313829396847e-01,0.000000000000000000e+00
1.354000000000000000e+03,7.864712770765388550e-01,0.000000000000000000e+00
1.355000000000000000e+03,7.543294843042552822e-01,0.000000000000000000e+00
1.356000000000000000e+03,1.060925250911883166e+00,0.000000000000000000e+00
1.357000000000000000e+03,1.162987450442954929e+00,0.000000000000000000e+00
1.358000000000000000e+03,9.184932230443688672e-01,0.000000000000000000e+00
1.359000000000000000e+03,1.797509902454607345e-01,0.000000000000000000e+00
1.360000000000000000e+03,-6.097667832188783388e-01,0.000000000000000000e+00
1.361000000000000000e+03,-1.224849619172150295e+00,0.000000000000000000e+00
1.362000000000000000e+03,-1.472937071563948264e+00,0.000000000000000000e+00
1.363000000000000000e+03,-1.336498979587910529e+00,0.000000000000000000e+00
1.364000000000000000e+03,-1.212366871363454335e+00,0.000000000000000000e+00
1.365000000000000000e+03,-1.236709197219377998e+00,0.000000000000000000e+00
1.366000000000000000e+03,-1.212656104891068676e+00,0.000000000000000000e+00
1.367000000000000000e+03,-1.073929751613505790e+00,0.000000000000000000e+00
1.368000000000000000e+03,-9.337804814666705866e-01,0.000000000000000000e+00
1.369000000000000000e+03,-6.513141731377811716e-01,0.000000000000000000e+00
1.370000000000000000e+03,-6.245112259726227633e-01,0.000000000000000000e+00
1.371000000000000000e+03,-3.665681886071363582e-01,0.000000000000000000e+00
1.372000000000000000e+03,-5.267627758103361479e-01,0.000000000000000000e+00
1.373000000000000000e+03,-3.745750981055442907e-01,0.000000000000000000e+00
1.374000000000000000e+03,-4.720311055738098394e-01,0.000000000000000000e+00
1.375000000000000000e+03,-2.462487014678710340e-01,0.000000000000000000e+00
1.376000000000000000e+03,-3.390902068592595575e-01,0.000000000000000000e+00
1.377000000000000000e+03,-1.160863278948892074e-01,0.000000000000000000e+00
1.378000000000000000e+03,-1.818523363274772986e-01,0.000000000000000000e+00
1.379000000000000000e+03,-1.383086174085224329e-01,0.000000000000000000e+00
1.380000000000000000e+03,6.839559999875331753e-02,0.000000000000000000e+00
1.381000000000000000e+03,-1.246982081245674896e-03,0.000000000000000000e+00
1.382000000000000000e+03,2.772216650715080000e-02,0.000000000000000000e+00
1.383000000000000000e+03,1.918736893505066654e-01,0.000000000000000000e+00
1.384000000000000000e+03,3.131162019811820629e-01,0.000000000000000000e+00
1.385000000000000000e+03,5.839234949460927471e-01,0.000000000000000000e+00
1.386000000000000000e+03,5.920912452936698545e-01,0.000000000000000000e+00
1.387000000000000000e+03,7.981371857429859773e-01,0.000000000000000000e+00
1.388000000000000000e+03,7.295788443459186867e-01,0.000000000000000000e+00
1.389000000000000000e+03,3.231263251105215839e-01,0.000000000000000000e+00
1.390000000000000000e+03,-1.329061667688004877e-01,0.000000000000000000e+00
1.391000000000000000e+03,1.208023320950104701e-01,0.000000000000000000e+00
1.392000000000000000e+03,-3.333063410202993238e-01,0.000000000000000000e+00
1.393000000000000000e+03,2.362457981225560277e-01,0.000000000000000000e+00
1.394000000000000000e+03,-5.578020308347548806e-01,0.000000000000000000e+00
1.395000000000000000e+03,4.730699038201731987e+00,0.000000000000000000e+00
1.396000000000000000e+03,2.324557178678649194e+00,1.000000000000000000e+00
1.397000000000000000e+03,-2.756618959591898399e+00,0.000000000000000000e+00
1.398000000000000000e+03,-7.695604896484123936e-01,0.000000000000000000e+00
1.399000000000000000e+03,-4.422861151191999629e-01,0.000000000000000000e+00
1.400000000000000000e+03,1.027995398970222019e-01,0.000000000000000000e+00
1.401000000000000000e+03,-7.021635906900651480e-02,0.000000000000000000e+00
1.402000000000000000e+03,1.132576262293846642e-01,0.000000000000000000e+00
1.403000000000000000e+03,-3.504734497037272772e-02,0.000000000000000000e+00
1.404000000000000000e+03,2.682811187591472302e-01,0.000000000000000000e+00
1.405000000000000000e+03,1.530735722460445924e-01,0.000000000000000000e+00
1.406000000000000000e+03,4.427716094606785613e-01,0.000000000000000000e+00
1.407000000000000000e+03,2.653601941402953801e-01,0.000000000000000000e+00
1.408000000000000000e+03,7.573720674433281896e-01,0.000000000000000000e+00
1.409000000000000000e+03,6.272042158905261067e-01,0.000000000000000000e+00
1.410000000000000000e+03,1.059351810804527450e+00,0.000000000000000000e+00
1.411000000000000000e+03,1.011975376695824824e+00,0.000000000000000000e+00
1.412000000000000000e+03,1.218474277999165967e+00,0.000000000000000000e+00
1.413000000000000000e+03,1.414639482070758625e+00,0.000000000000000000e+00
1.414000000000000000e+03,1.061728578444776305e+00,0.000000000000000000e+00
1.415000000000000000e+03,1.523706811763916591e-01,0.000000000000000000e+00
1.416000000000000000e+03,-2.516836206750658333e-01,0.000000000000000000e+00
1.417000000000000000e+03,-8.539303877940532805e-01,0.000000000000000000e+00
1.418000000000000000e+03,-1.025635980428917238e+00,0.000000000000000000e+00
1.419000000000000000e+03,-1.087656569971469755e+00,0.000000000000000000e+00
1.420000000000000000e+03,-1.075859087522049506e+00,0.000000000000000000e+00
1.421000000000000000e+03,-9.486271322625982050e-01,0.000000000000000000e+00
1.422000000000000000e+03,-7.319300443726819427e-01,0.000000000000000000e+00
1.423000000000000000e+03,-7.615009653067787987e-01,0.000000000000000000e+00
1.424000000000000000e+03,-6.348647169003764912e-01,0.000000000000000000e+00
1.425000000000000000e+03,-3.967931288163595305e-01,0.000000000000000000e+00
1.426000000000000000e+03,-4.181796456348817470e-01,0.000000000000000000e+00
1.427000000000000000e+03,-2.526780223875983444e-01,0.000000000000000000e+00
1.428000000000000000e+03,-3.503889394360613085e-01,0.000000000000000000e+00
1.429000000000000000e+03,-3.036013851984524226e-01,0.000000000000000000e+00
1.430000000000000000e+03,-3.001642242197991028e-01,0.000000000000000000e+00
1.431000000000000000e+03,-2.653210288564687436e-01,0.000000000000000000e+00
1.432000000000000000e+03,-7.999166896199813581e-02,0.000000000000000000e+00
1.433000000000000000e+03,-5.279209250151054023e-02,0.000000000000000000e+00
1.434000000000000000e+03,-1.825113931502423958e-01,0.000000000000000000e+00
1.435000000000000000e+03,-3.141189659970618914e-02,0.000000000000000000e+00
1.436000000000000000e+03,-1.093129106577722942e-01,0.000000000000000000e+00
1.437000000000000000e+03,4.735625188507296135e-02,0.000000000000000000e+00
1.438000000000000000e+03,7.757278884693556698e-02,0.000000000000000000e+00
1.439000000000000000e+03,1.157144362991171377e-01,0.000000000000000000e+00
1.440000000000000000e+03,2.593396120450068842e-01,0.000000000000000000e+00
1.441000000000000000e+03,4.989634691186896065e-01,0.000000000000000000e+00
1.442000000000000000e+03,4.786552222459444783e-01,0.000000000000000000e+00
1.443000000000000000e+03,5.738248503045126903e-01,0.000000000000000000e+00
1.444000000000000000e+03,6.867409439275192762e-01,0.000000000000000000e+00
1.445000000000000000e+03,5.912289741583011127e-01,0.000000000000000000e+00
1.446000000000000000e+03,-2.072206309303626925e-01,0.000000000000000000e+00
1.447000000000000000e+03,1.126573433177465722e-01,0.000000000000000000e+00
1.448000000000000000e+03,-4.609020177491616188e-01,0.000000000000000000e+00
1.449000000000000000e+03,1.715854052321180712e-01,0.000000000000000000e+00
1.450000000000000000e+03,-6.105775428417213879e-01,0.000000000000000000e+00
1.451000000000000000e+03,2.578157064583905811e+00,0.000000000000000000e+00
1.452000000000000000e+03,4.809614990730536555e+00,0.000000000000000000e+00
1.453000000000000000e+03,-2.003836206408199594e+00,1.000000000000000000e+00
1.454000000000000000e+03,-1.552531359687276735e+00,0.000000000000000000e+00
1.455000000000000000e+03,-7.912074876166781401e-01,0.000000000000000000e+00
1.456000000000000000e+03,-2.754151690878928194e-01,0.000000000000000000e+00
1.457000000000000000e+03,-4.182265364323696777e-01,0.000000000000000000e+00
1.458000000000000000e+03,-2.706513959112529788e-01,0.000000000000000000e+00
1.459000000000000000e+03,-3.337161775899378235e-01,0.000000000000000000e+00
1.460000000000000000e+03,-4.416747650462963387e-02,0.000000000000000000e+00
1.461000000000000000e+03,-3.693337400127325032e-01,0.000000000000000000e+00
1.462000000000000000e+03,-8.441264961364301767e-02,0.000000000000000000e+00
1.463000000000000000e+03,-2.012044539351632577e-01,0.000000000000000000e+00
1.464000000000000000e+03,1.659537153663317721e-01,0.000000000000000000e+00
1.465000000000000000e+03,4.711385827553905142e-02,0.000000000000000000e+00
1.466000000000000000e+03,1.857871736516211736e-01,0.000000000000000000e+00
1.467000000000000000e+03,4.502278043055163992e-01,0.000000000000000000e+00
1.468000000000000000e+03,8.195522127173080484e-01,0.000000000000000000e+00
1.469000000000000000e+03,7.455133121327330858e-01,0.000000000000000000e+00
1.470000000000000000e+03,7.420405022344157553e-01,0.000000000000000000e+00
1.471000000000000000e+03,-3.836069125846284372e-02,0.000000000000000000e+00
1.472000000000000000e+03,-7.384205377347735633e-01,0.000000000000000000e+00
1.473000000000000000e+03,-1.146861278188725963e+00,0.000000000000000000e+00
1.474000000000000000e+03,-1.182233738730408490e+00,0.000000000000000000e+00
1.475000000000000000e+03,-1.223857322173077522e+00,0.000000000000000000e+00
1.476000000000000000e+03,-1.102177269762344647e+00,0.000000000000000000e+00
1.477000000000000000e+03,-1.057177926160649317e+00,0.000000000000000000e+00
1.478000000000000000e+03,-9.479675862460232860e-01,0.000000000000000000e+00
1.479000000000000000e+03,-6.245572384736149951e-01,0.000000000000000000e+00
1.480000000000000000e+03,-5.272313567980244642e-01,0.000000000000000000e+00
1.481000000000000000e+03,-5.385264884158987853e-01,0.000000000000000000e+00
1.482000000000000000e+03,-2.287870709065275843e-01,0.000000000000000000e+00
1.483000000000000000e+03,-3.603535989048871624e-01,0.000000000000000000e+00
1.484000000000000000e+03,-1.264438799005736802e-01,0.000000000000000000e+00
1.485000000000000000e+03,-9.024763883248167196e-02,0.000000000000000000e+00
1.486000000000000000e+03,-4.411617990485280916e-02,0.000000000000000000e+00
1.487000000000000000e+03,-1.572387370596236289e-01,0.000000000000000000e+00
1.488000000000000000e+03,1.701610644485807844e-01,0.000000000000000000e+00
1.489000000000000000e+03,6.546505494764407601e-03,0.000000000000000000e+00
1.490000000000000000e+03,5.387331601669915343e-02,0.000000000000000000e+00
1.491000000000000000e+03,1.832301882051256825e-01,0.000000000000000000e+00
1.492000000000000000e+03,4.328978606342080981e-01,0.000000000000000000e+00
1.493000000000000000e+03,2.639721249789298563e-01,0.000000000000000000e+00
1.494000000000000000e+03,3.446942883827369686e-01,0.000000000000000000e+00
1.495000000000000000e+03,4.691664064676253076e-01,0.000000000000000000e+00
1.496000000000000000e+03,4.120659599821279162e-01,0.000000000000000000e+00
1.497000000000000000e+03,4.708044176906441280e-01,0.000000000000000000e+00
1.498000000000000000e+03,7.727012975294048625e-01,0.000000000000000000e+00
1.499000000000000000e+03,7.529378563621071940e-01,0.000000000000000000e+00
1.500000000000000000e+03,1.002538708502474618e+00,0.000000000000000000e+00
1.501000000000000000e+03,1.062519497158077364e+00,0.000000000000000000e+00
1.502000000000000000e+03,9.840048150418583273e-01,0.000000000000000000e+00
1.503000000000000000e+03,3.420692182466979481e-01,0.000000000000000000e+00
1.504000000000000000e+03,1.271431517911226355e-02,0.000000000000000000e+00
1.505000000000000000e+03,-2.771417826776156890e-02,0.000000000000000000e+00
1.506000000000000000e+03,1.964711134011981608e-01,0.000000000000000000e+00
1.507000000000000000e+03,-3.198009196288296718e-01,0.000000000000000000e+00
1.508000000000000000e+03,8.240099589051005369e-01,0.000000000000000000e+00
1.509000000000000000e+03,5.719584823116131034e+00,0.000000000000000000e+00
1.510000000000000000e+03,-3.534453477895949103e-01,1.000000000000000000e+00
1.511000000000000000e+03,-2.374187427349254698e+00,0.000000000000000000e+00
1.512000000000000000e+03,-4.548135592283050754e-01,0.000000000000000000e+00
1.513000000000000000e+03,-4.378246635903588757e-01,0.000000000000000000e+00
1.514000000000000000e+03,-1.963196364282749906e-01,0.000000000000000000e+00
1.515000000000000000e+03,-3.092344769440206753e-01,0.000000000000000000e+00
1.516000000000000000e+03,2.663313904938531887e-02,0.000000000000000000e+00
1.517000000000000000e+03,-1.514358529293707289e-01,0.000000000000000000e+00
1.518000000000000000e+03,-3.601819636990902934e-02,0.000000000000000000e+00
1.519000000000000000e+03,2.700554185894860626e-01,0.000000000000000000e+00
1.520000000000000000e+03,1.241520042291679032e-01,0.000000000000000000e+00
1.521000000000000000e+03,3.379237723483229372e-01,0.000000000000000000e+00
1.522000000000000000e+03,5.005918815185901316e-01,0.000000000000000000e+00
1.523000000000000000e+03,7.515524499899786104e-01,0.000000000000000000e+00
1.524000000000000000e+03,8.749304426245477773e-01,0.000000000000000000e+00
1.525000000000000000e+03,1.222653890117170628e+00,0.000000000000000000e+00
1.526000000000000000e+03,1.275253257854709332e+00,0.000000000000000000e+00
1.527000000000000000e+03,1.302424802043146146e+00,0.000000000000000000e+00
1.528000000000000000e+03,8.148721470420708934e-01,0.000000000000000000e+00
1.529000000000000000e+03,-2.912149100258303869e-01,0.000000000000000000e+00
1.530000000000000000e+03,-7.691066997505204839e-01,0.000000000000000000e+00
1.531000000000000000e+03,-8.669819710029963433e-01,0.000000000000000000e+00
1.532000000000000000e+03,-1.093497105156186366e+00,0.000000000000000000e+00
1.533000000000000000e+03,-9.547078344212189815e-01,0.000000000000000000e+00
1.534000000000000000e+03,-1.007086781039332468e+00,0.000000000000000000e+00
1.535000000000000000e+03,-9.292915612251525515e-01,0.000000000000000000e+00
1.536000000000000000e+03,-7.504789434827069394e-01,0.000000000000000000e+00
1.537000000000000000e+03,-6.505425855499895604e-01,0.000000000000000000e+00
1.538000000000000000e+03,-4.920079895818375570e-01,0.000000000000000000e+00
1.539000000000000000e+03,-5.319233590993635019e-01,0.000000000000000000e+00
1.540000000000000000e+03,-3.571487531944940175e-01,0.000000000000000000e+00
1.541000000000000000e+03,-2.149215107410030468e-01,0.000000000000000000e+00
1.542000000000000000e+03,-1.354870603933666651e-01,0.000000000000000000e+00
1.543000000000000000e+03,-4.444469356891880135e-02,0.000000000000000000e+00
1.544000000000000000e+03,-3.005109394874461159e-01,0.000000000000000000e+00
1.545000000000000000e+03,-7.743287782619810711e-02,0.000000000000000000e+00
1.546000000000000000e+03,-1.007449640893185588e-01,0.000000000000000000e+00
1.547000000000000000e+03,-6.836905899453789293e-02,0.000000000000000000e+00
1.548000000000000000e+03,4.577688135602713849e-03,0.000000000000000000e+00
1.549000000000000000e+03,-3.427088196517062701e-02,0.000000000000000000e+00
1.550000000000000000e+03,-3.335742707141604174e-02,0.000000000000000000e+00
1.551000000000000000e+03,1.052517695331643965e-01,0.000000000000000000e+00
1.552000000000000000e+03,-8.370709189054408028e-02,0.000000000000000000e+00
1.553000000000000000e+03,6.638339050629198101e-02,0.000000000000000000e+00
1.554000000000000000e+03,2.697159591579012528e-01,0.000000000000000000e+00
1.555000000000000000e+03,4.642181311640348196e-01,0.000000000000000000e+00
1.556000000000000000e+03,5.209991171614974936e-01,0.000000000000000000e+00
1.557000000000000000e+03,5.297991075352322943e-01,0.000000000000000000e+00
1.558000000000000000e+03,5.340060753022913831e-01,0.000000000000000000e+00
1.559000000000000000e+03,-1.448194216283874014e-01,0.000000000000000000e+00
1.560000000000000000e+03,-3.704838208164825675e-01,0.000000000000000000e+00
1.561000000000000000e+03,-4.327791731647454565e-01,0.000000000000000000e+00
1.562000000000000000e+03,-3.534178422276405551e-01,0.000000000000000000e+00
1.563000000000000000e+03,-4.581228723800866987e-01,0.000000000000000000e+00
1.564000000000000000e+03,-6.689751931287746256e-02,0.000000000000000000e+00
1.565000000000000000e+03,5.002100526665443248e+00,0.000000000000000000e+00
1.566000000000000000e+03,1.434689207514283638e-01,1.000000000000000000e+00
1.567000000000000000e+03,-2.916727622570406186e+00,0.000000000000000000e+00
1.568000000000000000e+03,-1.035927310848929528e+00,0.000000000000000000e+00
1.569000000000000000e+03,-7.878576084294671711e-01,0.000000000000000000e+00
1.570000000000000000e+03,-2.972100841583887321e-01,0.000000000000000000e+00
1.571000000000000000e+03,-5.053026644947971047e-01,0.000000000000000000e+00
1.572000000000000000e+03,-2.421702340015544352e-01,0.000000000000000000e+00
1.573000000000000000e+03,-4.499557737800107815e-01,0.000000000000000000e+00
1.574000000000000000e+03,-2.799298663450192626e-01,0.000000000000000000e+00
1.575000000000000000e+03,-2.573519663311937267e-01,0.000000000000000000e+00
1.576000000000000000e+03,-1.468276007154841745e-01,0.000000000000000000e+00
1.577000000000000000e+03,-1.750795704119295915e-01,0.000000000000000000e+00
1.578000000000000000e+03,1.544646684229643643e-02,0.000000000000000000e+00
1.579000000000000000e+03,1.400076979978731317e-01,0.000000000000000000e+00
1.580000000000000000e+03,3.564527844796318568e-01,0.000000000000000000e+00
1.581000000000000000e+03,5.518779310793882065e-01,0.000000000000000000e+00
1.582000000000000000e+03,8.160430311432737005e-01,0.000000000000000000e+00
1.583000000000000000e+03,8.922640418572853616e-01,0.000000000000000000e+00
1.584000000000000000e+03,4.189333623679619145e-01,0.000000000000000000e+00
1.585000000000000000e+03,-3.248683660821329866e-01,0.000000000000000000e+00
1.586000000000000000e+03,-9.953211556572395535e-01,0.000000000000000000e+00
