timestamp,ecg_measurement,qrs_detected
0.000000000000000000e+00,1.561851305072831531e-03,0.000000000000000000e+00
1.000000000000000000e+00,5.398482774623325486e-02,0.000000000000000000e+00
2.000000000000000000e+00,-1.262131455434704064e-01,0.000000000000000000e+00
3.000000000000000000e+00,4.577023588157557582e-02,0.000000000000000000e+00
4.000000000000000000e+00,-4.295633794840077874e-02,0.000000000000000000e+00
5.000000000000000000e+00,-5.457786966629938480e-02,0.000000000000000000e+00
6.000000000000000000e+00,-2.515540507924812763e-02,0.000000000000000000e+00
7.000000000000000000e+00,7.488369717349820966e-03,0.000000000000000000e+00
8.000000000000000000e+00,-2.327964102019029202e-01,0.000000000000000000e+00
9.000000000000000000e+00,3.552449406597774306e+00,0.000000000000000000e+00
1.000000000000000000e+01,2.444135472349389993e+00,1.000000000000000000e+00
1.100000000000000000e+01,-3.889278326354145832e-01,0.000000000000000000e+00
1.200000000000000000e+01,-9.253060215315659365e-01,0.000000000000000000e+00
1.300000000000000000e+01,-1.035281660545463112e+00,0.000000000000000000e+00
1.400000000000000000e+01,-7.365859927104894123e-01,0.000000000000000000e+00
1.500000000000000000e+01,-8.921558523640965577e-01,0.000000000000000000e+00
1.600000000000000000e+01,-6.487781680292266095e-01,0.000000000000000000e+00
1.700000000000000000e+01,-8.137725021183509488e-01,0.000000000000000000e+00
1.800000000000000000e+01,-5.096943327171649107e-01,0.000000000000000000e+00
1.900000000000000000e+01,-4.909457576546348845e-01,0.000000000000000000e+00
2.000000000000000000e+01,-5.583534121524798000e-01,0.000000000000000000e+00
2.100000000000000000e+01,-2.986782894804251853e-01,0.000000000000000000e+00
2.200000000000000000e+01,-3.780350399546183460e-01,0.000000000000000000e+00
2.300000000000000000e+01,-1.803557869402896696e-01,0.000000000000000000e+00
2.400000000000000000e+01,-2.212485409435399064e-01,0.000000000000000000e+00
2.500000000000000000e+01,1.680592918353739917e-01,0.000000000000000000e+00
2.600000000000000000e+01,-2.494021876363751444e-02,0.000000000000000000e+00
2.700000000000000000e+01,2.137539040037418347e-01,0.000000000000000000e+00
2.800000000000000000e+01,-4.484760291822420530e-02,0.000000000000000000e+00
2.900000000000000000e+01,-6.284196644414415112e-02,0.000000000000000000e+00
3.000000000000000000e+01,-1.531559657335218871e-01,0.000000000000000000e+00
3.100000000000000000e+01,-8.662176168176836943e-02,0.000000000000000000e+00
3.200000000000000000e+01,-1.464391215281701797e-01,0.000000000000000000e+00
3.300000000000000000e+01,-4.486368571383160531e-02,0.000000000000000000e+00
3.400000000000000000e+01,-1.818247749002555036e-01,0.000000000000000000e+00
3.500000000000000000e+01,-6.251936044590042374e-02,0.000000000000000000e+00
3.600000000000000000e+01,-1.773969717282476988e-01,0.000000000000000000e+00
3.700000000000000000e+01,-4.988715672981722943e-02,0.000000000000000000e+00
3.800000000000000000e+01,-6.268134930975434449e-02,0.000000000000000000e+00
3.900000000000000000e+01,-3.264186939422782791e-02,0.000000000000000000e+00
4.000000000000000000e+01,9.976456671146860522e-02,0.000000000000000000e+00
4.100000000000000000e+01,-5.993769087100946601e-03,0.000000000000000000e+00
4.200000000000000000e+01,1.695074250908205349e-01,0.000000000000000000e+00
4.300000000000000000e+01,3.371520706347171104e-02,0.000000000000000000e+00
4.400000000000000000e+01,2.550117212538521860e-01,0.000000000000000000e+00
4.500000000000000000e+01,2.483764934363624222e-01,0.000000000000000000e+00
4.600000000000000000e+01,2.016901702597729273e-01,0.000000000000000000e+00
4.700000000000000000e+01,1.545918130635750565e-01,0.000000000000000000e+00
4.800000000000000000e+01,1.939202715671969057e-01,0.000000000000000000e+00
4.900000000000000000e+01,2.001776703501009780e-01,0.000000000000000000e+00
5.000000000000000000e+01,1.465334164028642694e-01,0.000000000000000000e+00
5.100000000000000000e+01,2.057283385793449992e-01,0.000000000000000000e+00
5.200000000000000000e+01,1.114988086142047752e-01,0.000000000000000000e+00
5.300000000000000000e+01,3.090505675109458394e-01,0.000000000000000000e+00
5.400000000000000000e+01,3.336006334599295187e-01,0.000000000000000000e+00
5.500000000000000000e+01,1.831778482022806687e-01,0.000000000000000000e+00
5.600000000000000000e+01,3.444355656589018905e-02,0.000000000000000000e+00
5.700000000000000000e+01,9.921468493506312158e-02,0.000000000000000000e+00
5.800000000000000000e+01,-8.296829550020334842e-02,0.000000000000000000e+00
5.900000000000000000e+01,8.142399666353895837e-02,0.000000000000000000e+00
6.000000000000000000e+01,-2.154909077291669930e-02,0.000000000000000000e+00
6.100000000000000000e+01,4.523397841440544853e-02,0.000000000000000000e+00
6.200000000000000000e+01,6.299001893567988952e-02,0.000000000000000000e+00
6.300000000000000000e+01,2.264108512427313036e-01,0.000000000000000000e+00
6.400000000000000000e+01,-2.380842523097239649e-01,0.000000000000000000e+00
6.500000000000000000e+01,3.144524461041515728e+00,0.000000000000000000e+00
6.600000000000000000e+01,3.697091872147962199e+00,0.000000000000000000e+00
6.700000000000000000e+01,-2.428888151096518233e-01,1.000000000000000000e+00
6.800000000000000000e+01,-8.467597072945749481e-01,0.000000000000000000e+00
6.900000000000000000e+01,-1.068084317783483783e+00,0.000000000000000000e+00
7.000000000000000000e+01,-8.911282378514010505e-01,0.000000000000000000e+00
7.100000000000000000e+01,-8.668636096725661488e-01,0.000000000000000000e+00
7.200000000000000000e+01,-7.536378681847883954e-01,0.000000000000000000e+00
7.300000000000000000e+01,-8.087412777168075939e-01,0.000000000000000000e+00
7.400000000000000000e+01,-5.735773451985312077e-01,0.000000000000000000e+00
7.500000000000000000e+01,-6.526667200979229255e-01,0.000000000000000000e+00
7.600000000000000000e+01,-4.639129287402034008e-01,0.000000000000000000e+00
7.700000000000000000e+01,-5.138796973796828649e-01,0.000000000000000000e+00
7.800000000000000000e+01,-3.676298207637520021e-01,0.000000000000000000e+00
7.900000000000000000e+01,-2.269240810490404658e-01,0.000000000000000000e+00
8.000000000000000000e+01,-1.734824098549755944e-01,0.000000000000000000e+00
8.100000000000000000e+01,-2.387911596035839981e-03,0.000000000000000000e+00
8.200000000000000000e+01,1.975757690447930703e-01,0.000000000000000000e+00
8.300000000000000000e+01,1.444160205350918935e-01,0.000000000000000000e+00
8.400000000000000000e+01,2.282522136304274973e-01,0.000000000000000000e+00
8.500000000000000000e+01,-3.995287435153488387e-02,0.000000000000000000e+00
8.600000000000000000e+01,-5.104361304251151671e-02,0.000000000000000000e+00
8.700000000000000000e+01,-1.062260476504586493e-01,0.000000000000000000e+00
8.800000000000000000e+01,-6.362255317475727645e-02,0.000000000000000000e+00
8.900000000000000000e+01,-5.287108767702136669e-02,0.000000000000000000e+00
9.000000000000000000e+01,-1.248093288028627040e-01,0.000000000000000000e+00
9.100000000000000000e+01,-6.406410551344005055e-02,0.000000000000000000e+00
9.200000000000000000e+01,-9.073645889722398161e-02,0.000000000000000000e+00
9.300000000000000000e+01,-1.134661343860007832e-01,0.000000000000000000e+00
9.400000000000000000e+01,2.762273151360538498e-02,0.000000000000000000e+00
9.500000000000000000e+01,-1.573895700856466906e-01,0.000000000000000000e+00
9.600000000000000000e+01,-2.631469436734167056e-02,0.000000000000000000e+00
9.700000000000000000e+01,8.181416985739807524e-02,0.000000000000000000e+00
9.800000000000000000e+01,1.012914723217968882e-01,0.000000000000000000e+00
9.900000000000000000e+01,6.948902704622020310e-02,0.000000000000000000e+00
1.000000000000000000e+02,4.810229390815533301e-02,0.000000000000000000e+00
1.010000000000000000e+02,8.944348822291652013e-02,0.000000000000000000e+00
1.020000000000000000e+02,1.162710537390685833e-01,0.000000000000000000e+00
1.030000000000000000e+02,5.332683980431059123e-02,0.000000000000000000e+00
1.040000000000000000e+02,1.918647517306743266e-01,0.000000000000000000e+00
1.050000000000000000e+02,9.338148104900743929e-02,0.000000000000000000e+00
1.060000000000000000e+02,7.745501757911417429e-02,0.000000000000000000e+00
1.070000000000000000e+02,7.776221052950835211e-02,0.000000000000000000e+00
1.080000000000000000e+02,6.301211869440979940e-02,0.000000000000000000e+00
1.090000000000000000e+02,1.097392219531067303e-01,0.000000000000000000e+00
1.100000000000000000e+02,2.721421473301202654e-01,0.000000000000000000e+00
1.110000000000000000e+02,2.076352553746907137e-01,0.000000000000000000e+00
1.120000000000000000e+02,1.479148546028908051e-01,0.000000000000000000e+00
1.130000000000000000e+02,3.513487983604834941e-02,0.000000000000000000e+00
1.140000000000000000e+02,-9.037086135182420543e-03,0.000000000000000000e+00
1.150000000000000000e+02,-4.244236325204388954e-02,0.000000000000000000e+00
1.160000000000000000e+02,5.423291634815508543e-03,0.000000000000000000e+00
1.170000000000000000e+02,-1.025275739723243984e-01,0.000000000000000000e+00
1.180000000000000000e+02,1.190293231530962226e-01,0.000000000000000000e+00
1.190000000000000000e+02,-1.304477911917404642e-01,0.000000000000000000e+00
1.200000000000000000e+02,1.431279240389960461e-01,0.000000000000000000e+00
1.210000000000000000e+02,-4.254903851778839563e-01,0.000000000000000000e+00
1.220000000000000000e+02,2.710068863332404376e+00,0.000000000000000000e+00
1.230000000000000000e+02,4.019183863438119175e+00,0.000000000000000000e+00
1.240000000000000000e+02,1.667998023238594640e-01,1.000000000000000000e+00
1.250000000000000000e+02,-9.703477371504808380e-01,0.000000000000000000e+00
1.260000000000000000e+02,-1.122752120331194758e+00,0.000000000000000000e+00
1.270000000000000000e+02,-1.021973522033567949e+00,0.000000000000000000e+00
1.280000000000000000e+02,-8.577639490902503328e-01,0.000000000000000000e+00
1.290000000000000000e+02,-8.737584095575134935e-01,0.000000000000000000e+00
1.300000000000000000e+02,-7.815236938859354554e-01,0.000000000000000000e+00
1.310000000000000000e+02,-7.351360098144589239e-01,0.000000000000000000e+00
1.320000000000000000e+02,-6.047905094180759944e-01,0.000000000000000000e+00
1.330000000000000000e+02,-5.107716936260295881e-01,0.000000000000000000e+00
1.340000000000000000e+02,-3.912187425814472319e-01,0.000000000000000000e+00
1.350000000000000000e+02,-3.656195961817884088e-01,0.000000000000000000e+00
1.360000000000000000e+02,-2.464806940488731279e-01,0.000000000000000000e+00
1.370000000000000000e+02,-2.091696639273144254e-01,0.000000000000000000e+00
1.380000000000000000e+02,2.480615247758383851e-02,0.000000000000000000e+00
1.390000000000000000e+02,1.539669535809019829e-01,0.000000000000000000e+00
1.400000000000000000e+02,1.997113170051815212e-01,0.000000000000000000e+00
1.410000000000000000e+02,1.277469309217447446e-01,0.000000000000000000e+00
1.420000000000000000e+02,-8.489055442768346504e-02,0.000000000000000000e+00
1.430000000000000000e+02,1.880523058754378710e-02,0.000000000000000000e+00
1.440000000000000000e+02,-7.053193743372203339e-02,0.000000000000000000e+00
1.450000000000000000e+02,-4.049181123693868650e-02,0.000000000000000000e+00
1.460000000000000000e+02,-5.707777867457956844e-02,0.000000000000000000e+00
1.470000000000000000e+02,9.867555277429909677e-02,0.000000000000000000e+00
1.480000000000000000e+02,-2.274149441633468993e-02,0.000000000000000000e+00
1.490000000000000000e+02,-5.807806709684754098e-02,0.000000000000000000e+00
1.500000000000000000e+02,1.652485098557900448e-02,0.000000000000000000e+00
1.510000000000000000e+02,-3.246830541489954119e-02,0.000000000000000000e+00
1.520000000000000000e+02,-2.502723732481865887e-02,0.000000000000000000e+00
1.530000000000000000e+02,8.805401342195859349e-02,0.000000000000000000e+00
1.540000000000000000e+02,3.155753678336745832e-02,0.000000000000000000e+00
1.550000000000000000e+02,1.118508775886973006e-01,0.000000000000000000e+00
1.560000000000000000e+02,5.172627870817494977e-02,0.000000000000000000e+00
1.570000000000000000e+02,7.282809831887974983e-02,0.000000000000000000e+00
1.580000000000000000e+02,9.715873059977342407e-02,0.000000000000000000e+00
1.590000000000000000e+02,2.274198810168620299e-01,0.000000000000000000e+00
1.600000000000000000e+02,7.868033710034708084e-02,0.000000000000000000e+00
1.610000000000000000e+02,1.114583404165713082e-01,0.000000000000000000e+00
1.620000000000000000e+02,1.147187481074868204e-01,0.000000000000000000e+00
1.630000000000000000e+02,-1.651353354512226585e-03,0.000000000000000000e+00
1.640000000000000000e+02,1.701013214096810666e-01,0.000000000000000000e+00
1.650000000000000000e+02,1.940714456637828433e-01,0.000000000000000000e+00
1.660000000000000000e+02,9.878041409354557101e-02,0.000000000000000000e+00
1.670000000000000000e+02,9.908475087591184227e-02,0.000000000000000000e+00
1.680000000000000000e+02,2.474747275663591595e-01,0.000000000000000000e+00
1.690000000000000000e+02,9.384026931317882014e-02,0.000000000000000000e+00
1.700000000000000000e+02,8.945199104570440707e-02,0.000000000000000000e+00
1.710000000000000000e+02,7.863898860919819878e-02,0.000000000000000000e+00
1.720000000000000000e+02,4.927298558613017049e-02,0.000000000000000000e+00
1.730000000000000000e+02,1.748500721755146675e-02,0.000000000000000000e+00
1.740000000000000000e+02,2.955134533147329989e-02,0.000000000000000000e+00
1.750000000000000000e+02,-4.306461356616666895e-03,0.000000000000000000e+00
1.760000000000000000e+02,-6.738493732901616740e-02,0.000000000000000000e+00
1.770000000000000000e+02,1.035424100920799562e-01,0.000000000000000000e+00
1.780000000000000000e+02,-5.638527537353823366e-02,0.000000000000000000e+00
1.790000000000000000e+02,4.818892799294017260e-01,0.000000000000000000e+00
1.800000000000000000e+02,4.291522730527274732e+00,0.000000000000000000e+00
1.810000000000000000e+02,2.119406317451557609e+00,1.000000000000000000e+00
1.820000000000000000e+02,-6.636414720699869152e-01,0.000000000000000000e+00
1.830000000000000000e+02,-8.947293306042602978e-01,0.000000000000000000e+00
1.840000000000000000e+02,-1.021319566846453863e+00,0.000000000000000000e+00
1.850000000000000000e+02,-9.510819061386306394e-01,0.000000000000000000e+00
1.860000000000000000e+02,-8.989314000736106092e-01,0.000000000000000000e+00
1.870000000000000000e+02,-7.383555176857203861e-01,0.000000000000000000e+00
1.880000000000000000e+02,-7.260771941916698280e-01,0.000000000000000000e+00
1.890000000000000000e+02,-6.528773776476576307e-01,0.000000000000000000e+00
1.900000000000000000e+02,-5.831807555612585903e-01,0.000000000000000000e+00
1.910000000000000000e+02,-6.149140736610827496e-01,0.000000000000000000e+00
1.920000000000000000e+02,-4.113779111356263840e-01,0.000000000000000000e+00
1.930000000000000000e+02,-2.715184111101881514e-01,0.000000000000000000e+00
1.940000000000000000e+02,-3.109527693009112026e-01,0.000000000000000000e+00
1.950000000000000000e+02,-1.365513680078515590e-01,0.000000000000000000e+00
1.960000000000000000e+02,-2.932703423582249530e-02,0.000000000000000000e+00
1.970000000000000000e+02,3.042011124432785277e-02,0.000000000000000000e+00
1.980000000000000000e+02,2.180162983716265046e-01,0.000000000000000000e+00
1.990000000000000000e+02,8.150176916450767306e-02,0.000000000000000000e+00
2.000000000000000000e+02,-2.823714552491351018e-02,0.000000000000000000e+00
2.010000000000000000e+02,-4.786238163008909446e-02,0.000000000000000000e+00
2.020000000000000000e+02,-1.422077344777124622e-02,0.000000000000000000e+00
2.030000000000000000e+02,-1.296333963960349389e-01,0.000000000000000000e+00
2.040000000000000000e+02,-8.576358070760873795e-03,0.000000000000000000e+00
2.050000000000000000e+02,-6.010929883614627572e-02,0.000000000000000000e+00
2.060000000000000000e+02,-9.504814682807366522e-03,0.000000000000000000e+00
2.070000000000000000e+02,-6.530845426376281904e-02,0.000000000000000000e+00
2.080000000000000000e+02,-5.909456356712125547e-02,0.000000000000000000e+00
2.090000000000000000e+02,-5.123644301309235316e-02,0.000000000000000000e+00
2.100000000000000000e+02,1.718081795880456106e-02,0.000000000000000000e+00
2.110000000000000000e+02,-5.371587793251230564e-02,0.000000000000000000e+00
2.120000000000000000e+02,2.960423938491436868e-02,0.000000000000000000e+00
2.130000000000000000e+02,-4.672695930644423651e-02,0.000000000000000000e+00
2.140000000000000000e+02,7.049299572779321732e-02,0.000000000000000000e+00
2.150000000000000000e+02,-4.489533447817804952e-03,0.000000000000000000e+00
2.160000000000000000e+02,1.764190841905726170e-01,0.000000000000000000e+00
2.170000000000000000e+02,-1.197957631388264256e-02,0.000000000000000000e+00
2.180000000000000000e+02,5.398920071859973635e-02,0.000000000000000000e+00
2.190000000000000000e+02,8.559028693575711222e-02,0.000000000000000000e+00
2.200000000000000000e+02,1.518191074860874845e-01,0.000000000000000000e+00
2.210000000000000000e+02,3.283407248949467977e-02,0.000000000000000000e+00
2.220000000000000000e+02,6.378456335201447558e-02,0.000000000000000000e+00
2.230000000000000000e+02,1.217367917512202358e-01,0.000000000000000000e+00
2.240000000000000000e+02,8.968422051210479806e-02,0.000000000000000000e+00
2.250000000000000000e+02,2.332296039088249395e-01,0.000000000000000000e+00
2.260000000000000000e+02,4.358984498543776454e-01,0.000000000000000000e+00
2.270000000000000000e+02,6.183448132010133103e-02,0.000000000000000000e+00
2.280000000000000000e+02,1.387052235899782493e-01,0.000000000000000000e+00
2.290000000000000000e+02,-1.169795749263522061e-01,0.000000000000000000e+00
2.300000000000000000e+02,1.490442224334493637e-01,0.000000000000000000e+00
2.310000000000000000e+02,-4.396318387920138127e-02,0.000000000000000000e+00
2.320000000000000000e+02,4.124303490422051577e-02,0.000000000000000000e+00
2.330000000000000000e+02,9.575880062170565032e-02,0.000000000000000000e+00
2.340000000000000000e+02,-3.896454443176759069e-02,0.000000000000000000e+00
2.350000000000000000e+02,9.023436052032522692e-02,0.000000000000000000e+00
2.360000000000000000e+02,-5.805912256661474591e-02,0.000000000000000000e+00
2.370000000000000000e+02,3.665655728477837716e+00,0.000000000000000000e+00
2.380000000000000000e+02,2.471587930954588064e+00,1.000000000000000000e+00
2.390000000000000000e+02,-6.751845535863219006e-01,0.000000000000000000e+00
2.400000000000000000e+02,-8.769699236475659854e-01,0.000000000000000000e+00
2.410000000000000000e+02,-1.056002653635079502e+00,0.000000000000000000e+00
2.420000000000000000e+02,-8.504177667846095634e-01,0.000000000000000000e+00
2.430000000000000000e+02,-8.023886135004019149e-01,0.000000000000000000e+00
2.440000000000000000e+02,-6.670002967900917623e-01,0.000000000000000000e+00
2.450000000000000000e+02,-8.344059355503090636e-01,0.000000000000000000e+00
2.460000000000000000e+02,-5.071846444819245736e-01,0.000000000000000000e+00
2.470000000000000000e+02,-5.352439754380026171e-01,0.000000000000000000e+00
2.480000000000000000e+02,-4.056458294894810801e-01,0.000000000000000000e+00
2.490000000000000000e+02,-3.442810306649064511e-01,0.000000000000000000e+00
2.500000000000000000e+02,-3.596703651920169498e-01,0.000000000000000000e+00
2.510000000000000000e+02,-1.910474280872498931e-01,0.000000000000000000e+00
2.520000000000000000e+02,-1.002594382326675998e-01,0.000000000000000000e+00
2.530000000000000000e+02,1.803358247552716564e-02,0.000000000000000000e+00
2.540000000000000000e+02,2.391749062923900215e-01,0.000000000000000000e+00
2.550000000000000000e+02,1.076909097952035016e-01,0.000000000000000000e+00
2.560000000000000000e+02,9.215412314720734799e-02,0.000000000000000000e+00
2.570000000000000000e+02,2.785798638053881005e-02,0.000000000000000000e+00
2.580000000000000000e+02,-1.305824163765627877e-01,0.000000000000000000e+00
2.590000000000000000e+02,-1.058750861989311669e-02,0.000000000000000000e+00
2.600000000000000000e+02,2.207005556282755354e-02,0.000000000000000000e+00
2.610000000000000000e+02,-3.969731359950806615e-02,0.000000000000000000e+00
2.620000000000000000e+02,1.021660236042235166e-02,0.000000000000000000e+00
2.630000000000000000e+02,-4.054430648757954836e-02,0.000000000000000000e+00
2.640000000000000000e+02,1.815552910597767466e-02,0.000000000000000000e+00
2.650000000000000000e+02,-8.894685854427414329e-02,0.000000000000000000e+00
2.660000000000000000e+02,1.895881447486316707e-01,0.000000000000000000e+00
2.670000000000000000e+02,-7.389205120786446201e-02,0.000000000000000000e+00
2.680000000000000000e+02,9.005517140676284199e-03,0.000000000000000000e+00
2.690000000000000000e+02,5.315004989463879143e-02,0.000000000000000000e+00
2.700000000000000000e+02,2.151268900950011331e-01,0.000000000000000000e+00
2.710000000000000000e+02,-1.005939853038892162e-01,0.000000000000000000e+00
2.720000000000000000e+02,2.964281590962594137e-01,0.000000000000000000e+00
2.730000000000000000e+02,3.098441962715250964e-02,0.000000000000000000e+00
2.740000000000000000e+02,1.053828192376044248e-01,0.000000000000000000e+00
2.750000000000000000e+02,1.375799524646455219e-01,0.000000000000000000e+00
2.760000000000000000e+02,1.964409498105355867e-01,0.000000000000000000e+00
2.770000000000000000e+02,4.866637649669299653e-02,0.000000000000000000e+00
2.780000000000000000e+02,2.619702199189003489e-01,0.000000000000000000e+00
2.790000000000000000e+02,2.067447316960891734e-01,0.000000000000000000e+00
2.800000000000000000e+02,3.805844822171216002e-01,0.000000000000000000e+00
2.810000000000000000e+02,2.207664272634638769e-01,0.000000000000000000e+00
2.820000000000000000e+02,1.833178137540528163e-01,0.000000000000000000e+00
2.830000000000000000e+02,6.591173199649182080e-02,0.000000000000000000e+00
2.840000000000000000e+02,5.437265739695861660e-02,0.000000000000000000e+00
2.850000000000000000e+02,2.136935298727029621e-03,0.000000000000000000e+00
2.860000000000000000e+02,2.644291395701475408e-02,0.000000000000000000e+00
2.870000000000000000e+02,-8.784727129618727370e-02,0.000000000000000000e+00
2.880000000000000000e+02,1.059700423514168405e-01,0.000000000000000000e+00
2.890000000000000000e+02,-2.157698671532343182e-01,0.000000000000000000e+00
2.900000000000000000e+02,1.238419516672250864e-01,0.000000000000000000e+00
2.910000000000000000e+02,-2.908126085425971619e-01,0.000000000000000000e+00
2.920000000000000000e+02,2.789567216493042956e+00,0.000000000000000000e+00
2.930000000000000000e+02,2.528854366237131668e+00,0.000000000000000000e+00
2.940000000000000000e+02,-2.989831889726693448e-01,1.000000000000000000e+00
2.950000000000000000e+02,-6.880665076931907764e-01,0.000000000000000000e+00
2.960000000000000000e+02,-8.876200666674795015e-01,0.000000000000000000e+00
2.970000000000000000e+02,-6.568055051090826435e-01,0.000000000000000000e+00
2.980000000000000000e+02,-7.241821723642989372e-01,0.000000000000000000e+00
2.990000000000000000e+02,-5.688786364917599592e-01,0.000000000000000000e+00
3.000000000000000000e+02,-5.661587883129575172e-01,0.000000000000000000e+00
3.010000000000000000e+02,-5.215518153341784924e-01,0.000000000000000000e+00
3.020000000000000000e+02,-4.752853905535452395e-01,0.000000000000000000e+00
3.030000000000000000e+02,-4.120121772257771542e-01,0.000000000000000000e+00
3.040000000000000000e+02,-3.317675864078370451e-01,0.000000000000000000e+00
3.050000000000000000e+02,-2.504830543648221552e-01,0.000000000000000000e+00
3.060000000000000000e+02,-1.245513798041330139e-01,0.000000000000000000e+00
3.070000000000000000e+02,-2.437134949303732256e-01,0.000000000000000000e+00
3.080000000000000000e+02,1.382297937181172498e-01,0.000000000000000000e+00
3.090000000000000000e+02,-1.456060926521629377e-02,0.000000000000000000e+00
3.100000000000000000e+02,1.586805223998144498e-01,0.000000000000000000e+00
3.110000000000000000e+02,-2.979880809060393362e-02,0.000000000000000000e+00
3.120000000000000000e+02,-3.921480918483333244e-02,0.000000000000000000e+00
3.130000000000000000e+02,-2.964497502360717296e-01,0.000000000000000000e+00
3.140000000000000000e+02,-2.124196347110228131e-02,0.000000000000000000e+00
3.150000000000000000e+02,-2.425021663835281172e-01,0.000000000000000000e+00
3.160000000000000000e+02,-4.331419379639391692e-02,0.000000000000000000e+00
3.170000000000000000e+02,-2.947160421773865197e-02,0.000000000000000000e+00
3.180000000000000000e+02,-6.966286244690483853e-02,0.000000000000000000e+00
3.190000000000000000e+02,-1.396291488371881329e-01,0.000000000000000000e+00
3.200000000000000000e+02,-1.440707034828046795e-01,0.000000000000000000e+00
3.210000000000000000e+02,-5.208456096635035587e-02,0.000000000000000000e+00
3.220000000000000000e+02,-7.857997203418504162e-02,0.000000000000000000e+00
3.230000000000000000e+02,1.300195335047975471e-02,0.000000000000000000e+00
3.240000000000000000e+02,-2.533403995854550603e-02,0.000000000000000000e+00
3.250000000000000000e+02,4.875482241481112616e-02,0.000000000000000000e+00
3.260000000000000000e+02,5.533640009635396040e-02,0.000000000000000000e+00
3.270000000000000000e+02,1.725721669737612096e-01,0.000000000000000000e+00
3.280000000000000000e+02,4.322494688841312799e-02,0.000000000000000000e+00
3.290000000000000000e+02,7.475838831695037767e-02,0.000000000000000000e+00
3.300000000000000000e+02,1.116555498619496295e-01,0.000000000000000000e+00
3.310000000000000000e+02,1.194324038721596426e-01,0.000000000000000000e+00
3.320000000000000000e+02,1.258869598022598624e-01,0.000000000000000000e+00
3.330000000000000000e+02,9.324724569148207243e-02,0.000000000000000000e+00
3.340000000000000000e+02,1.659435150994171271e-01,0.000000000000000000e+00
3.350000000000000000e+02,1.886057440070099678e-01,0.000000000000000000e+00
3.360000000000000000e+02,3.183830506547739025e-01,0.000000000000000000e+00
3.370000000000000000e+02,2.511024649856757884e-01,0.000000000000000000e+00
3.380000000000000000e+02,3.654679250305392091e-01,0.000000000000000000e+00
3.390000000000000000e+02,1.022503237939821202e-01,0.000000000000000000e+00
3.400000000000000000e+02,1.922696232651090742e-01,0.000000000000000000e+00
3.410000000000000000e+02,-2.971447788225068526e-02,0.000000000000000000e+00
3.420000000000000000e+02,1.682419062699750112e-01,0.000000000000000000e+00
3.430000000000000000e+02,4.353996981577275965e-02,0.000000000000000000e+00
3.440000000000000000e+02,1.746176330354108075e-01,0.000000000000000000e+00
3.450000000000000000e+02,2.768020186762351620e-02,0.000000000000000000e+00
3.460000000000000000e+02,1.075425348387746144e-01,0.000000000000000000e+00
3.470000000000000000e+02,-2.716050806480226343e-01,0.000000000000000000e+00
3.480000000000000000e+02,2.791807215835506728e+00,0.000000000000000000e+00
3.490000000000000000e+02,3.555624786757141553e+00,0.000000000000000000e+00
3.500000000000000000e+02,-6.102867689692416386e-02,1.000000000000000000e+00
3.510000000000000000e+02,-1.014009797654675360e+00,0.000000000000000000e+00
3.520000000000000000e+02,-1.068194645863645986e+00,0.000000000000000000e+00
3.530000000000000000e+02,-8.182977239238019562e-01,0.000000000000000000e+00
3.540000000000000000e+02,-9.764978846661668266e-01,0.000000000000000000e+00
3.550000000000000000e+02,-7.436995459197892622e-01,0.000000000000000000e+00
3.560000000000000000e+02,-7.757788703136245800e-01,0.000000000000000000e+00
3.570000000000000000e+02,-6.058356617266533739e-01,0.000000000000000000e+00
3.580000000000000000e+02,-7.097501776414596453e-01,0.000000000000000000e+00
3.590000000000000000e+02,-4.100968396412413286e-01,0.000000000000000000e+00
3.600000000000000000e+02,-6.037606893906162231e-01,0.000000000000000000e+00
3.610000000000000000e+02,-3.117731412748160347e-01,0.000000000000000000e+00
3.620000000000000000e+02,-3.023671861615145895e-01,0.000000000000000000e+00
3.630000000000000000e+02,-2.060830320983241259e-01,0.000000000000000000e+00
3.640000000000000000e+02,-1.293348619812189071e-01,0.000000000000000000e+00
3.650000000000000000e+02,1.534934952421531384e-01,0.000000000000000000e+00
3.660000000000000000e+02,4.737070103291977918e-02,0.000000000000000000e+00
3.670000000000000000e+02,9.527569375094822879e-02,0.000000000000000000e+00
3.680000000000000000e+02,-4.029934119040325113e-02,0.000000000000000000e+00
3.690000000000000000e+02,-2.581216463142268006e-02,0.000000000000000000e+00
3.700000000000000000e+02,-1.292392632474628211e-01,0.000000000000000000e+00
3.710000000000000000e+02,-1.102732080560764501e-02,0.000000000000000000e+00
3.720000000000000000e+02,-1.892290121273321746e-01,0.000000000000000000e+00
3.730000000000000000e+02,6.876628883771787604e-02,0.000000000000000000e+00
3.740000000000000000e+02,-5.613611104737481483e-02,0.000000000000000000e+00
3.750000000000000000e+02,-7.888314615980132616e-02,0.000000000000000000e+00
3.760000000000000000e+02,-1.984765659210379479e-02,0.000000000000000000e+00
3.770000000000000000e+02,-6.702386562755632826e-02,0.000000000000000000e+00
3.780000000000000000e+02,5.457145541367339897e-02,0.000000000000000000e+00
3.790000000000000000e+02,-8.162101356628760629e-02,0.000000000000000000e+00
3.800000000000000000e+02,4.440750489112305077e-02,0.000000000000000000e+00
3.810000000000000000e+02,8.558686969137221934e-02,0.000000000000000000e+00
3.820000000000000000e+02,-8.541943140746638061e-03,0.000000000000000000e+00
3.830000000000000000e+02,9.923552409005596819e-02,0.000000000000000000e+00
3.840000000000000000e+02,1.345984618198023119e-01,0.000000000000000000e+00
3.850000000000000000e+02,1.561894695571252462e-02,0.000000000000000000e+00
3.860000000000000000e+02,1.315823170677425935e-01,0.000000000000000000e+00
3.870000000000000000e+02,1.249768029952376264e-01,0.000000000000000000e+00
3.880000000000000000e+02,3.192620521938750733e-02,0.000000000000000000e+00
3.890000000000000000e+02,1.852002071800613603e-01,0.000000000000000000e+00
3.900000000000000000e+02,9.313490041826742727e-02,0.000000000000000000e+00
3.910000000000000000e+02,1.929238800294298950e-01,0.000000000000000000e+00
3.920000000000000000e+02,2.394723689012986378e-01,0.000000000000000000e+00
3.930000000000000000e+02,1.356862891018863482e-01,0.000000000000000000e+00
3.940000000000000000e+02,2.570147737898790252e-01,0.000000000000000000e+00
3.950000000000000000e+02,2.701087821242966203e-01,0.000000000000000000e+00
3.960000000000000000e+02,2.945628054475051827e-01,0.000000000000000000e+00
3.970000000000000000e+02,4.216386115637748427e-02,0.000000000000000000e+00
3.980000000000000000e+02,-5.468532067918187994e-02,0.000000000000000000e+00
3.990000000000000000e+02,4.504121434021622628e-02,0.000000000000000000e+00
4.000000000000000000e+02,3.044364656651969356e-02,0.000000000000000000e+00
4.010000000000000000e+02,7.861082586208274769e-02,0.000000000000000000e+00
4.020000000000000000e+02,1.360805526854333702e-01,0.000000000000000000e+00
4.030000000000000000e+02,7.159019378537584410e-02,0.000000000000000000e+00
4.040000000000000000e+02,6.514068793917664191e-02,0.000000000000000000e+00
4.050000000000000000e+02,-2.524368933640892473e-02,0.000000000000000000e+00
4.060000000000000000e+02,3.575783380820386270e+00,0.000000000000000000e+00
4.070000000000000000e+02,3.239153038748202817e+00,0.000000000000000000e+00
4.080000000000000000e+02,-3.792603827176388442e-01,1.000000000000000000e+00
4.090000000000000000e+02,-1.089656119771393872e+00,0.000000000000000000e+00
4.100000000000000000e+02,-1.065730558448214849e+00,0.000000000000000000e+00
4.110000000000000000e+02,-9.213597232554954219e-01,0.000000000000000000e+00
4.120000000000000000e+02,-9.376092285128395654e-01,0.000000000000000000e+00
4.130000000000000000e+02,-8.211439431483414930e-01,0.000000000000000000e+00
4.140000000000000000e+02,-8.478249555908428103e-01,0.000000000000000000e+00
4.150000000000000000e+02,-6.332325932279435632e-01,0.000000000000000000e+00
4.160000000000000000e+02,-6.514375790041891934e-01,0.000000000000000000e+00
4.170000000000000000e+02,-6.138027516166968400e-01,0.000000000000000000e+00
4.180000000000000000e+02,-5.102886145848850585e-01,0.000000000000000000e+00
4.190000000000000000e+02,-4.068751238515112556e-01,0.000000000000000000e+00
4.200000000000000000e+02,-3.739911841991020447e-01,0.000000000000000000e+00
4.210000000000000000e+02,-1.043047674748369819e-01,0.000000000000000000e+00
4.220000000000000000e+02,-1.520523690878155254e-01,0.000000000000000000e+00
4.230000000000000000e+02,4.518195443611337098e-02,0.000000000000000000e+00
4.240000000000000000e+02,1.689700471256753156e-01,0.000000000000000000e+00
4.250000000000000000e+02,5.351345795760187318e-02,0.000000000000000000e+00
4.260000000000000000e+02,-4.366289385177220955e-02,0.000000000000000000e+00
4.270000000000000000e+02,-2.131541838637174974e-02,0.000000000000000000e+00
4.280000000000000000e+02,-1.613953278314559647e-01,0.000000000000000000e+00
4.290000000000000000e+02,2.786090810573573287e-02,0.000000000000000000e+00
4.300000000000000000e+02,4.490337174226763373e-02,0.000000000000000000e+00
4.310000000000000000e+02,1.325331486888448561e-02,0.000000000000000000e+00
4.320000000000000000e+02,3.608213338574933066e-02,0.000000000000000000e+00
4.330000000000000000e+02,-8.128058804457773470e-03,0.000000000000000000e+00
4.340000000000000000e+02,-2.439235326879886021e-02,0.000000000000000000e+00
4.350000000000000000e+02,4.559639895312328495e-02,0.000000000000000000e+00
4.360000000000000000e+02,1.300768418261339168e-02,0.000000000000000000e+00
4.370000000000000000e+02,3.223857384393948727e-02,0.000000000000000000e+00
4.380000000000000000e+02,-4.970970224290924278e-03,0.000000000000000000e+00
4.390000000000000000e+02,1.313524342024056935e-01,0.000000000000000000e+00
4.400000000000000000e+02,1.341299732181581994e-02,0.000000000000000000e+00
4.410000000000000000e+02,1.755322318830698225e-01,0.000000000000000000e+00
4.420000000000000000e+02,3.256906584172773733e-02,0.000000000000000000e+00
4.430000000000000000e+02,1.076972595280725475e-01,0.000000000000000000e+00
4.440000000000000000e+02,7.272472817633898745e-02,0.000000000000000000e+00
4.450000000000000000e+02,1.772737328002015056e-01,0.000000000000000000e+00
4.460000000000000000e+02,1.256956080583780111e-01,0.000000000000000000e+00
4.470000000000000000e+02,6.486646944984622576e-02,0.000000000000000000e+00
4.480000000000000000e+02,4.896590792014648974e-02,0.000000000000000000e+00
4.490000000000000000e+02,1.351024867063973789e-01,0.000000000000000000e+00
4.500000000000000000e+02,-3.005773004776267701e-02,0.000000000000000000e+00
4.510000000000000000e+02,3.010387726143682330e-01,0.000000000000000000e+00
4.520000000000000000e+02,1.545231566004711954e-01,0.000000000000000000e+00
4.530000000000000000e+02,2.777875600510993914e-01,0.000000000000000000e+00
4.540000000000000000e+02,3.262530305698576726e-03,0.000000000000000000e+00
4.550000000000000000e+02,8.902185758856998032e-02,0.000000000000000000e+00
4.560000000000000000e+02,-1.332327457486357780e-01,0.000000000000000000e+00
4.570000000000000000e+02,9.379138225042907284e-02,0.000000000000000000e+00
4.580000000000000000e+02,-1.615546413707899878e-02,0.000000000000000000e+00
4.590000000000000000e+02,-1.853026765620892705e-02,0.000000000000000000e+00
4.600000000000000000e+02,-2.351589395909872877e-03,0.000000000000000000e+00
4.610000000000000000e+02,1.352246085427497857e-01,0.000000000000000000e+00
4.620000000000000000e+02,-2.858517511865748539e-01,0.000000000000000000e+00
4.630000000000000000e+02,8.486631629940427635e-01,0.000000000000000000e+00
4.640000000000000000e+02,4.234178596903186431e+00,0.000000000000000000e+00
4.650000000000000000e+02,1.950461674001980672e+00,1.000000000000000000e+00
4.660000000000000000e+02,-7.863547423668606484e-01,0.000000000000000000e+00
4.670000000000000000e+02,-1.028147792476375111e+00,0.000000000000000000e+00
4.680000000000000000e+02,-1.019396786099029617e+00,0.000000000000000000e+00
4.690000000000000000e+02,-8.782906769550405945e-01,0.000000000000000000e+00
4.700000000000000000e+02,-8.482516026203750226e-01,0.000000000000000000e+00
4.710000000000000000e+02,-7.926950118957208913e-01,0.000000000000000000e+00
4.720000000000000000e+02,-6.365952617224251986e-01,0.000000000000000000e+00
4.730000000000000000e+02,-6.092629927770708553e-01,0.000000000000000000e+00
4.740000000000000000e+02,-4.957300659380845520e-01,0.000000000000000000e+00
4.750000000000000000e+02,-4.516790931728958403e-01,0.000000000000000000e+00
4.760000000000000000e+02,-3.212713026722064935e-01,0.000000000000000000e+00
4.770000000000000000e+02,-2.748483118127647007e-01,0.000000000000000000e+00
4.780000000000000000e+02,-2.015178802422414872e-01,0.000000000000000000e+00
4.790000000000000000e+02,4.311071973792724062e-03,0.000000000000000000e+00
4.800000000000000000e+02,4.861077501926742983e-02,0.000000000000000000e+00
4.810000000000000000e+02,2.681133929650105774e-01,0.000000000000000000e+00
4.820000000000000000e+02,1.499295650770907373e-01,0.000000000000000000e+00
4.830000000000000000e+02,1.351710522805172066e-01,0.000000000000000000e+00
4.840000000000000000e+02,-9.958064647058070817e-02,0.000000000000000000e+00
4.850000000000000000e+02,2.927766179130766519e-02,0.000000000000000000e+00
4.860000000000000000e+02,-1.413255540525002463e-01,0.000000000000000000e+00
4.870000000000000000e+02,-2.599612481265881417e-02,0.000000000000000000e+00
4.880000000000000000e+02,-5.647788364750559037e-02,0.000000000000000000e+00
4.890000000000000000e+02,-6.865346425389774222e-03,0.000000000000000000e+00
4.900000000000000000e+02,-2.112721584927559904e-02,0.000000000000000000e+00
4.910000000000000000e+02,7.556610454829442401e-03,0.000000000000000000e+00
4.920000000000000000e+02,-1.049642363031487585e-01,0.000000000000000000e+00
4.930000000000000000e+02,-8.029198616798817467e-02,0.000000000000000000e+00
4.940000000000000000e+02,-9.287173590252101665e-03,0.000000000000000000e+00
4.950000000000000000e+02,-9.349624167463444760e-04,0.000000000000000000e+00
4.960000000000000000e+02,-3.751744579361426107e-02,0.000000000000000000e+00
4.970000000000000000e+02,7.899268759141746254e-02,0.000000000000000000e+00
4.980000000000000000e+02,-1.161820572739682284e-02,0.000000000000000000e+00
4.990000000000000000e+02,1.496600000323188885e-02,0.000000000000000000e+00
5.000000000000000000e+02,9.558808316524840254e-02,0.000000000000000000e+00
5.010000000000000000e+02,1.370676309792097369e-01,0.000000000000000000e+00
5.020000000000000000e+02,3.467123150737441966e-03,0.000000000000000000e+00
5.030000000000000000e+02,1.730190061877195928e-02,0.000000000000000000e+00
5.040000000000000000e+02,9.086011587297208869e-02,0.000000000000000000e+00
5.050000000000000000e+02,6.138196838678803419e-02,0.000000000000000000e+00
5.060000000000000000e+02,1.677881713105090072e-02,0.000000000000000000e+00
5.070000000000000000e+02,1.348373404050952351e-01,0.000000000000000000e+00
5.080000000000000000e+02,1.924437838248221344e-01,0.000000000000000000e+00
5.090000000000000000e+02,2.221227497932137529e-01,0.000000000000000000e+00
5.100000000000000000e+02,3.321159870357409671e-01,0.000000000000000000e+00
5.110000000000000000e+02,9.117966869934800156e-02,0.000000000000000000e+00
5.120000000000000000e+02,5.182440902313007608e-02,0.000000000000000000e+00
5.130000000000000000e+02,-1.976564297988398639e-02,0.000000000000000000e+00
5.140000000000000000e+02,3.740403949500969993e-02,0.000000000000000000e+00
5.150000000000000000e+02,7.184107987256655239e-03,0.000000000000000000e+00
5.160000000000000000e+02,2.772776120287362422e-02,0.000000000000000000e+00
5.170000000000000000e+02,3.540723744367971215e-02,0.000000000000000000e+00
5.180000000000000000e+02,1.035901486886677131e-01,0.000000000000000000e+00
5.190000000000000000e+02,-4.916550348194314440e-02,0.000000000000000000e+00
5.200000000000000000e+02,7.183474748032696588e-01,0.000000000000000000e+00
5.210000000000000000e+02,4.227524814256486074e+00,0.000000000000000000e+00
5.220000000000000000e+02,2.173920753510797166e+00,1.000000000000000000e+00
5.230000000000000000e+02,-6.855212744838087291e-01,0.000000000000000000e+00
5.240000000000000000e+02,-9.907540515974403439e-01,0.000000000000000000e+00
5.250000000000000000e+02,-9.556041278034992370e-01,0.000000000000000000e+00
5.260000000000000000e+02,-8.938805922381276581e-01,0.000000000000000000e+00
5.270000000000000000e+02,-7.480908255005257468e-01,0.000000000000000000e+00
5.280000000000000000e+02,-8.326757871867496164e-01,0.000000000000000000e+00
5.290000000000000000e+02,-6.321973082515938147e-01,0.000000000000000000e+00
5.300000000000000000e+02,-6.224620136186557184e-01,0.000000000000000000e+00
5.310000000000000000e+02,-6.105813962569297537e-01,0.000000000000000000e+00
5.320000000000000000e+02,-5.034899940241061023e-01,0.000000000000000000e+00
5.330000000000000000e+02,-5.101991922538250401e-01,0.000000000000000000e+00
5.340000000000000000e+02,-4.607660523039219247e-01,0.000000000000000000e+00
5.350000000000000000e+02,-1.941348540931273348e-01,0.000000000000000000e+00
5.360000000000000000e+02,-1.304589082751880236e-01,0.000000000000000000e+00
5.370000000000000000e+02,-1.098099927293273714e-01,0.000000000000000000e+00
5.380000000000000000e+02,1.103711903631544311e-01,0.000000000000000000e+00
5.390000000000000000e+02,8.838107042008656877e-02,0.000000000000000000e+00
5.400000000000000000e+02,7.645293365726864299e-02,0.000000000000000000e+00
5.410000000000000000e+02,-1.352617773578203564e-01,0.000000000000000000e+00
5.420000000000000000e+02,-1.226050317960712122e-01,0.000000000000000000e+00
5.430000000000000000e+02,-1.256006916911996119e-01,0.000000000000000000e+00
5.440000000000000000e+02,-8.447360810493417804e-02,0.000000000000000000e+00
5.450000000000000000e+02,-4.790752507863194065e-02,0.000000000000000000e+00
5.460000000000000000e+02,8.864174957210488662e-03,0.000000000000000000e+00
5.470000000000000000e+02,-1.784542573513347441e-01,0.000000000000000000e+00
5.480000000000000000e+02,-4.835787043283416159e-02,0.000000000000000000e+00
5.490000000000000000e+02,-4.480854161698904353e-02,0.000000000000000000e+00
5.500000000000000000e+02,7.229570030533843082e-03,0.000000000000000000e+00
5.510000000000000000e+02,-9.009192495135075196e-02,0.000000000000000000e+00
5.520000000000000000e+02,1.449849384405556881e-03,0.000000000000000000e+00
5.530000000000000000e+02,-1.240908740055410159e-01,0.000000000000000000e+00
5.540000000000000000e+02,7.902011242767051358e-02,0.000000000000000000e+00
5.550000000000000000e+02,-9.098471775234938386e-02,0.000000000000000000e+00
5.560000000000000000e+02,1.656684095226916564e-01,0.000000000000000000e+00
5.570000000000000000e+02,-2.144310365682809694e-02,0.000000000000000000e+00
5.580000000000000000e+02,2.140595731401847002e-01,0.000000000000000000e+00
5.590000000000000000e+02,6.367357781267182770e-02,0.000000000000000000e+00
5.600000000000000000e+02,2.222485099560543298e-01,0.000000000000000000e+00
5.610000000000000000e+02,6.161321291460475358e-02,0.000000000000000000e+00
5.620000000000000000e+02,1.294935793960548254e-01,0.000000000000000000e+00
5.630000000000000000e+02,1.815542167831863396e-01,0.000000000000000000e+00
5.640000000000000000e+02,1.855180176503603007e-01,0.000000000000000000e+00
5.650000000000000000e+02,3.112584331053412368e-01,0.000000000000000000e+00
5.660000000000000000e+02,2.399262071748080316e-01,0.000000000000000000e+00
5.670000000000000000e+02,7.262879000194646939e-02,0.000000000000000000e+00
5.680000000000000000e+02,7.870677038213663712e-02,0.000000000000000000e+00
5.690000000000000000e+02,-1.048310787864385057e-02,0.000000000000000000e+00
5.700000000000000000e+02,3.873839245946029269e-02,0.000000000000000000e+00
5.710000000000000000e+02,-3.423369294125391121e-02,0.000000000000000000e+00
5.720000000000000000e+02,9.645544690183426029e-02,0.000000000000000000e+00
5.730000000000000000e+02,-4.668748001801048542e-02,0.000000000000000000e+00
5.740000000000000000e+02,1.715213901749765291e-01,0.000000000000000000e+00
5.750000000000000000e+02,-3.608100732732208438e-01,0.000000000000000000e+00
5.760000000000000000e+02,1.730504160373830480e+00,0.000000000000000000e+00
5.770000000000000000e+02,3.736421426791492362e+00,0.000000000000000000e+00
5.780000000000000000e+02,5.141100183913575039e-01,1.000000000000000000e+00
5.790000000000000000e+02,-6.755265939243970674e-01,0.000000000000000000e+00
5.800000000000000000e+02,-9.591826747648292129e-01,0.000000000000000000e+00
5.810000000000000000e+02,-5.962940284971656180e-01,0.000000000000000000e+00
5.820000000000000000e+02,-8.854006892116305094e-01,0.000000000000000000e+00
5.830000000000000000e+02,-5.711165292054033449e-01,0.000000000000000000e+00
5.840000000000000000e+02,-6.031307104926806328e-01,0.000000000000000000e+00
5.850000000000000000e+02,-4.553708238771690953e-01,0.000000000000000000e+00
5.860000000000000000e+02,-6.258295579433522660e-01,0.000000000000000000e+00
5.870000000000000000e+02,-3.301415341205028442e-01,0.000000000000000000e+00
5.880000000000000000e+02,-4.803871778476049292e-01,0.000000000000000000e+00
5.890000000000000000e+02,-2.048593300315965648e-01,0.000000000000000000e+00
5.900000000000000000e+02,-1.256036314518138575e-01,0.000000000000000000e+00
5.910000000000000000e+02,-1.445073647217944290e-01,0.000000000000000000e+00
5.920000000000000000e+02,2.630580098532046829e-02,0.000000000000000000e+00
5.930000000000000000e+02,1.207773282994599184e-01,0.000000000000000000e+00
5.940000000000000000e+02,4.862796631320039781e-02,0.000000000000000000e+00
5.950000000000000000e+02,2.099104573735057766e-01,0.000000000000000000e+00
5.960000000000000000e+02,-9.672358867745743660e-02,0.000000000000000000e+00
5.970000000000000000e+02,-5.732240335834445227e-02,0.000000000000000000e+00
5.980000000000000000e+02,-1.192578688315946017e-01,0.000000000000000000e+00
5.990000000000000000e+02,-7.438118136411930870e-02,0.000000000000000000e+00
6.000000000000000000e+02,-1.238792898316529167e-01,0.000000000000000000e+00
6.010000000000000000e+02,2.905428637470187231e-02,0.000000000000000000e+00
6.020000000000000000e+02,-1.942858253302719163e-01,0.000000000000000000e+00
6.030000000000000000e+02,3.903644783821607483e-02,0.000000000000000000e+00
6.040000000000000000e+02,-2.053085049201393633e-02,0.000000000000000000e+00
6.050000000000000000e+02,1.534840564839886484e-02,0.000000000000000000e+00
6.060000000000000000e+02,-8.023393688667540937e-04,0.000000000000000000e+00
6.070000000000000000e+02,1.182528379230887022e-01,0.000000000000000000e+00
6.080000000000000000e+02,-7.328670277764455510e-02,0.000000000000000000e+00
6.090000000000000000e+02,1.061257065262377342e-01,0.000000000000000000e+00
6.100000000000000000e+02,6.086627221642627872e-02,0.000000000000000000e+00
6.110000000000000000e+02,1.435503303073707715e-01,0.000000000000000000e+00
6.120000000000000000e+02,3.081685046538635425e-02,0.000000000000000000e+00
6.130000000000000000e+02,1.750731345199000449e-02,0.000000000000000000e+00
6.140000000000000000e+02,3.119157484523469442e-02,0.000000000000000000e+00
6.150000000000000000e+02,1.224270019941247345e-01,0.000000000000000000e+00
6.160000000000000000e+02,1.801046081554003586e-01,0.000000000000000000e+00
6.170000000000000000e+02,1.206102116568907728e-01,0.000000000000000000e+00
6.180000000000000000e+02,-2.314701352665480411e-02,0.000000000000000000e+00
6.190000000000000000e+02,1.647624210749936702e-01,0.000000000000000000e+00
6.200000000000000000e+02,7.127322379563624799e-02,0.000000000000000000e+00
6.210000000000000000e+02,2.663776522935262792e-01,0.000000000000000000e+00
6.220000000000000000e+02,1.455421617329623607e-01,0.000000000000000000e+00
6.230000000000000000e+02,1.905401171230588497e-01,0.000000000000000000e+00
6.240000000000000000e+02,-3.797162966716997878e-02,0.000000000000000000e+00
6.250000000000000000e+02,2.872339777298257846e-02,0.000000000000000000e+00
6.260000000000000000e+02,-4.821799796425514650e-02,0.000000000000000000e+00
6.270000000000000000e+02,-3.658135984684228459e-02,0.000000000000000000e+00
6.280000000000000000e+02,7.414328136633190069e-02,0.000000000000000000e+00
6.290000000000000000e+02,2.198808668084322251e-02,0.000000000000000000e+00
6.300000000000000000e+02,1.037468520468941696e-01,0.000000000000000000e+00
6.310000000000000000e+02,-1.403501580910117563e-01,0.000000000000000000e+00
6.320000000000000000e+02,2.831564247815739344e-01,0.000000000000000000e+00
6.330000000000000000e+02,3.992179437506290007e+00,0.000000000000000000e+00
6.340000000000000000e+02,2.607037071506540293e+00,1.000000000000000000e+00
6.350000000000000000e+02,-6.221428732731352218e-01,0.000000000000000000e+00
6.360000000000000000e+02,-1.083587868961748857e+00,0.000000000000000000e+00
6.370000000000000000e+02,-1.045988856272064726e+00,0.000000000000000000e+00
6.380000000000000000e+02,-8.629018032135336025e-01,0.000000000000000000e+00
6.390000000000000000e+02,-1.022469387890841519e+00,0.000000000000000000e+00
6.400000000000000000e+02,-7.480209009789651198e-01,0.000000000000000000e+00
6.410000000000000000e+02,-8.042888624327731995e-01,0.000000000000000000e+00
6.420000000000000000e+02,-7.057409536430956365e-01,0.000000000000000000e+00
6.430000000000000000e+02,-6.074363518567637010e-01,0.000000000000000000e+00
6.440000000000000000e+02,-6.305147512282426314e-01,0.000000000000000000e+00
6.450000000000000000e+02,-4.084931258226376372e-01,0.000000000000000000e+00
6.460000000000000000e+02,-4.859464346162677972e-01,0.000000000000000000e+00
6.470000000000000000e+02,-2.354965334362810747e-01,0.000000000000000000e+00
6.480000000000000000e+02,-1.016347541884635580e-01,0.000000000000000000e+00
6.490000000000000000e+02,-1.016957611538941153e-01,0.000000000000000000e+00
6.500000000000000000e+02,1.446281682327804075e-01,0.000000000000000000e+00
6.510000000000000000e+02,2.981135241216172349e-01,0.000000000000000000e+00
6.520000000000000000e+02,6.484022139899535409e-02,0.000000000000000000e+00
6.530000000000000000e+02,-4.233562913466577815e-02,0.000000000000000000e+00
6.540000000000000000e+02,-1.240673553000620939e-02,0.000000000000000000e+00
6.550000000000000000e+02,-1.124515154135632689e-01,0.000000000000000000e+00
6.560000000000000000e+02,-3.205022284226820978e-02,0.000000000000000000e+00
6.570000000000000000e+02,8.790657981043403790e-02,0.000000000000000000e+00
6.580000000000000000e+02,-2.221992697741648551e-02,0.000000000000000000e+00
6.590000000000000000e+02,6.757483769976682653e-02,0.000000000000000000e+00
6.600000000000000000e+02,9.024522239320151296e-02,0.000000000000000000e+00
6.610000000000000000e+02,-2.083073700946010479e-02,0.000000000000000000e+00
6.620000000000000000e+02,9.321493758377511971e-03,0.000000000000000000e+00
6.630000000000000000e+02,4.581708388665443887e-02,0.000000000000000000e+00
6.640000000000000000e+02,8.629579635868247015e-03,0.000000000000000000e+00
6.650000000000000000e+02,1.422964849156783951e-01,0.000000000000000000e+00
6.660000000000000000e+02,-3.821920650033946293e-02,0.000000000000000000e+00
6.670000000000000000e+02,2.067004884613233562e-01,0.000000000000000000e+00
6.680000000000000000e+02,9.290528956113468934e-03,0.000000000000000000e+00
6.690000000000000000e+02,1.721655223697318715e-01,0.000000000000000000e+00
6.700000000000000000e+02,6.199116570615764710e-02,0.000000000000000000e+00
6.710000000000000000e+02,1.430998187178606496e-01,0.000000000000000000e+00
6.720000000000000000e+02,3.147806601961812556e-02,0.000000000000000000e+00
6.730000000000000000e+02,7.853746218007091884e-02,0.000000000000000000e+00
6.740000000000000000e+02,7.344601962569567710e-02,0.000000000000000000e+00
6.750000000000000000e+02,2.173213668495052875e-01,0.000000000000000000e+00
6.760000000000000000e+02,8.443968873000472219e-02,0.000000000000000000e+00
6.770000000000000000e+02,1.939058179244131375e-01,0.000000000000000000e+00
6.780000000000000000e+02,3.007384769571025407e-01,0.000000000000000000e+00
6.790000000000000000e+02,2.139709353475287568e-01,0.000000000000000000e+00
6.800000000000000000e+02,5.028093612980284038e-02,0.000000000000000000e+00
6.810000000000000000e+02,7.871938656957072622e-02,0.000000000000000000e+00
6.820000000000000000e+02,-7.146859312768907846e-02,0.000000000000000000e+00
6.830000000000000000e+02,1.102326154149153442e-01,0.000000000000000000e+00
6.840000000000000000e+02,-3.237233392803113424e-02,0.000000000000000000e+00
6.850000000000000000e+02,1.684848041184619158e-02,0.000000000000000000e+00
6.860000000000000000e+02,1.679840962263207463e-02,0.000000000000000000e+00
6.870000000000000000e+02,7.924962132363902456e-02,0.000000000000000000e+00
6.880000000000000000e+02,-3.317015485390952256e-01,0.000000000000000000e+00
6.890000000000000000e+02,2.861525636255324301e+00,0.000000000000000000e+00
6.900000000000000000e+02,3.994034336863093504e+00,0.000000000000000000e+00
6.910000000000000000e+02,-2.433800274342835107e-02,1.000000000000000000e+00
6.920000000000000000e+02,-9.307420836368585082e-01,0.000000000000000000e+00
6.930000000000000000e+02,-1.183767260747499606e+00,0.000000000000000000e+00
6.940000000000000000e+02,-8.741490444881969690e-01,0.000000000000000000e+00
6.950000000000000000e+02,-1.125375486604775155e+00,0.000000000000000000e+00
6.960000000000000000e+02,-7.445943508345929107e-01,0.000000000000000000e+00
6.970000000000000000e+02,-9.500665678718182017e-01,0.000000000000000000e+00
6.980000000000000000e+02,-6.259613468131063341e-01,0.000000000000000000e+00
6.990000000000000000e+02,-7.215005107052701039e-01,0.000000000000000000e+00
7.000000000000000000e+02,-5.183563675886779798e-01,0.000000000000000000e+00
7.010000000000000000e+02,-5.405285810059293761e-01,0.000000000000000000e+00
7.020000000000000000e+02,-3.179660586626458230e-01,0.000000000000000000e+00
7.030000000000000000e+02,-3.378747905195724210e-01,0.000000000000000000e+00
7.040000000000000000e+02,-2.586877896884618999e-01,0.000000000000000000e+00
7.050000000000000000e+02,-9.133887251067901447e-02,0.000000000000000000e+00
7.060000000000000000e+02,4.910715688674458998e-03,0.000000000000000000e+00
7.070000000000000000e+02,1.409814472641885974e-01,0.000000000000000000e+00
7.080000000000000000e+02,4.781193890315123957e-02,0.000000000000000000e+00
7.090000000000000000e+02,-1.069376341780742534e-01,0.000000000000000000e+00
7.100000000000000000e+02,-3.171268671131485112e-02,0.000000000000000000e+00
7.110000000000000000e+02,-1.256155628454865836e-01,0.000000000000000000e+00
7.120000000000000000e+02,-5.186660098937038998e-02,0.000000000000000000e+00
7.130000000000000000e+02,-1.290243992676952944e-01,0.000000000000000000e+00
7.140000000000000000e+02,4.218608710501575015e-02,0.000000000000000000e+00
7.150000000000000000e+02,-1.660199853944180903e-01,0.000000000000000000e+00
7.160000000000000000e+02,1.205021014341032676e-01,0.000000000000000000e+00
7.170000000000000000e+02,-1.071876892272712600e-01,0.000000000000000000e+00
7.180000000000000000e+02,5.323003648097152790e-02,0.000000000000000000e+00
7.190000000000000000e+02,5.978775623110298837e-02,0.000000000000000000e+00
7.200000000000000000e+02,-8.873724430157655524e-03,0.000000000000000000e+00
7.210000000000000000e+02,2.849678291912586259e-01,0.000000000000000000e+00
7.220000000000000000e+02,6.150551863856264928e-02,0.000000000000000000e+00
7.230000000000000000e+02,1.118022689947072851e-01,0.000000000000000000e+00
7.240000000000000000e+02,1.629272418766158081e-01,0.000000000000000000e+00
7.250000000000000000e+02,1.837489836042170699e-01,0.000000000000000000e+00
7.260000000000000000e+02,1.722833735777343500e-01,0.000000000000000000e+00
7.270000000000000000e+02,1.630737794984602473e-01,0.000000000000000000e+00
7.280000000000000000e+02,2.057144715590760731e-01,0.000000000000000000e+00
7.290000000000000000e+02,2.733309424187038705e-01,0.000000000000000000e+00
7.300000000000000000e+02,2.325672422667237893e-01,0.000000000000000000e+00
7.310000000000000000e+02,1.137003412355598181e-01,0.000000000000000000e+00
7.320000000000000000e+02,2.346943236469904437e-01,0.000000000000000000e+00
7.330000000000000000e+02,1.587125514050551633e-01,0.000000000000000000e+00
7.340000000000000000e+02,3.707416002288170254e-01,0.000000000000000000e+00
7.350000000000000000e+02,2.831583945680190562e-01,0.000000000000000000e+00
7.360000000000000000e+02,1.650195744726252745e-01,0.000000000000000000e+00
7.370000000000000000e+02,1.105550436735863451e-01,0.000000000000000000e+00
7.380000000000000000e+02,1.201425296257149500e-01,0.000000000000000000e+00
7.390000000000000000e+02,3.919771253065046368e-02,0.000000000000000000e+00
7.400000000000000000e+02,6.542830536519707307e-02,0.000000000000000000e+00
7.410000000000000000e+02,4.531850267256159331e-02,0.000000000000000000e+00
7.420000000000000000e+02,7.951271798187216355e-02,0.000000000000000000e+00
7.430000000000000000e+02,8.890973643469750332e-02,0.000000000000000000e+00
7.440000000000000000e+02,5.682761365130850617e-02,0.000000000000000000e+00
7.450000000000000000e+02,1.243755693637273174e-01,0.000000000000000000e+00
7.460000000000000000e+02,3.826519063863854431e+00,0.000000000000000000e+00
7.470000000000000000e+02,2.329350357162322638e+00,1.000000000000000000e+00
7.480000000000000000e+02,-6.829232070411626054e-01,0.000000000000000000e+00
7.490000000000000000e+02,-9.282861525589901630e-01,0.000000000000000000e+00
7.500000000000000000e+02,-9.322489326931551190e-01,0.000000000000000000e+00
7.510000000000000000e+02,-9.569833330250384629e-01,0.000000000000000000e+00
7.520000000000000000e+02,-8.671307887047137175e-01,0.000000000000000000e+00
7.530000000000000000e+02,-6.533769193551096643e-01,0.000000000000000000e+00
7.540000000000000000e+02,-8.374171822994918024e-01,0.000000000000000000e+00
7.550000000000000000e+02,-5.697276252767324856e-01,0.000000000000000000e+00
7.560000000000000000e+02,-6.332419191646009304e-01,0.000000000000000000e+00
7.570000000000000000e+02,-3.810339209634216462e-01,0.000000000000000000e+00
7.580000000000000000e+02,-3.455339000578767639e-01,0.000000000000000000e+00
7.590000000000000000e+02,-4.582100462845942190e-01,0.000000000000000000e+00
7.600000000000000000e+02,-1.154426925168807044e-01,0.000000000000000000e+00
7.610000000000000000e+02,-1.086992157858757274e-01,0.000000000000000000e+00
7.620000000000000000e+02,4.884617465796178143e-02,0.000000000000000000e+00
7.630000000000000000e+02,1.011376158503898143e-01,0.000000000000000000e+00
7.640000000000000000e+02,1.716906853487692730e-01,0.000000000000000000e+00
7.650000000000000000e+02,2.223446998515643883e-02,0.000000000000000000e+00
7.660000000000000000e+02,-1.485427690183844518e-01,0.000000000000000000e+00
7.670000000000000000e+02,-4.373284092941372159e-02,0.000000000000000000e+00
7.680000000000000000e+02,-2.797990216720863677e-01,0.000000000000000000e+00
7.690000000000000000e+02,-1.050602490195862854e-01,0.000000000000000000e+00
7.700000000000000000e+02,-1.510477897043795703e-01,0.000000000000000000e+00
7.710000000000000000e+02,-2.191902385623091809e-01,0.000000000000000000e+00
7.720000000000000000e+02,-1.738412271956362443e-01,0.000000000000000000e+00
7.730000000000000000e+02,-1.168366291361776638e-01,0.000000000000000000e+00
7.740000000000000000e+02,-8.511324972767483898e-02,0.000000000000000000e+00
7.750000000000000000e+02,-2.177217899580448923e-01,0.000000000000000000e+00
7.760000000000000000e+02,-5.958270902266337571e-02,0.000000000000000000e+00
7.770000000000000000e+02,2.206799976229679994e-02,0.000000000000000000e+00
7.780000000000000000e+02,-9.641837773516269416e-02,0.000000000000000000e+00
7.790000000000000000e+02,3.169678500449640834e-02,0.000000000000000000e+00
7.800000000000000000e+02,-3.686834917058962741e-02,0.000000000000000000e+00
7.810000000000000000e+02,4.668046691071797011e-02,0.000000000000000000e+00
7.820000000000000000e+02,8.208280526452407799e-03,0.000000000000000000e+00
7.830000000000000000e+02,1.114633490577933948e-02,0.000000000000000000e+00
7.840000000000000000e+02,-6.042244523816189643e-03,0.000000000000000000e+00
7.850000000000000000e+02,2.879431766129500470e-02,0.000000000000000000e+00
7.860000000000000000e+02,2.177542187185406153e-01,0.000000000000000000e+00
7.870000000000000000e+02,2.435455697430165614e-02,0.000000000000000000e+00
7.880000000000000000e+02,1.324844888551594824e-01,0.000000000000000000e+00
7.890000000000000000e+02,2.561403257403149780e-01,0.000000000000000000e+00
7.900000000000000000e+02,2.075266863110542259e-01,0.000000000000000000e+00
7.910000000000000000e+02,1.454380075225171487e-01,0.000000000000000000e+00
7.920000000000000000e+02,9.410039961981371548e-02,0.000000000000000000e+00
7.930000000000000000e+02,-1.125757742741524681e-02,0.000000000000000000e+00
7.940000000000000000e+02,1.194551024970695735e-01,0.000000000000000000e+00
7.950000000000000000e+02,4.212495544413420029e-02,0.000000000000000000e+00
7.960000000000000000e+02,8.597561598190910093e-02,0.000000000000000000e+00
7.970000000000000000e+02,8.050689285482580046e-03,0.000000000000000000e+00
7.980000000000000000e+02,1.759260851949773496e-01,0.000000000000000000e+00
7.990000000000000000e+02,-6.081856980574328053e-02,0.000000000000000000e+00
8.000000000000000000e+02,5.527812024961072934e-01,0.000000000000000000e+00
8.010000000000000000e+02,4.272620053566115850e+00,0.000000000000000000e+00
8.020000000000000000e+02,2.476782864301162235e+00,1.000000000000000000e+00
8.030000000000000000e+02,-3.762777352343386061e-01,0.000000000000000000e+00
8.040000000000000000e+02,-1.043806828501270934e+00,0.000000000000000000e+00
8.050000000000000000e+02,-8.023828165154184289e-01,0.000000000000000000e+00
8.060000000000000000e+02,-7.512201313406209335e-01,0.000000000000000000e+00
8.070000000000000000e+02,-7.493993394797552332e-01,0.000000000000000000e+00
8.080000000000000000e+02,-6.518311169270072369e-01,0.000000000000000000e+00
8.090000000000000000e+02,-6.196844911670914557e-01,0.000000000000000000e+00
8.100000000000000000e+02,-6.190716207584777697e-01,0.000000000000000000e+00
8.110000000000000000e+02,-4.995257064826731930e-01,0.000000000000000000e+00
8.120000000000000000e+02,-4.758853219325111517e-01,0.000000000000000000e+00
8.130000000000000000e+02,-3.822035908654531910e-01,0.000000000000000000e+00
8.140000000000000000e+02,-2.080130019751969539e-01,0.000000000000000000e+00
8.150000000000000000e+02,-2.411608380583373512e-01,0.000000000000000000e+00
8.160000000000000000e+02,-6.234647343929507896e-02,0.000000000000000000e+00
8.170000000000000000e+02,5.058983983439920007e-02,0.000000000000000000e+00
8.180000000000000000e+02,1.458894175142340099e-01,0.000000000000000000e+00
8.190000000000000000e+02,1.759945002853160467e-01,0.000000000000000000e+00
8.200000000000000000e+02,1.379322640941260669e-01,0.000000000000000000e+00
8.210000000000000000e+02,-1.010429460545936575e-01,0.000000000000000000e+00
8.220000000000000000e+02,-3.064919675853815337e-03,0.000000000000000000e+00
8.230000000000000000e+02,-1.515418759071381627e-01,0.000000000000000000e+00
8.240000000000000000e+02,-4.761050440917496268e-02,0.000000000000000000e+00
8.250000000000000000e+02,-7.364710976387080221e-02,0.000000000000000000e+00
8.260000000000000000e+02,-1.587659115877943991e-02,0.000000000000000000e+00
8.270000000000000000e+02,-5.170159661616895164e-02,0.000000000000000000e+00
8.280000000000000000e+02,-5.764222565365065276e-02,0.000000000000000000e+00
8.290000000000000000e+02,-5.404996678016001782e-02,0.000000000000000000e+00
8.300000000000000000e+02,1.363289888280037367e-02,0.000000000000000000e+00
8.310000000000000000e+02,-5.163454682489897196e-02,0.000000000000000000e+00
8.320000000000000000e+02,-4.568425532538741840e-02,0.000000000000000000e+00
8.330000000000000000e+02,-3.685660294584477970e-02,0.000000000000000000e+00
8.340000000000000000e+02,2.198769276509010204e-02,0.000000000000000000e+00
8.350000000000000000e+02,-2.723531079053976775e-02,0.000000000000000000e+00
8.360000000000000000e+02,2.335634857409191745e-01,0.000000000000000000e+00
8.370000000000000000e+02,-1.077262485827009258e-01,0.000000000000000000e+00
8.380000000000000000e+02,7.064586852292333019e-02,0.000000000000000000e+00
8.390000000000000000e+02,1.353394248297568325e-01,0.000000000000000000e+00
8.400000000000000000e+02,7.891252547160182429e-02,0.000000000000000000e+00
8.410000000000000000e+02,1.968764124075572108e-01,0.000000000000000000e+00
8.420000000000000000e+02,4.171713237782178479e-02,0.000000000000000000e+00
8.430000000000000000e+02,1.938780246398541796e-01,0.000000000000000000e+00
8.440000000000000000e+02,1.520000808895840272e-01,0.000000000000000000e+00
8.450000000000000000e+02,3.585550309333548902e-01,0.000000000000000000e+00
8.460000000000000000e+02,1.151363797355774710e-01,0.000000000000000000e+00
8.470000000000000000e+02,1.963759143685694097e-01,0.000000000000000000e+00
8.480000000000000000e+02,4.296716770876033570e-02,0.000000000000000000e+00
8.490000000000000000e+02,-6.547820020266836849e-02,0.000000000000000000e+00
8.500000000000000000e+02,1.149000814853295416e-01,0.000000000000000000e+00
8.510000000000000000e+02,-9.743761083012457413e-02,0.000000000000000000e+00
8.520000000000000000e+02,-2.160800022494792708e-02,0.000000000000000000e+00
8.530000000000000000e+02,-2.642136209150895351e-02,0.000000000000000000e+00
8.540000000000000000e+02,9.451279583685118224e-02,0.000000000000000000e+00
8.550000000000000000e+02,-3.619722411305174026e-01,0.000000000000000000e+00
8.560000000000000000e+02,2.031207890549196815e+00,0.000000000000000000e+00
8.570000000000000000e+02,4.195648886382314480e+00,0.000000000000000000e+00
8.580000000000000000e+02,6.318161545416778324e-01,1.000000000000000000e+00
8.590000000000000000e+02,-1.040668835545864646e+00,0.000000000000000000e+00
8.600000000000000000e+02,-9.986547753697384566e-01,0.000000000000000000e+00
8.610000000000000000e+02,-1.102962999569367941e+00,0.000000000000000000e+00
8.620000000000000000e+02,-9.154988916303119506e-01,0.000000000000000000e+00
8.630000000000000000e+02,-7.990663930076435939e-01,0.000000000000000000e+00
8.640000000000000000e+02,-9.067516719319494989e-01,0.000000000000000000e+00
8.650000000000000000e+02,-6.068195209065094797e-01,0.000000000000000000e+00
8.660000000000000000e+02,-7.281242667809612046e-01,0.000000000000000000e+00
8.670000000000000000e+02,-4.935026789834067174e-01,0.000000000000000000e+00
8.680000000000000000e+02,-4.642546272259501228e-01,0.000000000000000000e+00
8.690000000000000000e+02,-3.874964294183370628e-01,0.000000000000000000e+00
8.700000000000000000e+02,-2.797616878045381950e-01,0.000000000000000000e+00
8.710000000000000000e+02,-9.517320927409099462e-02,0.000000000000000000e+00
8.720000000000000000e+02,-1.403359908385830024e-01,0.000000000000000000e+00
8.730000000000000000e+02,1.769139342972858575e-01,0.000000000000000000e+00
8.740000000000000000e+02,4.004673543968796656e-02,0.000000000000000000e+00
8.750000000000000000e+02,1.987473955171099871e-01,0.000000000000000000e+00
8.760000000000000000e+02,2.501135103264211235e-02,0.000000000000000000e+00
8.770000000000000000e+02,-1.357958082809179734e-01,0.000000000000000000e+00
8.780000000000000000e+02,-5.587705045958259870e-02,0.000000000000000000e+00
8.790000000000000000e+02,-1.319730852150575728e-01,0.000000000000000000e+00
8.800000000000000000e+02,-7.201560011680312179e-02,0.000000000000000000e+00
8.810000000000000000e+02,-5.486466174674696494e-02,0.000000000000000000e+00
8.820000000000000000e+02,-1.500403119575693667e-01,0.000000000000000000e+00
8.830000000000000000e+02,7.758333625218064022e-02,0.000000000000000000e+00
8.840000000000000000e+02,-1.188003548289549710e-01,0.000000000000000000e+00
8.850000000000000000e+02,-3.355098287753378178e-02,0.000000000000000000e+00
8.860000000000000000e+02,-1.646215556542157121e-01,0.000000000000000000e+00
8.870000000000000000e+02,2.113864574987217582e-02,0.000000000000000000e+00
8.880000000000000000e+02,-2.380157087778381197e-02,0.000000000000000000e+00
8.890000000000000000e+02,2.321433282793587335e-02,0.000000000000000000e+00
8.900000000000000000e+02,1.483680214031296574e-02,0.000000000000000000e+00
8.910000000000000000e+02,-8.899892057238841664e-03,0.000000000000000000e+00
8.920000000000000000e+02,7.175363622512007794e-03,0.000000000000000000e+00
8.930000000000000000e+02,8.761252709045096176e-02,0.000000000000000000e+00
8.940000000000000000e+02,8.598082280615165773e-02,0.000000000000000000e+00
8.950000000000000000e+02,1.488412689246162469e-02,0.000000000000000000e+00
8.960000000000000000e+02,1.396784475127675097e-02,0.000000000000000000e+00
8.970000000000000000e+02,1.434112124675320510e-01,0.000000000000000000e+00
8.980000000000000000e+02,4.984231245646496278e-02,0.000000000000000000e+00
8.990000000000000000e+02,1.325538067049214508e-01,0.000000000000000000e+00
9.000000000000000000e+02,1.391460714413502164e-01,0.000000000000000000e+00
9.010000000000000000e+02,2.777784923791341010e-01,0.000000000000000000e+00
9.020000000000000000e+02,2.802955310283320456e-01,0.000000000000000000e+00
9.030000000000000000e+02,2.368319357205141418e-01,0.000000000000000000e+00
9.040000000000000000e+02,9.293427196621160957e-02,0.000000000000000000e+00
9.050000000000000000e+02,8.123222835983523113e-03,0.000000000000000000e+00
9.060000000000000000e+02,2.702520284297388331e-02,0.000000000000000000e+00
9.070000000000000000e+02,-3.694660662807290608e-02,0.000000000000000000e+00
9.080000000000000000e+02,9.675850148485214131e-02,0.000000000000000000e+00
9.090000000000000000e+02,-7.591198049634481811e-03,0.000000000000000000e+00
9.100000000000000000e+02,1.124520492360958357e-01,0.000000000000000000e+00
9.110000000000000000e+02,-1.586919727074367348e-01,0.000000000000000000e+00
9.120000000000000000e+02,8.208511835431094861e-01,0.000000000000000000e+00
9.130000000000000000e+02,4.508073007389515219e+00,0.000000000000000000e+00
9.140000000000000000e+02,1.896971901377668468e+00,1.000000000000000000e+00
9.150000000000000000e+02,-8.046932263049589862e-01,0.000000000000000000e+00
9.160000000000000000e+02,-9.946863974081573412e-01,0.000000000000000000e+00
9.170000000000000000e+02,-8.762203111180849602e-01,0.000000000000000000e+00
9.180000000000000000e+02,-9.273366894627286250e-01,0.000000000000000000e+00
9.190000000000000000e+02,-8.211591798547667187e-01,0.000000000000000000e+00
9.200000000000000000e+02,-6.270286843174057712e-01,0.000000000000000000e+00
9.210000000000000000e+02,-7.758986175623298065e-01,0.000000000000000000e+00
9.220000000000000000e+02,-5.320098495061441612e-01,0.000000000000000000e+00
9.230000000000000000e+02,-5.723382091691816553e-01,0.000000000000000000e+00
9.240000000000000000e+02,-4.336365836701531751e-01,0.000000000000000000e+00
9.250000000000000000e+02,-4.753776874345226333e-01,0.000000000000000000e+00
9.260000000000000000e+02,-2.306768287389092675e-01,0.000000000000000000e+00
9.270000000000000000e+02,-2.729869029641103784e-01,0.000000000000000000e+00
9.280000000000000000e+02,5.638455759053419281e-02,0.000000000000000000e+00
9.290000000000000000e+02,1.464199727821565433e-01,0.000000000000000000e+00
9.300000000000000000e+02,2.248403412162739146e-01,0.000000000000000000e+00
9.310000000000000000e+02,2.024603350355158315e-01,0.000000000000000000e+00
9.320000000000000000e+02,1.373527179721382718e-01,0.000000000000000000e+00
9.330000000000000000e+02,-3.584419178976331471e-02,0.000000000000000000e+00
9.340000000000000000e+02,1.139624889068842489e-01,0.000000000000000000e+00
9.350000000000000000e+02,-4.906406775317440766e-02,0.000000000000000000e+00
9.360000000000000000e+02,9.102146296255814173e-02,0.000000000000000000e+00
9.370000000000000000e+02,-7.593249602644698559e-02,0.000000000000000000e+00
9.380000000000000000e+02,2.740067533889820744e-02,0.000000000000000000e+00
9.390000000000000000e+02,-6.079083548381723767e-02,0.000000000000000000e+00
9.400000000000000000e+02,-4.537143201124833186e-02,0.000000000000000000e+00
9.410000000000000000e+02,-1.691723620764709266e-02,0.000000000000000000e+00
9.420000000000000000e+02,-4.504968854701742187e-02,0.000000000000000000e+00
9.430000000000000000e+02,-9.172820602290789049e-02,0.000000000000000000e+00
9.440000000000000000e+02,-4.358037820706109344e-02,0.000000000000000000e+00
9.450000000000000000e+02,2.118769892477663508e-02,0.000000000000000000e+00
9.460000000000000000e+02,-1.884176397627432969e-02,0.000000000000000000e+00
9.470000000000000000e+02,1.071734869761446773e-01,0.000000000000000000e+00
9.480000000000000000e+02,8.321113570092038281e-02,0.000000000000000000e+00
9.490000000000000000e+02,1.179378393984553824e-01,0.000000000000000000e+00
9.500000000000000000e+02,1.180085368157772069e-01,0.000000000000000000e+00
9.510000000000000000e+02,2.726752812418594685e-01,0.000000000000000000e+00
9.520000000000000000e+02,1.635291809024806003e-02,0.000000000000000000e+00
9.530000000000000000e+02,1.704484120549110415e-01,0.000000000000000000e+00
9.540000000000000000e+02,1.669412621520589002e-01,0.000000000000000000e+00
9.550000000000000000e+02,1.807465469360013954e-01,0.000000000000000000e+00
9.560000000000000000e+02,1.752136187789244681e-01,0.000000000000000000e+00
9.570000000000000000e+02,2.411773663875321494e-01,0.000000000000000000e+00
9.580000000000000000e+02,1.909419974725198033e-01,0.000000000000000000e+00
9.590000000000000000e+02,2.542583804244236134e-02,0.000000000000000000e+00
9.600000000000000000e+02,-6.269899791354440963e-03,0.000000000000000000e+00
9.610000000000000000e+02,-6.410100799308179886e-02,0.000000000000000000e+00
9.620000000000000000e+02,-1.308333405045725498e-02,0.000000000000000000e+00
9.630000000000000000e+02,-7.264995733648589582e-02,0.000000000000000000e+00
9.640000000000000000e+02,-2.280876455365865585e-02,0.000000000000000000e+00
9.650000000000000000e+02,-1.996930175052538670e-01,0.000000000000000000e+00
9.660000000000000000e+02,-1.788075500486093483e-01,0.000000000000000000e+00
9.670000000000000000e+02,4.184252874147833395e-03,0.000000000000000000e+00
9.680000000000000000e+02,3.189059204901240285e+00,0.000000000000000000e+00
9.690000000000000000e+02,2.425064302048584253e+00,1.000000000000000000e+00
9.700000000000000000e+02,-5.687775106789446644e-01,0.000000000000000000e+00
9.710000000000000000e+02,-9.262403718104863515e-01,0.000000000000000000e+00
9.720000000000000000e+02,-8.444097726863138975e-01,0.000000000000000000e+00
9.730000000000000000e+02,-6.393998671690314106e-01,0.000000000000000000e+00
9.740000000000000000e+02,-6.880065662292664808e-01,0.000000000000000000e+00
9.750000000000000000e+02,-5.836982863251964915e-01,0.000000000000000000e+00
9.760000000000000000e+02,-5.677547193386992541e-01,0.000000000000000000e+00
9.770000000000000000e+02,-5.512966118184554620e-01,0.000000000000000000e+00
9.780000000000000000e+02,-3.431596361831699138e-01,0.000000000000000000e+00
9.790000000000000000e+02,-5.039825924288993120e-01,0.000000000000000000e+00
9.800000000000000000e+02,-3.596678700583098021e-01,0.000000000000000000e+00
9.810000000000000000e+02,-3.130282891015604974e-01,0.000000000000000000e+00
9.820000000000000000e+02,-1.709926680139236405e-02,0.000000000000000000e+00
9.830000000000000000e+02,-1.967940299723487108e-01,0.000000000000000000e+00
9.840000000000000000e+02,2.489608997652884570e-01,0.000000000000000000e+00
9.850000000000000000e+02,2.104083682521184495e-01,0.000000000000000000e+00
9.860000000000000000e+02,1.301661043402930207e-01,0.000000000000000000e+00
9.870000000000000000e+02,1.294385339148153846e-01,0.000000000000000000e+00
9.880000000000000000e+02,-1.214610470619110899e-01,0.000000000000000000e+00
9.890000000000000000e+02,-1.739248977387329587e-01,0.000000000000000000e+00
9.900000000000000000e+02,-1.095455801081346298e-01,0.000000000000000000e+00
9.910000000000000000e+02,-4.804899165164595171e-02,0.000000000000000000e+00
9.920000000000000000e+02,-1.996143187570813549e-01,0.000000000000000000e+00
9.930000000000000000e+02,-3.064348438756830245e-02,0.000000000000000000e+00
9.940000000000000000e+02,-5.782101604762829306e-02,0.000000000000000000e+00
9.950000000000000000e+02,-1.467929769707288223e-01,0.000000000000000000e+00
9.960000000000000000e+02,-6.373414892869636028e-02,0.000000000000000000e+00
9.970000000000000000e+02,-8.449932930769872910e-03,0.000000000000000000e+00
9.980000000000000000e+02,1.915002779128591182e-02,0.000000000000000000e+00
9.990000000000000000e+02,-2.306488470488215342e-02,0.000000000000000000e+00
1.000000000000000000e+03,-4.276930755697238434e-02,0.000000000000000000e+00
1.001000000000000000e+03,-7.787848742100740573e-02,0.000000000000000000e+00
1.002000000000000000e+03,-3.582362957660530089e-02,0.000000000000000000e+00
1.003000000000000000e+03,-8.420848012551711281e-02,0.000000000000000000e+00
1.004000000000000000e+03,5.330639549942151056e-02,0.000000000000000000e+00
1.005000000000000000e+03,-2.799975252695224848e-02,0.000000000000000000e+00
1.006000000000000000e+03,-4.602021704367093707e-02,0.000000000000000000e+00
1.007000000000000000e+03,1.420250039110373119e-01,0.000000000000000000e+00
1.008000000000000000e+03,4.970880755376167652e-04,0.000000000000000000e+00
1.009000000000000000e+03,9.547817931073930564e-02,0.000000000000000000e+00
1.010000000000000000e+03,2.348686992453685451e-01,0.000000000000000000e+00
1.011000000000000000e+03,2.363309423138796883e-01,0.000000000000000000e+00
1.012000000000000000e+03,2.751133255204878947e-01,0.000000000000000000e+00
1.013000000000000000e+03,1.526897726303277081e-01,0.000000000000000000e+00
1.014000000000000000e+03,-8.996969496155006463e-03,0.000000000000000000e+00
1.015000000000000000e+03,1.523943862946569236e-02,0.000000000000000000e+00
1.016000000000000000e+03,7.454956088097756950e-02,0.000000000000000000e+00
1.017000000000000000e+03,1.753367662695780316e-02,0.000000000000000000e+00
1.018000000000000000e+03,1.209933173490658626e-01,0.000000000000000000e+00
1.019000000000000000e+03,-7.441738295270963754e-02,0.000000000000000000e+00
1.020000000000000000e+03,1.854272968082133488e-01,0.000000000000000000e+00
1.021000000000000000e+03,-2.968087703792238741e-01,0.000000000000000000e+00
1.022000000000000000e+03,2.504918059551879850e+00,0.000000000000000000e+00
1.023000000000000000e+03,3.790923550691041921e+00,0.000000000000000000e+00
1.024000000000000000e+03,3.120797433531716791e-01,1.000000000000000000e+00
1.025000000000000000e+03,-7.207926217864127905e-01,0.000000000000000000e+00
1.026000000000000000e+03,-1.015724901408842085e+00,0.000000000000000000e+00
1.027000000000000000e+03,-7.862857996506038560e-01,0.000000000000000000e+00
1.028000000000000000e+03,-7.782482298098880591e-01,0.000000000000000000e+00
1.029000000000000000e+03,-6.209762234375929557e-01,0.000000000000000000e+00
1.030000000000000000e+03,-7.363542294454306081e-01,0.000000000000000000e+00
1.031000000000000000e+03,-4.636345151951837273e-01,0.000000000000000000e+00
1.032000000000000000e+03,-6.466380300832913486e-01,0.000000000000000000e+00
1.033000000000000000e+03,-3.915053166761773284e-01,0.000000000000000000e+00
1.034000000000000000e+03,-3.537361831881638552e-01,0.000000000000000000e+00
1.035000000000000000e+03,-2.701269951958327753e-01,0.000000000000000000e+00
1.036000000000000000e+03,-2.384110235859976668e-01,0.000000000000000000e+00
1.037000000000000000e+03,-1.553188733622379997e-02,0.000000000000000000e+00
1.038000000000000000e+03,-3.497116670106671654e-02,0.000000000000000000e+00
1.039000000000000000e+03,1.936614388551487764e-01,0.000000000000000000e+00
1.040000000000000000e+03,2.810003411018041075e-01,0.000000000000000000e+00
1.041000000000000000e+03,4.195756540353534625e-02,0.000000000000000000e+00
1.042000000000000000e+03,1.219193104141709783e-01,0.000000000000000000e+00
1.043000000000000000e+03,-1.242416909037143968e-01,0.000000000000000000e+00
1.044000000000000000e+03,-1.288706540138611079e-01,0.000000000000000000e+00
1.045000000000000000e+03,2.254889216749777353e-02,0.000000000000000000e+00
1.046000000000000000e+03,-4.831746076759992070e-02,0.000000000000000000e+00
1.047000000000000000e+03,3.239884591898622990e-02,0.000000000000000000e+00
1.048000000000000000e+03,-5.299488658082092407e-02,0.000000000000000000e+00
1.049000000000000000e+03,-4.486912641331013141e-02,0.000000000000000000e+00
1.050000000000000000e+03,-2.153735481809824007e-02,0.000000000000000000e+00
1.051000000000000000e+03,-7.609664460411103004e-02,0.000000000000000000e+00
1.052000000000000000e+03,-4.234691038989237682e-02,0.000000000000000000e+00
1.053000000000000000e+03,-1.631711366315495571e-02,0.000000000000000000e+00
1.054000000000000000e+03,4.081291434706644378e-02,0.000000000000000000e+00
1.055000000000000000e+03,7.031453903394291327e-02,0.000000000000000000e+00
1.056000000000000000e+03,-1.225160941212897342e-01,0.000000000000000000e+00
1.057000000000000000e+03,1.158653654240833081e-01,0.000000000000000000e+00
1.058000000000000000e+03,2.878138171272391979e-02,0.000000000000000000e+00
1.059000000000000000e+03,1.391600871970243292e-01,0.000000000000000000e+00
1.060000000000000000e+03,1.548228174764555432e-01,0.000000000000000000e+00
1.061000000000000000e+03,2.458138651188890994e-02,0.000000000000000000e+00
1.062000000000000000e+03,1.481858720673497054e-01,0.000000000000000000e+00
1.063000000000000000e+03,8.361559273805556358e-02,0.000000000000000000e+00
1.064000000000000000e+03,1.051368272291588052e-01,0.000000000000000000e+00
1.065000000000000000e+03,1.417370873726855607e-01,0.000000000000000000e+00
1.066000000000000000e+03,2.317845490840519385e-01,0.000000000000000000e+00
1.067000000000000000e+03,1.880630877518540967e-01,0.000000000000000000e+00
1.068000000000000000e+03,3.181989892195523639e-01,0.000000000000000000e+00
1.069000000000000000e+03,1.201998001748529193e-01,0.000000000000000000e+00
1.070000000000000000e+03,-9.961197966537066462e-02,0.000000000000000000e+00
1.071000000000000000e+03,-7.192661839546045897e-03,0.000000000000000000e+00
1.072000000000000000e+03,1.362750044563292573e-01,0.000000000000000000e+00
1.073000000000000000e+03,-1.921264929207241734e-01,0.000000000000000000e+00
1.074000000000000000e+03,1.632478388604554631e-01,0.000000000000000000e+00
1.075000000000000000e+03,-1.558703520468656956e-01,0.000000000000000000e+00
1.076000000000000000e+03,1.830879534927820629e-01,0.000000000000000000e+00
1.077000000000000000e+03,-4.137361000901257913e-01,0.000000000000000000e+00
1.078000000000000000e+03,2.032923445934462059e+00,0.000000000000000000e+00
1.079000000000000000e+03,4.206618112005847898e+00,0.000000000000000000e+00
1.080000000000000000e+03,7.156401952030032598e-01,1.000000000000000000e+00
1.081000000000000000e+03,-1.037384321754338590e+00,0.000000000000000000e+00
1.082000000000000000e+03,-1.156972073274152635e+00,0.000000000000000000e+00
1.083000000000000000e+03,-9.024073946211930153e-01,0.000000000000000000e+00
1.084000000000000000e+03,-8.953275579798127826e-01,0.000000000000000000e+00
1.085000000000000000e+03,-8.599101379832732039e-01,0.000000000000000000e+00
1.086000000000000000e+03,-9.518195941060755283e-01,0.000000000000000000e+00
1.087000000000000000e+03,-6.873178189923602188e-01,0.000000000000000000e+00
1.088000000000000000e+03,-6.591461987573248305e-01,0.000000000000000000e+00
1.089000000000000000e+03,-5.667313034793649562e-01,0.000000000000000000e+00
1.090000000000000000e+03,-4.762373883461222812e-01,0.000000000000000000e+00
1.091000000000000000e+03,-4.117272061340154776e-01,0.000000000000000000e+00
1.092000000000000000e+03,-2.918449529838180179e-01,0.000000000000000000e+00
1.093000000000000000e+03,-1.834018776953577901e-01,0.000000000000000000e+00
1.094000000000000000e+03,5.282299579777254700e-03,0.000000000000000000e+00
1.095000000000000000e+03,4.128003924614617737e-02,0.000000000000000000e+00
1.096000000000000000e+03,1.962624247423930823e-01,0.000000000000000000e+00
1.097000000000000000e+03,1.576413270415549517e-01,0.000000000000000000e+00
1.098000000000000000e+03,-7.752362584689967417e-02,0.000000000000000000e+00
1.099000000000000000e+03,1.495835924609026889e-02,0.000000000000000000e+00
1.100000000000000000e+03,-2.264595361575854893e-01,0.000000000000000000e+00
1.101000000000000000e+03,-3.371211273204725162e-02,0.000000000000000000e+00
1.102000000000000000e+03,-6.645571583604281685e-02,0.000000000000000000e+00
1.103000000000000000e+03,3.401167267422560564e-02,0.000000000000000000e+00
1.104000000000000000e+03,-1.333233645623087549e-01,0.000000000000000000e+00
1.105000000000000000e+03,2.160376279230540389e-02,0.000000000000000000e+00
1.106000000000000000e+03,-3.473432800053895264e-02,0.000000000000000000e+00
1.107000000000000000e+03,-9.277352974896842241e-02,0.000000000000000000e+00
1.108000000000000000e+03,7.347285671636592103e-03,0.000000000000000000e+00
1.109000000000000000e+03,-4.607602463414765814e-02,0.000000000000000000e+00
1.110000000000000000e+03,-9.510884291998823736e-02,0.000000000000000000e+00
1.111000000000000000e+03,5.974232059418369684e-02,0.000000000000000000e+00
1.112000000000000000e+03,-4.408074571300087639e-03,0.000000000000000000e+00
1.113000000000000000e+03,1.226347306234041729e-01,0.000000000000000000e+00
1.114000000000000000e+03,2.239495414520451325e-02,0.000000000000000000e+00
1.115000000000000000e+03,7.390867345091291229e-02,0.000000000000000000e+00
1.116000000000000000e+03,1.656074139187495298e-02,0.000000000000000000e+00
1.117000000000000000e+03,9.497568147025492458e-02,0.000000000000000000e+00
1.118000000000000000e+03,1.495445552733639660e-01,0.000000000000000000e+00
1.119000000000000000e+03,1.458526528429131275e-01,0.000000000000000000e+00
1.120000000000000000e+03,9.019175986716063131e-02,0.000000000000000000e+00
1.121000000000000000e+03,7.192607444652907023e-02,0.000000000000000000e+00
1.122000000000000000e+03,1.820179738154466265e-01,0.000000000000000000e+00
1.123000000000000000e+03,2.509859536120406243e-01,0.000000000000000000e+00
1.124000000000000000e+03,3.088047206892058361e-01,0.000000000000000000e+00
1.125000000000000000e+03,2.772816286381151185e-01,0.000000000000000000e+00
1.126000000000000000e+03,4.657576414639913454e-02,0.000000000000000000e+00
1.127000000000000000e+03,1.574430423664322787e-01,0.000000000000000000e+00
1.128000000000000000e+03,-4.415509891684329252e-02,0.000000000000000000e+00
1.129000000000000000e+03,1.412653061402502908e-01,0.000000000000000000e+00
1.130000000000000000e+03,-8.651437613887241751e-02,0.000000000000000000e+00
1.131000000000000000e+03,1.067008371795479249e-01,0.000000000000000000e+00
1.132000000000000000e+03,-1.392797715964926297e-01,0.000000000000000000e+00
1.133000000000000000e+03,1.594957461703347956e-01,0.000000000000000000e+00
1.134000000000000000e+03,-4.215156888516321532e-01,0.000000000000000000e+00
1.135000000000000000e+03,2.551888578036554112e+00,0.000000000000000000e+00
1.136000000000000000e+03,4.102941320423448168e+00,0.000000000000000000e+00
1.137000000000000000e+03,2.981599790664118954e-01,1.000000000000000000e+00
1.138000000000000000e+03,-8.743423235592657772e-01,0.000000000000000000e+00
1.139000000000000000e+03,-1.184354778975662326e+00,0.000000000000000000e+00
1.140000000000000000e+03,-9.360883832151988271e-01,0.000000000000000000e+00
1.141000000000000000e+03,-8.045201902995284815e-01,0.000000000000000000e+00
1.142000000000000000e+03,-9.201462545615892719e-01,0.000000000000000000e+00
1.143000000000000000e+03,-7.045531171402229509e-01,0.000000000000000000e+00
1.144000000000000000e+03,-6.467712414583118852e-01,0.000000000000000000e+00
1.145000000000000000e+03,-6.448758728773938964e-01,0.000000000000000000e+00
1.146000000000000000e+03,-5.439109551865879411e-01,0.000000000000000000e+00
1.147000000000000000e+03,-5.084574196582191119e-01,0.000000000000000000e+00
1.148000000000000000e+03,-4.046454785626501516e-01,0.000000000000000000e+00
1.149000000000000000e+03,-2.049591337330241014e-01,0.000000000000000000e+00
1.150000000000000000e+03,-1.653437178839622379e-01,0.000000000000000000e+00
1.151000000000000000e+03,7.133510635681693940e-03,0.000000000000000000e+00
1.152000000000000000e+03,1.602369198261997807e-01,0.000000000000000000e+00
1.153000000000000000e+03,1.771565976050451241e-01,0.000000000000000000e+00
1.154000000000000000e+03,2.433504664988318522e-01,0.000000000000000000e+00
1.155000000000000000e+03,4.067049706677445392e-03,0.000000000000000000e+00
1.156000000000000000e+03,1.309203330062137273e-02,0.000000000000000000e+00
1.157000000000000000e+03,3.443796440792457926e-03,0.000000000000000000e+00
1.158000000000000000e+03,3.786244561277248011e-02,0.000000000000000000e+00
1.159000000000000000e+03,-4.248184186437068549e-02,0.000000000000000000e+00
1.160000000000000000e+03,-1.866479932906701597e-02,0.000000000000000000e+00
1.161000000000000000e+03,-1.541015441013137040e-02,0.000000000000000000e+00
1.162000000000000000e+03,-5.558637143036350425e-02,0.000000000000000000e+00
1.163000000000000000e+03,-5.175638246515604224e-02,0.000000000000000000e+00
1.164000000000000000e+03,-2.979552108072234737e-02,0.000000000000000000e+00
1.165000000000000000e+03,-1.421323397851835812e-01,0.000000000000000000e+00
1.166000000000000000e+03,-2.572013102751327662e-02,0.000000000000000000e+00
1.167000000000000000e+03,-8.069375397512087988e-02,0.000000000000000000e+00
1.168000000000000000e+03,1.350936160317410539e-01,0.000000000000000000e+00
1.169000000000000000e+03,3.707882642334749818e-02,0.000000000000000000e+00
1.170000000000000000e+03,1.057782796407998327e-01,0.000000000000000000e+00
1.171000000000000000e+03,5.174892993218905418e-02,0.000000000000000000e+00
1.172000000000000000e+03,1.255355398478937845e-01,0.000000000000000000e+00
1.173000000000000000e+03,5.850740807690028161e-02,0.000000000000000000e+00
1.174000000000000000e+03,1.498018654035710995e-01,0.000000000000000000e+00
1.175000000000000000e+03,1.175606982694504810e-01,0.000000000000000000e+00
1.176000000000000000e+03,2.005271206004683171e-01,0.000000000000000000e+00
1.177000000000000000e+03,9.193190276090494606e-02,0.000000000000000000e+00
1.178000000000000000e+03,8.760743595322122157e-02,0.000000000000000000e+00
1.179000000000000000e+03,1.652151617776288217e-01,0.000000000000000000e+00
1.180000000000000000e+03,1.686185053303883019e-01,0.000000000000000000e+00
1.181000000000000000e+03,2.281325577193138165e-01,0.000000000000000000e+00
1.182000000000000000e+03,2.446205107569744686e-01,0.000000000000000000e+00
1.183000000000000000e+03,2.078126609912343825e-01,0.000000000000000000e+00
1.184000000000000000e+03,7.960823430584315630e-02,0.000000000000000000e+00
1.185000000000000000e+03,-3.857617069483236516e-02,0.000000000000000000e+00
1.186000000000000000e+03,-7.165083954825246515e-02,0.000000000000000000e+00
1.187000000000000000e+03,3.989021122820687881e-02,0.000000000000000000e+00
1.188000000000000000e+03,5.508388804105463984e-03,0.000000000000000000e+00
1.189000000000000000e+03,-8.122302987735722721e-03,0.000000000000000000e+00
1.190000000000000000e+03,-7.391565560930758554e-03,0.000000000000000000e+00
1.191000000000000000e+03,1.376071181042066473e-02,0.000000000000000000e+00
1.192000000000000000e+03,-2.069410610884316881e-01,0.000000000000000000e+00
1.193000000000000000e+03,3.453466073526286984e+00,0.000000000000000000e+00
1.194000000000000000e+03,3.432781349621395695e+00,0.000000000000000000e+00
1.195000000000000000e+03,-4.507345752267761241e-01,1.000000000000000000e+00
1.196000000000000000e+03,-9.735421578410843324e-01,0.000000000000000000e+00
1.197000000000000000e+03,-1.154388747176251284e+00,0.000000000000000000e+00
1.198000000000000000e+03,-9.256148649107591719e-01,0.000000000000000000e+00
1.199000000000000000e+03,-8.766413177322252004e-01,0.000000000000000000e+00
1.200000000000000000e+03,-8.686269485192930073e-01,0.000000000000000000e+00
1.201000000000000000e+03,-7.446657964873970581e-01,0.000000000000000000e+00
1.202000000000000000e+03,-6.735916065474485404e-01,0.000000000000000000e+00
1.203000000000000000e+03,-6.326027512661747121e-01,0.000000000000000000e+00
1.204000000000000000e+03,-4.993669442355729848e-01,0.000000000000000000e+00
1.205000000000000000e+03,-5.502132018389798152e-01,0.000000000000000000e+00
1.206000000000000000e+03,-3.860786520250377163e-01,0.000000000000000000e+00
1.207000000000000000e+03,-1.899313931172670611e-01,0.000000000000000000e+00
1.208000000000000000e+03,-1.710867526335577982e-01,0.000000000000000000e+00
1.209000000000000000e+03,-5.265058437907381775e-03,0.000000000000000000e+00
1.210000000000000000e+03,1.174448093981411700e-01,0.000000000000000000e+00
1.211000000000000000e+03,1.860946407357329246e-01,0.000000000000000000e+00
1.212000000000000000e+03,1.393085213348991824e-01,0.000000000000000000e+00
1.213000000000000000e+03,1.917248629970548512e-02,0.000000000000000000e+00
1.214000000000000000e+03,-9.165619425759637118e-02,0.000000000000000000e+00
1.215000000000000000e+03,-1.898911915696578287e-02,0.000000000000000000e+00
1.216000000000000000e+03,-1.606470094840909552e-02,0.000000000000000000e+00
1.217000000000000000e+03,-1.191041937316751342e-01,0.000000000000000000e+00
1.218000000000000000e+03,-1.666669377067050636e-02,0.000000000000000000e+00
1.219000000000000000e+03,1.064976502359206130e-03,0.000000000000000000e+00
1.220000000000000000e+03,-8.684544816688280489e-02,0.000000000000000000e+00
1.221000000000000000e+03,-5.975321069699480320e-02,0.000000000000000000e+00
1.222000000000000000e+03,-1.284895637465283645e-02,0.000000000000000000e+00
1.223000000000000000e+03,-9.785536519194877603e-02,0.000000000000000000e+00
1.224000000000000000e+03,6.336634792735246213e-02,0.000000000000000000e+00
1.225000000000000000e+03,-1.640956615555133266e-02,0.000000000000000000e+00
1.226000000000000000e+03,7.892752684512233108e-02,0.000000000000000000e+00
1.227000000000000000e+03,6.758562930240581690e-02,0.000000000000000000e+00
1.228000000000000000e+03,7.270682162854688602e-02,0.000000000000000000e+00
1.229000000000000000e+03,1.340012890948501789e-01,0.000000000000000000e+00
1.230000000000000000e+03,7.882644198138491487e-02,0.000000000000000000e+00
1.231000000000000000e+03,2.321181901051491969e-01,0.000000000000000000e+00
1.232000000000000000e+03,8.890743983960734675e-02,0.000000000000000000e+00
1.233000000000000000e+03,7.410363037148373633e-02,0.000000000000000000e+00
1.234000000000000000e+03,1.591771668948103458e-01,0.000000000000000000e+00
1.235000000000000000e+03,1.041730936664224394e-01,0.000000000000000000e+00
1.236000000000000000e+03,1.408900474897664679e-01,0.000000000000000000e+00
1.237000000000000000e+03,1.927404817398453429e-01,0.000000000000000000e+00
1.238000000000000000e+03,1.648080770164049857e-01,0.000000000000000000e+00
1.239000000000000000e+03,2.606593588337322576e-01,0.000000000000000000e+00
1.240000000000000000e+03,2.898820291478028111e-01,0.000000000000000000e+00
1.241000000000000000e+03,2.265159929774075709e-01,0.000000000000000000e+00
1.242000000000000000e+03,9.130378518610844998e-03,0.000000000000000000e+00
1.243000000000000000e+03,1.075764448618266866e-01,0.000000000000000000e+00
1.244000000000000000e+03,1.914715356962385208e-03,0.000000000000000000e+00
1.245000000000000000e+03,1.860661792565053430e-02,0.000000000000000000e+00
1.246000000000000000e+03,1.194832666370599927e-01,0.000000000000000000e+00
1.247000000000000000e+03,3.256769666909833244e-02,0.000000000000000000e+00
1.248000000000000000e+03,1.221110724483499277e-01,0.000000000000000000e+00
1.249000000000000000e+03,-1.527147511435364424e-01,0.000000000000000000e+00
1.250000000000000000e+03,1.114049018928489287e+00,0.000000000000000000e+00
1.251000000000000000e+03,4.472454616484098366e+00,0.000000000000000000e+00
1.252000000000000000e+03,1.672428493043390363e+00,1.000000000000000000e+00
1.253000000000000000e+03,-9.565608389498623243e-01,0.000000000000000000e+00
1.254000000000000000e+03,-1.008759931560086587e+00,0.000000000000000000e+00
1.255000000000000000e+03,-1.176050684994640605e+00,0.000000000000000000e+00
1.256000000000000000e+03,-8.771821686454071010e-01,0.000000000000000000e+00
1.257000000000000000e+03,-9.703388470020561929e-01,0.000000000000000000e+00
1.258000000000000000e+03,-8.316026918832792880e-01,0.000000000000000000e+00
1.259000000000000000e+03,-8.414192072495116914e-01,0.000000000000000000e+00
1.260000000000000000e+03,-7.130950913272801062e-01,0.000000000000000000e+00
1.261000000000000000e+03,-6.395111796394165049e-01,0.000000000000000000e+00
1.262000000000000000e+03,-5.488233924276045839e-01,0.000000000000000000e+00
1.263000000000000000e+03,-4.274065528550266002e-01,0.000000000000000000e+00
1.264000000000000000e+03,-4.331299810726612076e-01,0.000000000000000000e+00
1.265000000000000000e+03,-2.944960661160566651e-01,0.000000000000000000e+00
1.266000000000000000e+03,-1.767476170027260096e-01,0.000000000000000000e+00
1.267000000000000000e+03,4.202930064940512550e-02,0.000000000000000000e+00
1.268000000000000000e+03,9.214955020068792135e-02,0.000000000000000000e+00
1.269000000000000000e+03,1.963183070534069152e-01,0.000000000000000000e+00
1.270000000000000000e+03,3.994812424097457168e-03,0.000000000000000000e+00
1.271000000000000000e+03,-2.488234892975033086e-03,0.000000000000000000e+00
1.272000000000000000e+03,-1.036897810893973731e-01,0.000000000000000000e+00
1.273000000000000000e+03,-1.377492739731037141e-01,0.000000000000000000e+00
1.274000000000000000e+03,-4.105745463641177068e-02,0.000000000000000000e+00
1.275000000000000000e+03,-3.374017467792701092e-02,0.000000000000000000e+00
1.276000000000000000e+03,-9.789611055920403870e-02,0.000000000000000000e+00
1.277000000000000000e+03,-4.435117104747012678e-02,0.000000000000000000e+00
1.278000000000000000e+03,1.352006452604856065e-02,0.000000000000000000e+00
1.279000000000000000e+03,8.263384769278401751e-03,0.000000000000000000e+00
1.280000000000000000e+03,9.134847917610636192e-02,0.000000000000000000e+00
1.281000000000000000e+03,7.689110872102945284e-03,0.000000000000000000e+00
1.282000000000000000e+03,1.701989509496786707e-02,0.000000000000000000e+00
1.283000000000000000e+03,1.953037611599945655e-01,0.000000000000000000e+00
1.284000000000000000e+03,2.220692642909572606e-02,0.000000000000000000e+00
1.285000000000000000e+03,1.260392199680939740e-01,0.000000000000000000e+00
1.286000000000000000e+03,1.719931511442095995e-01,0.000000000000000000e+00
1.287000000000000000e+03,1.302907630517498583e-01,0.000000000000000000e+00
1.288000000000000000e+03,1.625749650405150515e-01,0.000000000000000000e+00
1.289000000000000000e+03,2.112803958059021880e-01,0.000000000000000000e+00
1.290000000000000000e+03,-7.364118479788521465e-02,0.000000000000000000e+00
1.291000000000000000e+03,9.132551860615718831e-02,0.000000000000000000e+00
1.292000000000000000e+03,1.598390850270257901e-01,0.000000000000000000e+00
1.293000000000000000e+03,1.756628813361998664e-01,0.000000000000000000e+00
1.294000000000000000e+03,1.851544735634788608e-01,0.000000000000000000e+00
1.295000000000000000e+03,2.371240876853670243e-01,0.000000000000000000e+00
1.296000000000000000e+03,9.747859211502411803e-02,0.000000000000000000e+00
1.297000000000000000e+03,1.916589026379380556e-01,0.000000000000000000e+00
1.298000000000000000e+03,4.686329325591613582e-02,0.000000000000000000e+00
1.299000000000000000e+03,-7.926275855522732505e-03,0.000000000000000000e+00
1.300000000000000000e+03,1.371094235572441894e-02,0.000000000000000000e+00
1.301000000000000000e+03,-1.599175893878935703e-03,0.000000000000000000e+00
1.302000000000000000e+03,-3.286405037530585899e-03,0.000000000000000000e+00
1.303000000000000000e+03,1.807546409822200287e-02,0.000000000000000000e+00
1.304000000000000000e+03,1.994138759292402585e-01,0.000000000000000000e+00
1.305000000000000000e+03,-1.667281983781086219e-01,0.000000000000000000e+00
1.306000000000000000e+03,6.198796333666055647e-01,0.000000000000000000e+00
1.307000000000000000e+03,3.595451586704249802e+00,0.000000000000000000e+00
1.308000000000000000e+03,1.331814232961352484e+00,1.000000000000000000e+00
1.309000000000000000e+03,-7.604740131983006579e-01,0.000000000000000000e+00
1.310000000000000000e+03,-6.673416503231965891e-01,0.000000000000000000e+00
1.311000000000000000e+03,-8.728749129943755847e-01,0.000000000000000000e+00
1.312000000000000000e+03,-6.578413984630464562e-01,0.000000000000000000e+00
1.313000000000000000e+03,-7.318513823813717067e-01,0.000000000000000000e+00
1.314000000000000000e+03,-6.444530717710302836e-01,0.000000000000000000e+00
1.315000000000000000e+03,-4.924248224452582590e-01,0.000000000000000000e+00
1.316000000000000000e+03,-5.488843749312879439e-01,0.000000000000000000e+00
1.317000000000000000e+03,-4.676609967220813346e-01,0.000000000000000000e+00
1.318000000000000000e+03,-3.898574881590927133e-01,0.000000000000000000e+00
1.319000000000000000e+03,-2.650579482886209481e-01,0.000000000000000000e+00
1.320000000000000000e+03,-2.708798170867281474e-01,0.000000000000000000e+00
1.321000000000000000e+03,-1.270903596227432875e-01,0.000000000000000000e+00
1.322000000000000000e+03,-2.222179592999158626e-02,0.000000000000000000e+00
1.323000000000000000e+03,-5.909671189137880726e-03,0.000000000000000000e+00
1.324000000000000000e+03,1.378929115991687215e-01,0.000000000000000000e+00
1.325000000000000000e+03,1.752946532765891352e-01,0.000000000000000000e+00
1.326000000000000000e+03,-1.408166441092597032e-01,0.000000000000000000e+00
1.327000000000000000e+03,-2.260974051422453279e-01,0.000000000000000000e+00
1.328000000000000000e+03,-2.281116036945065872e-01,0.000000000000000000e+00
1.329000000000000000e+03,-2.103330133729061358e-01,0.000000000000000000e+00
1.330000000000000000e+03,-1.558425051795205019e-01,0.000000000000000000e+00
1.331000000000000000e+03,-1.146005997847005381e-01,0.000000000000000000e+00
1.332000000000000000e+03,-2.146882597702847451e-01,0.000000000000000000e+00
1.333000000000000000e+03,-2.426975575140670749e-01,0.000000000000000000e+00
1.334000000000000000e+03,2.773552774791824063e-02,0.000000000000000000e+00
1.335000000000000000e+03,-2.550425926430405776e-01,0.000000000000000000e+00
1.336000000000000000e+03,6.185878457193613039e-02,0.000000000000000000e+00
1.337000000000000000e+03,-3.165900922906306897e-02,0.000000000000000000e+00
1.338000000000000000e+03,8.738528648159148149e-02,0.000000000000000000e+00
1.339000000000000000e+03,-1.447819836945018340e-02,0.000000000000000000e+00
1.340000000000000000e+03,1.675668876681195019e-01,0.000000000000000000e+00
1.341000000000000000e+03,4.725925956744927298e-02,0.000000000000000000e+00
1.342000000000000000e+03,1.185708788138273989e-01,0.000000000000000000e+00
1.343000000000000000e+03,1.153520636118689352e-01,0.000000000000000000e+00
1.344000000000000000e+03,9.963204971617191028e-03,0.000000000000000000e+00
1.345000000000000000e+03,1.092073342377599121e-01,0.000000000000000000e+00
1.346000000000000000e+03,1.432388030562317116e-01,0.000000000000000000e+00
1.347000000000000000e+03,9.491749218755986262e-02,0.000000000000000000e+00
1.348000000000000000e+03,1.730706681887240195e-01,0.000000000000000000e+00
1.349000000000000000e+03,1.211032196479138456e-01,0.000000000000000000e+00
1.350000000000000000e+03,1.979699100043448290e-01,0.000000000000000000e+00
1.351000000000000000e+03,3.022708407657033747e-01,0.000000000000000000e+00
1.352000000000000000e+03,5.274634749484068130e-02,0.000000000000000000e+00
1.353000000000000000e+03,2.131472907800142647e-01,0.000000000000000000e+00
1.354000000000000000e+03,-1.175229420312999193e-02,0.000000000000000000e+00
1.355000000000000000e+03,9.045065128193174528e-03,0.000000000000000000e+00
1.356000000000000000e+03,2.048482662816591693e-01,0.000000000000000000e+00
1.357000000000000000e+03,1.091974263971325076e-01,0.000000000000000000e+00
1.358000000000000000e+03,-6.003207590951308709e-02,0.000000000000000000e+00
1.359000000000000000e+03,3.181442768691714607e-01,0.000000000000000000e+00
1.360000000000000000e+03,-2.830698506372323897e-01,0.000000000000000000e+00
1.361000000000000000e+03,1.126610814634540159e+00,0.000000000000000000e+00
1.362000000000000000e+03,4.128537992409843760e+00,0.000000000000000000e+00
1.363000000000000000e+03,1.507142017183105809e+00,1.000000000000000000e+00
1.364000000000000000e+03,-7.422785631502589743e-01,0.000000000000000000e+00
1.365000000000000000e+03,-8.059942407710273260e-01,0.000000000000000000e+00
1.366000000000000000e+03,-7.923305418324450011e-01,0.000000000000000000e+00
1.367000000000000000e+03,-7.274020293773790780e-01,0.000000000000000000e+00
1.368000000000000000e+03,-7.872126055316256421e-01,0.000000000000000000e+00
1.369000000000000000e+03,-6.718908531712661780e-01,0.000000000000000000e+00
1.370000000000000000e+03,-6.288228158374703503e-01,0.000000000000000000e+00
1.371000000000000000e+03,-6.111168673121012418e-01,0.000000000000000000e+00
1.372000000000000000e+03,-3.870364561284150295e-01,0.000000000000000000e+00
1.373000000000000000e+03,-4.811604244137988595e-01,0.000000000000000000e+00
1.374000000000000000e+03,-3.430230455340683715e-01,0.000000000000000000e+00
1.375000000000000000e+03,-1.972379105312490055e-01,0.000000000000000000e+00
1.376000000000000000e+03,-1.235578399771105479e-01,0.000000000000000000e+00
1.377000000000000000e+03,-2.649194295642458112e-03,0.000000000000000000e+00
1.378000000000000000e+03,1.829499264862132213e-01,0.000000000000000000e+00
1.379000000000000000e+03,6.622203751269553629e-02,0.000000000000000000e+00
1.380000000000000000e+03,3.494464034010412168e-01,0.000000000000000000e+00
1.381000000000000000e+03,-1.025887437361946986e-01,0.000000000000000000e+00
1.382000000000000000e+03,8.208586609401115342e-02,0.000000000000000000e+00
1.383000000000000000e+03,-1.183169046232251248e-01,0.000000000000000000e+00
1.384000000000000000e+03,-1.288551098088976665e-01,0.000000000000000000e+00
1.385000000000000000e+03,-7.540780858442064361e-02,0.000000000000000000e+00
1.386000000000000000e+03,-3.770334757193258279e-02,0.000000000000000000e+00
1.387000000000000000e+03,-7.372286051802023898e-02,0.000000000000000000e+00
1.388000000000000000e+03,5.883346927683295174e-02,0.000000000000000000e+00
1.389000000000000000e+03,-1.214616164026555423e-01,0.000000000000000000e+00
1.390000000000000000e+03,-5.941636615322477832e-02,0.000000000000000000e+00
1.391000000000000000e+03,-1.485746750843539715e-03,0.000000000000000000e+00
1.392000000000000000e+03,-7.737874813888383219e-02,0.000000000000000000e+00
1.393000000000000000e+03,-5.685209669735064725e-02,0.000000000000000000e+00
1.394000000000000000e+03,1.699501323103984052e-01,0.000000000000000000e+00
1.395000000000000000e+03,6.803004639952368870e-02,0.000000000000000000e+00
1.396000000000000000e+03,1.316204812173253358e-01,0.000000000000000000e+00
1.397000000000000000e+03,6.306017051644989546e-02,0.000000000000000000e+00
1.398000000000000000e+03,3.424021779717498215e-02,0.000000000000000000e+00
1.399000000000000000e+03,1.813668600255355368e-01,0.000000000000000000e+00
1.400000000000000000e+03,1.150606674621797720e-01,0.000000000000000000e+00
1.401000000000000000e+03,4.972898584613236195e-02,0.000000000000000000e+00
1.402000000000000000e+03,4.337008267841632042e-02,0.000000000000000000e+00
1.403000000000000000e+03,2.284152196905108248e-02,0.000000000000000000e+00
1.404000000000000000e+03,7.616186814837498653e-02,0.000000000000000000e+00
1.405000000000000000e+03,7.591159252135079583e-02,0.000000000000000000e+00
1.406000000000000000e+03,2.093897293149328820e-01,0.000000000000000000e+00
1.407000000000000000e+03,1.523543747768182632e-01,0.000000000000000000e+00
1.408000000000000000e+03,2.341234617849529964e-01,0.000000000000000000e+00
1.409000000000000000e+03,-7.915433255982459726e-02,0.000000000000000000e+00
1.410000000000000000e+03,7.040236860341217429e-02,0.000000000000000000e+00
1.411000000000000000e+03,-6.371181683311336053e-02,0.000000000000000000e+00
1.412000000000000000e+03,9.394316211320791199e-02,0.000000000000000000e+00
1.413000000000000000e+03,-5.577100902513899838e-02,0.000000000000000000e+00
1.414000000000000000e+03,4.696801004935998586e-02,0.000000000000000000e+00
1.415000000000000000e+03,-1.212675572574389848e-02,0.000000000000000000e+00
1.416000000000000000e+03,1.162312381143695145e-02,0.000000000000000000e+00
1.417000000000000000e+03,-7.707436271233843172e-02,0.000000000000000000e+00
1.418000000000000000e+03,3.227971323785328028e+00,0.000000000000000000e+00
1.419000000000000000e+03,3.546958003693525985e+00,0.000000000000000000e+00
1.420000000000000000e+03,-1.728026369973112708e-01,1.000000000000000000e+00
1.421000000000000000e+03,-9.579851714569059817e-01,0.000000000000000000e+00
1.422000000000000000e+03,-1.096242469159138588e+00,0.000000000000000000e+00
1.423000000000000000e+03,-9.654734089275137654e-01,0.000000000000000000e+00
1.424000000000000000e+03,-8.941118105643708347e-01,0.000000000000000000e+00
1.425000000000000000e+03,-7.870552756391541172e-01,0.000000000000000000e+00
1.426000000000000000e+03,-8.956615226631616800e-01,0.000000000000000000e+00
1.427000000000000000e+03,-6.959109386449455759e-01,0.000000000000000000e+00
1.428000000000000000e+03,-7.318601883979160005e-01,0.000000000000000000e+00
1.429000000000000000e+03,-5.831653136667254156e-01,0.000000000000000000e+00
1.430000000000000000e+03,-4.608688462228574534e-01,0.000000000000000000e+00
1.431000000000000000e+03,-4.867469092078748338e-01,0.000000000000000000e+00
1.432000000000000000e+03,-4.506692760686999977e-01,0.000000000000000000e+00
1.433000000000000000e+03,-1.254790148820121021e-01,0.000000000000000000e+00
1.434000000000000000e+03,-2.319998196392585865e-01,0.000000000000000000e+00
1.435000000000000000e+03,1.243973467671794092e-01,0.000000000000000000e+00
1.436000000000000000e+03,1.459862638778428312e-01,0.000000000000000000e+00
1.437000000000000000e+03,1.572988738222493021e-01,0.000000000000000000e+00
1.438000000000000000e+03,-8.290361201767661170e-02,0.000000000000000000e+00
1.439000000000000000e+03,4.894531914105405834e-02,0.000000000000000000e+00
1.440000000000000000e+03,-2.007497363631550180e-01,0.000000000000000000e+00
1.441000000000000000e+03,-7.944079286140291740e-02,0.000000000000000000e+00
1.442000000000000000e+03,4.378202347792550797e-02,0.000000000000000000e+00
1.443000000000000000e+03,-4.728067916049108477e-02,0.000000000000000000e+00
1.444000000000000000e+03,9.901106941952245166e-03,0.000000000000000000e+00
1.445000000000000000e+03,1.181980079565930070e-02,0.000000000000000000e+00
1.446000000000000000e+03,-1.042056239927781486e-01,0.000000000000000000e+00
1.447000000000000000e+03,8.689393215772574230e-02,0.000000000000000000e+00
1.448000000000000000e+03,-3.745913804099751387e-02,0.000000000000000000e+00
1.449000000000000000e+03,1.093917747560952877e-02,0.000000000000000000e+00
1.450000000000000000e+03,-4.428545056314327905e-02,0.000000000000000000e+00
1.451000000000000000e+03,-4.931209399553197065e-02,0.000000000000000000e+00
1.452000000000000000e+03,1.022025484230594666e-01,0.000000000000000000e+00
1.453000000000000000e+03,1.339831958812399693e-01,0.000000000000000000e+00
1.454000000000000000e+03,5.299313576938673165e-02,0.000000000000000000e+00
1.455000000000000000e+03,2.323024154291047916e-01,0.000000000000000000e+00
1.456000000000000000e+03,6.508369369081305755e-02,0.000000000000000000e+00
1.457000000000000000e+03,2.317231808765226053e-01,0.000000000000000000e+00
1.458000000000000000e+03,1.132604610881785823e-01,0.000000000000000000e+00
1.459000000000000000e+03,1.969220222466175341e-01,0.000000000000000000e+00
1.460000000000000000e+03,1.655556786775998213e-01,0.000000000000000000e+00
1.461000000000000000e+03,2.042775212712529265e-01,0.000000000000000000e+00
1.462000000000000000e+03,1.237855507401029315e-01,0.000000000000000000e+00
1.463000000000000000e+03,2.983790513083113272e-01,0.000000000000000000e+00
1.464000000000000000e+03,2.850912418164404105e-01,0.000000000000000000e+00
1.465000000000000000e+03,2.005399953747983854e-01,0.000000000000000000e+00
1.466000000000000000e+03,-7.334284216964127162e-03,0.000000000000000000e+00
1.467000000000000000e+03,7.385596925695420145e-02,0.000000000000000000e+00
1.468000000000000000e+03,6.715053533643053352e-02,0.000000000000000000e+00
1.469000000000000000e+03,3.843440226094063661e-02,0.000000000000000000e+00
1.470000000000000000e+03,2.024247501557581430e-02,0.000000000000000000e+00
1.471000000000000000e+03,1.560151255188352466e-02,0.000000000000000000e+00
1.472000000000000000e+03,7.375048431292362261e-02,0.000000000000000000e+00
1.473000000000000000e+03,-2.713897759773271565e-02,0.000000000000000000e+00
1.474000000000000000e+03,5.066663111183531409e-01,0.000000000000000000e+00
1.475000000000000000e+03,4.377474005764586451e+00,0.000000000000000000e+00
1.476000000000000000e+03,2.286100385653714984e+00,1.000000000000000000e+00
1.477000000000000000e+03,-7.500464483648981995e-01,0.000000000000000000e+00
1.478000000000000000e+03,-1.076181886917103148e+00,0.000000000000000000e+00
1.479000000000000000e+03,-1.073002299472149312e+00,0.000000000000000000e+00
1.480000000000000000e+03,-8.487901774926026599e-01,0.000000000000000000e+00
1.481000000000000000e+03,-9.746326046670944487e-01,0.000000000000000000e+00
1.482000000000000000e+03,-7.633339182634719666e-01,0.000000000000000000e+00
1.483000000000000000e+03,-8.558250143515766517e-01,0.000000000000000000e+00
1.484000000000000000e+03,-6.195592538768897040e-01,0.000000000000000000e+00
1.485000000000000000e+03,-6.984679320163621474e-01,0.000000000000000000e+00
1.486000000000000000e+03,-5.508695074976106554e-01,0.000000000000000000e+00
1.487000000000000000e+03,-5.066579787674526658e-01,0.000000000000000000e+00
1.488000000000000000e+03,-3.609256596416864360e-01,0.000000000000000000e+00
1.489000000000000000e+03,-2.571011437013179246e-01,0.000000000000000000e+00
1.490000000000000000e+03,-1.190437425258633330e-01,0.000000000000000000e+00
1.491000000000000000e+03,-9.156655878926796277e-02,0.000000000000000000e+00
1.492000000000000000e+03,9.154147715710621303e-02,0.000000000000000000e+00
1.493000000000000000e+03,9.157126080423806658e-02,0.000000000000000000e+00
1.494000000000000000e+03,9.973223075260442827e-02,0.000000000000000000e+00
1.495000000000000000e+03,-1.955431048807143024e-01,0.000000000000000000e+00
1.496000000000000000e+03,-1.490128717540100678e-01,0.000000000000000000e+00
1.497000000000000000e+03,-1.709771788547994609e-01,0.000000000000000000e+00
1.498000000000000000e+03,-6.411584248650337159e-02,0.000000000000000000e+00
1.499000000000000000e+03,-1.443898355740380890e-01,0.000000000000000000e+00
1.500000000000000000e+03,-1.087675661274823818e-01,0.000000000000000000e+00
1.501000000000000000e+03,-7.225326164670760332e-02,0.000000000000000000e+00
1.502000000000000000e+03,-4.238995136515445739e-02,0.000000000000000000e+00
1.503000000000000000e+03,-1.193363286256014094e-01,0.000000000000000000e+00
1.504000000000000000e+03,-8.064963466787779256e-02,0.000000000000000000e+00
1.505000000000000000e+03,1.072132997084243450e-01,0.000000000000000000e+00
1.506000000000000000e+03,-3.207917144265635262e-02,0.000000000000000000e+00
1.507000000000000000e+03,-4.520175467799376033e-03,0.000000000000000000e+00
1.508000000000000000e+03,3.237486018667080911e-02,0.000000000000000000e+00
1.509000000000000000e+03,1.552015145324004697e-01,0.000000000000000000e+00
1.510000000000000000e+03,1.064316891137055965e-01,0.000000000000000000e+00
1.511000000000000000e+03,2.453107619194994371e-01,0.000000000000000000e+00
1.512000000000000000e+03,2.254654152133352407e-01,0.000000000000000000e+00
1.513000000000000000e+03,8.106290408287908367e-02,0.000000000000000000e+00
1.514000000000000000e+03,2.256312286289893776e-01,0.000000000000000000e+00
1.515000000000000000e+03,1.424964265408197872e-01,0.000000000000000000e+00
1.516000000000000000e+03,1.613634794054915611e-01,0.000000000000000000e+00
1.517000000000000000e+03,1.630406999919954969e-01,0.000000000000000000e+00
1.518000000000000000e+03,2.126576023751086675e-01,0.000000000000000000e+00
1.519000000000000000e+03,1.412551459639662943e-01,0.000000000000000000e+00
1.520000000000000000e+03,3.792500438963631870e-01,0.000000000000000000e+00
1.521000000000000000e+03,1.677804279833328971e-01,0.000000000000000000e+00
1.522000000000000000e+03,3.139318200762791222e-01,0.000000000000000000e+00
1.523000000000000000e+03,1.626032007591382555e-01,0.000000000000000000e+00
1.524000000000000000e+03,3.512533651000233209e-02,0.000000000000000000e+00
1.525000000000000000e+03,8.302441720577731499e-02,0.000000000000000000e+00
1.526000000000000000e+03,7.552528738407428277e-02,0.000000000000000000e+00
1.527000000000000000e+03,3.195691615487025738e-02,0.000000000000000000e+00
1.528000000000000000e+03,2.227493530399786079e-02,0.000000000000000000e+00
1.529000000000000000e+03,3.854643563708444465e-02,0.000000000000000000e+00
1.530000000000000000e+03,3.250633225936911536e-02,0.000000000000000000e+00
1.531000000000000000e+03,3.228613525920804306e-01,0.000000000000000000e+00
1.532000000000000000e+03,4.221925466125719950e+00,0.000000000000000000e+00
1.533000000000000000e+03,2.676730627846477528e+00,1.000000000000000000e+00
1.534000000000000000e+03,-5.339138109718977176e-01,0.000000000000000000e+00
1.535000000000000000e+03,-1.092830951833777320e+00,0.000000000000000000e+00
1.536000000000000000e+03,-1.041639930027637995e+00,0.000000000000000000e+00
1.537000000000000000e+03,-9.169111779822460839e-01,0.000000000000000000e+00
1.538000000000000000e+03,-9.206828866767275965e-01,0.000000000000000000e+00
1.539000000000000000e+03,-9.179012968047506327e-01,0.000000000000000000e+00
1.540000000000000000e+03,-6.128527367183168595e-01,0.000000000000000000e+00
1.541000000000000000e+03,-7.403231706909557674e-01,0.000000000000000000e+00
1.542000000000000000e+03,-5.315196509157192883e-01,0.000000000000000000e+00
1.543000000000000000e+03,-5.677159434383066694e-01,0.000000000000000000e+00
1.544000000000000000e+03,-5.115884016390822575e-01,0.000000000000000000e+00
1.545000000000000000e+03,-3.003485874841627656e-01,0.000000000000000000e+00
1.546000000000000000e+03,-2.954295065652267072e-01,0.000000000000000000e+00
1.547000000000000000e+03,-9.648219899742502270e-03,0.000000000000000000e+00
1.548000000000000000e+03,-1.600888024598987394e-02,0.000000000000000000e+00
1.549000000000000000e+03,1.771216824054931138e-01,0.000000000000000000e+00
1.550000000000000000e+03,2.110074719757752959e-01,0.000000000000000000e+00
1.551000000000000000e+03,7.504110546316128394e-02,0.000000000000000000e+00
1.552000000000000000e+03,1.189853726479098671e-02,0.000000000000000000e+00
1.553000000000000000e+03,-2.889333165474105777e-02,0.000000000000000000e+00
1.554000000000000000e+03,-1.194855662169138077e-01,0.000000000000000000e+00
1.555000000000000000e+03,-5.921652387978696558e-02,0.000000000000000000e+00
1.556000000000000000e+03,-1.492235270103795808e-01,0.000000000000000000e+00
1.557000000000000000e+03,-7.492775419038100182e-02,0.000000000000000000e+00
1.558000000000000000e+03,-5.296206665423585508e-02,0.000000000000000000e+00
1.559000000000000000e+03,-1.204738368200873183e-01,0.000000000000000000e+00
1.560000000000000000e+03,-7.660405300349919233e-02,0.000000000000000000e+00
1.561000000000000000e+03,-1.618706703555440052e-01,0.000000000000000000e+00
1.562000000000000000e+03,-2.366807359741050082e-02,0.000000000000000000e+00
1.563000000000000000e+03,-6.552150421858031482e-02,0.000000000000000000e+00
1.564000000000000000e+03,-4.032547429450438620e-02,0.000000000000000000e+00
1.565000000000000000e+03,4.846795357544592987e-03,0.000000000000000000e+00
1.566000000000000000e+03,2.990579135382634424e-02,0.000000000000000000e+00
1.567000000000000000e+03,8.279411457042296085e-02,0.000000000000000000e+00
1.568000000000000000e+03,2.623014600130861226e-02,0.000000000000000000e+00
1.569000000000000000e+03,5.510767156671824568e-02,0.000000000000000000e+00
1.570000000000000000e+03,7.783721202516652449e-02,0.000000000000000000e+00
1.571000000000000000e+03,3.566403271588133167e-02,0.000000000000000000e+00
1.572000000000000000e+03,5.970755049784644969e-02,0.000000000000000000e+00
1.573000000000000000e+03,1.885163762764425210e-01,0.000000000000000000e+00
1.574000000000000000e+03,-1.387074248887738490e-02,0.000000000000000000e+00
1.575000000000000000e+03,2.085406403218539595e-01,0.000000000000000000e+00
1.576000000000000000e+03,7.779870969139657776e-03,0.000000000000000000e+00
1.577000000000000000e+03,3.386405081044933096e-01,0.000000000000000000e+00
1.578000000000000000e+03,9.679596909690449391e-02,0.000000000000000000e+00
1.579000000000000000e+03,3.107999925217673209e-01,0.000000000000000000e+00
1.580000000000000000e+03,-2.115655684056420849e-02,0.000000000000000000e+00
1.581000000000000000e+03,-8.097002713873006907e-02,0.000000000000000000e+00
1.582000000000000000e+03,1.009008282130402848e-02,0.000000000000000000e+00
1.583000000000000000e+03,4.576553120138694697e-02,0.000000000000000000e+00
1.584000000000000000e+03,1.632199751003197627e-02,0.000000000000000000e+00
1.585000000000000000e+03,6.264413815073133218e-02,0.000000000000000000e+00
1.586000000000000000e+03,1.229407351865474257e-01,0.000000000000000000e+00
1.587000000000000000e+03,2.104043508629387191e-03,0.000000000000000000e+00
