timestamp,ecg_measurement,qrs_detected
0.000000000000000000e+00,7.334468589355508383e-01,0.000000000000000000e+00
1.000000000000000000e+00,8.995151570742436764e-01,0.000000000000000000e+00
2.000000000000000000e+00,6.863244954973364287e-01,0.000000000000000000e+00
3.000000000000000000e+00,5.676318520730851136e-02,0.000000000000000000e+00
4.000000000000000000e+00,-5.378465244503561893e-01,0.000000000000000000e+00
5.000000000000000000e+00,-6.859825526117888650e-01,0.000000000000000000e+00
6.000000000000000000e+00,-1.096382360204165574e+00,0.000000000000000000e+00
7.000000000000000000e+00,-1.087077366150397850e+00,0.000000000000000000e+00
8.000000000000000000e+00,-8.523206331798174329e-01,0.000000000000000000e+00
9.000000000000000000e+00,-1.028064892193502944e+00,0.000000000000000000e+00
1.000000000000000000e+01,-9.934832707022519527e-01,0.000000000000000000e+00
1.100000000000000000e+01,-6.575531423705672784e-01,0.000000000000000000e+00
1.200000000000000000e+01,-8.783778904437150592e-01,0.000000000000000000e+00
1.300000000000000000e+01,-4.026524170221998933e-01,0.000000000000000000e+00
1.400000000000000000e+01,-6.900899457675219173e-01,0.000000000000000000e+00
1.500000000000000000e+01,-1.478166918018568865e-01,0.000000000000000000e+00
1.600000000000000000e+01,-3.115494026283366358e-01,0.000000000000000000e+00
1.700000000000000000e+01,-3.535833414883076120e-01,0.000000000000000000e+00
1.800000000000000000e+01,2.069070795856374143e-02,0.000000000000000000e+00
1.900000000000000000e+01,-1.619299043824526940e-01,0.000000000000000000e+00
2.000000000000000000e+01,-1.020437559031801000e-01,0.000000000000000000e+00
2.100000000000000000e+01,4.938314000963743566e-02,0.000000000000000000e+00
2.200000000000000000e+01,-1.690576054615193155e-02,0.000000000000000000e+00
2.300000000000000000e+01,7.398517802771895080e-02,0.000000000000000000e+00
2.400000000000000000e+01,1.140946009024730312e-01,0.000000000000000000e+00
2.500000000000000000e+01,2.390749282744637771e-02,0.000000000000000000e+00
2.600000000000000000e+01,3.757724914148964646e-02,0.000000000000000000e+00
2.700000000000000000e+01,2.256585720822746888e-01,0.000000000000000000e+00
2.800000000000000000e+01,1.118876129743827559e-02,0.000000000000000000e+00
2.900000000000000000e+01,6.904473890892899313e-01,0.000000000000000000e+00
3.000000000000000000e+01,7.223247944588462310e-01,0.000000000000000000e+00
3.100000000000000000e+01,1.086186846030022357e+00,0.000000000000000000e+00
3.200000000000000000e+01,6.750322493396636592e-01,0.000000000000000000e+00
3.300000000000000000e+01,3.476377196874270714e-01,0.000000000000000000e+00
3.400000000000000000e+01,-3.327926282029587401e-01,0.000000000000000000e+00
3.500000000000000000e+01,-4.834479803629636828e-03,0.000000000000000000e+00
3.600000000000000000e+01,-4.376998648801863068e-01,0.000000000000000000e+00
3.700000000000000000e+01,1.357665721553513449e-01,0.000000000000000000e+00
3.800000000000000000e+01,-3.327704272244649264e-01,0.000000000000000000e+00
3.900000000000000000e+01,2.929242334323729935e+00,0.000000000000000000e+00
4.000000000000000000e+01,5.019344020638762061e+00,0.000000000000000000e+00
4.100000000000000000e+01,-1.720367391737770424e-02,1.000000000000000000e+00
4.200000000000000000e+01,-4.835344376851378745e-01,0.000000000000000000e+00
4.300000000000000000e+01,-1.093367669281435361e+00,0.000000000000000000e+00
4.400000000000000000e+01,-7.018986995457076050e-01,0.000000000000000000e+00
4.500000000000000000e+01,-1.081856990843635291e+00,0.000000000000000000e+00
4.600000000000000000e+01,-4.166853191100497456e-01,0.000000000000000000e+00
4.700000000000000000e+01,-6.517665279529542000e-01,0.000000000000000000e+00
4.800000000000000000e+01,-4.002847072944408224e-01,0.000000000000000000e+00
4.900000000000000000e+01,-2.858928488912196308e-01,0.000000000000000000e+00
5.000000000000000000e+01,-1.500407737408908926e-01,0.000000000000000000e+00
5.100000000000000000e+01,1.189054194148142368e-01,0.000000000000000000e+00
5.200000000000000000e+01,2.002317049829074047e-01,0.000000000000000000e+00
5.300000000000000000e+01,6.454608199929984247e-01,0.000000000000000000e+00
5.400000000000000000e+01,6.710282751432268267e-01,0.000000000000000000e+00
5.500000000000000000e+01,8.498643513784811532e-01,0.000000000000000000e+00
5.600000000000000000e+01,7.062077685845952191e-01,0.000000000000000000e+00
5.700000000000000000e+01,6.272038617006855388e-01,0.000000000000000000e+00
5.800000000000000000e+01,-2.090260361110894416e-01,0.000000000000000000e+00
5.900000000000000000e+01,-4.058937073422284048e-01,0.000000000000000000e+00
6.000000000000000000e+01,-1.049683560916742309e+00,0.000000000000000000e+00
6.100000000000000000e+01,-1.162449391627000006e+00,0.000000000000000000e+00
6.200000000000000000e+01,-8.594503352365227000e-01,0.000000000000000000e+00
6.300000000000000000e+01,-1.121689951632251603e+00,0.000000000000000000e+00
6.400000000000000000e+01,-7.922638190782373968e-01,0.000000000000000000e+00
6.500000000000000000e+01,-8.962562496893645703e-01,0.000000000000000000e+00
6.600000000000000000e+01,-8.628399727585956969e-01,0.000000000000000000e+00
6.700000000000000000e+01,-7.909479280207631913e-01,0.000000000000000000e+00
6.800000000000000000e+01,-6.763654163891854587e-01,0.000000000000000000e+00
6.900000000000000000e+01,-5.163502805810630258e-01,0.000000000000000000e+00
7.000000000000000000e+01,-4.560611275507845397e-01,0.000000000000000000e+00
7.100000000000000000e+01,-5.167983065587363756e-01,0.000000000000000000e+00
7.200000000000000000e+01,-2.320094886696135172e-01,0.000000000000000000e+00
7.300000000000000000e+01,-1.479058163911054213e-01,0.000000000000000000e+00
7.400000000000000000e+01,-1.410124525068917611e-01,0.000000000000000000e+00
7.500000000000000000e+01,-8.348952592876041079e-02,0.000000000000000000e+00
7.600000000000000000e+01,-1.485239387729031246e-01,0.000000000000000000e+00
7.700000000000000000e+01,1.734782504260458658e-01,0.000000000000000000e+00
7.800000000000000000e+01,-5.481829133688349148e-02,0.000000000000000000e+00
7.900000000000000000e+01,1.907980422404147516e-02,0.000000000000000000e+00
8.000000000000000000e+01,1.460720157735925506e-01,0.000000000000000000e+00
8.100000000000000000e+01,2.693354526716306707e-01,0.000000000000000000e+00
8.200000000000000000e+01,1.250257331053201970e-01,0.000000000000000000e+00
8.300000000000000000e+01,2.344053805469373530e-01,0.000000000000000000e+00
8.400000000000000000e+01,1.755194075688757405e-01,0.000000000000000000e+00
8.500000000000000000e+01,2.605863619498124950e-01,0.000000000000000000e+00
8.600000000000000000e+01,7.747264260127839641e-01,0.000000000000000000e+00
8.700000000000000000e+01,9.090173765750774182e-01,0.000000000000000000e+00
8.800000000000000000e+01,1.164339270865426545e+00,0.000000000000000000e+00
8.900000000000000000e+01,7.963585181232014643e-01,0.000000000000000000e+00
9.000000000000000000e+01,4.358237802799179161e-01,0.000000000000000000e+00
9.100000000000000000e+01,-2.824660485587479619e-01,0.000000000000000000e+00
9.200000000000000000e+01,-2.413290684542899744e-01,0.000000000000000000e+00
9.300000000000000000e+01,-2.114260347603143242e-01,0.000000000000000000e+00
9.400000000000000000e+01,-8.903077305267135047e-03,0.000000000000000000e+00
9.500000000000000000e+01,-2.416972874300723217e-01,0.000000000000000000e+00
9.600000000000000000e+01,1.739769411498274021e+00,0.000000000000000000e+00
9.700000000000000000e+01,6.435447717007476420e+00,0.000000000000000000e+00
9.800000000000000000e+01,1.096890022117161578e+00,1.000000000000000000e+00
9.900000000000000000e+01,-7.246503238061942076e-01,0.000000000000000000e+00
1.000000000000000000e+02,-9.894172048120666307e-01,0.000000000000000000e+00
1.010000000000000000e+02,-1.314384432815044024e+00,0.000000000000000000e+00
1.020000000000000000e+02,-1.093900400897386715e+00,0.000000000000000000e+00
1.030000000000000000e+02,-8.453338533438554681e-01,0.000000000000000000e+00
1.040000000000000000e+02,-9.991335046188206670e-01,0.000000000000000000e+00
1.050000000000000000e+02,-5.966805225828607506e-01,0.000000000000000000e+00
1.060000000000000000e+02,-4.928370458471366677e-01,0.000000000000000000e+00
1.070000000000000000e+02,-4.427657494021278728e-01,0.000000000000000000e+00
1.080000000000000000e+02,-1.202197428505001053e-01,0.000000000000000000e+00
1.090000000000000000e+02,-3.475899741748331856e-02,0.000000000000000000e+00
1.100000000000000000e+02,4.923705309956639686e-01,0.000000000000000000e+00
1.110000000000000000e+02,5.340867300154003017e-01,0.000000000000000000e+00
1.120000000000000000e+02,7.803344264174676415e-01,0.000000000000000000e+00
1.130000000000000000e+02,7.866871001638205962e-01,0.000000000000000000e+00
1.140000000000000000e+02,7.459761602124692637e-01,0.000000000000000000e+00
1.150000000000000000e+02,1.858073763729665151e-01,0.000000000000000000e+00
1.160000000000000000e+02,-3.785142148947358010e-01,0.000000000000000000e+00
1.170000000000000000e+02,-7.216735081019006737e-01,0.000000000000000000e+00
1.180000000000000000e+02,-8.041113517018905199e-01,0.000000000000000000e+00
1.190000000000000000e+02,-6.610249895110485996e-01,0.000000000000000000e+00
1.200000000000000000e+02,-7.572537847216582740e-01,0.000000000000000000e+00
1.210000000000000000e+02,-7.927562516077577559e-01,0.000000000000000000e+00
1.220000000000000000e+02,-7.736589854339160910e-01,0.000000000000000000e+00
1.230000000000000000e+02,-5.740039960058285207e-01,0.000000000000000000e+00
1.240000000000000000e+02,-6.573658659433623264e-01,0.000000000000000000e+00
1.250000000000000000e+02,-5.292955599524727939e-01,0.000000000000000000e+00
1.260000000000000000e+02,-4.390006124695680634e-01,0.000000000000000000e+00
1.270000000000000000e+02,-3.536130413384664384e-01,0.000000000000000000e+00
1.280000000000000000e+02,-3.454957933891569244e-01,0.000000000000000000e+00
1.290000000000000000e+02,-3.125983731005304578e-01,0.000000000000000000e+00
1.300000000000000000e+02,-6.740926096447773241e-02,0.000000000000000000e+00
1.310000000000000000e+02,8.560818896387222682e-03,0.000000000000000000e+00
1.320000000000000000e+02,-3.253253220867132756e-01,0.000000000000000000e+00
1.330000000000000000e+02,1.927884664418387239e-01,0.000000000000000000e+00
1.340000000000000000e+02,-3.258402780557888984e-02,0.000000000000000000e+00
1.350000000000000000e+02,-1.261322153121574030e-01,0.000000000000000000e+00
1.360000000000000000e+02,6.256420262506337537e-02,0.000000000000000000e+00
1.370000000000000000e+02,2.776713069727042571e-01,0.000000000000000000e+00
1.380000000000000000e+02,1.817133013207001754e-02,0.000000000000000000e+00
1.390000000000000000e+02,1.667937777631093021e-01,0.000000000000000000e+00
1.400000000000000000e+02,-4.218803875789506157e-03,0.000000000000000000e+00
1.410000000000000000e+02,2.562116017415110303e-01,0.000000000000000000e+00
1.420000000000000000e+02,1.938311649042856744e-01,0.000000000000000000e+00
1.430000000000000000e+02,3.647824188741780604e-01,0.000000000000000000e+00
1.440000000000000000e+02,4.018602422462553836e-01,0.000000000000000000e+00
1.450000000000000000e+02,5.648713161398908333e-01,0.000000000000000000e+00
1.460000000000000000e+02,1.022571164192034532e+00,0.000000000000000000e+00
1.470000000000000000e+02,8.596334835910837135e-01,0.000000000000000000e+00
1.480000000000000000e+02,7.913769240453126796e-01,0.000000000000000000e+00
1.490000000000000000e+02,3.074555539555516859e-01,0.000000000000000000e+00
1.500000000000000000e+02,-4.752871987060524051e-01,0.000000000000000000e+00
1.510000000000000000e+02,-7.451530353245040816e-02,0.000000000000000000e+00
1.520000000000000000e+02,-4.827247399916409498e-01,0.000000000000000000e+00
1.530000000000000000e+02,9.157113887973444832e-02,0.000000000000000000e+00
1.540000000000000000e+02,-5.378549129773024795e-01,0.000000000000000000e+00
1.550000000000000000e+02,5.061879291311635498e+00,0.000000000000000000e+00
1.560000000000000000e+02,4.828719566747805558e+00,0.000000000000000000e+00
1.570000000000000000e+02,-5.878619313631521237e-01,1.000000000000000000e+00
1.580000000000000000e+02,-6.936823539383016879e-01,0.000000000000000000e+00
1.590000000000000000e+02,-1.736901797731278840e+00,0.000000000000000000e+00
1.600000000000000000e+02,-9.435255701180412791e-01,0.000000000000000000e+00
1.610000000000000000e+02,-1.225119498052526623e+00,0.000000000000000000e+00
1.620000000000000000e+02,-8.636888893777218135e-01,0.000000000000000000e+00
1.630000000000000000e+02,-8.577967138373242539e-01,0.000000000000000000e+00
1.640000000000000000e+02,-5.963119800978503582e-01,0.000000000000000000e+00
1.650000000000000000e+02,-6.174064830288346073e-01,0.000000000000000000e+00
1.660000000000000000e+02,-9.915264106179731696e-02,0.000000000000000000e+00
1.670000000000000000e+02,-1.609907484194033622e-01,0.000000000000000000e+00
1.680000000000000000e+02,1.927944885178626555e-01,0.000000000000000000e+00
1.690000000000000000e+02,3.798693654111184315e-01,0.000000000000000000e+00
1.700000000000000000e+02,5.662142087433786886e-01,0.000000000000000000e+00
1.710000000000000000e+02,5.226859818193834162e-01,0.000000000000000000e+00
1.720000000000000000e+02,7.778025803598723753e-01,0.000000000000000000e+00
1.730000000000000000e+02,4.955608198542412746e-01,0.000000000000000000e+00
1.740000000000000000e+02,6.881305717972248381e-02,0.000000000000000000e+00
1.750000000000000000e+02,-6.925018988193373248e-01,0.000000000000000000e+00
1.760000000000000000e+02,-7.901715710230944323e-01,0.000000000000000000e+00
1.770000000000000000e+02,-8.078966995858710698e-01,0.000000000000000000e+00
1.780000000000000000e+02,-6.577428479957200258e-01,0.000000000000000000e+00
1.790000000000000000e+02,-8.640389428365286006e-01,0.000000000000000000e+00
1.800000000000000000e+02,-6.196551472053138943e-01,0.000000000000000000e+00
1.810000000000000000e+02,-6.703030367205432549e-01,0.000000000000000000e+00
1.820000000000000000e+02,-5.697141389966647873e-01,0.000000000000000000e+00
1.830000000000000000e+02,-7.035556656912421714e-01,0.000000000000000000e+00
1.840000000000000000e+02,-3.320842650469226776e-01,0.000000000000000000e+00
1.850000000000000000e+02,-3.547203412430919856e-01,0.000000000000000000e+00
1.860000000000000000e+02,-3.873634949492402169e-01,0.000000000000000000e+00
1.870000000000000000e+02,4.859388276852428384e-02,0.000000000000000000e+00
1.880000000000000000e+02,-4.399106503827354686e-01,0.000000000000000000e+00
1.890000000000000000e+02,-8.215206358453226373e-03,0.000000000000000000e+00
1.900000000000000000e+02,-1.752904236950221517e-01,0.000000000000000000e+00
1.910000000000000000e+02,-1.150284282351289461e-01,0.000000000000000000e+00
1.920000000000000000e+02,-1.059337562489919421e-01,0.000000000000000000e+00
1.930000000000000000e+02,-9.735397531494921486e-02,0.000000000000000000e+00
1.940000000000000000e+02,7.125929980168686784e-02,0.000000000000000000e+00
1.950000000000000000e+02,-1.764213671310944365e-01,0.000000000000000000e+00
1.960000000000000000e+02,2.063622184831501727e-01,0.000000000000000000e+00
1.970000000000000000e+02,-1.037268297822515756e-01,0.000000000000000000e+00
1.980000000000000000e+02,6.800816590591582389e-02,0.000000000000000000e+00
1.990000000000000000e+02,2.986294335921864662e-01,0.000000000000000000e+00
2.000000000000000000e+02,1.568611512694813859e-01,0.000000000000000000e+00
2.010000000000000000e+02,1.057621926235317311e-01,0.000000000000000000e+00
2.020000000000000000e+02,2.054380846501370483e-01,0.000000000000000000e+00
2.030000000000000000e+02,6.512810561368284068e-01,0.000000000000000000e+00
2.040000000000000000e+02,7.907796408223328744e-01,0.000000000000000000e+00
2.050000000000000000e+02,1.134590758851638626e+00,0.000000000000000000e+00
2.060000000000000000e+02,9.698864378641252060e-01,0.000000000000000000e+00
2.070000000000000000e+02,5.030612569960811742e-01,0.000000000000000000e+00
2.080000000000000000e+02,-9.052175976082122225e-03,0.000000000000000000e+00
2.090000000000000000e+02,-4.349937697750398402e-01,0.000000000000000000e+00
2.100000000000000000e+02,-2.582273796078460859e-01,0.000000000000000000e+00
2.110000000000000000e+02,2.959860134877935825e-02,0.000000000000000000e+00
2.120000000000000000e+02,-1.675113768788402124e-01,0.000000000000000000e+00
2.130000000000000000e+02,9.957197236719580458e-01,0.000000000000000000e+00
2.140000000000000000e+02,6.578265013400977246e+00,0.000000000000000000e+00
2.150000000000000000e+02,1.858806711193228489e+00,1.000000000000000000e+00
2.160000000000000000e+02,-7.712911004407061455e-01,0.000000000000000000e+00
2.170000000000000000e+02,-9.586322459241263250e-01,0.000000000000000000e+00
2.180000000000000000e+02,-1.416673647183949170e+00,0.000000000000000000e+00
2.190000000000000000e+02,-9.806120139628055066e-01,0.000000000000000000e+00
2.200000000000000000e+02,-1.130670044890108361e+00,0.000000000000000000e+00
2.210000000000000000e+02,-8.442766253777339580e-01,0.000000000000000000e+00
2.220000000000000000e+02,-6.045172697226416370e-01,0.000000000000000000e+00
2.230000000000000000e+02,-4.911934800930908285e-01,0.000000000000000000e+00
2.240000000000000000e+02,-4.670806326725796542e-01,0.000000000000000000e+00
2.250000000000000000e+02,-1.195511145671141889e-01,0.000000000000000000e+00
2.260000000000000000e+02,3.972004686766281156e-02,0.000000000000000000e+00
2.270000000000000000e+02,2.677226797562565763e-01,0.000000000000000000e+00
2.280000000000000000e+02,4.463653293563245028e-01,0.000000000000000000e+00
2.290000000000000000e+02,9.015341182490207439e-01,0.000000000000000000e+00
2.300000000000000000e+02,5.745355632006796665e-01,0.000000000000000000e+00
2.310000000000000000e+02,6.663400108195957072e-01,0.000000000000000000e+00
2.320000000000000000e+02,3.025772895850511457e-01,0.000000000000000000e+00
2.330000000000000000e+02,-3.192710539925899260e-01,0.000000000000000000e+00
2.340000000000000000e+02,-7.740452723901520837e-01,0.000000000000000000e+00
2.350000000000000000e+02,-9.135248131092680302e-01,0.000000000000000000e+00
2.360000000000000000e+02,-9.491549766595843707e-01,0.000000000000000000e+00
2.370000000000000000e+02,-8.877827955340142907e-01,0.000000000000000000e+00
2.380000000000000000e+02,-7.799569911915754661e-01,0.000000000000000000e+00
2.390000000000000000e+02,-7.921817942046892602e-01,0.000000000000000000e+00
2.400000000000000000e+02,-6.176189653103834054e-01,0.000000000000000000e+00
2.410000000000000000e+02,-6.635554670012763223e-01,0.000000000000000000e+00
2.420000000000000000e+02,-4.560894087485259374e-01,0.000000000000000000e+00
2.430000000000000000e+02,-4.967148849862465521e-01,0.000000000000000000e+00
2.440000000000000000e+02,-4.612503279228507558e-01,0.000000000000000000e+00
2.450000000000000000e+02,-2.820730953914116768e-01,0.000000000000000000e+00
2.460000000000000000e+02,-3.348490726561759168e-01,0.000000000000000000e+00
2.470000000000000000e+02,-1.235923443805494043e-01,0.000000000000000000e+00
2.480000000000000000e+02,-1.258374016097179304e-01,0.000000000000000000e+00
2.490000000000000000e+02,-1.222294846469975382e-01,0.000000000000000000e+00
2.500000000000000000e+02,-8.555039303726576227e-02,0.000000000000000000e+00
2.510000000000000000e+02,-1.932637146756545077e-01,0.000000000000000000e+00
2.520000000000000000e+02,3.836083584913591027e-02,0.000000000000000000e+00
2.530000000000000000e+02,-2.674284089987671170e-02,0.000000000000000000e+00
2.540000000000000000e+02,1.101827525911880240e-01,0.000000000000000000e+00
2.550000000000000000e+02,1.138790234576374932e-01,0.000000000000000000e+00
2.560000000000000000e+02,3.047015215802892363e-02,0.000000000000000000e+00
2.570000000000000000e+02,2.961243904753815270e-01,0.000000000000000000e+00
2.580000000000000000e+02,1.569025729917883638e-01,0.000000000000000000e+00
2.590000000000000000e+02,1.907080538665960612e-01,0.000000000000000000e+00
2.600000000000000000e+02,3.037518336142707720e-01,0.000000000000000000e+00
2.610000000000000000e+02,5.120645894125220865e-01,0.000000000000000000e+00
2.620000000000000000e+02,1.042323538462478050e+00,0.000000000000000000e+00
2.630000000000000000e+02,1.108713904925868521e+00,0.000000000000000000e+00
2.640000000000000000e+02,9.815632002417078450e-01,0.000000000000000000e+00
2.650000000000000000e+02,4.280206535575648563e-01,0.000000000000000000e+00
2.660000000000000000e+02,-3.001709664561472146e-01,0.000000000000000000e+00
2.670000000000000000e+02,-1.304519685134509777e-01,0.000000000000000000e+00
2.680000000000000000e+02,-9.134267456738839885e-02,0.000000000000000000e+00
2.690000000000000000e+02,-9.050320919100141026e-02,0.000000000000000000e+00
2.700000000000000000e+02,-1.427878855019964754e-01,0.000000000000000000e+00
2.710000000000000000e+02,1.727695886843690687e+00,0.000000000000000000e+00
2.720000000000000000e+02,5.581639608993971713e+00,0.000000000000000000e+00
2.730000000000000000e+02,1.021500098776150001e+00,1.000000000000000000e+00
2.740000000000000000e+02,-5.889772769248192708e-01,0.000000000000000000e+00
2.750000000000000000e+02,-9.030069854077110714e-01,0.000000000000000000e+00
2.760000000000000000e+02,-9.584585853200869865e-01,0.000000000000000000e+00
2.770000000000000000e+02,-8.900623301669731147e-01,0.000000000000000000e+00
2.780000000000000000e+02,-7.974965876402424492e-01,0.000000000000000000e+00
2.790000000000000000e+02,-6.339948911557105049e-01,0.000000000000000000e+00
2.800000000000000000e+02,-3.027158207456552286e-01,0.000000000000000000e+00
2.810000000000000000e+02,-4.818136398455878378e-01,0.000000000000000000e+00
2.820000000000000000e+02,-7.171070984961760986e-02,0.000000000000000000e+00
2.830000000000000000e+02,-8.035222457588769851e-02,0.000000000000000000e+00
2.840000000000000000e+02,-2.831762223774418955e-02,0.000000000000000000e+00
2.850000000000000000e+02,4.372162011763389700e-01,0.000000000000000000e+00
2.860000000000000000e+02,8.226378511095953083e-01,0.000000000000000000e+00
2.870000000000000000e+02,7.896453307520766574e-01,0.000000000000000000e+00
2.880000000000000000e+02,9.525262584377152120e-01,0.000000000000000000e+00
2.890000000000000000e+02,5.258797521253929519e-01,0.000000000000000000e+00
2.900000000000000000e+02,8.563562409589388358e-02,0.000000000000000000e+00
2.910000000000000000e+02,-3.557072721969172235e-01,0.000000000000000000e+00
2.920000000000000000e+02,-7.571171062162942444e-01,0.000000000000000000e+00
2.930000000000000000e+02,-1.012445397731343455e+00,0.000000000000000000e+00
2.940000000000000000e+02,-1.205219107132035061e+00,0.000000000000000000e+00
2.950000000000000000e+02,-1.048783025807249913e+00,0.000000000000000000e+00
2.960000000000000000e+02,-1.003160812851946027e+00,0.000000000000000000e+00
2.970000000000000000e+02,-8.581042019098352736e-01,0.000000000000000000e+00
2.980000000000000000e+02,-8.726364200940989191e-01,0.000000000000000000e+00
2.990000000000000000e+02,-5.760289132182390137e-01,0.000000000000000000e+00
3.000000000000000000e+02,-8.409935865251372267e-01,0.000000000000000000e+00
3.010000000000000000e+02,-3.726743991439790959e-01,0.000000000000000000e+00
3.020000000000000000e+02,-5.356869003556159470e-01,0.000000000000000000e+00
3.030000000000000000e+02,-3.749200328069212107e-01,0.000000000000000000e+00
3.040000000000000000e+02,-8.664762372079956587e-02,0.000000000000000000e+00
3.050000000000000000e+02,-2.913976647759908278e-01,0.000000000000000000e+00
3.060000000000000000e+02,-2.908545850079495843e-01,0.000000000000000000e+00
3.070000000000000000e+02,-2.008215281331705016e-01,0.000000000000000000e+00
3.080000000000000000e+02,-6.362199408464208616e-02,0.000000000000000000e+00
3.090000000000000000e+02,-1.308637726166924919e-01,0.000000000000000000e+00
3.100000000000000000e+02,-4.581542577600256072e-02,0.000000000000000000e+00
3.110000000000000000e+02,1.065364251348369096e-01,0.000000000000000000e+00
3.120000000000000000e+02,-2.445276501593341700e-01,0.000000000000000000e+00
3.130000000000000000e+02,8.598519984198184363e-02,0.000000000000000000e+00
3.140000000000000000e+02,1.158742565781394340e-01,0.000000000000000000e+00
3.150000000000000000e+02,1.939265622151779278e-01,0.000000000000000000e+00
3.160000000000000000e+02,3.087435928046731171e-01,0.000000000000000000e+00
3.170000000000000000e+02,1.913070919561253025e-01,0.000000000000000000e+00
3.180000000000000000e+02,4.572591718087183343e-01,0.000000000000000000e+00
3.190000000000000000e+02,7.111165547818165678e-01,0.000000000000000000e+00
3.200000000000000000e+02,1.268878982727510873e+00,0.000000000000000000e+00
3.210000000000000000e+02,9.610601458707977995e-01,0.000000000000000000e+00
3.220000000000000000e+02,5.403075971519750720e-01,0.000000000000000000e+00
3.230000000000000000e+02,-1.331854319362423267e-01,0.000000000000000000e+00
3.240000000000000000e+02,-1.371253931199985787e-01,0.000000000000000000e+00
3.250000000000000000e+02,-2.849695426091527484e-01,0.000000000000000000e+00
3.260000000000000000e+02,9.821417762909948057e-02,0.000000000000000000e+00
3.270000000000000000e+02,-5.355806793908061275e-02,0.000000000000000000e+00
3.280000000000000000e+02,9.896823632168613161e-01,0.000000000000000000e+00
3.290000000000000000e+02,5.125017127723716648e+00,0.000000000000000000e+00
3.300000000000000000e+02,9.238558768508469132e-01,1.000000000000000000e+00
3.310000000000000000e+02,-6.086958760177204608e-01,0.000000000000000000e+00
3.320000000000000000e+02,-5.301272088580447628e-01,0.000000000000000000e+00
3.330000000000000000e+02,-8.320714413492966699e-01,0.000000000000000000e+00
3.340000000000000000e+02,-8.305383864590418774e-01,0.000000000000000000e+00
3.350000000000000000e+02,-3.905396990855920514e-01,0.000000000000000000e+00
3.360000000000000000e+02,-5.795064570410597415e-01,0.000000000000000000e+00
3.370000000000000000e+02,-7.875977443855139426e-02,0.000000000000000000e+00
3.380000000000000000e+02,-2.268376919641669209e-01,0.000000000000000000e+00
3.390000000000000000e+02,-4.803287776954540678e-01,0.000000000000000000e+00
3.400000000000000000e+02,-4.367541349624915609e-02,0.000000000000000000e+00
3.410000000000000000e+02,4.248305525950140105e-01,0.000000000000000000e+00
3.420000000000000000e+02,4.388961385589443820e-01,0.000000000000000000e+00
3.430000000000000000e+02,8.039800591826434806e-01,0.000000000000000000e+00
3.440000000000000000e+02,6.674063291253783392e-01,0.000000000000000000e+00
3.450000000000000000e+02,7.420084680326693993e-01,0.000000000000000000e+00
3.460000000000000000e+02,6.246970348577391974e-01,0.000000000000000000e+00
3.470000000000000000e+02,8.802338853135080465e-02,0.000000000000000000e+00
3.480000000000000000e+02,-3.087487471018192098e-01,0.000000000000000000e+00
3.490000000000000000e+02,-1.047639481181475762e+00,0.000000000000000000e+00
3.500000000000000000e+02,-8.537679912381193059e-01,0.000000000000000000e+00
3.510000000000000000e+02,-1.205385764747926025e+00,0.000000000000000000e+00
3.520000000000000000e+02,-1.128676125376384842e+00,0.000000000000000000e+00
3.530000000000000000e+02,-1.053251672484197821e+00,0.000000000000000000e+00
3.540000000000000000e+02,-9.188724187802600474e-01,0.000000000000000000e+00
3.550000000000000000e+02,-7.383396370628405592e-01,0.000000000000000000e+00
3.560000000000000000e+02,-5.686905872129618400e-01,0.000000000000000000e+00
3.570000000000000000e+02,-7.597805590634401085e-01,0.000000000000000000e+00
3.580000000000000000e+02,-3.257626274485921347e-01,0.000000000000000000e+00
3.590000000000000000e+02,-4.361768487739066669e-01,0.000000000000000000e+00
3.600000000000000000e+02,-2.299557264024804648e-01,0.000000000000000000e+00
3.610000000000000000e+02,-2.038115059579533594e-01,0.000000000000000000e+00
3.620000000000000000e+02,-2.028037883966085642e-01,0.000000000000000000e+00
3.630000000000000000e+02,-1.789602403050350177e-01,0.000000000000000000e+00
3.640000000000000000e+02,-3.461203047636684377e-02,0.000000000000000000e+00
3.650000000000000000e+02,-6.610313950965936158e-02,0.000000000000000000e+00
3.660000000000000000e+02,1.954508570214637808e-01,0.000000000000000000e+00
3.670000000000000000e+02,1.594418278550845808e-02,0.000000000000000000e+00
3.680000000000000000e+02,1.420691651276879408e-01,0.000000000000000000e+00
3.690000000000000000e+02,3.053391562317518335e-02,0.000000000000000000e+00
3.700000000000000000e+02,1.852529727930622427e-01,0.000000000000000000e+00
3.710000000000000000e+02,2.027274635255236490e-01,0.000000000000000000e+00
3.720000000000000000e+02,2.390429111155097375e-01,0.000000000000000000e+00
3.730000000000000000e+02,3.334742836831212087e-01,0.000000000000000000e+00
3.740000000000000000e+02,5.281288979612334122e-01,0.000000000000000000e+00
3.750000000000000000e+02,8.606472009290691005e-01,0.000000000000000000e+00
3.760000000000000000e+02,1.319446525058115327e+00,0.000000000000000000e+00
3.770000000000000000e+02,4.320045519381823240e-01,0.000000000000000000e+00
3.780000000000000000e+02,2.730369291445776114e-01,0.000000000000000000e+00
3.790000000000000000e+02,-4.194136904845978675e-01,0.000000000000000000e+00
3.800000000000000000e+02,2.385350516487330305e-02,0.000000000000000000e+00
3.810000000000000000e+02,-3.759238963258205168e-01,0.000000000000000000e+00
3.820000000000000000e+02,2.950757446986152499e-01,0.000000000000000000e+00
3.830000000000000000e+02,-1.006961406889525373e-01,0.000000000000000000e+00
3.840000000000000000e+02,4.619741425302759552e+00,0.000000000000000000e+00
3.850000000000000000e+02,3.145762555010856776e+00,1.000000000000000000e+00
3.860000000000000000e+02,-9.799121586619737867e-01,0.000000000000000000e+00
3.870000000000000000e+02,-2.394555513080586229e-01,0.000000000000000000e+00
3.880000000000000000e+02,-1.187673834169097331e+00,0.000000000000000000e+00
3.890000000000000000e+02,-4.901245199108952844e-01,0.000000000000000000e+00
3.900000000000000000e+02,-1.146739646011042169e+00,0.000000000000000000e+00
3.910000000000000000e+02,-3.446673142808652779e-01,0.000000000000000000e+00
3.920000000000000000e+02,-6.927534114647426744e-01,0.000000000000000000e+00
3.930000000000000000e+02,-2.621826632772881679e-02,0.000000000000000000e+00
3.940000000000000000e+02,-4.904905527735125004e-01,0.000000000000000000e+00
3.950000000000000000e+02,-1.451063596441318493e-01,0.000000000000000000e+00
3.960000000000000000e+02,1.712229091718096841e-02,0.000000000000000000e+00
3.970000000000000000e+02,3.695208476631491878e-01,0.000000000000000000e+00
3.980000000000000000e+02,5.804946833182198507e-01,0.000000000000000000e+00
3.990000000000000000e+02,6.197460433261920976e-01,0.000000000000000000e+00
4.000000000000000000e+02,8.974151499560399925e-01,0.000000000000000000e+00
4.010000000000000000e+02,7.845032039349381092e-01,0.000000000000000000e+00
4.020000000000000000e+02,5.004459716105637002e-01,0.000000000000000000e+00
4.030000000000000000e+02,-1.471345818464500910e-01,0.000000000000000000e+00
4.040000000000000000e+02,-6.323942646637709109e-01,0.000000000000000000e+00
4.050000000000000000e+02,-1.106472781233770242e+00,0.000000000000000000e+00
4.060000000000000000e+02,-9.895369853284954331e-01,0.000000000000000000e+00
4.070000000000000000e+02,-8.500208194836910147e-01,0.000000000000000000e+00
4.080000000000000000e+02,-8.215310477818128509e-01,0.000000000000000000e+00
4.090000000000000000e+02,-9.541751622567180569e-01,0.000000000000000000e+00
4.100000000000000000e+02,-7.946299527730262824e-01,0.000000000000000000e+00
4.110000000000000000e+02,-6.504816531275404712e-01,0.000000000000000000e+00
4.120000000000000000e+02,-8.079587532100978020e-01,0.000000000000000000e+00
4.130000000000000000e+02,-3.741337965683362299e-01,0.000000000000000000e+00
4.140000000000000000e+02,-3.717556125518630128e-01,0.000000000000000000e+00
4.150000000000000000e+02,-3.080050788238377080e-01,0.000000000000000000e+00
4.160000000000000000e+02,-2.682288604866447379e-01,0.000000000000000000e+00
4.170000000000000000e+02,-4.657872726489939441e-02,0.000000000000000000e+00
4.180000000000000000e+02,-4.269276922817575315e-01,0.000000000000000000e+00
4.190000000000000000e+02,1.129672164361929798e-01,0.000000000000000000e+00
4.200000000000000000e+02,-7.472583296819430843e-02,0.000000000000000000e+00
4.210000000000000000e+02,-7.620488199296202025e-02,0.000000000000000000e+00
4.220000000000000000e+02,-6.025255021929715182e-02,0.000000000000000000e+00
4.230000000000000000e+02,-4.146217258988000968e-03,0.000000000000000000e+00
4.240000000000000000e+02,1.521669241193741307e-01,0.000000000000000000e+00
4.250000000000000000e+02,1.809786999290131093e-01,0.000000000000000000e+00
4.260000000000000000e+02,2.091179495414910439e-01,0.000000000000000000e+00
4.270000000000000000e+02,2.637040307265947070e-01,0.000000000000000000e+00
4.280000000000000000e+02,3.013550165303395811e-01,0.000000000000000000e+00
4.290000000000000000e+02,1.798919078138491723e-01,0.000000000000000000e+00
4.300000000000000000e+02,6.208932933164288404e-01,0.000000000000000000e+00
4.310000000000000000e+02,1.065227908399240198e+00,0.000000000000000000e+00
4.320000000000000000e+02,1.157236934772798431e+00,0.000000000000000000e+00
4.330000000000000000e+02,1.108386904022968578e+00,0.000000000000000000e+00
4.340000000000000000e+02,6.903644599927671877e-01,0.000000000000000000e+00
4.350000000000000000e+02,4.930739989655250066e-02,0.000000000000000000e+00
4.360000000000000000e+02,-2.483313521493125398e-01,0.000000000000000000e+00
4.370000000000000000e+02,-1.075374379625229498e-01,0.000000000000000000e+00
4.380000000000000000e+02,-7.294682713035122168e-02,0.000000000000000000e+00
4.390000000000000000e+02,4.348785777901593812e-03,0.000000000000000000e+00
4.400000000000000000e+02,3.237793917583454695e-01,0.000000000000000000e+00
4.410000000000000000e+02,5.606735704322870717e+00,0.000000000000000000e+00
4.420000000000000000e+02,2.907578803095450137e+00,1.000000000000000000e+00
4.430000000000000000e+02,-6.411254837406371587e-01,0.000000000000000000e+00
4.440000000000000000e+02,-7.116349852531040909e-01,0.000000000000000000e+00
4.450000000000000000e+02,-1.384824428147814590e+00,0.000000000000000000e+00
4.460000000000000000e+02,-9.405474627745255001e-01,0.000000000000000000e+00
4.470000000000000000e+02,-1.113548830033445736e+00,0.000000000000000000e+00
4.480000000000000000e+02,-9.704351702698147397e-01,0.000000000000000000e+00
4.490000000000000000e+02,-6.458834702086641011e-01,0.000000000000000000e+00
4.500000000000000000e+02,-4.242567591814683237e-01,0.000000000000000000e+00
4.510000000000000000e+02,-6.261550196051857142e-01,0.000000000000000000e+00
4.520000000000000000e+02,5.595523854419081310e-03,0.000000000000000000e+00
4.530000000000000000e+02,-1.547939375599956535e-01,0.000000000000000000e+00
4.540000000000000000e+02,1.196119061353008300e-01,0.000000000000000000e+00
4.550000000000000000e+02,5.575373501139311294e-01,0.000000000000000000e+00
4.560000000000000000e+02,6.556391246408741491e-01,0.000000000000000000e+00
4.570000000000000000e+02,7.380262278165936607e-01,0.000000000000000000e+00
4.580000000000000000e+02,7.363833456876078820e-01,0.000000000000000000e+00
4.590000000000000000e+02,1.748272045148318299e-01,0.000000000000000000e+00
4.600000000000000000e+02,-2.404409919232106119e-01,0.000000000000000000e+00
4.610000000000000000e+02,-6.200112560972269593e-01,0.000000000000000000e+00
4.620000000000000000e+02,-9.601224005195240219e-01,0.000000000000000000e+00
4.630000000000000000e+02,-9.895049483387937661e-01,0.000000000000000000e+00
4.640000000000000000e+02,-1.067405696246871205e+00,0.000000000000000000e+00
4.650000000000000000e+02,-7.767540297227355506e-01,0.000000000000000000e+00
4.660000000000000000e+02,-7.579748927695117988e-01,0.000000000000000000e+00
4.670000000000000000e+02,-7.644819312991221194e-01,0.000000000000000000e+00
4.680000000000000000e+02,-6.570097739978972839e-01,0.000000000000000000e+00
4.690000000000000000e+02,-8.590401209384402881e-01,0.000000000000000000e+00
4.700000000000000000e+02,-5.523768077296072887e-01,0.000000000000000000e+00
4.710000000000000000e+02,-6.654236547093452803e-01,0.000000000000000000e+00
4.720000000000000000e+02,-3.782354917119768456e-01,0.000000000000000000e+00
4.730000000000000000e+02,-3.384534438581261462e-01,0.000000000000000000e+00
4.740000000000000000e+02,-3.799241627306161884e-01,0.000000000000000000e+00
4.750000000000000000e+02,-2.194099279131891955e-01,0.000000000000000000e+00
4.760000000000000000e+02,-1.918795473838559029e-01,0.000000000000000000e+00
4.770000000000000000e+02,7.098111405722357450e-03,0.000000000000000000e+00
4.780000000000000000e+02,-2.284132185754845223e-01,0.000000000000000000e+00
4.790000000000000000e+02,1.251228093572129552e-01,0.000000000000000000e+00
4.800000000000000000e+02,-2.098364785765919616e-01,0.000000000000000000e+00
4.810000000000000000e+02,1.246710795236203734e-01,0.000000000000000000e+00
4.820000000000000000e+02,-8.874771908690214095e-02,0.000000000000000000e+00
4.830000000000000000e+02,1.679617970553181627e-01,0.000000000000000000e+00
4.840000000000000000e+02,2.462375668818764518e-01,0.000000000000000000e+00
4.850000000000000000e+02,2.581928327974647996e-01,0.000000000000000000e+00
4.860000000000000000e+02,2.013115988756461194e-01,0.000000000000000000e+00
4.870000000000000000e+02,6.911070561708891891e-01,0.000000000000000000e+00
4.880000000000000000e+02,7.841432101288544620e-01,0.000000000000000000e+00
4.890000000000000000e+02,1.138225459345265866e+00,0.000000000000000000e+00
4.900000000000000000e+02,6.500298060592611948e-01,0.000000000000000000e+00
4.910000000000000000e+02,5.348845808099492727e-01,0.000000000000000000e+00
4.920000000000000000e+02,-5.747543109643201698e-01,0.000000000000000000e+00
4.930000000000000000e+02,-4.536454433016167548e-02,0.000000000000000000e+00
4.940000000000000000e+02,-4.846448687568652436e-01,0.000000000000000000e+00
4.950000000000000000e+02,3.123095784805774398e-03,0.000000000000000000e+00
4.960000000000000000e+02,-4.271582165804946873e-01,0.000000000000000000e+00
4.970000000000000000e+02,2.996548549610890788e+00,0.000000000000000000e+00
4.980000000000000000e+02,6.162527494265198413e+00,0.000000000000000000e+00
4.990000000000000000e+02,3.485758385839481943e-01,1.000000000000000000e+00
5.000000000000000000e+02,-5.802658829526382567e-01,0.000000000000000000e+00
5.010000000000000000e+02,-1.274504510119768730e+00,0.000000000000000000e+00
5.020000000000000000e+02,-1.089521134378946599e+00,0.000000000000000000e+00
5.030000000000000000e+02,-1.155744227000879087e+00,0.000000000000000000e+00
5.040000000000000000e+02,-7.741262577367844511e-01,0.000000000000000000e+00
5.050000000000000000e+02,-7.816208181686580270e-01,0.000000000000000000e+00
5.060000000000000000e+02,-5.602503495051827098e-01,0.000000000000000000e+00
5.070000000000000000e+02,-4.427055482754356786e-01,0.000000000000000000e+00
5.080000000000000000e+02,-3.371881774519262520e-01,0.000000000000000000e+00
5.090000000000000000e+02,-1.269548088223337312e-01,0.000000000000000000e+00
5.100000000000000000e+02,1.054869604714028519e-01,0.000000000000000000e+00
5.110000000000000000e+02,4.729066753647828691e-01,0.000000000000000000e+00
5.120000000000000000e+02,6.399612174338739079e-01,0.000000000000000000e+00
5.130000000000000000e+02,6.908526852628048553e-01,0.000000000000000000e+00
5.140000000000000000e+02,1.124664588164076218e+00,0.000000000000000000e+00
5.150000000000000000e+02,8.091702656750825451e-01,0.000000000000000000e+00
5.160000000000000000e+02,1.925791803942849267e-01,0.000000000000000000e+00
5.170000000000000000e+02,-4.359152650182925304e-01,0.000000000000000000e+00
5.180000000000000000e+02,-6.676145982757771824e-01,0.000000000000000000e+00
5.190000000000000000e+02,-5.781297613833116245e-01,0.000000000000000000e+00
5.200000000000000000e+02,-7.284989597380244764e-01,0.000000000000000000e+00
5.210000000000000000e+02,-8.395158096719939067e-01,0.000000000000000000e+00
5.220000000000000000e+02,-4.870478810227337196e-01,0.000000000000000000e+00
5.230000000000000000e+02,-7.631478678017554751e-01,0.000000000000000000e+00
5.240000000000000000e+02,-5.807085147952325554e-01,0.000000000000000000e+00
5.250000000000000000e+02,-5.077809139561419993e-01,0.000000000000000000e+00
5.260000000000000000e+02,-6.214534873546242455e-01,0.000000000000000000e+00
5.270000000000000000e+02,-5.327717377970648815e-01,0.000000000000000000e+00
5.280000000000000000e+02,-4.067654028847478842e-01,0.000000000000000000e+00
5.290000000000000000e+02,-1.168032912023260900e-01,0.000000000000000000e+00
5.300000000000000000e+02,-1.746261195082977336e-01,0.000000000000000000e+00
5.310000000000000000e+02,-3.236963909433130948e-01,0.000000000000000000e+00
5.320000000000000000e+02,-2.938765296811773897e-01,0.000000000000000000e+00
5.330000000000000000e+02,-1.061119949281129626e-01,0.000000000000000000e+00
5.340000000000000000e+02,4.108925490605427194e-02,0.000000000000000000e+00
5.350000000000000000e+02,5.209734181986439006e-02,0.000000000000000000e+00
5.360000000000000000e+02,4.545287529193457049e-02,0.000000000000000000e+00
5.370000000000000000e+02,2.022100035600617879e-02,0.000000000000000000e+00
5.380000000000000000e+02,3.492668412276855872e-01,0.000000000000000000e+00
5.390000000000000000e+02,-3.529815641484686066e-03,0.000000000000000000e+00
5.400000000000000000e+02,4.358697280457830003e-01,0.000000000000000000e+00
5.410000000000000000e+02,1.536197892787358743e-01,0.000000000000000000e+00
5.420000000000000000e+02,2.546721380457604988e-01,0.000000000000000000e+00
5.430000000000000000e+02,1.375031130431645654e-01,0.000000000000000000e+00
5.440000000000000000e+02,2.765766228465640353e-01,0.000000000000000000e+00
5.450000000000000000e+02,6.038264751590153301e-01,0.000000000000000000e+00
5.460000000000000000e+02,8.375527281258979828e-01,0.000000000000000000e+00
5.470000000000000000e+02,1.246627116736096053e+00,0.000000000000000000e+00
5.480000000000000000e+02,7.008972945412518252e-01,0.000000000000000000e+00
5.490000000000000000e+02,4.660899256647825228e-01,0.000000000000000000e+00
5.500000000000000000e+02,-3.301873455634711241e-01,0.000000000000000000e+00
5.510000000000000000e+02,-2.614355260487432053e-01,0.000000000000000000e+00
5.520000000000000000e+02,-5.976929644581281675e-02,0.000000000000000000e+00
5.530000000000000000e+02,-2.753445150777561468e-01,0.000000000000000000e+00
5.540000000000000000e+02,-1.817805954215895026e-01,0.000000000000000000e+00
5.550000000000000000e+02,1.545642288623128469e+00,0.000000000000000000e+00
5.560000000000000000e+02,6.420137802142400929e+00,0.000000000000000000e+00
5.570000000000000000e+02,1.462650385438296174e+00,1.000000000000000000e+00
5.580000000000000000e+02,-7.736203113238532270e-01,0.000000000000000000e+00
5.590000000000000000e+02,-1.206166737748249673e+00,0.000000000000000000e+00
5.600000000000000000e+02,-1.453110114928682695e+00,0.000000000000000000e+00
5.610000000000000000e+02,-9.697162842460994581e-01,0.000000000000000000e+00
5.620000000000000000e+02,-1.216470251826267335e+00,0.000000000000000000e+00
5.630000000000000000e+02,-8.323551692790950307e-01,0.000000000000000000e+00
5.640000000000000000e+02,-7.362199422656906522e-01,0.000000000000000000e+00
5.650000000000000000e+02,-5.142546645009913320e-01,0.000000000000000000e+00
5.660000000000000000e+02,-4.897215206539814458e-01,0.000000000000000000e+00
5.670000000000000000e+02,-2.966581812476371677e-02,0.000000000000000000e+00
5.680000000000000000e+02,-2.127358768579525328e-01,0.000000000000000000e+00
5.690000000000000000e+02,3.163781953171025951e-01,0.000000000000000000e+00
5.700000000000000000e+02,4.322320476707920966e-01,0.000000000000000000e+00
5.710000000000000000e+02,5.576500136350076575e-01,0.000000000000000000e+00
5.720000000000000000e+02,7.890839925764413509e-01,0.000000000000000000e+00
5.730000000000000000e+02,6.429835243993275995e-01,0.000000000000000000e+00
5.740000000000000000e+02,1.689312206766432900e-01,0.000000000000000000e+00
5.750000000000000000e+02,-2.362768369610501185e-01,0.000000000000000000e+00
5.760000000000000000e+02,-1.104651944020065502e+00,0.000000000000000000e+00
5.770000000000000000e+02,-8.728189751690604847e-01,0.000000000000000000e+00
5.780000000000000000e+02,-9.811205895010538525e-01,0.000000000000000000e+00
5.790000000000000000e+02,-8.553948131579660608e-01,0.000000000000000000e+00
5.800000000000000000e+02,-9.065187553615725591e-01,0.000000000000000000e+00
5.810000000000000000e+02,-5.497998078131757227e-01,0.000000000000000000e+00
5.820000000000000000e+02,-8.531386180185560608e-01,0.000000000000000000e+00
5.830000000000000000e+02,-4.948189520969169530e-01,0.000000000000000000e+00
5.840000000000000000e+02,-5.980179370984980425e-01,0.000000000000000000e+00
5.850000000000000000e+02,-4.246680392519250891e-01,0.000000000000000000e+00
5.860000000000000000e+02,-3.762983312700451388e-01,0.000000000000000000e+00
5.870000000000000000e+02,-3.343342233754221793e-01,0.000000000000000000e+00
5.880000000000000000e+02,-4.073982712134804895e-01,0.000000000000000000e+00
5.890000000000000000e+02,-1.731383932895112499e-01,0.000000000000000000e+00
5.900000000000000000e+02,-1.722165973331002131e-01,0.000000000000000000e+00
5.910000000000000000e+02,-1.311809354105803460e-01,0.000000000000000000e+00
5.920000000000000000e+02,-9.024593193609996289e-02,0.000000000000000000e+00
5.930000000000000000e+02,2.961056260873607543e-02,0.000000000000000000e+00
5.940000000000000000e+02,3.447510986547980272e-02,0.000000000000000000e+00
5.950000000000000000e+02,-3.348218171490533173e-03,0.000000000000000000e+00
5.960000000000000000e+02,2.056284454418690344e-01,0.000000000000000000e+00
5.970000000000000000e+02,4.295432926343319829e-02,0.000000000000000000e+00
5.980000000000000000e+02,3.492541169372269660e-01,0.000000000000000000e+00
5.990000000000000000e+02,8.637301112997708419e-02,0.000000000000000000e+00
6.000000000000000000e+02,1.745254568071417933e-01,0.000000000000000000e+00
6.010000000000000000e+02,3.400765762656544622e-01,0.000000000000000000e+00
6.020000000000000000e+02,1.330596100373550028e-01,0.000000000000000000e+00
6.030000000000000000e+02,4.711003945857223929e-01,0.000000000000000000e+00
6.040000000000000000e+02,5.599605878747462295e-01,0.000000000000000000e+00
6.050000000000000000e+02,1.063947981416840660e+00,0.000000000000000000e+00
6.060000000000000000e+02,1.253032713651701435e+00,0.000000000000000000e+00
6.070000000000000000e+02,7.117419526146075981e-01,0.000000000000000000e+00
6.080000000000000000e+02,3.292249419257100018e-01,0.000000000000000000e+00
6.090000000000000000e+02,-2.370471282763248477e-01,0.000000000000000000e+00
6.100000000000000000e+02,-3.295817136058274976e-01,0.000000000000000000e+00
6.110000000000000000e+02,-7.029753196349063094e-02,0.000000000000000000e+00
6.120000000000000000e+02,-1.663193605747934900e-01,0.000000000000000000e+00
6.130000000000000000e+02,-6.422212486261359710e-02,0.000000000000000000e+00
6.140000000000000000e+02,1.424100372802759473e+00,0.000000000000000000e+00
6.150000000000000000e+02,6.581238884470089978e+00,0.000000000000000000e+00
6.160000000000000000e+02,1.637589195062090885e+00,1.000000000000000000e+00
6.170000000000000000e+02,-5.817419260988916374e-01,0.000000000000000000e+00
6.180000000000000000e+02,-9.904714784467181232e-01,0.000000000000000000e+00
6.190000000000000000e+02,-1.254840987635613692e+00,0.000000000000000000e+00
6.200000000000000000e+02,-1.011174652652109485e+00,0.000000000000000000e+00
6.210000000000000000e+02,-1.107779335629803796e+00,0.000000000000000000e+00
6.220000000000000000e+02,-5.407003048746684692e-01,0.000000000000000000e+00
6.230000000000000000e+02,-7.518340659780671231e-01,0.000000000000000000e+00
6.240000000000000000e+02,-4.389271339228737467e-01,0.000000000000000000e+00
6.250000000000000000e+02,-3.361483963590049528e-01,0.000000000000000000e+00
6.260000000000000000e+02,-3.213843949859269133e-01,0.000000000000000000e+00
6.270000000000000000e+02,-2.900063879717109175e-02,0.000000000000000000e+00
6.280000000000000000e+02,2.771520859989106689e-01,0.000000000000000000e+00
6.290000000000000000e+02,5.909907671045031563e-01,0.000000000000000000e+00
6.300000000000000000e+02,6.820694143594253633e-01,0.000000000000000000e+00
6.310000000000000000e+02,8.961849566572319681e-01,0.000000000000000000e+00
6.320000000000000000e+02,5.916935098480696764e-01,0.000000000000000000e+00
6.330000000000000000e+02,3.454899882411193168e-01,0.000000000000000000e+00
6.340000000000000000e+02,-3.060662290113518313e-01,0.000000000000000000e+00
6.350000000000000000e+02,-7.552898215356681488e-01,0.000000000000000000e+00
6.360000000000000000e+02,-8.096742191253213372e-01,0.000000000000000000e+00
6.370000000000000000e+02,-1.163134572105402054e+00,0.000000000000000000e+00
6.380000000000000000e+02,-9.118827605741697262e-01,0.000000000000000000e+00
6.390000000000000000e+02,-8.660551577667773282e-01,0.000000000000000000e+00
6.400000000000000000e+02,-7.584945993308168655e-01,0.000000000000000000e+00
6.410000000000000000e+02,-7.439795492425403944e-01,0.000000000000000000e+00
6.420000000000000000e+02,-6.205188870890091524e-01,0.000000000000000000e+00
6.430000000000000000e+02,-7.493582646378182943e-01,0.000000000000000000e+00
6.440000000000000000e+02,-5.670850895158221494e-01,0.000000000000000000e+00
6.450000000000000000e+02,-4.461382779779871077e-01,0.000000000000000000e+00
6.460000000000000000e+02,-3.386833990219036972e-01,0.000000000000000000e+00
6.470000000000000000e+02,-3.845671660405722281e-01,0.000000000000000000e+00
6.480000000000000000e+02,-2.066001393789524132e-01,0.000000000000000000e+00
6.490000000000000000e+02,-2.443624961536838280e-01,0.000000000000000000e+00
6.500000000000000000e+02,-1.287098583129515084e-01,0.000000000000000000e+00
6.510000000000000000e+02,-2.504467471246933918e-01,0.000000000000000000e+00
6.520000000000000000e+02,-6.490246733858286154e-02,0.000000000000000000e+00
6.530000000000000000e+02,4.334938253359339462e-04,0.000000000000000000e+00
6.540000000000000000e+02,2.239716356603326311e-02,0.000000000000000000e+00
6.550000000000000000e+02,2.514410998728391217e-02,0.000000000000000000e+00
6.560000000000000000e+02,-2.032935896435712486e-01,0.000000000000000000e+00
6.570000000000000000e+02,3.288604068158485494e-01,0.000000000000000000e+00
6.580000000000000000e+02,1.477577061384769963e-01,0.000000000000000000e+00
6.590000000000000000e+02,1.254657315398584050e-01,0.000000000000000000e+00
6.600000000000000000e+02,2.627404360790583926e-01,0.000000000000000000e+00
6.610000000000000000e+02,2.960568601610821249e-01,0.000000000000000000e+00
6.620000000000000000e+02,3.903587619726116009e-01,0.000000000000000000e+00
6.630000000000000000e+02,7.173734396033503158e-01,0.000000000000000000e+00
6.640000000000000000e+02,1.078154304374110195e+00,0.000000000000000000e+00
6.650000000000000000e+02,8.805015721253728334e-01,0.000000000000000000e+00
6.660000000000000000e+02,6.713882631062781936e-01,0.000000000000000000e+00
6.670000000000000000e+02,3.568637687517675627e-02,0.000000000000000000e+00
6.680000000000000000e+02,-2.732769317769010442e-01,0.000000000000000000e+00
6.690000000000000000e+02,-8.050474530953370678e-02,0.000000000000000000e+00
6.700000000000000000e+02,-2.893127615930585206e-01,0.000000000000000000e+00
6.710000000000000000e+02,9.016853874681088343e-02,0.000000000000000000e+00
6.720000000000000000e+02,-4.600878140787881265e-01,0.000000000000000000e+00
6.730000000000000000e+02,2.338922602664327943e+00,0.000000000000000000e+00
6.740000000000000000e+02,6.205172105620962775e+00,0.000000000000000000e+00
6.750000000000000000e+02,8.839548667376724289e-01,1.000000000000000000e+00
6.760000000000000000e+02,-7.034295814846807104e-01,0.000000000000000000e+00
6.770000000000000000e+02,-1.193359022111319501e+00,0.000000000000000000e+00
6.780000000000000000e+02,-1.278273112873151041e+00,0.000000000000000000e+00
6.790000000000000000e+02,-1.009036389428557001e+00,0.000000000000000000e+00
6.800000000000000000e+02,-8.735006779117960862e-01,0.000000000000000000e+00
6.810000000000000000e+02,-8.264859763003959969e-01,0.000000000000000000e+00
6.820000000000000000e+02,-6.259504554340030724e-01,0.000000000000000000e+00
6.830000000000000000e+02,-3.731162978125620588e-01,0.000000000000000000e+00
6.840000000000000000e+02,-2.287137068200540690e-01,0.000000000000000000e+00
6.850000000000000000e+02,-1.349916194896367237e-02,0.000000000000000000e+00
6.860000000000000000e+02,1.265206325227131723e-01,0.000000000000000000e+00
6.870000000000000000e+02,3.048147271857492013e-01,0.000000000000000000e+00
6.880000000000000000e+02,6.453802151476587534e-01,0.000000000000000000e+00
6.890000000000000000e+02,7.659381380625567282e-01,0.000000000000000000e+00
6.900000000000000000e+02,7.111851808582234646e-01,0.000000000000000000e+00
6.910000000000000000e+02,8.552992856522808607e-01,0.000000000000000000e+00
6.920000000000000000e+02,2.387650323868906466e-01,0.000000000000000000e+00
6.930000000000000000e+02,-2.414741796139861785e-01,0.000000000000000000e+00
6.940000000000000000e+02,-6.628862934559405229e-01,0.000000000000000000e+00
6.950000000000000000e+02,-8.698209945187406200e-01,0.000000000000000000e+00
6.960000000000000000e+02,-7.322880327652622201e-01,0.000000000000000000e+00
6.970000000000000000e+02,-8.092893488990293704e-01,0.000000000000000000e+00
6.980000000000000000e+02,-7.667702700834195806e-01,0.000000000000000000e+00
6.990000000000000000e+02,-9.497796613922867559e-01,0.000000000000000000e+00
7.000000000000000000e+02,-4.178706232970393897e-01,0.000000000000000000e+00
7.010000000000000000e+02,-6.035028949768974638e-01,0.000000000000000000e+00
7.020000000000000000e+02,-6.333387099472708170e-01,0.000000000000000000e+00
7.030000000000000000e+02,-4.479028576286691044e-01,0.000000000000000000e+00
7.040000000000000000e+02,-4.677535164230388065e-01,0.000000000000000000e+00
7.050000000000000000e+02,-1.695425920461848535e-01,0.000000000000000000e+00
7.060000000000000000e+02,-2.558646884716229142e-01,0.000000000000000000e+00
7.070000000000000000e+02,-1.233636019401027906e-01,0.000000000000000000e+00
7.080000000000000000e+02,1.088813273004553273e-02,0.000000000000000000e+00
7.090000000000000000e+02,-8.763345430951374748e-02,0.000000000000000000e+00
7.100000000000000000e+02,-7.137577975845525724e-02,0.000000000000000000e+00
7.110000000000000000e+02,3.568753443646964507e-02,0.000000000000000000e+00
7.120000000000000000e+02,1.548391371402094985e-01,0.000000000000000000e+00
7.130000000000000000e+02,1.495542796735778168e-01,0.000000000000000000e+00
7.140000000000000000e+02,1.751682267129607562e-01,0.000000000000000000e+00
7.150000000000000000e+02,1.711313056492422546e-01,0.000000000000000000e+00
7.160000000000000000e+02,9.441463245566469875e-02,0.000000000000000000e+00
7.170000000000000000e+02,2.044888402857703846e-01,0.000000000000000000e+00
7.180000000000000000e+02,3.591469065149063833e-01,0.000000000000000000e+00
7.190000000000000000e+02,2.168628058683942095e-01,0.000000000000000000e+00
7.200000000000000000e+02,3.967837062988281982e-01,0.000000000000000000e+00
7.210000000000000000e+02,5.923024631764802761e-01,0.000000000000000000e+00
7.220000000000000000e+02,7.688352045196118478e-01,0.000000000000000000e+00
7.230000000000000000e+02,1.031800849152350930e+00,0.000000000000000000e+00
7.240000000000000000e+02,4.293509970869046066e-01,0.000000000000000000e+00
7.250000000000000000e+02,1.203158105548981088e-01,0.000000000000000000e+00
7.260000000000000000e+02,-5.034435365495318893e-01,0.000000000000000000e+00
7.270000000000000000e+02,-6.949930199969338307e-02,0.000000000000000000e+00
7.280000000000000000e+02,-4.206865962447381979e-01,0.000000000000000000e+00
7.290000000000000000e+02,2.367115739798298160e-02,0.000000000000000000e+00
7.300000000000000000e+02,-3.228195225570014149e-01,0.000000000000000000e+00
7.310000000000000000e+02,4.192585702469166620e+00,0.000000000000000000e+00
7.320000000000000000e+02,4.111610099746967784e+00,0.000000000000000000e+00
7.330000000000000000e+02,-8.899877945722896033e-01,1.000000000000000000e+00
7.340000000000000000e+02,-6.195899668438896724e-01,0.000000000000000000e+00
7.350000000000000000e+02,-1.238478009170571159e+00,0.000000000000000000e+00
7.360000000000000000e+02,-7.223299969567130718e-01,0.000000000000000000e+00
7.370000000000000000e+02,-1.113004958053342319e+00,0.000000000000000000e+00
7.380000000000000000e+02,-8.737322288661016900e-01,0.000000000000000000e+00
7.390000000000000000e+02,-7.620485440205003735e-01,0.000000000000000000e+00
7.400000000000000000e+02,-3.527145324779571434e-01,0.000000000000000000e+00
7.410000000000000000e+02,-5.076215171382844060e-01,0.000000000000000000e+00
7.420000000000000000e+02,3.927008157472174077e-02,0.000000000000000000e+00
7.430000000000000000e+02,-3.219223902506403445e-01,0.000000000000000000e+00
7.440000000000000000e+02,4.713766019877655977e-01,0.000000000000000000e+00
7.450000000000000000e+02,3.043297046354935809e-01,0.000000000000000000e+00
7.460000000000000000e+02,7.252483179967749161e-01,0.000000000000000000e+00
7.470000000000000000e+02,7.828112804380579215e-01,0.000000000000000000e+00
7.480000000000000000e+02,6.428223183433763310e-01,0.000000000000000000e+00
7.490000000000000000e+02,2.661380667668796773e-01,0.000000000000000000e+00
7.500000000000000000e+02,8.220622717318802619e-02,0.000000000000000000e+00
7.510000000000000000e+02,-8.682191825373671845e-01,0.000000000000000000e+00
7.520000000000000000e+02,-8.001445170013102848e-01,0.000000000000000000e+00
7.530000000000000000e+02,-1.336204707326892116e+00,0.000000000000000000e+00
7.540000000000000000e+02,-9.327614738250636917e-01,0.000000000000000000e+00
7.550000000000000000e+02,-1.152614111157189258e+00,0.000000000000000000e+00
7.560000000000000000e+02,-9.184524687500746909e-01,0.000000000000000000e+00
7.570000000000000000e+02,-8.211221207488056395e-01,0.000000000000000000e+00
7.580000000000000000e+02,-7.587753533858175858e-01,0.000000000000000000e+00
7.590000000000000000e+02,-5.477910816459709009e-01,0.000000000000000000e+00
7.600000000000000000e+02,-4.466338912852554355e-01,0.000000000000000000e+00
7.610000000000000000e+02,-6.162220321097553466e-01,0.000000000000000000e+00
7.620000000000000000e+02,-5.697830418419057991e-02,0.000000000000000000e+00
7.630000000000000000e+02,-5.719829157283877752e-01,0.000000000000000000e+00
7.640000000000000000e+02,6.299569924561809753e-02,0.000000000000000000e+00
7.650000000000000000e+02,-2.166069837082907346e-01,0.000000000000000000e+00
7.660000000000000000e+02,-1.246473168199207539e-02,0.000000000000000000e+00
7.670000000000000000e+02,-1.878705293645762664e-01,0.000000000000000000e+00
7.680000000000000000e+02,1.112512414656136039e-01,0.000000000000000000e+00
7.690000000000000000e+02,-8.777799289204194638e-03,0.000000000000000000e+00
7.700000000000000000e+02,-5.379288936706751872e-02,0.000000000000000000e+00
7.710000000000000000e+02,1.603969785910137613e-01,0.000000000000000000e+00
7.720000000000000000e+02,3.423989423943072929e-01,0.000000000000000000e+00
7.730000000000000000e+02,1.430502355203146503e-01,0.000000000000000000e+00
7.740000000000000000e+02,2.758050668598487354e-01,0.000000000000000000e+00
7.750000000000000000e+02,3.748083950080781102e-01,0.000000000000000000e+00
7.760000000000000000e+02,8.372478261636674413e-01,0.000000000000000000e+00
7.770000000000000000e+02,1.170765794958569250e+00,0.000000000000000000e+00
7.780000000000000000e+02,1.185342338825989383e+00,0.000000000000000000e+00
7.790000000000000000e+02,7.214183200304350452e-01,0.000000000000000000e+00
7.800000000000000000e+02,2.555848219858530279e-01,0.000000000000000000e+00
7.810000000000000000e+02,-1.638640764177728137e-01,0.000000000000000000e+00
7.820000000000000000e+02,1.504171467568968523e-01,0.000000000000000000e+00
7.830000000000000000e+02,-2.340127440687986560e-01,0.000000000000000000e+00
7.840000000000000000e+02,3.286448697484377068e-01,0.000000000000000000e+00
7.850000000000000000e+02,-1.402333561871160483e-01,0.000000000000000000e+00
7.860000000000000000e+02,4.641576506180231654e+00,0.000000000000000000e+00
7.870000000000000000e+02,2.598167678505850287e+00,1.000000000000000000e+00
7.880000000000000000e+02,-8.447675258190631142e-01,0.000000000000000000e+00
7.890000000000000000e+02,-3.562265721956816567e-01,0.000000000000000000e+00
7.900000000000000000e+02,-1.067889201911175645e+00,0.000000000000000000e+00
7.910000000000000000e+02,-6.454924862133535335e-01,0.000000000000000000e+00
7.920000000000000000e+02,-7.407892640464077694e-01,0.000000000000000000e+00
7.930000000000000000e+02,-4.256950573581155250e-01,0.000000000000000000e+00
7.940000000000000000e+02,-4.236487665351030829e-01,0.000000000000000000e+00
7.950000000000000000e+02,-1.569394460911054945e-01,0.000000000000000000e+00
7.960000000000000000e+02,-4.599731430620612183e-01,0.000000000000000000e+00
7.970000000000000000e+02,1.993998911112885020e-01,0.000000000000000000e+00
7.980000000000000000e+02,3.777687078914151314e-02,0.000000000000000000e+00
7.990000000000000000e+02,3.994605269452878860e-01,0.000000000000000000e+00
8.000000000000000000e+02,6.512833021216830609e-01,0.000000000000000000e+00
8.010000000000000000e+02,8.271057569009259147e-01,0.000000000000000000e+00
8.020000000000000000e+02,9.157239303020850985e-01,0.000000000000000000e+00
8.030000000000000000e+02,9.413702773462669926e-01,0.000000000000000000e+00
8.040000000000000000e+02,3.487755824802097893e-01,0.000000000000000000e+00
8.050000000000000000e+02,-2.662063886437526783e-01,0.000000000000000000e+00
8.060000000000000000e+02,-6.519100968191846590e-01,0.000000000000000000e+00
8.070000000000000000e+02,-8.106176460667693373e-01,0.000000000000000000e+00
8.080000000000000000e+02,-1.063227949706847308e+00,0.000000000000000000e+00
8.090000000000000000e+02,-9.945803647426706418e-01,0.000000000000000000e+00
8.100000000000000000e+02,-9.159493506296044751e-01,0.000000000000000000e+00
8.110000000000000000e+02,-9.131015840004295114e-01,0.000000000000000000e+00
8.120000000000000000e+02,-9.542331049966021883e-01,0.000000000000000000e+00
8.130000000000000000e+02,-6.346132721066382043e-01,0.000000000000000000e+00
8.140000000000000000e+02,-5.967270282723592389e-01,0.000000000000000000e+00
8.150000000000000000e+02,-4.832036728109888601e-01,0.000000000000000000e+00
8.160000000000000000e+02,-4.468476547374684027e-01,0.000000000000000000e+00
8.170000000000000000e+02,-4.228970101420929106e-01,0.000000000000000000e+00
8.180000000000000000e+02,-4.157640174678277623e-01,0.000000000000000000e+00
8.190000000000000000e+02,-2.054753668454309679e-01,0.000000000000000000e+00
8.200000000000000000e+02,-8.891367220444404418e-02,0.000000000000000000e+00
8.210000000000000000e+02,-1.406591669287707014e-01,0.000000000000000000e+00
8.220000000000000000e+02,-1.419688418713218880e-01,0.000000000000000000e+00
8.230000000000000000e+02,-1.409084979791016823e-01,0.000000000000000000e+00
8.240000000000000000e+02,8.825133987459939100e-02,0.000000000000000000e+00
8.250000000000000000e+02,-1.204854727838169798e-01,0.000000000000000000e+00
8.260000000000000000e+02,1.424591651261153946e-01,0.000000000000000000e+00
8.270000000000000000e+02,-3.395745665033806510e-02,0.000000000000000000e+00
8.280000000000000000e+02,8.076071105097788749e-02,0.000000000000000000e+00
8.290000000000000000e+02,1.289489676630847237e-01,0.000000000000000000e+00
8.300000000000000000e+02,5.341924390336808548e-01,0.000000000000000000e+00
8.310000000000000000e+02,1.049983115023906954e+00,0.000000000000000000e+00
8.320000000000000000e+02,7.859021763103877234e-01,0.000000000000000000e+00
8.330000000000000000e+02,3.510299549803320152e-01,0.000000000000000000e+00
8.340000000000000000e+02,3.658886976150432097e-02,0.000000000000000000e+00
8.350000000000000000e+02,-5.139719813201956145e-01,0.000000000000000000e+00
8.360000000000000000e+02,-4.843120260623006573e-02,0.000000000000000000e+00
8.370000000000000000e+02,-2.298691487247911114e-01,0.000000000000000000e+00
8.380000000000000000e+02,-4.950567974358833362e-02,0.000000000000000000e+00
8.390000000000000000e+02,7.289473078216717195e-01,0.000000000000000000e+00
8.400000000000000000e+02,5.512809992288439709e+00,0.000000000000000000e+00
8.410000000000000000e+02,1.648479922322485525e+00,1.000000000000000000e+00
8.420000000000000000e+02,-6.757801386269322030e-01,0.000000000000000000e+00
8.430000000000000000e+02,-6.640122700343081830e-01,0.000000000000000000e+00
8.440000000000000000e+02,-9.484800891559282965e-01,0.000000000000000000e+00
8.450000000000000000e+02,-7.557719820875129502e-01,0.000000000000000000e+00
8.460000000000000000e+02,-8.376706365916990471e-01,0.000000000000000000e+00
8.470000000000000000e+02,-4.137590004847878089e-01,0.000000000000000000e+00
8.480000000000000000e+02,-5.566909092210705623e-01,0.000000000000000000e+00
8.490000000000000000e+02,-1.879038247236564374e-01,0.000000000000000000e+00
8.500000000000000000e+02,-3.360540409114620153e-01,0.000000000000000000e+00
8.510000000000000000e+02,3.377695580285136612e-02,0.000000000000000000e+00
8.520000000000000000e+02,1.747682154239462438e-01,0.000000000000000000e+00
8.530000000000000000e+02,5.527563503864553196e-01,0.000000000000000000e+00
8.540000000000000000e+02,7.704929259689640153e-01,0.000000000000000000e+00
8.550000000000000000e+02,1.033226098781259816e+00,0.000000000000000000e+00
8.560000000000000000e+02,9.159474178963669111e-01,0.000000000000000000e+00
8.570000000000000000e+02,8.557770343625556997e-01,0.000000000000000000e+00
8.580000000000000000e+02,3.265949737894551785e-01,0.000000000000000000e+00
8.590000000000000000e+02,-2.304121902645560327e-01,0.000000000000000000e+00
8.600000000000000000e+02,-7.459114038053897833e-01,0.000000000000000000e+00
8.610000000000000000e+02,-7.484682785983156617e-01,0.000000000000000000e+00
8.620000000000000000e+02,-1.160652003261955389e+00,0.000000000000000000e+00
8.630000000000000000e+02,-7.739937834114624104e-01,0.000000000000000000e+00
8.640000000000000000e+02,-8.406912167711074746e-01,0.000000000000000000e+00
8.650000000000000000e+02,-8.430623510152601696e-01,0.000000000000000000e+00
8.660000000000000000e+02,-5.503816679533948264e-01,0.000000000000000000e+00
8.670000000000000000e+02,-5.756970406533895579e-01,0.000000000000000000e+00
8.680000000000000000e+02,-6.764263512476166307e-01,0.000000000000000000e+00
8.690000000000000000e+02,-4.249297934280456546e-01,0.000000000000000000e+00
8.700000000000000000e+02,-4.399984517453572330e-01,0.000000000000000000e+00
8.710000000000000000e+02,-2.348011442590503262e-01,0.000000000000000000e+00
8.720000000000000000e+02,-4.100186826087496295e-01,0.000000000000000000e+00
8.730000000000000000e+02,-2.023850966132083040e-01,0.000000000000000000e+00
8.740000000000000000e+02,-5.091524121546658899e-01,0.000000000000000000e+00
8.750000000000000000e+02,-7.209803340037644614e-02,0.000000000000000000e+00
8.760000000000000000e+02,-1.288227543597881275e-01,0.000000000000000000e+00
8.770000000000000000e+02,8.170619716092548945e-02,0.000000000000000000e+00
8.780000000000000000e+02,-9.147431901585852121e-02,0.000000000000000000e+00
8.790000000000000000e+02,1.251503386218218161e-01,0.000000000000000000e+00
8.800000000000000000e+02,1.590527849765148716e-01,0.000000000000000000e+00
8.810000000000000000e+02,1.214515962979288571e-01,0.000000000000000000e+00
8.820000000000000000e+02,2.739069045000978031e-01,0.000000000000000000e+00
8.830000000000000000e+02,4.314763167452668330e-02,0.000000000000000000e+00
8.840000000000000000e+02,5.088014652122824222e-01,0.000000000000000000e+00
8.850000000000000000e+02,5.849729013853843806e-01,0.000000000000000000e+00
8.860000000000000000e+02,1.132354260350394659e+00,0.000000000000000000e+00
8.870000000000000000e+02,1.177218753629566628e+00,0.000000000000000000e+00
8.880000000000000000e+02,5.083648349370812891e-01,0.000000000000000000e+00
8.890000000000000000e+02,3.385344810759097212e-01,0.000000000000000000e+00
8.900000000000000000e+02,-3.650708314199413995e-01,0.000000000000000000e+00
8.910000000000000000e+02,-1.011232622353153143e-01,0.000000000000000000e+00
8.920000000000000000e+02,-4.202892532600264186e-01,0.000000000000000000e+00
8.930000000000000000e+02,2.266916194206696489e-01,0.000000000000000000e+00
8.940000000000000000e+02,-3.486326858658296279e-01,0.000000000000000000e+00
8.950000000000000000e+02,3.880907354247686847e+00,0.000000000000000000e+00
8.960000000000000000e+02,5.037191946654578700e+00,0.000000000000000000e+00
8.970000000000000000e+02,-2.140527688770920978e-01,1.000000000000000000e+00
8.980000000000000000e+02,-4.848219441581667066e-01,0.000000000000000000e+00
8.990000000000000000e+02,-1.260562238443721617e+00,0.000000000000000000e+00
9.000000000000000000e+02,-1.037386804426683184e+00,0.000000000000000000e+00
9.010000000000000000e+02,-1.027625047768971234e+00,0.000000000000000000e+00
9.020000000000000000e+02,-7.175396623060193990e-01,0.000000000000000000e+00
9.030000000000000000e+02,-8.659189440914001334e-01,0.000000000000000000e+00
9.040000000000000000e+02,-3.791587696927340434e-01,0.000000000000000000e+00
9.050000000000000000e+02,-6.022071510957257567e-01,0.000000000000000000e+00
9.060000000000000000e+02,-6.253539369905362910e-02,0.000000000000000000e+00
9.070000000000000000e+02,-2.461759058054645843e-01,0.000000000000000000e+00
9.080000000000000000e+02,3.008859374176804935e-01,0.000000000000000000e+00
9.090000000000000000e+02,4.047667372456366097e-01,0.000000000000000000e+00
9.100000000000000000e+02,6.987904562978084488e-01,0.000000000000000000e+00
9.110000000000000000e+02,9.211503236624499769e-01,0.000000000000000000e+00
9.120000000000000000e+02,9.170767435556990144e-01,0.000000000000000000e+00
9.130000000000000000e+02,4.665441731241421475e-01,0.000000000000000000e+00
9.140000000000000000e+02,-1.532433622616431179e-01,0.000000000000000000e+00
9.150000000000000000e+02,-5.615215301335082509e-01,0.000000000000000000e+00
9.160000000000000000e+02,-1.016779778353131380e+00,0.000000000000000000e+00
9.170000000000000000e+02,-1.029415531574297438e+00,0.000000000000000000e+00
9.180000000000000000e+02,-9.159814057961624956e-01,0.000000000000000000e+00
9.190000000000000000e+02,-7.832098221876102606e-01,0.000000000000000000e+00
9.200000000000000000e+02,-8.155769007438968821e-01,0.000000000000000000e+00
9.210000000000000000e+02,-6.787418684789119361e-01,0.000000000000000000e+00
9.220000000000000000e+02,-6.691781550086873809e-01,0.000000000000000000e+00
9.230000000000000000e+02,-5.857176963158856609e-01,0.000000000000000000e+00
9.240000000000000000e+02,-4.706206113651290601e-01,0.000000000000000000e+00
9.250000000000000000e+02,-5.833901550142778225e-01,0.000000000000000000e+00
9.260000000000000000e+02,-3.114314261935091643e-01,0.000000000000000000e+00
9.270000000000000000e+02,-3.991221100652914133e-01,0.000000000000000000e+00
9.280000000000000000e+02,-1.118916715881060758e-01,0.000000000000000000e+00
9.290000000000000000e+02,-3.285476186514822428e-01,0.000000000000000000e+00
9.300000000000000000e+02,5.813149771193330817e-02,0.000000000000000000e+00
9.310000000000000000e+02,-2.715699294674429193e-02,0.000000000000000000e+00
9.320000000000000000e+02,1.283427926687080167e-01,0.000000000000000000e+00
9.330000000000000000e+02,-1.410426246777526059e-02,0.000000000000000000e+00
9.340000000000000000e+02,2.248363013532035104e-01,0.000000000000000000e+00
9.350000000000000000e+02,1.079451219228968611e-01,0.000000000000000000e+00
9.360000000000000000e+02,-3.796188325892307924e-02,0.000000000000000000e+00
9.370000000000000000e+02,2.624726042744082721e-01,0.000000000000000000e+00
9.380000000000000000e+02,2.564898172095527729e-01,0.000000000000000000e+00
9.390000000000000000e+02,3.788984946589920577e-01,0.000000000000000000e+00
9.400000000000000000e+02,2.906985363395983568e-01,0.000000000000000000e+00
9.410000000000000000e+02,5.960544813896354599e-01,0.000000000000000000e+00
9.420000000000000000e+02,7.783084279748897494e-01,0.000000000000000000e+00
9.430000000000000000e+02,1.237902531066091383e+00,0.000000000000000000e+00
9.440000000000000000e+02,8.285997624938579165e-01,0.000000000000000000e+00
9.450000000000000000e+02,5.145492722099462846e-01,0.000000000000000000e+00
9.460000000000000000e+02,-4.269664190681489724e-01,0.000000000000000000e+00
9.470000000000000000e+02,-1.963191985649543059e-01,0.000000000000000000e+00
9.480000000000000000e+02,-1.568792064552251564e-01,0.000000000000000000e+00
9.490000000000000000e+02,6.229900473486522233e-02,0.000000000000000000e+00
9.500000000000000000e+02,-4.652537954559605171e-01,0.000000000000000000e+00
9.510000000000000000e+02,2.431805259682015219e+00,0.000000000000000000e+00
9.520000000000000000e+02,6.292462793328618353e+00,0.000000000000000000e+00
9.530000000000000000e+02,6.195902351219628734e-01,1.000000000000000000e+00
9.540000000000000000e+02,-5.140450520534494139e-01,0.000000000000000000e+00
9.550000000000000000e+02,-1.334835471008819052e+00,0.000000000000000000e+00
9.560000000000000000e+02,-1.092965064600607272e+00,0.000000000000000000e+00
9.570000000000000000e+02,-1.140908258878409409e+00,0.000000000000000000e+00
9.580000000000000000e+02,-1.006617161404673499e+00,0.000000000000000000e+00
9.590000000000000000e+02,-7.181876048395285927e-01,0.000000000000000000e+00
9.600000000000000000e+02,-7.359253000898694497e-01,0.000000000000000000e+00
9.610000000000000000e+02,-6.042297946164989497e-01,0.000000000000000000e+00
9.620000000000000000e+02,-2.735473942916604728e-01,0.000000000000000000e+00
9.630000000000000000e+02,-3.333756301437488800e-01,0.000000000000000000e+00
9.640000000000000000e+02,4.622310174972319580e-02,0.000000000000000000e+00
9.650000000000000000e+02,-2.029501238293478574e-02,0.000000000000000000e+00
9.660000000000000000e+02,6.537162951254519294e-01,0.000000000000000000e+00
9.670000000000000000e+02,4.720026267984012702e-01,0.000000000000000000e+00
9.680000000000000000e+02,7.174109918824734811e-01,0.000000000000000000e+00
9.690000000000000000e+02,7.688457025862879268e-01,0.000000000000000000e+00
9.700000000000000000e+02,-3.767987320761784741e-03,0.000000000000000000e+00
9.710000000000000000e+02,-5.264978389880852205e-01,0.000000000000000000e+00
9.720000000000000000e+02,-1.029105736540217420e+00,0.000000000000000000e+00
9.730000000000000000e+02,-7.905971087813088438e-01,0.000000000000000000e+00
9.740000000000000000e+02,-1.017669411119963785e+00,0.000000000000000000e+00
9.750000000000000000e+02,-8.475769875168402967e-01,0.000000000000000000e+00
9.760000000000000000e+02,-8.541006192472549996e-01,0.000000000000000000e+00
9.770000000000000000e+02,-7.006836013870457736e-01,0.000000000000000000e+00
9.780000000000000000e+02,-6.480134753761498390e-01,0.000000000000000000e+00
9.790000000000000000e+02,-5.238554880848684814e-01,0.000000000000000000e+00
9.800000000000000000e+02,-7.626260926938261964e-01,0.000000000000000000e+00
9.810000000000000000e+02,-4.130097196449626917e-01,0.000000000000000000e+00
9.820000000000000000e+02,-4.674926630390149884e-01,0.000000000000000000e+00
9.830000000000000000e+02,-2.607820067850158408e-01,0.000000000000000000e+00
9.840000000000000000e+02,-3.543880122027451285e-01,0.000000000000000000e+00
9.850000000000000000e+02,-4.783533023106804200e-02,0.000000000000000000e+00
9.860000000000000000e+02,-1.780982342656929895e-01,0.000000000000000000e+00
9.870000000000000000e+02,-1.209367493291298584e-01,0.000000000000000000e+00
9.880000000000000000e+02,-3.870048252327465410e-02,0.000000000000000000e+00
9.890000000000000000e+02,7.337974511184938708e-02,0.000000000000000000e+00
9.900000000000000000e+02,1.000307579374625291e-02,0.000000000000000000e+00
9.910000000000000000e+02,1.515677976172379038e-01,0.000000000000000000e+00
9.920000000000000000e+02,-9.412750007929182594e-02,0.000000000000000000e+00
9.930000000000000000e+02,2.286073118147810002e-01,0.000000000000000000e+00
9.940000000000000000e+02,2.589176058174234019e-01,0.000000000000000000e+00
9.950000000000000000e+02,5.424661270660642576e-02,0.000000000000000000e+00
9.960000000000000000e+02,2.404439885970134916e-01,0.000000000000000000e+00
9.970000000000000000e+02,4.698032907940399294e-01,0.000000000000000000e+00
9.980000000000000000e+02,6.493202531192321381e-01,0.000000000000000000e+00
9.990000000000000000e+02,1.177138978550641424e+00,0.000000000000000000e+00
1.000000000000000000e+03,8.124193889583919415e-01,0.000000000000000000e+00
1.001000000000000000e+03,5.692763576138856196e-01,0.000000000000000000e+00
1.002000000000000000e+03,-2.697648438022643980e-01,0.000000000000000000e+00
1.003000000000000000e+03,-4.043331324437635654e-01,0.000000000000000000e+00
1.004000000000000000e+03,-7.951662553970972880e-02,0.000000000000000000e+00
1.005000000000000000e+03,-2.497501482809754703e-01,0.000000000000000000e+00
1.006000000000000000e+03,1.001665262694912961e-01,0.000000000000000000e+00
1.007000000000000000e+03,5.309078112801354221e-01,0.000000000000000000e+00
1.008000000000000000e+03,6.304877208363481422e+00,0.000000000000000000e+00
1.009000000000000000e+03,2.409223764115632438e+00,1.000000000000000000e+00
1.010000000000000000e+03,-7.825875573827055787e-01,0.000000000000000000e+00
1.011000000000000000e+03,-7.237590261358298749e-01,0.000000000000000000e+00
1.012000000000000000e+03,-1.257189665943934331e+00,0.000000000000000000e+00
1.013000000000000000e+03,-9.748214113490575317e-01,0.000000000000000000e+00
1.014000000000000000e+03,-1.266693630159530848e+00,0.000000000000000000e+00
1.015000000000000000e+03,-6.365062187340585487e-01,0.000000000000000000e+00
1.016000000000000000e+03,-7.970205598737186703e-01,0.000000000000000000e+00
1.017000000000000000e+03,-5.400029445896551428e-01,0.000000000000000000e+00
1.018000000000000000e+03,-4.389878351802149470e-01,0.000000000000000000e+00
1.019000000000000000e+03,-2.311102937968109450e-01,0.000000000000000000e+00
1.020000000000000000e+03,1.450529068303599636e-02,0.000000000000000000e+00
1.021000000000000000e+03,2.618545766493900473e-01,0.000000000000000000e+00
1.022000000000000000e+03,7.411333117948301075e-01,0.000000000000000000e+00
1.023000000000000000e+03,6.088693335103578796e-01,0.000000000000000000e+00
1.024000000000000000e+03,1.069114171676933678e+00,0.000000000000000000e+00
1.025000000000000000e+03,7.839883161142412460e-01,0.000000000000000000e+00
1.026000000000000000e+03,4.293931353179922250e-01,0.000000000000000000e+00
1.027000000000000000e+03,-1.437255269852072137e-01,0.000000000000000000e+00
1.028000000000000000e+03,-7.273866106298407797e-01,0.000000000000000000e+00
1.029000000000000000e+03,-9.145835232607019138e-01,0.000000000000000000e+00
1.030000000000000000e+03,-9.929367457276596642e-01,0.000000000000000000e+00
1.031000000000000000e+03,-7.326695678039317761e-01,0.000000000000000000e+00
1.032000000000000000e+03,-3.999541269059071480e-01,0.000000000000000000e+00
1.033000000000000000e+03,-6.608635812807712728e-01,0.000000000000000000e+00
1.034000000000000000e+03,-5.565370939282487939e-01,0.000000000000000000e+00
1.035000000000000000e+03,-6.854964095975576432e-01,0.000000000000000000e+00
1.036000000000000000e+03,-4.521613173889904025e-01,0.000000000000000000e+00
1.037000000000000000e+03,-2.897342550233110714e-01,0.000000000000000000e+00
1.038000000000000000e+03,-3.440400198885930627e-01,0.000000000000000000e+00
1.039000000000000000e+03,-2.186928143684166437e-01,0.000000000000000000e+00
1.040000000000000000e+03,-1.048151718481971639e-01,0.000000000000000000e+00
1.041000000000000000e+03,-4.198067933640280414e-01,0.000000000000000000e+00
1.042000000000000000e+03,1.070815397651546375e-01,0.000000000000000000e+00
1.043000000000000000e+03,-1.805114265349301306e-01,0.000000000000000000e+00
1.044000000000000000e+03,-6.831385092908436041e-02,0.000000000000000000e+00
1.045000000000000000e+03,1.949734286550229012e-01,0.000000000000000000e+00
1.046000000000000000e+03,-4.941136875245676074e-02,0.000000000000000000e+00
1.047000000000000000e+03,1.017618603098137120e-01,0.000000000000000000e+00
1.048000000000000000e+03,8.740040793652913143e-02,0.000000000000000000e+00
1.049000000000000000e+03,1.588777380247559656e-01,0.000000000000000000e+00
1.050000000000000000e+03,1.656059688496492321e-01,0.000000000000000000e+00
1.051000000000000000e+03,2.560857144026436605e-01,0.000000000000000000e+00
1.052000000000000000e+03,2.197099158574578326e-01,0.000000000000000000e+00
1.053000000000000000e+03,1.539695593375229599e-01,0.000000000000000000e+00
1.054000000000000000e+03,4.038517306017108122e-01,0.000000000000000000e+00
1.055000000000000000e+03,6.675466409737983442e-01,0.000000000000000000e+00
1.056000000000000000e+03,7.505261490360128906e-01,0.000000000000000000e+00
1.057000000000000000e+03,1.304583272361430124e+00,0.000000000000000000e+00
1.058000000000000000e+03,7.254046933781245210e-01,0.000000000000000000e+00
1.059000000000000000e+03,1.995179773254458500e-01,0.000000000000000000e+00
1.060000000000000000e+03,-4.797908483703007820e-01,0.000000000000000000e+00
1.061000000000000000e+03,-1.799728538093225694e-01,0.000000000000000000e+00
1.062000000000000000e+03,-4.023103316133307406e-01,0.000000000000000000e+00
1.063000000000000000e+03,1.317063759877944162e-01,0.000000000000000000e+00
1.064000000000000000e+03,-4.659367552002136592e-01,0.000000000000000000e+00
1.065000000000000000e+03,3.581476887486804372e+00,0.000000000000000000e+00
1.066000000000000000e+03,5.690827839667871757e+00,0.000000000000000000e+00
1.067000000000000000e+03,-9.012611666137629318e-02,1.000000000000000000e+00
1.068000000000000000e+03,-5.304134288889070792e-01,0.000000000000000000e+00
1.069000000000000000e+03,-1.267621073752181582e+00,0.000000000000000000e+00
1.070000000000000000e+03,-1.075726152380731770e+00,0.000000000000000000e+00
1.071000000000000000e+03,-1.240863668135442577e+00,0.000000000000000000e+00
1.072000000000000000e+03,-6.165609303855803525e-01,0.000000000000000000e+00
1.073000000000000000e+03,-8.813044621765139253e-01,0.000000000000000000e+00
1.074000000000000000e+03,-3.626136113651549642e-01,0.000000000000000000e+00
1.075000000000000000e+03,-6.957602170145736897e-01,0.000000000000000000e+00
1.076000000000000000e+03,-3.964931453701897590e-01,0.000000000000000000e+00
1.077000000000000000e+03,-1.539304327068184985e-01,0.000000000000000000e+00
1.078000000000000000e+03,-1.619925705938542529e-02,0.000000000000000000e+00
1.079000000000000000e+03,3.797529171382902913e-01,0.000000000000000000e+00
1.080000000000000000e+03,4.509418243793377745e-01,0.000000000000000000e+00
1.081000000000000000e+03,4.002437033188085969e-01,0.000000000000000000e+00
1.082000000000000000e+03,9.939041994679861380e-01,0.000000000000000000e+00
1.083000000000000000e+03,2.596866195411188238e-01,0.000000000000000000e+00
1.084000000000000000e+03,-3.770833512007237733e-03,0.000000000000000000e+00
1.085000000000000000e+03,-6.464332043183875776e-01,0.000000000000000000e+00
1.086000000000000000e+03,-1.012361906250957011e+00,0.000000000000000000e+00
1.087000000000000000e+03,-1.162489551792025066e+00,0.000000000000000000e+00
1.088000000000000000e+03,-8.790323870140315243e-01,0.000000000000000000e+00
1.089000000000000000e+03,-9.749386605896721569e-01,0.000000000000000000e+00
1.090000000000000000e+03,-8.115201955084463403e-01,0.000000000000000000e+00
1.091000000000000000e+03,-8.209802195379750644e-01,0.000000000000000000e+00
1.092000000000000000e+03,-7.749210275395448377e-01,0.000000000000000000e+00
1.093000000000000000e+03,-7.749831971169479639e-01,0.000000000000000000e+00
1.094000000000000000e+03,-4.618904395897880377e-01,0.000000000000000000e+00
1.095000000000000000e+03,-5.507103438374262305e-01,0.000000000000000000e+00
1.096000000000000000e+03,-3.487595791703779202e-01,0.000000000000000000e+00
1.097000000000000000e+03,-2.634531861048300394e-01,0.000000000000000000e+00
1.098000000000000000e+03,-2.278595809864004118e-01,0.000000000000000000e+00
1.099000000000000000e+03,4.168566825591856623e-02,0.000000000000000000e+00
1.100000000000000000e+03,-1.630531945999911247e-01,0.000000000000000000e+00
1.101000000000000000e+03,5.633879079003772938e-02,0.000000000000000000e+00
1.102000000000000000e+03,-4.269139661579899464e-02,0.000000000000000000e+00
1.103000000000000000e+03,1.251399958926865952e-01,0.000000000000000000e+00
1.104000000000000000e+03,9.040647970596947525e-02,0.000000000000000000e+00
1.105000000000000000e+03,2.786378776537624669e-01,0.000000000000000000e+00
1.106000000000000000e+03,2.335895950505278151e-01,0.000000000000000000e+00
1.107000000000000000e+03,2.288806821637111300e-01,0.000000000000000000e+00
1.108000000000000000e+03,3.474454032596367981e-01,0.000000000000000000e+00
1.109000000000000000e+03,1.707469630569309615e-02,0.000000000000000000e+00
1.110000000000000000e+03,4.723315041973617512e-01,0.000000000000000000e+00
1.111000000000000000e+03,4.244303043066183778e-01,0.000000000000000000e+00
1.112000000000000000e+03,4.841016001369948252e-01,0.000000000000000000e+00
1.113000000000000000e+03,7.635637754732158555e-01,0.000000000000000000e+00
1.114000000000000000e+03,1.229268640366026899e+00,0.000000000000000000e+00
1.115000000000000000e+03,1.037546069999785381e+00,0.000000000000000000e+00
1.116000000000000000e+03,4.008571212220891633e-01,0.000000000000000000e+00
1.117000000000000000e+03,1.307366600314397720e-01,0.000000000000000000e+00
1.118000000000000000e+03,-6.328946555737106072e-01,0.000000000000000000e+00
1.119000000000000000e+03,-2.049618946070485420e-02,0.000000000000000000e+00
1.120000000000000000e+03,-2.218631102026518698e-01,0.000000000000000000e+00
1.121000000000000000e+03,2.580158344916476387e-02,0.000000000000000000e+00
1.122000000000000000e+03,-9.496072283550764659e-02,0.000000000000000000e+00
1.123000000000000000e+03,5.162740738127864049e+00,0.000000000000000000e+00
1.124000000000000000e+03,3.249575173668757255e+00,1.000000000000000000e+00
1.125000000000000000e+03,-8.243871832552329693e-01,0.000000000000000000e+00
1.126000000000000000e+03,-5.658813563442449679e-01,0.000000000000000000e+00
1.127000000000000000e+03,-1.646088201194212619e+00,0.000000000000000000e+00
1.128000000000000000e+03,-9.110560112032511926e-01,0.000000000000000000e+00
1.129000000000000000e+03,-1.206528399370154547e+00,0.000000000000000000e+00
1.130000000000000000e+03,-5.033789511418982343e-01,0.000000000000000000e+00
1.131000000000000000e+03,-6.557550666307119247e-01,0.000000000000000000e+00
1.132000000000000000e+03,-4.702047010731683629e-01,0.000000000000000000e+00
1.133000000000000000e+03,-3.498275579531167634e-01,0.000000000000000000e+00
1.134000000000000000e+03,-3.151724503794468002e-01,0.000000000000000000e+00
1.135000000000000000e+03,1.240878186027496582e-01,0.000000000000000000e+00
1.136000000000000000e+03,4.560040881683882774e-01,0.000000000000000000e+00
1.137000000000000000e+03,4.111752899644710579e-01,0.000000000000000000e+00
1.138000000000000000e+03,7.260152231723152605e-01,0.000000000000000000e+00
1.139000000000000000e+03,6.487936926720947461e-01,0.000000000000000000e+00
1.140000000000000000e+03,8.771103836102270845e-01,0.000000000000000000e+00
1.141000000000000000e+03,5.314437319308314978e-01,0.000000000000000000e+00
1.142000000000000000e+03,-2.766220340927486587e-01,0.000000000000000000e+00
1.143000000000000000e+03,-6.810175234604336492e-01,0.000000000000000000e+00
1.144000000000000000e+03,-1.255039026779074751e+00,0.000000000000000000e+00
1.145000000000000000e+03,-8.548869684889094378e-01,0.000000000000000000e+00
1.146000000000000000e+03,-9.412668539357684772e-01,0.000000000000000000e+00
1.147000000000000000e+03,-9.761341623541152090e-01,0.000000000000000000e+00
1.148000000000000000e+03,-8.038143673751024787e-01,0.000000000000000000e+00
1.149000000000000000e+03,-8.267189204729031848e-01,0.000000000000000000e+00
1.150000000000000000e+03,-6.721219935152900060e-01,0.000000000000000000e+00
1.151000000000000000e+03,-6.572320259898304373e-01,0.000000000000000000e+00
1.152000000000000000e+03,-4.621339412017991810e-01,0.000000000000000000e+00
1.153000000000000000e+03,-2.888593379928521276e-01,0.000000000000000000e+00
1.154000000000000000e+03,-3.739281403790726821e-01,0.000000000000000000e+00
1.155000000000000000e+03,-3.033788747832482091e-01,0.000000000000000000e+00
1.156000000000000000e+03,-1.487055295377289268e-02,0.000000000000000000e+00
1.157000000000000000e+03,-2.922321102284154426e-01,0.000000000000000000e+00
1.158000000000000000e+03,3.069173928899297799e-02,0.000000000000000000e+00
1.159000000000000000e+03,-1.960836665503742221e-02,0.000000000000000000e+00
1.160000000000000000e+03,-4.688305025417250152e-03,0.000000000000000000e+00
1.161000000000000000e+03,1.448647890373452596e-01,0.000000000000000000e+00
1.162000000000000000e+03,7.944985511243417287e-02,0.000000000000000000e+00
1.163000000000000000e+03,1.889420386863957801e-01,0.000000000000000000e+00
1.164000000000000000e+03,2.724964960868219155e-01,0.000000000000000000e+00
1.165000000000000000e+03,3.133862932163105075e-01,0.000000000000000000e+00
1.166000000000000000e+03,1.399612806731477810e-01,0.000000000000000000e+00
1.167000000000000000e+03,4.003074771236819762e-01,0.000000000000000000e+00
1.168000000000000000e+03,4.575683797628534166e-01,0.000000000000000000e+00
1.169000000000000000e+03,7.021018297932062335e-01,0.000000000000000000e+00
1.170000000000000000e+03,1.304365425693399416e+00,0.000000000000000000e+00
1.171000000000000000e+03,9.354764312002723514e-01,0.000000000000000000e+00
1.172000000000000000e+03,6.565600913386561155e-01,0.000000000000000000e+00
1.173000000000000000e+03,-3.612503049236582831e-01,0.000000000000000000e+00
1.174000000000000000e+03,-3.315603599044476546e-01,0.000000000000000000e+00
1.175000000000000000e+03,-1.230576239662049820e-01,0.000000000000000000e+00
1.176000000000000000e+03,-2.276694004458277021e-01,0.000000000000000000e+00
1.177000000000000000e+03,-6.814726889870249826e-02,0.000000000000000000e+00
1.178000000000000000e+03,7.513928955255929631e-01,0.000000000000000000e+00
1.179000000000000000e+03,5.249478838259973301e+00,0.000000000000000000e+00
1.180000000000000000e+03,1.142896881994233116e+00,1.000000000000000000e+00
1.181000000000000000e+03,-7.270227680419910632e-01,0.000000000000000000e+00
1.182000000000000000e+03,-6.369283145293916926e-01,0.000000000000000000e+00
1.183000000000000000e+03,-1.045265125229717817e+00,0.000000000000000000e+00
1.184000000000000000e+03,-5.551105025458155096e-01,0.000000000000000000e+00
1.185000000000000000e+03,-8.135659742440629616e-01,0.000000000000000000e+00
1.186000000000000000e+03,-3.614346137745166887e-01,0.000000000000000000e+00
1.187000000000000000e+03,-5.635400424513673512e-01,0.000000000000000000e+00
1.188000000000000000e+03,-1.299811478438144263e-01,0.000000000000000000e+00
1.189000000000000000e+03,-2.875955888363030954e-01,0.000000000000000000e+00
1.190000000000000000e+03,1.884866017468553867e-01,0.000000000000000000e+00
1.191000000000000000e+03,1.069877915334212642e-01,0.000000000000000000e+00
1.192000000000000000e+03,4.526926295765927866e-01,0.000000000000000000e+00
1.193000000000000000e+03,4.335291638914746115e-01,0.000000000000000000e+00
1.194000000000000000e+03,9.618143756280911338e-01,0.000000000000000000e+00
1.195000000000000000e+03,8.090659262144008768e-01,0.000000000000000000e+00
1.196000000000000000e+03,9.336354477435557797e-01,0.000000000000000000e+00
1.197000000000000000e+03,3.435237145675907877e-01,0.000000000000000000e+00
1.198000000000000000e+03,-3.467003614347826668e-01,0.000000000000000000e+00
1.199000000000000000e+03,-7.611854615442460448e-01,0.000000000000000000e+00
1.200000000000000000e+03,-1.045735180753809113e+00,0.000000000000000000e+00
1.201000000000000000e+03,-9.409257910563675331e-01,0.000000000000000000e+00
1.202000000000000000e+03,-8.356248306706784978e-01,0.000000000000000000e+00
1.203000000000000000e+03,-8.801274705622071926e-01,0.000000000000000000e+00
1.204000000000000000e+03,-9.768386660898387142e-01,0.000000000000000000e+00
1.205000000000000000e+03,-8.030674062406341074e-01,0.000000000000000000e+00
1.206000000000000000e+03,-5.883496620260392218e-01,0.000000000000000000e+00
1.207000000000000000e+03,-3.115334367734377552e-01,0.000000000000000000e+00
1.208000000000000000e+03,-6.130340746784024297e-01,0.000000000000000000e+00
1.209000000000000000e+03,-4.580215098059017276e-01,0.000000000000000000e+00
1.210000000000000000e+03,-3.775104562280129916e-01,0.000000000000000000e+00
1.211000000000000000e+03,-3.456052143420407230e-01,0.000000000000000000e+00
1.212000000000000000e+03,-2.366244454317051604e-01,0.000000000000000000e+00
1.213000000000000000e+03,-1.819987082651760568e-01,0.000000000000000000e+00
1.214000000000000000e+03,-3.001507498422285591e-01,0.000000000000000000e+00
1.215000000000000000e+03,-1.734428500721937327e-01,0.000000000000000000e+00
1.216000000000000000e+03,6.235247522490997008e-02,0.000000000000000000e+00
1.217000000000000000e+03,-1.168007597378731138e-01,0.000000000000000000e+00
1.218000000000000000e+03,-9.527743948979650046e-02,0.000000000000000000e+00
1.219000000000000000e+03,5.347533670039320008e-02,0.000000000000000000e+00
1.220000000000000000e+03,-7.296304630850870832e-02,0.000000000000000000e+00
1.221000000000000000e+03,1.563077364250806123e-01,0.000000000000000000e+00
1.222000000000000000e+03,3.669250705896671128e-01,0.000000000000000000e+00
1.223000000000000000e+03,6.238946574086966512e-01,0.000000000000000000e+00
1.224000000000000000e+03,9.170698956238113597e-01,0.000000000000000000e+00
1.225000000000000000e+03,9.692383701643482175e-01,0.000000000000000000e+00
1.226000000000000000e+03,4.099882419938343237e-01,0.000000000000000000e+00
1.227000000000000000e+03,-3.222767604417915432e-01,0.000000000000000000e+00
1.228000000000000000e+03,2.115239429724537559e-02,0.000000000000000000e+00
1.229000000000000000e+03,-2.063996532847774124e-01,0.000000000000000000e+00
1.230000000000000000e+03,-5.713487236013588266e-02,0.000000000000000000e+00
1.231000000000000000e+03,6.184708941798839482e-02,0.000000000000000000e+00
1.232000000000000000e+03,1.027975219041937560e+00,0.000000000000000000e+00
1.233000000000000000e+03,5.152955154882043587e+00,0.000000000000000000e+00
1.234000000000000000e+03,1.395821728767265846e+00,1.000000000000000000e+00
1.235000000000000000e+03,-7.263484280415256622e-01,0.000000000000000000e+00
1.236000000000000000e+03,-3.675012117755122598e-01,0.000000000000000000e+00
1.237000000000000000e+03,-7.977693263486068664e-01,0.000000000000000000e+00
1.238000000000000000e+03,-3.632308354807551320e-01,0.000000000000000000e+00
1.239000000000000000e+03,-7.847217303093444452e-01,0.000000000000000000e+00
1.240000000000000000e+03,-3.967600188993080645e-01,0.000000000000000000e+00
1.241000000000000000e+03,-2.897200655631440580e-01,0.000000000000000000e+00
1.242000000000000000e+03,-2.162661742492750228e-01,0.000000000000000000e+00
1.243000000000000000e+03,-9.747448237020157891e-02,0.000000000000000000e+00
1.244000000000000000e+03,1.108601029371378555e-01,0.000000000000000000e+00
1.245000000000000000e+03,-2.378232526704237432e-02,0.000000000000000000e+00
1.246000000000000000e+03,6.361525188404871800e-01,0.000000000000000000e+00
1.247000000000000000e+03,5.144456284262226564e-01,0.000000000000000000e+00
1.248000000000000000e+03,9.421201883571026503e-01,0.000000000000000000e+00
1.249000000000000000e+03,8.326708569183068898e-01,0.000000000000000000e+00
1.250000000000000000e+03,5.719708789594534215e-01,0.000000000000000000e+00
1.251000000000000000e+03,3.671965656787015697e-01,0.000000000000000000e+00
1.252000000000000000e+03,-2.908880752954738358e-01,0.000000000000000000e+00
1.253000000000000000e+03,-8.493902210617347848e-01,0.000000000000000000e+00
1.254000000000000000e+03,-8.686813480697772594e-01,0.000000000000000000e+00
1.255000000000000000e+03,-1.104685932338244303e+00,0.000000000000000000e+00
1.256000000000000000e+03,-9.823289016345481128e-01,0.000000000000000000e+00
1.257000000000000000e+03,-8.300828274182464606e-01,0.000000000000000000e+00
1.258000000000000000e+03,-9.042281438493692258e-01,0.000000000000000000e+00
1.259000000000000000e+03,-8.214130629327048849e-01,0.000000000000000000e+00
1.260000000000000000e+03,-5.965793529612564150e-01,0.000000000000000000e+00
1.261000000000000000e+03,-5.575031786864441674e-01,0.000000000000000000e+00
1.262000000000000000e+03,-4.570510379623225483e-01,0.000000000000000000e+00
1.263000000000000000e+03,-2.311852887069189844e-01,0.000000000000000000e+00
1.264000000000000000e+03,-1.880569577560549099e-01,0.000000000000000000e+00
1.265000000000000000e+03,-5.527504971814554136e-01,0.000000000000000000e+00
1.266000000000000000e+03,-1.026509763923624668e-01,0.000000000000000000e+00
1.267000000000000000e+03,-2.955019112412472504e-01,0.000000000000000000e+00
1.268000000000000000e+03,-6.766866968933153703e-02,0.000000000000000000e+00
1.269000000000000000e+03,-2.365964123050734724e-01,0.000000000000000000e+00
1.270000000000000000e+03,-3.736729123219293541e-02,0.000000000000000000e+00
1.271000000000000000e+03,-1.271955819468041093e-01,0.000000000000000000e+00
1.272000000000000000e+03,-3.259085877854676211e-02,0.000000000000000000e+00
1.273000000000000000e+03,1.778294074624115484e-01,0.000000000000000000e+00
1.274000000000000000e+03,-4.835332959611816223e-02,0.000000000000000000e+00
1.275000000000000000e+03,8.110363587309581124e-02,0.000000000000000000e+00
1.276000000000000000e+03,5.053011553924427468e-02,0.000000000000000000e+00
1.277000000000000000e+03,3.694163767278752508e-01,0.000000000000000000e+00
1.278000000000000000e+03,6.471451800716581104e-01,0.000000000000000000e+00
1.279000000000000000e+03,1.105808494679253462e+00,0.000000000000000000e+00
1.280000000000000000e+03,7.564407289795739286e-01,0.000000000000000000e+00
1.281000000000000000e+03,4.133442417185867468e-01,0.000000000000000000e+00
1.282000000000000000e+03,-1.382400300028135409e-01,0.000000000000000000e+00
1.283000000000000000e+03,-2.861613885019643755e-01,0.000000000000000000e+00
1.284000000000000000e+03,-1.345794052365117122e-01,0.000000000000000000e+00
1.285000000000000000e+03,-1.656371186365802051e-01,0.000000000000000000e+00
1.286000000000000000e+03,-8.280312647201418241e-02,0.000000000000000000e+00
1.287000000000000000e+03,7.521693114906716771e-01,0.000000000000000000e+00
1.288000000000000000e+03,5.507050045469155108e+00,0.000000000000000000e+00
1.289000000000000000e+03,2.118921318456488567e+00,1.000000000000000000e+00
1.290000000000000000e+03,-8.779410288047528876e-01,0.000000000000000000e+00
1.291000000000000000e+03,-7.366338822761527849e-01,0.000000000000000000e+00
1.292000000000000000e+03,-1.194088141236687717e+00,0.000000000000000000e+00
1.293000000000000000e+03,-8.780111299277510994e-01,0.000000000000000000e+00
1.294000000000000000e+03,-7.929810305428182104e-01,0.000000000000000000e+00
1.295000000000000000e+03,-4.702355542971935476e-01,0.000000000000000000e+00
1.296000000000000000e+03,-9.085072091595858268e-01,0.000000000000000000e+00
1.297000000000000000e+03,-3.833050098286697183e-01,0.000000000000000000e+00
1.298000000000000000e+03,-4.914436010841873315e-01,0.000000000000000000e+00
1.299000000000000000e+03,-4.362500930179664255e-02,0.000000000000000000e+00
1.300000000000000000e+03,4.036039231940016792e-02,0.000000000000000000e+00
1.301000000000000000e+03,3.626855482255802454e-01,0.000000000000000000e+00
1.302000000000000000e+03,3.536338099968263093e-01,0.000000000000000000e+00
1.303000000000000000e+03,7.635193365811626665e-01,0.000000000000000000e+00
1.304000000000000000e+03,9.036367329918640889e-01,0.000000000000000000e+00
1.305000000000000000e+03,7.666013398181189542e-01,0.000000000000000000e+00
1.306000000000000000e+03,3.983066583945238937e-01,0.000000000000000000e+00
1.307000000000000000e+03,-2.017452005252785285e-01,0.000000000000000000e+00
1.308000000000000000e+03,-7.771868692314121141e-01,0.000000000000000000e+00
1.309000000000000000e+03,-9.995998742906981871e-01,0.000000000000000000e+00
1.310000000000000000e+03,-8.595411798435244055e-01,0.000000000000000000e+00
1.311000000000000000e+03,-7.205747603206399399e-01,0.000000000000000000e+00
1.312000000000000000e+03,-8.055120011038779948e-01,0.000000000000000000e+00
1.313000000000000000e+03,-7.669745275740362800e-01,0.000000000000000000e+00
1.314000000000000000e+03,-7.190721888657428673e-01,0.000000000000000000e+00
1.315000000000000000e+03,-5.226254675370733960e-01,0.000000000000000000e+00
1.316000000000000000e+03,-6.578275681557566035e-01,0.000000000000000000e+00
1.317000000000000000e+03,-4.097952589599155315e-01,0.000000000000000000e+00
1.318000000000000000e+03,-5.571192732546664805e-01,0.000000000000000000e+00
1.319000000000000000e+03,-1.871741022921321884e-01,0.000000000000000000e+00
1.320000000000000000e+03,-2.892831558926404756e-01,0.000000000000000000e+00
1.321000000000000000e+03,-9.854889079899314952e-02,0.000000000000000000e+00
1.322000000000000000e+03,-1.009716323567858287e-01,0.000000000000000000e+00
1.323000000000000000e+03,3.489072198402596442e-02,0.000000000000000000e+00
1.324000000000000000e+03,-1.667225943107688013e-01,0.000000000000000000e+00
1.325000000000000000e+03,1.268016267947849329e-01,0.000000000000000000e+00
1.326000000000000000e+03,1.319027075747573885e-01,0.000000000000000000e+00
1.327000000000000000e+03,8.246433536130316766e-02,0.000000000000000000e+00
1.328000000000000000e+03,4.249044573279311399e-01,0.000000000000000000e+00
1.329000000000000000e+03,1.077624130162520288e-01,0.000000000000000000e+00
1.330000000000000000e+03,2.827845568700393386e-01,0.000000000000000000e+00
1.331000000000000000e+03,2.769073461728838725e-01,0.000000000000000000e+00
1.332000000000000000e+03,2.336702294067560803e-01,0.000000000000000000e+00
1.333000000000000000e+03,7.559469319033649271e-01,0.000000000000000000e+00
1.334000000000000000e+03,9.517401262989753086e-01,0.000000000000000000e+00
1.335000000000000000e+03,1.134505725872267723e+00,0.000000000000000000e+00
1.336000000000000000e+03,6.742018144740543617e-01,0.000000000000000000e+00
1.337000000000000000e+03,6.494970479223737270e-01,0.000000000000000000e+00
1.338000000000000000e+03,-3.436856751474557936e-01,0.000000000000000000e+00
1.339000000000000000e+03,-1.487698696228184903e-01,0.000000000000000000e+00
1.340000000000000000e+03,-1.952869922953406057e-01,0.000000000000000000e+00
1.341000000000000000e+03,-9.553867742375082850e-02,0.000000000000000000e+00
1.342000000000000000e+03,-1.487897569369735218e-01,0.000000000000000000e+00
1.343000000000000000e+03,1.486621710394896656e+00,0.000000000000000000e+00
1.344000000000000000e+03,6.234829412016481776e+00,0.000000000000000000e+00
1.345000000000000000e+03,1.320396038894501523e+00,1.000000000000000000e+00
1.346000000000000000e+03,-6.736723398560158227e-01,0.000000000000000000e+00
1.347000000000000000e+03,-1.195773818753266715e+00,0.000000000000000000e+00
1.348000000000000000e+03,-1.095787746214769154e+00,0.000000000000000000e+00
1.349000000000000000e+03,-1.145886006452387251e+00,0.000000000000000000e+00
1.350000000000000000e+03,-8.284917515790616305e-01,0.000000000000000000e+00
1.351000000000000000e+03,-1.048504847746512425e+00,0.000000000000000000e+00
1.352000000000000000e+03,-4.564920806680886067e-01,0.000000000000000000e+00
1.353000000000000000e+03,-5.930052085832215880e-01,0.000000000000000000e+00
1.354000000000000000e+03,-4.806192905251419067e-01,0.000000000000000000e+00
1.355000000000000000e+03,-6.379917547953037338e-02,0.000000000000000000e+00
1.356000000000000000e+03,7.813893415971093215e-02,0.000000000000000000e+00
1.357000000000000000e+03,9.523350470355525232e-02,0.000000000000000000e+00
1.358000000000000000e+03,6.509567768198410986e-01,0.000000000000000000e+00
1.359000000000000000e+03,7.324689984248455854e-01,0.000000000000000000e+00
1.360000000000000000e+03,7.236603360190716483e-01,0.000000000000000000e+00
1.361000000000000000e+03,7.182723933239709702e-01,0.000000000000000000e+00
1.362000000000000000e+03,3.266102079364012756e-01,0.000000000000000000e+00
1.363000000000000000e+03,-5.564603450190619416e-01,0.000000000000000000e+00
1.364000000000000000e+03,-6.850864982349973431e-01,0.000000000000000000e+00
1.365000000000000000e+03,-9.633391664784867192e-01,0.000000000000000000e+00
1.366000000000000000e+03,-9.332750652592899376e-01,0.000000000000000000e+00
1.367000000000000000e+03,-6.874362286358470797e-01,0.000000000000000000e+00
1.368000000000000000e+03,-6.175708337276231141e-01,0.000000000000000000e+00
1.369000000000000000e+03,-8.293592504864566450e-01,0.000000000000000000e+00
1.370000000000000000e+03,-6.005624025919583664e-01,0.000000000000000000e+00
1.371000000000000000e+03,-6.901602825513125650e-01,0.000000000000000000e+00
1.372000000000000000e+03,-5.828162298029376798e-01,0.000000000000000000e+00
1.373000000000000000e+03,-4.841142271859411039e-01,0.000000000000000000e+00
1.374000000000000000e+03,-3.192235520100035751e-01,0.000000000000000000e+00
1.375000000000000000e+03,-4.034151996927513584e-01,0.000000000000000000e+00
1.376000000000000000e+03,-2.301732435036928370e-01,0.000000000000000000e+00
1.377000000000000000e+03,-3.369193328554968558e-01,0.000000000000000000e+00
1.378000000000000000e+03,4.775257680228948455e-03,0.000000000000000000e+00
1.379000000000000000e+03,-9.670081717606390792e-02,0.000000000000000000e+00
1.380000000000000000e+03,8.459696828837651172e-02,0.000000000000000000e+00
1.381000000000000000e+03,-8.782852308913854933e-02,0.000000000000000000e+00
1.382000000000000000e+03,8.959738787448889852e-02,0.000000000000000000e+00
1.383000000000000000e+03,1.198816355344820977e-01,0.000000000000000000e+00
1.384000000000000000e+03,4.424483136842405351e-01,0.000000000000000000e+00
1.385000000000000000e+03,5.699190322094072753e-02,0.000000000000000000e+00
1.386000000000000000e+03,3.396767762378897215e-01,0.000000000000000000e+00
1.387000000000000000e+03,1.185397514478633979e-01,0.000000000000000000e+00
1.388000000000000000e+03,1.689133218431320416e-01,0.000000000000000000e+00
1.389000000000000000e+03,6.566831894065562336e-01,0.000000000000000000e+00
1.390000000000000000e+03,9.550251141987862180e-01,0.000000000000000000e+00
1.391000000000000000e+03,1.057369603936269220e+00,0.000000000000000000e+00
1.392000000000000000e+03,1.163148448315713734e+00,0.000000000000000000e+00
1.393000000000000000e+03,6.742073870952719483e-01,0.000000000000000000e+00
1.394000000000000000e+03,2.230694375311235433e-01,0.000000000000000000e+00
1.395000000000000000e+03,-2.785916713420358848e-01,0.000000000000000000e+00
1.396000000000000000e+03,-9.745295000059447932e-02,0.000000000000000000e+00
1.397000000000000000e+03,-3.721506398791106229e-01,0.000000000000000000e+00
1.398000000000000000e+03,1.744451800731207924e-01,0.000000000000000000e+00
1.399000000000000000e+03,-4.968621139977020401e-02,0.000000000000000000e+00
1.400000000000000000e+03,5.638631803037699619e+00,0.000000000000000000e+00
1.401000000000000000e+03,4.072159899319745868e+00,1.000000000000000000e+00
1.402000000000000000e+03,-6.804440906457616123e-01,0.000000000000000000e+00
1.403000000000000000e+03,-9.794833089522617664e-01,0.000000000000000000e+00
1.404000000000000000e+03,-1.464146484672134374e+00,0.000000000000000000e+00
1.405000000000000000e+03,-9.556814740059145219e-01,0.000000000000000000e+00
1.406000000000000000e+03,-1.162347606962334190e+00,0.000000000000000000e+00
1.407000000000000000e+03,-6.518133467392412950e-01,0.000000000000000000e+00
1.408000000000000000e+03,-8.773467812592629089e-01,0.000000000000000000e+00
1.409000000000000000e+03,-6.320807836381832079e-01,0.000000000000000000e+00
1.410000000000000000e+03,-6.280326151541079094e-01,0.000000000000000000e+00
1.411000000000000000e+03,-2.205970957695939649e-01,0.000000000000000000e+00
1.412000000000000000e+03,-1.828084295288738004e-01,0.000000000000000000e+00
1.413000000000000000e+03,1.903397696057543276e-01,0.000000000000000000e+00
1.414000000000000000e+03,9.443147246243366669e-03,0.000000000000000000e+00
1.415000000000000000e+03,6.405619055522893124e-01,0.000000000000000000e+00
1.416000000000000000e+03,7.141284998197052758e-01,0.000000000000000000e+00
1.417000000000000000e+03,5.452443668811944866e-01,0.000000000000000000e+00
1.418000000000000000e+03,3.177357169936483317e-01,0.000000000000000000e+00
1.419000000000000000e+03,-2.523097448529815767e-01,0.000000000000000000e+00
1.420000000000000000e+03,-1.025791494179723484e+00,0.000000000000000000e+00
1.421000000000000000e+03,-7.228629536680848400e-01,0.000000000000000000e+00
1.422000000000000000e+03,-1.185128354277921403e+00,0.000000000000000000e+00
1.423000000000000000e+03,-9.962058766961382483e-01,0.000000000000000000e+00
1.424000000000000000e+03,-8.893105790201859540e-01,0.000000000000000000e+00
1.425000000000000000e+03,-8.308624467117657897e-01,0.000000000000000000e+00
1.426000000000000000e+03,-7.357846677993200579e-01,0.000000000000000000e+00
1.427000000000000000e+03,-6.522380914222007942e-01,0.000000000000000000e+00
1.428000000000000000e+03,-7.004357952541205856e-01,0.000000000000000000e+00
1.429000000000000000e+03,-6.751340009813685539e-01,0.000000000000000000e+00
1.430000000000000000e+03,-3.786452551777035325e-01,0.000000000000000000e+00
1.431000000000000000e+03,-4.250301176582915730e-01,0.000000000000000000e+00
1.432000000000000000e+03,-2.906104794201789798e-01,0.000000000000000000e+00
1.433000000000000000e+03,-2.490314677710722679e-01,0.000000000000000000e+00
1.434000000000000000e+03,-2.007159291980400717e-01,0.000000000000000000e+00
1.435000000000000000e+03,4.391020676100198389e-02,0.000000000000000000e+00
1.436000000000000000e+03,-1.297752636020005346e-01,0.000000000000000000e+00
1.437000000000000000e+03,-1.183734333364710664e-02,0.000000000000000000e+00
1.438000000000000000e+03,7.740283641131409653e-02,0.000000000000000000e+00
1.439000000000000000e+03,9.031832361898346762e-02,0.000000000000000000e+00
1.440000000000000000e+03,8.691219090556752402e-02,0.000000000000000000e+00
1.441000000000000000e+03,2.481744679040710777e-01,0.000000000000000000e+00
1.442000000000000000e+03,7.867932402738044007e-02,0.000000000000000000e+00
1.443000000000000000e+03,3.223000925357529800e-01,0.000000000000000000e+00
1.444000000000000000e+03,2.039255285367445325e-01,0.000000000000000000e+00
1.445000000000000000e+03,2.150945299089342122e-01,0.000000000000000000e+00
1.446000000000000000e+03,4.130997380114749262e-01,0.000000000000000000e+00
1.447000000000000000e+03,8.429533036296879001e-01,0.000000000000000000e+00
1.448000000000000000e+03,1.061182834623326299e+00,0.000000000000000000e+00
1.449000000000000000e+03,1.132884205460269023e+00,0.000000000000000000e+00
1.450000000000000000e+03,4.185713183094292855e-01,0.000000000000000000e+00
1.451000000000000000e+03,2.649482349766063560e-01,0.000000000000000000e+00
1.452000000000000000e+03,-3.325008778502304141e-01,0.000000000000000000e+00
1.453000000000000000e+03,-2.509963624343800048e-02,0.000000000000000000e+00
1.454000000000000000e+03,-4.102417219070405574e-01,0.000000000000000000e+00
1.455000000000000000e+03,2.557194523593535052e-01,0.000000000000000000e+00
1.456000000000000000e+03,-1.347802999649814759e-01,0.000000000000000000e+00
1.457000000000000000e+03,5.311389669224165999e+00,0.000000000000000000e+00
1.458000000000000000e+03,4.139581068292085497e+00,1.000000000000000000e+00
1.459000000000000000e+03,-6.400020323829757052e-01,0.000000000000000000e+00
1.460000000000000000e+03,-5.992234405377427908e-01,0.000000000000000000e+00
1.461000000000000000e+03,-1.325385372343051316e+00,0.000000000000000000e+00
1.462000000000000000e+03,-1.062484649707492235e+00,0.000000000000000000e+00
1.463000000000000000e+03,-1.002920767115868861e+00,0.000000000000000000e+00
1.464000000000000000e+03,-7.807075705542517730e-01,0.000000000000000000e+00
1.465000000000000000e+03,-8.241140562675476344e-01,0.000000000000000000e+00
1.466000000000000000e+03,-3.399875327869287256e-01,0.000000000000000000e+00
1.467000000000000000e+03,-5.058425188433556263e-01,0.000000000000000000e+00
1.468000000000000000e+03,-8.287606196197086494e-02,0.000000000000000000e+00
1.469000000000000000e+03,-5.308104188500421122e-03,0.000000000000000000e+00
1.470000000000000000e+03,2.082607743995099348e-01,0.000000000000000000e+00
1.471000000000000000e+03,2.476368364292456381e-01,0.000000000000000000e+00
1.472000000000000000e+03,6.498351839330577251e-01,0.000000000000000000e+00
1.473000000000000000e+03,7.489319140880764669e-01,0.000000000000000000e+00
1.474000000000000000e+03,7.935270075645137755e-01,0.000000000000000000e+00
1.475000000000000000e+03,3.193509320270473961e-01,0.000000000000000000e+00
1.476000000000000000e+03,1.087737526139509123e-02,0.000000000000000000e+00
1.477000000000000000e+03,-7.511646996305517687e-01,0.000000000000000000e+00
1.478000000000000000e+03,-8.618119150317894439e-01,0.000000000000000000e+00
1.479000000000000000e+03,-1.030071836034776478e+00,0.000000000000000000e+00
1.480000000000000000e+03,-9.632880235711824835e-01,0.000000000000000000e+00
1.481000000000000000e+03,-9.025231555352993817e-01,0.000000000000000000e+00
1.482000000000000000e+03,-6.615415513962581429e-01,0.000000000000000000e+00
1.483000000000000000e+03,-7.047938083538183296e-01,0.000000000000000000e+00
1.484000000000000000e+03,-5.623454676078104564e-01,0.000000000000000000e+00
1.485000000000000000e+03,-7.450132279601745511e-01,0.000000000000000000e+00
1.486000000000000000e+03,-3.224845420703632004e-01,0.000000000000000000e+00
1.487000000000000000e+03,-2.137138449935876983e-01,0.000000000000000000e+00
1.488000000000000000e+03,-3.676332924660094537e-01,0.000000000000000000e+00
1.489000000000000000e+03,-1.919775431914207686e-01,0.000000000000000000e+00
1.490000000000000000e+03,-2.404776019224986322e-02,0.000000000000000000e+00
1.491000000000000000e+03,-2.729129963068058773e-01,0.000000000000000000e+00
1.492000000000000000e+03,6.744507678862422806e-02,0.000000000000000000e+00
1.493000000000000000e+03,-7.498562512107144473e-02,0.000000000000000000e+00
1.494000000000000000e+03,-3.922686025519889902e-02,0.000000000000000000e+00
1.495000000000000000e+03,2.253244422981575540e-02,0.000000000000000000e+00
1.496000000000000000e+03,-4.688120459075505869e-02,0.000000000000000000e+00
1.497000000000000000e+03,1.263528936149457271e-01,0.000000000000000000e+00
1.498000000000000000e+03,3.222275464943847867e-01,0.000000000000000000e+00
1.499000000000000000e+03,1.627499173682423472e-01,0.000000000000000000e+00
1.500000000000000000e+03,1.778910879181038462e-01,0.000000000000000000e+00
1.501000000000000000e+03,1.152755873726219252e-02,0.000000000000000000e+00
1.502000000000000000e+03,3.616478915598184130e-01,0.000000000000000000e+00
1.503000000000000000e+03,6.058632794502806229e-01,0.000000000000000000e+00
1.504000000000000000e+03,8.781147761045062783e-01,0.000000000000000000e+00
1.505000000000000000e+03,1.114836326731682536e+00,0.000000000000000000e+00
1.506000000000000000e+03,5.467743702516747462e-01,0.000000000000000000e+00
1.507000000000000000e+03,3.840437809704868588e-01,0.000000000000000000e+00
1.508000000000000000e+03,-3.106257424730589078e-01,0.000000000000000000e+00
1.509000000000000000e+03,-1.277235349187598457e-01,0.000000000000000000e+00
1.510000000000000000e+03,-3.930732892668261091e-01,0.000000000000000000e+00
1.511000000000000000e+03,4.817716952664733571e-02,0.000000000000000000e+00
1.512000000000000000e+03,-4.176652879573549138e-01,0.000000000000000000e+00
1.513000000000000000e+03,2.069841644680149972e+00,0.000000000000000000e+00
1.514000000000000000e+03,6.141096014162801708e+00,0.000000000000000000e+00
1.515000000000000000e+03,4.759524316920042963e-01,1.000000000000000000e+00
1.516000000000000000e+03,-4.717852723978239737e-01,0.000000000000000000e+00
1.517000000000000000e+03,-1.388262917878371194e+00,0.000000000000000000e+00
1.518000000000000000e+03,-1.013778189007444208e+00,0.000000000000000000e+00
1.519000000000000000e+03,-1.048993759756362110e+00,0.000000000000000000e+00
1.520000000000000000e+03,-8.502315216768906447e-01,0.000000000000000000e+00
1.521000000000000000e+03,-6.527796431565400237e-01,0.000000000000000000e+00
1.522000000000000000e+03,-4.420215762449966057e-01,0.000000000000000000e+00
1.523000000000000000e+03,-3.915353534797840207e-01,0.000000000000000000e+00
1.524000000000000000e+03,-1.441316309200798285e-01,0.000000000000000000e+00
1.525000000000000000e+03,-1.125594663920563704e-01,0.000000000000000000e+00
1.526000000000000000e+03,4.338586975974030313e-01,0.000000000000000000e+00
1.527000000000000000e+03,3.887090756391408108e-01,0.000000000000000000e+00
1.528000000000000000e+03,7.543365708930921398e-01,0.000000000000000000e+00
1.529000000000000000e+03,8.852245920063198659e-01,0.000000000000000000e+00
1.530000000000000000e+03,9.449753247638862375e-01,0.000000000000000000e+00
1.531000000000000000e+03,6.820287060647810540e-01,0.000000000000000000e+00
1.532000000000000000e+03,4.246357481107514986e-01,0.000000000000000000e+00
1.533000000000000000e+03,-4.258269246478877945e-01,0.000000000000000000e+00
1.534000000000000000e+03,-7.461585862973045824e-01,0.000000000000000000e+00
1.535000000000000000e+03,-1.029633992900875761e+00,0.000000000000000000e+00
1.536000000000000000e+03,-9.127801163368561843e-01,0.000000000000000000e+00
1.537000000000000000e+03,-9.307737174950757586e-01,0.000000000000000000e+00
1.538000000000000000e+03,-7.623804514924651388e-01,0.000000000000000000e+00
1.539000000000000000e+03,-7.317120831224924737e-01,0.000000000000000000e+00
1.540000000000000000e+03,-7.437381374305245263e-01,0.000000000000000000e+00
1.541000000000000000e+03,-8.592448942313331006e-01,0.000000000000000000e+00
1.542000000000000000e+03,-5.023389515792979765e-01,0.000000000000000000e+00
1.543000000000000000e+03,-5.492569873602579644e-01,0.000000000000000000e+00
1.544000000000000000e+03,-3.865895930852485951e-01,0.000000000000000000e+00
1.545000000000000000e+03,-4.225059685462667636e-01,0.000000000000000000e+00
1.546000000000000000e+03,-3.014041398418415008e-01,0.000000000000000000e+00
1.547000000000000000e+03,-2.746287083783909289e-01,0.000000000000000000e+00
1.548000000000000000e+03,-2.774192484335208375e-01,0.000000000000000000e+00
1.549000000000000000e+03,-1.098014665600172274e-01,0.000000000000000000e+00
1.550000000000000000e+03,-1.829684946865012540e-01,0.000000000000000000e+00
1.551000000000000000e+03,-1.581593885547527001e-01,0.000000000000000000e+00
1.552000000000000000e+03,2.825339030122498568e-02,0.000000000000000000e+00
1.553000000000000000e+03,-2.789043089712376911e-01,0.000000000000000000e+00
1.554000000000000000e+03,1.725300752009059913e-01,0.000000000000000000e+00
1.555000000000000000e+03,1.155074667122704124e-01,0.000000000000000000e+00
1.556000000000000000e+03,5.887478304918650901e-02,0.000000000000000000e+00
1.557000000000000000e+03,-4.942785495661650152e-02,0.000000000000000000e+00
1.558000000000000000e+03,3.819794271740871161e-01,0.000000000000000000e+00
1.559000000000000000e+03,7.727393528893556907e-01,0.000000000000000000e+00
1.560000000000000000e+03,1.107602228672165623e+00,0.000000000000000000e+00
1.561000000000000000e+03,8.611742855113215800e-01,0.000000000000000000e+00
1.562000000000000000e+03,5.961186892343460775e-01,0.000000000000000000e+00
1.563000000000000000e+03,-3.100264420681744792e-01,0.000000000000000000e+00
1.564000000000000000e+03,-3.310553922926879888e-01,0.000000000000000000e+00
1.565000000000000000e+03,-1.447746652556878566e-01,0.000000000000000000e+00
1.566000000000000000e+03,2.934658863298064344e-02,0.000000000000000000e+00
1.567000000000000000e+03,-2.430915857512391531e-01,0.000000000000000000e+00
1.568000000000000000e+03,1.196006565309166048e+00,0.000000000000000000e+00
1.569000000000000000e+03,4.856725088944425117e+00,0.000000000000000000e+00
1.570000000000000000e+03,8.164325971584779351e-01,1.000000000000000000e+00
1.571000000000000000e+03,-4.505689533326617813e-01,0.000000000000000000e+00
1.572000000000000000e+03,-6.321832583159920915e-01,0.000000000000000000e+00
1.573000000000000000e+03,-8.833176968761750070e-01,0.000000000000000000e+00
1.574000000000000000e+03,-7.006882082837666559e-01,0.000000000000000000e+00
1.575000000000000000e+03,-7.344962595300911223e-01,0.000000000000000000e+00
1.576000000000000000e+03,-3.595535431332774756e-02,0.000000000000000000e+00
1.577000000000000000e+03,-5.451470228567253384e-01,0.000000000000000000e+00
1.578000000000000000e+03,-3.226772755342127014e-02,0.000000000000000000e+00
1.579000000000000000e+03,-2.383003127768960616e-01,0.000000000000000000e+00
1.580000000000000000e+03,6.962420732692714553e-02,0.000000000000000000e+00
1.581000000000000000e+03,2.506165414044994599e-01,0.000000000000000000e+00
1.582000000000000000e+03,4.757907560230100752e-01,0.000000000000000000e+00
1.583000000000000000e+03,5.727176633847425036e-01,0.000000000000000000e+00
1.584000000000000000e+03,9.219487431869055616e-01,0.000000000000000000e+00
1.585000000000000000e+03,7.157168402651102879e-01,0.000000000000000000e+00
1.586000000000000000e+03,7.223372876875395754e-01,0.000000000000000000e+00
