timestamp,ecg_measurement,qrs_detected
0.000000000000000000e+00,3.619837690686427134e-01,0.000000000000000000e+00
1.000000000000000000e+00,2.948958074115463207e-02,0.000000000000000000e+00
2.000000000000000000e+00,-3.423300191783666679e-02,0.000000000000000000e+00
3.000000000000000000e+00,-1.468825044248349976e-01,0.000000000000000000e+00
4.000000000000000000e+00,3.065292436642412174e-03,0.000000000000000000e+00
5.000000000000000000e+00,-3.698172549638055195e-01,0.000000000000000000e+00
6.000000000000000000e+00,1.436358236870526106e+00,0.000000000000000000e+00
7.000000000000000000e+00,5.745030752322328738e+00,0.000000000000000000e+00
8.000000000000000000e+00,2.021805554361738810e+00,1.000000000000000000e+00
9.000000000000000000e+00,-4.326722209482342096e-02,0.000000000000000000e+00
1.000000000000000000e+01,-1.523295647979564960e+00,0.000000000000000000e+00
1.100000000000000000e+01,-1.589257892183890908e+00,0.000000000000000000e+00
1.200000000000000000e+01,-1.546385686165097972e+00,0.000000000000000000e+00
1.300000000000000000e+01,-1.286440010656028976e+00,0.000000000000000000e+00
1.400000000000000000e+01,-1.038325233248352131e+00,0.000000000000000000e+00
1.500000000000000000e+01,-9.706745095218026753e-01,0.000000000000000000e+00
1.600000000000000000e+01,-1.083071292552690190e+00,0.000000000000000000e+00
1.700000000000000000e+01,-7.061052223304625786e-01,0.000000000000000000e+00
1.800000000000000000e+01,-6.666084427703112825e-01,0.000000000000000000e+00
1.900000000000000000e+01,-4.892905045588162305e-01,0.000000000000000000e+00
2.000000000000000000e+01,-2.763798507451549202e-01,0.000000000000000000e+00
2.100000000000000000e+01,-2.599822857923557717e-01,0.000000000000000000e+00
2.200000000000000000e+01,-9.010222585744144530e-02,0.000000000000000000e+00
2.300000000000000000e+01,1.229174437242302464e-01,0.000000000000000000e+00
2.400000000000000000e+01,1.517481130172018966e-01,0.000000000000000000e+00
2.500000000000000000e+01,5.047489559407588589e-01,0.000000000000000000e+00
2.600000000000000000e+01,5.264454634863480198e-01,0.000000000000000000e+00
2.700000000000000000e+01,5.323219919385252519e-01,0.000000000000000000e+00
2.800000000000000000e+01,2.823531574708420533e-01,0.000000000000000000e+00
2.900000000000000000e+01,1.333608830185401550e-01,0.000000000000000000e+00
3.000000000000000000e+01,-3.805332633532474557e-02,0.000000000000000000e+00
3.100000000000000000e+01,2.863058507864536806e-02,0.000000000000000000e+00
3.200000000000000000e+01,-6.631243170631981841e-03,0.000000000000000000e+00
3.300000000000000000e+01,-2.164785423730186328e-02,0.000000000000000000e+00
3.400000000000000000e+01,-1.224608597011494215e-01,0.000000000000000000e+00
3.500000000000000000e+01,-2.274569117882536406e-01,0.000000000000000000e+00
3.600000000000000000e+01,4.114538545998047692e-02,0.000000000000000000e+00
3.700000000000000000e+01,1.305704556041710207e-01,0.000000000000000000e+00
3.800000000000000000e+01,1.644727073550183161e-01,0.000000000000000000e+00
3.900000000000000000e+01,9.881644605962816574e-02,0.000000000000000000e+00
4.000000000000000000e+01,2.312106616158022820e-01,0.000000000000000000e+00
4.100000000000000000e+01,-6.782110394415710730e-02,0.000000000000000000e+00
4.200000000000000000e+01,1.602678869520587635e-01,0.000000000000000000e+00
4.300000000000000000e+01,7.969808922722522448e-02,0.000000000000000000e+00
4.400000000000000000e+01,1.090416253681740361e-01,0.000000000000000000e+00
4.500000000000000000e+01,6.321328497126600665e-02,0.000000000000000000e+00
4.600000000000000000e+01,6.407842577585831645e-02,0.000000000000000000e+00
4.700000000000000000e+01,7.211804444902576716e-02,0.000000000000000000e+00
4.800000000000000000e+01,1.230430013359465752e-01,0.000000000000000000e+00
4.900000000000000000e+01,7.368617262714499683e-02,0.000000000000000000e+00
5.000000000000000000e+01,-3.045715735253929843e-02,0.000000000000000000e+00
5.100000000000000000e+01,7.353625328722813992e-02,0.000000000000000000e+00
5.200000000000000000e+01,1.390779197012929902e-01,0.000000000000000000e+00
5.300000000000000000e+01,1.407948053362010343e-01,0.000000000000000000e+00
5.400000000000000000e+01,2.910195992981324253e-01,0.000000000000000000e+00
5.500000000000000000e+01,2.327813239351496089e-01,0.000000000000000000e+00
5.600000000000000000e+01,3.447320729231255765e-01,0.000000000000000000e+00
5.700000000000000000e+01,5.681220301107823278e-01,0.000000000000000000e+00
5.800000000000000000e+01,2.053805674294859607e-01,0.000000000000000000e+00
5.900000000000000000e+01,4.649579680271419962e-02,0.000000000000000000e+00
6.000000000000000000e+01,-8.445793034714328684e-02,0.000000000000000000e+00
6.100000000000000000e+01,-3.463410568551988367e-01,0.000000000000000000e+00
6.200000000000000000e+01,-2.382433629291355048e-01,0.000000000000000000e+00
6.300000000000000000e+01,-3.649404513224729363e-01,0.000000000000000000e+00
6.400000000000000000e+01,2.072365650223719324e+00,0.000000000000000000e+00
6.500000000000000000e+01,6.171242915116908812e+00,0.000000000000000000e+00
6.600000000000000000e+01,1.118870195016820279e+00,1.000000000000000000e+00
6.700000000000000000e+01,-4.847416892029054458e-01,0.000000000000000000e+00
6.800000000000000000e+01,-1.861126150359726950e+00,0.000000000000000000e+00
6.900000000000000000e+01,-1.663171070864831069e+00,0.000000000000000000e+00
7.000000000000000000e+01,-1.465430444065328519e+00,0.000000000000000000e+00
7.100000000000000000e+01,-1.396576945354304877e+00,0.000000000000000000e+00
7.200000000000000000e+01,-1.363489347517942818e+00,0.000000000000000000e+00
7.300000000000000000e+01,-1.153215800768736976e+00,0.000000000000000000e+00
7.400000000000000000e+01,-1.109107266089202071e+00,0.000000000000000000e+00
7.500000000000000000e+01,-7.056605093038121890e-01,0.000000000000000000e+00
7.600000000000000000e+01,-7.519981275874139115e-01,0.000000000000000000e+00
7.700000000000000000e+01,-5.976551346233244244e-01,0.000000000000000000e+00
7.800000000000000000e+01,-4.745249093951282582e-01,0.000000000000000000e+00
7.900000000000000000e+01,-2.507136986105596432e-01,0.000000000000000000e+00
8.000000000000000000e+01,-1.897944186984751591e-01,0.000000000000000000e+00
8.100000000000000000e+01,1.861789026947863884e-02,0.000000000000000000e+00
8.200000000000000000e+01,1.765520032472069623e-01,0.000000000000000000e+00
8.300000000000000000e+01,2.156310120966180022e-01,0.000000000000000000e+00
8.400000000000000000e+01,4.655070324425789052e-01,0.000000000000000000e+00
8.500000000000000000e+01,5.784837877158928165e-01,0.000000000000000000e+00
8.600000000000000000e+01,1.823762716282742447e-01,0.000000000000000000e+00
8.700000000000000000e+01,-6.459520268859303416e-02,0.000000000000000000e+00
8.800000000000000000e+01,-1.670115669861744201e-01,0.000000000000000000e+00
8.900000000000000000e+01,-1.328071243606510632e-01,0.000000000000000000e+00
9.000000000000000000e+01,-2.334868954567089483e-01,0.000000000000000000e+00
9.100000000000000000e+01,1.316722476173359845e-03,0.000000000000000000e+00
9.200000000000000000e+01,-2.548405651509081937e-01,0.000000000000000000e+00
9.300000000000000000e+01,-5.092048893646342056e-02,0.000000000000000000e+00
9.400000000000000000e+01,-2.115045991441792395e-01,0.000000000000000000e+00
9.500000000000000000e+01,7.059349012223098407e-02,0.000000000000000000e+00
9.600000000000000000e+01,3.157318885110278056e-02,0.000000000000000000e+00
9.700000000000000000e+01,1.863110757994768385e-01,0.000000000000000000e+00
9.800000000000000000e+01,6.131749259795778173e-02,0.000000000000000000e+00
9.900000000000000000e+01,2.837701382828846861e-02,0.000000000000000000e+00
1.000000000000000000e+02,-5.733838157364296029e-02,0.000000000000000000e+00
1.010000000000000000e+02,9.388205003572309970e-02,0.000000000000000000e+00
1.020000000000000000e+02,7.937356731976617785e-03,0.000000000000000000e+00
1.030000000000000000e+02,8.846409995380234703e-02,0.000000000000000000e+00
1.040000000000000000e+02,-6.708739129923027567e-02,0.000000000000000000e+00
1.050000000000000000e+02,2.041010314766930622e-01,0.000000000000000000e+00
1.060000000000000000e+02,-1.871813999457809172e-02,0.000000000000000000e+00
1.070000000000000000e+02,1.052425619478759150e-01,0.000000000000000000e+00
1.080000000000000000e+02,8.711049818633517794e-02,0.000000000000000000e+00
1.090000000000000000e+02,6.830066694452663345e-02,0.000000000000000000e+00
1.100000000000000000e+02,1.155959253483484356e-01,0.000000000000000000e+00
1.110000000000000000e+02,2.165796439351202751e-01,0.000000000000000000e+00
1.120000000000000000e+02,4.790683211792031160e-01,0.000000000000000000e+00
1.130000000000000000e+02,5.780048460454754178e-01,0.000000000000000000e+00
1.140000000000000000e+02,1.729217038705826159e-01,0.000000000000000000e+00
1.150000000000000000e+02,1.407388948071991996e-01,0.000000000000000000e+00
1.160000000000000000e+02,-2.499806240830512727e-01,0.000000000000000000e+00
1.170000000000000000e+02,-2.314065626382646179e-01,0.000000000000000000e+00
1.180000000000000000e+02,-2.392728049710931837e-01,0.000000000000000000e+00
1.190000000000000000e+02,-9.507921034274233185e-02,0.000000000000000000e+00
1.200000000000000000e+02,3.599119509904464831e-01,0.000000000000000000e+00
1.210000000000000000e+02,5.667691210344451669e+00,0.000000000000000000e+00
1.220000000000000000e+02,2.273494649506337950e+00,1.000000000000000000e+00
1.230000000000000000e+02,-7.646157983261364643e-01,0.000000000000000000e+00
1.240000000000000000e+02,-9.794461481303003980e-01,0.000000000000000000e+00
1.250000000000000000e+02,-1.663218768423457172e+00,0.000000000000000000e+00
1.260000000000000000e+02,-1.176111818528184028e+00,0.000000000000000000e+00
1.270000000000000000e+02,-1.405827155553655894e+00,0.000000000000000000e+00
1.280000000000000000e+02,-9.560228403231944005e-01,0.000000000000000000e+00
1.290000000000000000e+02,-1.026285071682242256e+00,0.000000000000000000e+00
1.300000000000000000e+02,-6.479345408969585662e-01,0.000000000000000000e+00
1.310000000000000000e+02,-6.677417509391678774e-01,0.000000000000000000e+00
1.320000000000000000e+02,-4.482273970661787565e-01,0.000000000000000000e+00
1.330000000000000000e+02,-3.859049678658353910e-01,0.000000000000000000e+00
1.340000000000000000e+02,-3.559433560487905712e-01,0.000000000000000000e+00
1.350000000000000000e+02,-1.678816172642013105e-01,0.000000000000000000e+00
1.360000000000000000e+02,9.344315648630800719e-02,0.000000000000000000e+00
1.370000000000000000e+02,1.759589833552696325e-01,0.000000000000000000e+00
1.380000000000000000e+02,3.868434055319743270e-01,0.000000000000000000e+00
1.390000000000000000e+02,5.235272960282278953e-01,0.000000000000000000e+00
1.400000000000000000e+02,7.189987666631300067e-01,0.000000000000000000e+00
1.410000000000000000e+02,7.513624516702250844e-01,0.000000000000000000e+00
1.420000000000000000e+02,5.234063522595936435e-01,0.000000000000000000e+00
1.430000000000000000e+02,2.236027736958711154e-01,0.000000000000000000e+00
1.440000000000000000e+02,1.149406631150512587e-01,0.000000000000000000e+00
1.450000000000000000e+02,-2.016264329445386083e-01,0.000000000000000000e+00
1.460000000000000000e+02,-7.069941322532331818e-02,0.000000000000000000e+00
1.470000000000000000e+02,-1.295900912982167752e-01,0.000000000000000000e+00
1.480000000000000000e+02,1.840930007563861825e-01,0.000000000000000000e+00
1.490000000000000000e+02,6.069950728937591189e-02,0.000000000000000000e+00
1.500000000000000000e+02,-4.571563009200731859e-02,0.000000000000000000e+00
1.510000000000000000e+02,1.655588625698065086e-01,0.000000000000000000e+00
1.520000000000000000e+02,1.236018193408811305e-01,0.000000000000000000e+00
1.530000000000000000e+02,-1.208251967522196435e-01,0.000000000000000000e+00
1.540000000000000000e+02,-1.391537266615127111e-01,0.000000000000000000e+00
1.550000000000000000e+02,5.892241289525417848e-03,0.000000000000000000e+00
1.560000000000000000e+02,-1.174102105175745953e-01,0.000000000000000000e+00
1.570000000000000000e+02,-1.610117469839390247e-01,0.000000000000000000e+00
1.580000000000000000e+02,-1.409288372578157700e-01,0.000000000000000000e+00
1.590000000000000000e+02,-1.759033366781780072e-01,0.000000000000000000e+00
1.600000000000000000e+02,-1.388211097959194396e-01,0.000000000000000000e+00
1.610000000000000000e+02,-3.015827561629781384e-01,0.000000000000000000e+00
1.620000000000000000e+02,-8.708194992595379158e-02,0.000000000000000000e+00
1.630000000000000000e+02,-1.678960363652535759e-01,0.000000000000000000e+00
1.640000000000000000e+02,-1.375342353373978643e-01,0.000000000000000000e+00
1.650000000000000000e+02,-1.078990304354620899e-01,0.000000000000000000e+00
1.660000000000000000e+02,-3.849522575081912312e-02,0.000000000000000000e+00
1.670000000000000000e+02,1.439555977094398274e-02,0.000000000000000000e+00
1.680000000000000000e+02,2.434950250975880526e-01,0.000000000000000000e+00
1.690000000000000000e+02,2.516879059065163862e-02,0.000000000000000000e+00
1.700000000000000000e+02,6.074781329627089443e-02,0.000000000000000000e+00
1.710000000000000000e+02,-5.466645672586073479e-01,0.000000000000000000e+00
1.720000000000000000e+02,-2.148873347469116568e-01,0.000000000000000000e+00
1.730000000000000000e+02,-6.628992869471299620e-01,0.000000000000000000e+00
1.740000000000000000e+02,3.049352113817645205e-02,0.000000000000000000e+00
1.750000000000000000e+02,-1.342676986889458357e-01,0.000000000000000000e+00
1.760000000000000000e+02,4.688158710765128134e+00,0.000000000000000000e+00
1.770000000000000000e+02,3.510717917748527928e+00,1.000000000000000000e+00
1.780000000000000000e+02,-1.668611695178285337e-01,0.000000000000000000e+00
1.790000000000000000e+02,-8.765751765024332176e-01,0.000000000000000000e+00
1.800000000000000000e+02,-1.790362001490863220e+00,0.000000000000000000e+00
1.810000000000000000e+02,-1.254573663628450131e+00,0.000000000000000000e+00
1.820000000000000000e+02,-1.262020509733282392e+00,0.000000000000000000e+00
1.830000000000000000e+02,-1.087329600352880066e+00,0.000000000000000000e+00
1.840000000000000000e+02,-1.199591258582067610e+00,0.000000000000000000e+00
1.850000000000000000e+02,-7.300335364935864879e-01,0.000000000000000000e+00
1.860000000000000000e+02,-8.038715915086835917e-01,0.000000000000000000e+00
1.870000000000000000e+02,-5.678823939483941263e-01,0.000000000000000000e+00
1.880000000000000000e+02,-5.401340583284183205e-01,0.000000000000000000e+00
1.890000000000000000e+02,-2.781722027067888292e-01,0.000000000000000000e+00
1.900000000000000000e+02,-2.590390714876098510e-01,0.000000000000000000e+00
1.910000000000000000e+02,-3.640983824058783430e-02,0.000000000000000000e+00
1.920000000000000000e+02,7.533539236683221840e-02,0.000000000000000000e+00
1.930000000000000000e+02,3.757200016028575673e-01,0.000000000000000000e+00
1.940000000000000000e+02,2.089247196818926899e-01,0.000000000000000000e+00
1.950000000000000000e+02,7.017321184515645793e-01,0.000000000000000000e+00
1.960000000000000000e+02,3.992420449225779211e-01,0.000000000000000000e+00
1.970000000000000000e+02,6.956829499036415454e-01,0.000000000000000000e+00
1.980000000000000000e+02,4.586259404675585571e-02,0.000000000000000000e+00
1.990000000000000000e+02,9.130790936171162553e-02,0.000000000000000000e+00
2.000000000000000000e+02,-6.926857023428859006e-02,0.000000000000000000e+00
2.010000000000000000e+02,1.158572563890064057e-02,0.000000000000000000e+00
2.020000000000000000e+02,3.095442980633626717e-02,0.000000000000000000e+00
2.030000000000000000e+02,6.428001507970398931e-02,0.000000000000000000e+00
2.040000000000000000e+02,2.972569994057887646e-02,0.000000000000000000e+00
2.050000000000000000e+02,-9.125531928605916387e-02,0.000000000000000000e+00
2.060000000000000000e+02,2.293084007008312428e-02,0.000000000000000000e+00
2.070000000000000000e+02,6.802693011524776900e-02,0.000000000000000000e+00
2.080000000000000000e+02,-8.614902391272920290e-02,0.000000000000000000e+00
2.090000000000000000e+02,-9.928096399219223100e-02,0.000000000000000000e+00
2.100000000000000000e+02,-1.426881431270351219e-01,0.000000000000000000e+00
2.110000000000000000e+02,-2.817827203850528650e-01,0.000000000000000000e+00
2.120000000000000000e+02,-4.855454781988993718e-02,0.000000000000000000e+00
2.130000000000000000e+02,-1.723931612160794352e-02,0.000000000000000000e+00
2.140000000000000000e+02,-2.880795730084113049e-01,0.000000000000000000e+00
2.150000000000000000e+02,2.902299523097820813e-02,0.000000000000000000e+00
2.160000000000000000e+02,-2.963918546115948405e-02,0.000000000000000000e+00
2.170000000000000000e+02,1.572422996523210881e-01,0.000000000000000000e+00
2.180000000000000000e+02,-9.109443328421378688e-03,0.000000000000000000e+00
2.190000000000000000e+02,1.761606756311426547e-01,0.000000000000000000e+00
2.200000000000000000e+02,3.282933789292434568e-02,0.000000000000000000e+00
2.210000000000000000e+02,4.070203159632204137e-01,0.000000000000000000e+00
2.220000000000000000e+02,1.944625540227777061e-01,0.000000000000000000e+00
2.230000000000000000e+02,4.196639470061907518e-01,0.000000000000000000e+00
2.240000000000000000e+02,5.393858657872657725e-01,0.000000000000000000e+00
2.250000000000000000e+02,7.056301715421103848e-01,0.000000000000000000e+00
2.260000000000000000e+02,4.481668265221497860e-01,0.000000000000000000e+00
2.270000000000000000e+02,6.060902802152021707e-01,0.000000000000000000e+00
2.280000000000000000e+02,-9.926698197181773806e-03,0.000000000000000000e+00
2.290000000000000000e+02,1.258439442339264747e-01,0.000000000000000000e+00
2.300000000000000000e+02,-9.862065961137871095e-02,0.000000000000000000e+00
2.310000000000000000e+02,2.639727558972713162e-01,0.000000000000000000e+00
2.320000000000000000e+02,4.819486360492097332e-01,0.000000000000000000e+00
2.330000000000000000e+02,5.761561072248576387e+00,0.000000000000000000e+00
2.340000000000000000e+02,3.222240418638253612e+00,1.000000000000000000e+00
2.350000000000000000e+02,2.005664133954634942e-01,0.000000000000000000e+00
2.360000000000000000e+02,-9.508085953807881019e-01,0.000000000000000000e+00
2.370000000000000000e+02,-1.560886029824147814e+00,0.000000000000000000e+00
2.380000000000000000e+02,-1.334473330243855616e+00,0.000000000000000000e+00
2.390000000000000000e+02,-1.361427180568017592e+00,0.000000000000000000e+00
2.400000000000000000e+02,-1.127878323580144837e+00,0.000000000000000000e+00
2.410000000000000000e+02,-7.768076581968137440e-01,0.000000000000000000e+00
2.420000000000000000e+02,-9.805068037765117817e-01,0.000000000000000000e+00
2.430000000000000000e+02,-7.947188210306157519e-01,0.000000000000000000e+00
2.440000000000000000e+02,-5.981054732402151242e-01,0.000000000000000000e+00
2.450000000000000000e+02,-3.884157546179107801e-01,0.000000000000000000e+00
2.460000000000000000e+02,-3.313881222117063818e-01,0.000000000000000000e+00
2.470000000000000000e+02,-1.442309157392617502e-01,0.000000000000000000e+00
2.480000000000000000e+02,-2.064912602753425919e-01,0.000000000000000000e+00
2.490000000000000000e+02,1.047161030597544701e-01,0.000000000000000000e+00
2.500000000000000000e+02,1.757749543126015945e-01,0.000000000000000000e+00
2.510000000000000000e+02,2.945267989732112679e-01,0.000000000000000000e+00
2.520000000000000000e+02,5.443847084638190337e-01,0.000000000000000000e+00
2.530000000000000000e+02,5.163836733456367289e-01,0.000000000000000000e+00
2.540000000000000000e+02,3.842403504056260410e-01,0.000000000000000000e+00
2.550000000000000000e+02,-3.922730813769087499e-02,0.000000000000000000e+00
2.560000000000000000e+02,-1.449717294391758560e-01,0.000000000000000000e+00
2.570000000000000000e+02,-1.043555990618893065e-01,0.000000000000000000e+00
2.580000000000000000e+02,-9.772461566427172175e-02,0.000000000000000000e+00
2.590000000000000000e+02,-1.195578631441294587e-01,0.000000000000000000e+00
2.600000000000000000e+02,-2.520117307150619435e-01,0.000000000000000000e+00
2.610000000000000000e+02,-1.722159596145046156e-01,0.000000000000000000e+00
2.620000000000000000e+02,-1.061227997144885138e-01,0.000000000000000000e+00
2.630000000000000000e+02,-7.782592641788436960e-02,0.000000000000000000e+00
2.640000000000000000e+02,2.486674540843978806e-02,0.000000000000000000e+00
2.650000000000000000e+02,-4.539680470382592009e-02,0.000000000000000000e+00
2.660000000000000000e+02,1.047329336816325840e-02,0.000000000000000000e+00
2.670000000000000000e+02,9.213883691252446051e-02,0.000000000000000000e+00
2.680000000000000000e+02,2.214436080472299145e-02,0.000000000000000000e+00
2.690000000000000000e+02,1.182430534894997470e-01,0.000000000000000000e+00
2.700000000000000000e+02,-1.935222363093158926e-01,0.000000000000000000e+00
2.710000000000000000e+02,1.906795769188629822e-02,0.000000000000000000e+00
2.720000000000000000e+02,-2.467938135725937510e-02,0.000000000000000000e+00
2.730000000000000000e+02,-3.104397332329717971e-02,0.000000000000000000e+00
2.740000000000000000e+02,-8.016858557430941654e-03,0.000000000000000000e+00
2.750000000000000000e+02,2.436365258963093389e-02,0.000000000000000000e+00
2.760000000000000000e+02,-1.218147993193173101e-01,0.000000000000000000e+00
2.770000000000000000e+02,4.130428346235121007e-02,0.000000000000000000e+00
2.780000000000000000e+02,-1.425720605396562923e-01,0.000000000000000000e+00
2.790000000000000000e+02,2.655707928029392706e-01,0.000000000000000000e+00
2.800000000000000000e+02,1.141202837628281508e-01,0.000000000000000000e+00
2.810000000000000000e+02,3.229980373863583498e-01,0.000000000000000000e+00
2.820000000000000000e+02,3.136420021519473189e-01,0.000000000000000000e+00
2.830000000000000000e+02,3.059496312756859737e-01,0.000000000000000000e+00
2.840000000000000000e+02,-1.337988821692675800e-01,0.000000000000000000e+00
2.850000000000000000e+02,-3.496115139965615820e-02,0.000000000000000000e+00
2.860000000000000000e+02,-5.342072568703015722e-01,0.000000000000000000e+00
2.870000000000000000e+02,-2.679572127765183498e-01,0.000000000000000000e+00
2.880000000000000000e+02,-3.714272543408702054e-01,0.000000000000000000e+00
2.890000000000000000e+02,1.326989605870202871e+00,0.000000000000000000e+00
2.900000000000000000e+02,6.144969601961627781e+00,0.000000000000000000e+00
2.910000000000000000e+02,1.138835512676699802e+00,1.000000000000000000e+00
2.920000000000000000e+02,-5.774671360731790104e-01,0.000000000000000000e+00
2.930000000000000000e+02,-1.637785363605829936e+00,0.000000000000000000e+00
2.940000000000000000e+02,-1.634134952780717187e+00,0.000000000000000000e+00
2.950000000000000000e+02,-1.534324090278884389e+00,0.000000000000000000e+00
2.960000000000000000e+02,-1.392901082567855164e+00,0.000000000000000000e+00
2.970000000000000000e+02,-1.314746542455445200e+00,0.000000000000000000e+00
2.980000000000000000e+02,-1.040394833322447532e+00,0.000000000000000000e+00
2.990000000000000000e+02,-8.747396515834652275e-01,0.000000000000000000e+00
3.000000000000000000e+02,-9.240000058548177853e-01,0.000000000000000000e+00
3.010000000000000000e+02,-6.588002259879581768e-01,0.000000000000000000e+00
3.020000000000000000e+02,-7.113893809347808794e-01,0.000000000000000000e+00
3.030000000000000000e+02,-3.737794173387774532e-01,0.000000000000000000e+00
3.040000000000000000e+02,-1.766633433860382851e-01,0.000000000000000000e+00
3.050000000000000000e+02,-1.917224096543292677e-01,0.000000000000000000e+00
3.060000000000000000e+02,2.441746585553080523e-02,0.000000000000000000e+00
3.070000000000000000e+02,-3.178832788707546680e-02,0.000000000000000000e+00
3.080000000000000000e+02,3.924499824474773635e-01,0.000000000000000000e+00
3.090000000000000000e+02,3.546407983781881268e-01,0.000000000000000000e+00
3.100000000000000000e+02,5.753735290311561279e-01,0.000000000000000000e+00
3.110000000000000000e+02,2.428492723556917587e-01,0.000000000000000000e+00
3.120000000000000000e+02,-1.672555418480670686e-01,0.000000000000000000e+00
3.130000000000000000e+02,-2.934146664368462165e-01,0.000000000000000000e+00
3.140000000000000000e+02,-2.397969212281496065e-01,0.000000000000000000e+00
3.150000000000000000e+02,-1.654251543713055883e-01,0.000000000000000000e+00
3.160000000000000000e+02,-2.722505043804568023e-02,0.000000000000000000e+00
3.170000000000000000e+02,-2.787159342510655002e-01,0.000000000000000000e+00
3.180000000000000000e+02,-5.410020041125414986e-02,0.000000000000000000e+00
3.190000000000000000e+02,-2.586342983578449398e-02,0.000000000000000000e+00
3.200000000000000000e+02,5.378794993283749631e-02,0.000000000000000000e+00
3.210000000000000000e+02,1.317875474196135432e-01,0.000000000000000000e+00
3.220000000000000000e+02,2.733662946259270490e-02,0.000000000000000000e+00
3.230000000000000000e+02,-1.672935925193250184e-02,0.000000000000000000e+00
3.240000000000000000e+02,1.233284053076873082e-01,0.000000000000000000e+00
3.250000000000000000e+02,-7.792351465028248859e-03,0.000000000000000000e+00
3.260000000000000000e+02,9.662600772377049826e-03,0.000000000000000000e+00
3.270000000000000000e+02,6.778089774475176861e-03,0.000000000000000000e+00
3.280000000000000000e+02,6.512430672991191549e-02,0.000000000000000000e+00
3.290000000000000000e+02,7.886225250262519915e-02,0.000000000000000000e+00
3.300000000000000000e+02,-1.500677759073867738e-02,0.000000000000000000e+00
3.310000000000000000e+02,6.674433150432597384e-03,0.000000000000000000e+00
3.320000000000000000e+02,1.121375341929458092e-01,0.000000000000000000e+00
3.330000000000000000e+02,3.966962419497090109e-02,0.000000000000000000e+00
3.340000000000000000e+02,2.669897013068779357e-01,0.000000000000000000e+00
3.350000000000000000e+02,3.172267423450880058e-02,0.000000000000000000e+00
3.360000000000000000e+02,2.423886028159534523e-01,0.000000000000000000e+00
3.370000000000000000e+02,5.375739038467356457e-01,0.000000000000000000e+00
3.380000000000000000e+02,5.053364306807198725e-01,0.000000000000000000e+00
3.390000000000000000e+02,3.782556693934283620e-01,0.000000000000000000e+00
3.400000000000000000e+02,1.537745123064696851e-01,0.000000000000000000e+00
3.410000000000000000e+02,-2.514501232815419818e-01,0.000000000000000000e+00
3.420000000000000000e+02,-1.355349471041306653e-01,0.000000000000000000e+00
3.430000000000000000e+02,2.988039246983647049e-02,0.000000000000000000e+00
3.440000000000000000e+02,-3.072592941178599601e-01,0.000000000000000000e+00
3.450000000000000000e+02,1.787395706016182029e+00,0.000000000000000000e+00
3.460000000000000000e+02,5.572295978083657175e+00,0.000000000000000000e+00
3.470000000000000000e+02,1.027460749929521411e+00,1.000000000000000000e+00
3.480000000000000000e+02,-4.188695625202331074e-01,0.000000000000000000e+00
3.490000000000000000e+02,-1.186084700941783421e+00,0.000000000000000000e+00
3.500000000000000000e+02,-1.262452180530416523e+00,0.000000000000000000e+00
3.510000000000000000e+02,-1.411140991835079239e+00,0.000000000000000000e+00
3.520000000000000000e+02,-1.122636793117989473e+00,0.000000000000000000e+00
3.530000000000000000e+02,-1.010563494364419057e+00,0.000000000000000000e+00
3.540000000000000000e+02,-7.463397900115130712e-01,0.000000000000000000e+00
3.550000000000000000e+02,-8.359471695926119494e-01,0.000000000000000000e+00
3.560000000000000000e+02,-6.046461231309432360e-01,0.000000000000000000e+00
3.570000000000000000e+02,-6.124874142421762313e-01,0.000000000000000000e+00
3.580000000000000000e+02,-3.276653587877486062e-01,0.000000000000000000e+00
3.590000000000000000e+02,-3.291085255758887662e-01,0.000000000000000000e+00
3.600000000000000000e+02,-3.948129169144717204e-02,0.000000000000000000e+00
3.610000000000000000e+02,4.220297923478055768e-02,0.000000000000000000e+00
3.620000000000000000e+02,5.200087188073092975e-02,0.000000000000000000e+00
3.630000000000000000e+02,2.965217672817173633e-01,0.000000000000000000e+00
3.640000000000000000e+02,4.108460902914033985e-01,0.000000000000000000e+00
3.650000000000000000e+02,5.548428961294954442e-01,0.000000000000000000e+00
3.660000000000000000e+02,3.826322994894758578e-01,0.000000000000000000e+00
3.670000000000000000e+02,2.517340371126183252e-01,0.000000000000000000e+00
3.680000000000000000e+02,1.713225311568307707e-01,0.000000000000000000e+00
3.690000000000000000e+02,-6.877371335462377500e-02,0.000000000000000000e+00
3.700000000000000000e+02,-1.575526771065559883e-01,0.000000000000000000e+00
3.710000000000000000e+02,-1.967243386951584849e-01,0.000000000000000000e+00
3.720000000000000000e+02,-1.437827991433751340e-01,0.000000000000000000e+00
3.730000000000000000e+02,-1.678823877739953757e-02,0.000000000000000000e+00
3.740000000000000000e+02,6.139967043863838597e-02,0.000000000000000000e+00
3.750000000000000000e+02,2.645517922722728232e-01,0.000000000000000000e+00
3.760000000000000000e+02,8.023129888205467186e-02,0.000000000000000000e+00
3.770000000000000000e+02,2.032283602892247243e-01,0.000000000000000000e+00
3.780000000000000000e+02,1.003527773673548174e-01,0.000000000000000000e+00
3.790000000000000000e+02,1.506978563827275353e-01,0.000000000000000000e+00
3.800000000000000000e+02,8.472498297096216213e-02,0.000000000000000000e+00
3.810000000000000000e+02,1.310710064378534379e-01,0.000000000000000000e+00
3.820000000000000000e+02,-1.285614627775408803e-01,0.000000000000000000e+00
3.830000000000000000e+02,3.815673835512241319e-02,0.000000000000000000e+00
3.840000000000000000e+02,1.193295520494732503e-01,0.000000000000000000e+00
3.850000000000000000e+02,-1.617200533064329371e-02,0.000000000000000000e+00
3.860000000000000000e+02,8.994156536291780801e-02,0.000000000000000000e+00
3.870000000000000000e+02,7.071903734343333581e-02,0.000000000000000000e+00
3.880000000000000000e+02,5.150898694683661572e-02,0.000000000000000000e+00
3.890000000000000000e+02,-7.632184532523990372e-02,0.000000000000000000e+00
3.900000000000000000e+02,1.876520720458993152e-01,0.000000000000000000e+00
3.910000000000000000e+02,1.322578790288328476e-01,0.000000000000000000e+00
3.920000000000000000e+02,3.016993748365519035e-01,0.000000000000000000e+00
3.930000000000000000e+02,2.963705963697272350e-01,0.000000000000000000e+00
3.940000000000000000e+02,4.945889376435568807e-01,0.000000000000000000e+00
3.950000000000000000e+02,3.127803220686081187e-01,0.000000000000000000e+00
3.960000000000000000e+02,2.807425512404725931e-01,0.000000000000000000e+00
3.970000000000000000e+02,-2.053181581812542900e-01,0.000000000000000000e+00
3.980000000000000000e+02,-1.217013762131589488e-01,0.000000000000000000e+00
3.990000000000000000e+02,-4.226628514480350041e-01,0.000000000000000000e+00
4.000000000000000000e+02,-1.496479510801988488e-01,0.000000000000000000e+00
4.010000000000000000e+02,2.105690067746346372e-01,0.000000000000000000e+00
4.020000000000000000e+02,5.052385862306089770e+00,0.000000000000000000e+00
4.030000000000000000e+02,3.471188000866803680e+00,1.000000000000000000e+00
4.040000000000000000e+02,-4.173912366233225452e-02,0.000000000000000000e+00
4.050000000000000000e+02,-1.213062834953329894e+00,0.000000000000000000e+00
4.060000000000000000e+02,-1.754108795117841346e+00,0.000000000000000000e+00
4.070000000000000000e+02,-1.382908673028526048e+00,0.000000000000000000e+00
4.080000000000000000e+02,-1.438051187786804963e+00,0.000000000000000000e+00
4.090000000000000000e+02,-1.401297278373760280e+00,0.000000000000000000e+00
4.100000000000000000e+02,-1.193489522573380812e+00,0.000000000000000000e+00
4.110000000000000000e+02,-1.088947771806243914e+00,0.000000000000000000e+00
4.120000000000000000e+02,-8.362120526657885744e-01,0.000000000000000000e+00
4.130000000000000000e+02,-7.646285737546533179e-01,0.000000000000000000e+00
4.140000000000000000e+02,-4.556049433026700957e-01,0.000000000000000000e+00
4.150000000000000000e+02,-5.792390616383763513e-01,0.000000000000000000e+00
4.160000000000000000e+02,-4.249306185084667509e-01,0.000000000000000000e+00
4.170000000000000000e+02,-3.082665986394536595e-01,0.000000000000000000e+00
4.180000000000000000e+02,1.269009535398610833e-01,0.000000000000000000e+00
4.190000000000000000e+02,5.677360703501209416e-02,0.000000000000000000e+00
4.200000000000000000e+02,2.592304129468534502e-01,0.000000000000000000e+00
4.210000000000000000e+02,4.124544641905723563e-01,0.000000000000000000e+00
4.220000000000000000e+02,3.991599441627818878e-01,0.000000000000000000e+00
4.230000000000000000e+02,3.796099705617054787e-01,0.000000000000000000e+00
4.240000000000000000e+02,3.636991647970323066e-02,0.000000000000000000e+00
4.250000000000000000e+02,1.017977273313829395e-01,0.000000000000000000e+00
4.260000000000000000e+02,3.747365591329667595e-02,0.000000000000000000e+00
4.270000000000000000e+02,-6.430141260790395163e-02,0.000000000000000000e+00
4.280000000000000000e+02,-1.140497250389797962e-01,0.000000000000000000e+00
4.290000000000000000e+02,-1.039080602213537791e-01,0.000000000000000000e+00
4.300000000000000000e+02,-1.476958884023800433e-01,0.000000000000000000e+00
4.310000000000000000e+02,7.816180238369184463e-02,0.000000000000000000e+00
4.320000000000000000e+02,1.896710806699326152e-02,0.000000000000000000e+00
4.330000000000000000e+02,1.352405608849887864e-01,0.000000000000000000e+00
4.340000000000000000e+02,1.171883954738575234e-01,0.000000000000000000e+00
4.350000000000000000e+02,2.087070157340616128e-01,0.000000000000000000e+00
4.360000000000000000e+02,-8.157390666531330603e-03,0.000000000000000000e+00
4.370000000000000000e+02,9.123941680543737331e-02,0.000000000000000000e+00
4.380000000000000000e+02,1.111959931506520810e-01,0.000000000000000000e+00
4.390000000000000000e+02,7.406056827971092826e-02,0.000000000000000000e+00
4.400000000000000000e+02,2.962979865468221702e-02,0.000000000000000000e+00
4.410000000000000000e+02,1.762537133171757364e-01,0.000000000000000000e+00
4.420000000000000000e+02,-6.288842268417392523e-02,0.000000000000000000e+00
4.430000000000000000e+02,4.771710288109278636e-02,0.000000000000000000e+00
4.440000000000000000e+02,1.467225571911642545e-01,0.000000000000000000e+00
4.450000000000000000e+02,-1.563697945309998338e-02,0.000000000000000000e+00
4.460000000000000000e+02,9.810459714790227548e-02,0.000000000000000000e+00
4.470000000000000000e+02,1.803878608560981547e-02,0.000000000000000000e+00
4.480000000000000000e+02,3.387298603546410325e-01,0.000000000000000000e+00
4.490000000000000000e+02,1.913867635195613814e-01,0.000000000000000000e+00
4.500000000000000000e+02,3.956212238700365091e-01,0.000000000000000000e+00
4.510000000000000000e+02,5.414783381013662522e-01,0.000000000000000000e+00
4.520000000000000000e+02,2.581270840967870295e-01,0.000000000000000000e+00
4.530000000000000000e+02,4.233498057821912658e-02,0.000000000000000000e+00
4.540000000000000000e+02,-1.898876310322621108e-01,0.000000000000000000e+00
4.550000000000000000e+02,-3.818011332287917226e-01,0.000000000000000000e+00
4.560000000000000000e+02,-1.092844631784468806e-01,0.000000000000000000e+00
4.570000000000000000e+02,-4.311002530620398066e-01,0.000000000000000000e+00
4.580000000000000000e+02,1.785241206269646330e+00,0.000000000000000000e+00
4.590000000000000000e+02,5.978140206542359003e+00,0.000000000000000000e+00
4.600000000000000000e+02,1.288557352870500106e+00,1.000000000000000000e+00
4.610000000000000000e+02,-3.782079795639606279e-01,0.000000000000000000e+00
4.620000000000000000e+02,-1.656293099236313626e+00,0.000000000000000000e+00
4.630000000000000000e+02,-1.554494768256267978e+00,0.000000000000000000e+00
4.640000000000000000e+02,-1.649678238821728815e+00,0.000000000000000000e+00
4.650000000000000000e+02,-1.399333096872265481e+00,0.000000000000000000e+00
4.660000000000000000e+02,-1.294295716178302857e+00,0.000000000000000000e+00
4.670000000000000000e+02,-1.035046569435027486e+00,0.000000000000000000e+00
4.680000000000000000e+02,-9.840043993178766435e-01,0.000000000000000000e+00
4.690000000000000000e+02,-7.752599317890938035e-01,0.000000000000000000e+00
4.700000000000000000e+02,-8.664025144993113825e-01,0.000000000000000000e+00
4.710000000000000000e+02,-5.792444393540607805e-01,0.000000000000000000e+00
4.720000000000000000e+02,-3.962766432997227306e-01,0.000000000000000000e+00
4.730000000000000000e+02,-2.382252928656614088e-01,0.000000000000000000e+00
4.740000000000000000e+02,-6.458053191758114653e-02,0.000000000000000000e+00
4.750000000000000000e+02,-1.997550513867550268e-02,0.000000000000000000e+00
4.760000000000000000e+02,-6.382531249378002591e-02,0.000000000000000000e+00
4.770000000000000000e+02,2.445817673644900547e-01,0.000000000000000000e+00
4.780000000000000000e+02,6.707512334541737564e-01,0.000000000000000000e+00
4.790000000000000000e+02,4.302029484196662756e-01,0.000000000000000000e+00
4.800000000000000000e+02,3.470180755095300662e-01,0.000000000000000000e+00
4.810000000000000000e+02,-2.943853169845413176e-02,0.000000000000000000e+00
4.820000000000000000e+02,-1.129929934872935388e-01,0.000000000000000000e+00
4.830000000000000000e+02,-1.871930672638045523e-01,0.000000000000000000e+00
4.840000000000000000e+02,5.732154151781589102e-02,0.000000000000000000e+00
4.850000000000000000e+02,-2.948674926638511148e-02,0.000000000000000000e+00
4.860000000000000000e+02,-1.059613327660859083e-01,0.000000000000000000e+00
4.870000000000000000e+02,2.637127369320379361e-02,0.000000000000000000e+00
4.880000000000000000e+02,-8.661797074136463881e-02,0.000000000000000000e+00
4.890000000000000000e+02,2.142404589038091750e-02,0.000000000000000000e+00
4.900000000000000000e+02,2.600342875558722122e-01,0.000000000000000000e+00
4.910000000000000000e+02,1.582088181940483618e-01,0.000000000000000000e+00
4.920000000000000000e+02,3.132977622068500168e-01,0.000000000000000000e+00
4.930000000000000000e+02,5.548757502539026533e-03,0.000000000000000000e+00
4.940000000000000000e+02,6.437766562576884011e-02,0.000000000000000000e+00
4.950000000000000000e+02,-7.166571329447796179e-02,0.000000000000000000e+00
4.960000000000000000e+02,1.280588076490981886e-01,0.000000000000000000e+00
4.970000000000000000e+02,-8.951628556050028607e-03,0.000000000000000000e+00
4.980000000000000000e+02,9.186607640565497279e-02,0.000000000000000000e+00
4.990000000000000000e+02,-3.948859291415354050e-02,0.000000000000000000e+00
5.000000000000000000e+02,2.107146451378488772e-01,0.000000000000000000e+00
5.010000000000000000e+02,-3.036099184790433392e-02,0.000000000000000000e+00
5.020000000000000000e+02,1.734679512896423470e-01,0.000000000000000000e+00
5.030000000000000000e+02,9.232132577483245783e-02,0.000000000000000000e+00
5.040000000000000000e+02,2.319460654709036007e-01,0.000000000000000000e+00
5.050000000000000000e+02,3.094048957423316537e-01,0.000000000000000000e+00
5.060000000000000000e+02,4.391711972894842830e-01,0.000000000000000000e+00
5.070000000000000000e+02,4.258713482901502756e-01,0.000000000000000000e+00
5.080000000000000000e+02,8.161080862422142035e-01,0.000000000000000000e+00
5.090000000000000000e+02,2.808411032802875518e-01,0.000000000000000000e+00
5.100000000000000000e+02,4.785638051830188866e-01,0.000000000000000000e+00
5.110000000000000000e+02,-2.318027285585380348e-01,0.000000000000000000e+00
5.120000000000000000e+02,-5.682002749431859512e-02,0.000000000000000000e+00
5.130000000000000000e+02,-4.129050107878466935e-01,0.000000000000000000e+00
5.140000000000000000e+02,-3.363527914647863881e-02,0.000000000000000000e+00
5.150000000000000000e+02,-1.351461547871231350e-01,0.000000000000000000e+00
5.160000000000000000e+02,5.282202207915855041e+00,0.000000000000000000e+00
5.170000000000000000e+02,3.500291667211779867e+00,1.000000000000000000e+00
5.180000000000000000e+02,-5.654437908630534082e-01,0.000000000000000000e+00
5.190000000000000000e+02,-8.780698967165615487e-01,0.000000000000000000e+00
5.200000000000000000e+02,-1.803442192049643511e+00,0.000000000000000000e+00
5.210000000000000000e+02,-1.300217457271541699e+00,0.000000000000000000e+00
5.220000000000000000e+02,-1.562014314157920358e+00,0.000000000000000000e+00
5.230000000000000000e+02,-1.062388201650829922e+00,0.000000000000000000e+00
5.240000000000000000e+02,-1.206101267986687375e+00,0.000000000000000000e+00
5.250000000000000000e+02,-8.469476588093030056e-01,0.000000000000000000e+00
5.260000000000000000e+02,-8.896954942671700950e-01,0.000000000000000000e+00
5.270000000000000000e+02,-6.607568835634426430e-01,0.000000000000000000e+00
5.280000000000000000e+02,-6.090527831352937627e-01,0.000000000000000000e+00
5.290000000000000000e+02,-3.998106887117912622e-01,0.000000000000000000e+00
5.300000000000000000e+02,-3.930483466227625011e-01,0.000000000000000000e+00
5.310000000000000000e+02,1.258801351611567032e-01,0.000000000000000000e+00
5.320000000000000000e+02,-1.182997248460233436e-01,0.000000000000000000e+00
5.330000000000000000e+02,2.341967115211090189e-01,0.000000000000000000e+00
5.340000000000000000e+02,9.378698472722792057e-02,0.000000000000000000e+00
5.350000000000000000e+02,5.514552175897842190e-01,0.000000000000000000e+00
5.360000000000000000e+02,4.436935542094433971e-01,0.000000000000000000e+00
5.370000000000000000e+02,4.675109663634456902e-01,0.000000000000000000e+00
5.380000000000000000e+02,-5.216105683712498470e-02,0.000000000000000000e+00
5.390000000000000000e+02,-1.737465604912753481e-01,0.000000000000000000e+00
5.400000000000000000e+02,-3.071471836906982111e-01,0.000000000000000000e+00
5.410000000000000000e+02,-5.072605794932543571e-02,0.000000000000000000e+00
5.420000000000000000e+02,-1.320911617715000430e-01,0.000000000000000000e+00
5.430000000000000000e+02,-6.573375601669081102e-03,0.000000000000000000e+00
5.440000000000000000e+02,7.257028094036488408e-02,0.000000000000000000e+00
5.450000000000000000e+02,6.059543962893644553e-02,0.000000000000000000e+00
5.460000000000000000e+02,-1.799051942582093333e-01,0.000000000000000000e+00
5.470000000000000000e+02,1.733318890950353852e-01,0.000000000000000000e+00
5.480000000000000000e+02,1.932017870685601713e-01,0.000000000000000000e+00
5.490000000000000000e+02,3.581275193447506222e-01,0.000000000000000000e+00
5.500000000000000000e+02,1.080925875196319108e-01,0.000000000000000000e+00
5.510000000000000000e+02,3.580455536695890117e-01,0.000000000000000000e+00
5.520000000000000000e+02,1.062232278103343863e-01,0.000000000000000000e+00
5.530000000000000000e+02,2.648442958996620744e-01,0.000000000000000000e+00
5.540000000000000000e+02,1.594745844703080173e-01,0.000000000000000000e+00
5.550000000000000000e+02,-4.232528818851612890e-02,0.000000000000000000e+00
5.560000000000000000e+02,-3.740406630767975638e-02,0.000000000000000000e+00
5.570000000000000000e+02,-3.385023761630762823e-02,0.000000000000000000e+00
5.580000000000000000e+02,-2.081157898817678209e-01,0.000000000000000000e+00
5.590000000000000000e+02,-1.684399689707830328e-01,0.000000000000000000e+00
5.600000000000000000e+02,-2.479760114739068266e-01,0.000000000000000000e+00
5.610000000000000000e+02,2.330127040979718123e-01,0.000000000000000000e+00
5.620000000000000000e+02,1.267537547558898192e-01,0.000000000000000000e+00
5.630000000000000000e+02,6.048810160904342093e-01,0.000000000000000000e+00
5.640000000000000000e+02,1.311738521629437493e-01,0.000000000000000000e+00
5.650000000000000000e+02,1.058571049874973968e-01,0.000000000000000000e+00
5.660000000000000000e+02,-3.361039530795454366e-01,0.000000000000000000e+00
5.670000000000000000e+02,-2.125499856581771208e-01,0.000000000000000000e+00
5.680000000000000000e+02,-1.774098399082958133e-01,0.000000000000000000e+00
5.690000000000000000e+02,4.787210020752397099e-02,0.000000000000000000e+00
5.700000000000000000e+02,8.997330327359470692e-02,0.000000000000000000e+00
5.710000000000000000e+02,5.098746407492379618e+00,0.000000000000000000e+00
5.720000000000000000e+02,2.984043812815967200e+00,1.000000000000000000e+00
5.730000000000000000e+02,-5.460002299496026223e-01,0.000000000000000000e+00
5.740000000000000000e+02,-8.855388817640863497e-01,0.000000000000000000e+00
5.750000000000000000e+02,-1.860142853880748071e+00,0.000000000000000000e+00
5.760000000000000000e+02,-1.220524523282518592e+00,0.000000000000000000e+00
5.770000000000000000e+02,-1.380431772217893815e+00,0.000000000000000000e+00
5.780000000000000000e+02,-9.405401514964312204e-01,0.000000000000000000e+00
5.790000000000000000e+02,-8.771343419394179719e-01,0.000000000000000000e+00
5.800000000000000000e+02,-8.770080365894076246e-01,0.000000000000000000e+00
5.810000000000000000e+02,-8.451111409005480635e-01,0.000000000000000000e+00
5.820000000000000000e+02,-5.032066079176574780e-01,0.000000000000000000e+00
5.830000000000000000e+02,-5.470592976951680342e-01,0.000000000000000000e+00
5.840000000000000000e+02,-2.374777442420749896e-01,0.000000000000000000e+00
5.850000000000000000e+02,-2.448250173062352375e-01,0.000000000000000000e+00
5.860000000000000000e+02,-1.640939740621966125e-01,0.000000000000000000e+00
5.870000000000000000e+02,3.547591884778028559e-02,0.000000000000000000e+00
5.880000000000000000e+02,2.895172680606971083e-01,0.000000000000000000e+00
5.890000000000000000e+02,2.727797193498116002e-01,0.000000000000000000e+00
5.900000000000000000e+02,4.121976067647119546e-01,0.000000000000000000e+00
5.910000000000000000e+02,4.671921889684844120e-01,0.000000000000000000e+00
5.920000000000000000e+02,2.670627831977425704e-01,0.000000000000000000e+00
5.930000000000000000e+02,-4.415080587145918389e-02,0.000000000000000000e+00
5.940000000000000000e+02,7.628397223124010196e-02,0.000000000000000000e+00
5.950000000000000000e+02,-2.791671392037884392e-01,0.000000000000000000e+00
5.960000000000000000e+02,-1.489272635416669967e-02,0.000000000000000000e+00
5.970000000000000000e+02,-3.378296039300496267e-01,0.000000000000000000e+00
5.980000000000000000e+02,1.140434193995468609e-01,0.000000000000000000e+00
5.990000000000000000e+02,3.312850416497525874e-02,0.000000000000000000e+00
6.000000000000000000e+02,2.668886124307289290e-02,0.000000000000000000e+00
6.010000000000000000e+02,2.190187665537371153e-01,0.000000000000000000e+00
6.020000000000000000e+02,2.864273514514388899e-02,0.000000000000000000e+00
6.030000000000000000e+02,1.744357198098479556e-01,0.000000000000000000e+00
6.040000000000000000e+02,2.660547371472500866e-01,0.000000000000000000e+00
6.050000000000000000e+02,-2.901562259062995339e-03,0.000000000000000000e+00
6.060000000000000000e+02,5.775168239157007360e-02,0.000000000000000000e+00
6.070000000000000000e+02,-9.844602252931319852e-02,0.000000000000000000e+00
6.080000000000000000e+02,-9.547664433463190492e-02,0.000000000000000000e+00
6.090000000000000000e+02,8.823910901914190641e-02,0.000000000000000000e+00
6.100000000000000000e+02,-1.365376894450932160e-02,0.000000000000000000e+00
6.110000000000000000e+02,-1.011317674352796292e-01,0.000000000000000000e+00
6.120000000000000000e+02,8.860423274017199813e-02,0.000000000000000000e+00
6.130000000000000000e+02,-1.708517886906696370e-01,0.000000000000000000e+00
6.140000000000000000e+02,2.140766061325760639e-01,0.000000000000000000e+00
6.150000000000000000e+02,-1.113326621596031490e-01,0.000000000000000000e+00
6.160000000000000000e+02,3.312863282055649172e-01,0.000000000000000000e+00
6.170000000000000000e+02,1.667094675387134350e-01,0.000000000000000000e+00
6.180000000000000000e+02,3.501951062559034988e-01,0.000000000000000000e+00
6.190000000000000000e+02,4.365063275599251336e-01,0.000000000000000000e+00
6.200000000000000000e+02,2.357120046891327536e-01,0.000000000000000000e+00
6.210000000000000000e+02,6.041250865357160327e-02,0.000000000000000000e+00
6.220000000000000000e+02,-2.318434620024281134e-01,0.000000000000000000e+00
6.230000000000000000e+02,-2.883061267686652940e-01,0.000000000000000000e+00
6.240000000000000000e+02,-2.384931524993534058e-01,0.000000000000000000e+00
6.250000000000000000e+02,-3.169154042486237999e-01,0.000000000000000000e+00
6.260000000000000000e+02,1.133061302646761082e+00,0.000000000000000000e+00
6.270000000000000000e+02,5.645033117149523605e+00,0.000000000000000000e+00
6.280000000000000000e+02,2.076937531937016246e+00,1.000000000000000000e+00
6.290000000000000000e+02,3.276903608371459220e-02,0.000000000000000000e+00
6.300000000000000000e+02,-1.317349144755439516e+00,0.000000000000000000e+00
6.310000000000000000e+02,-1.391494775624773972e+00,0.000000000000000000e+00
6.320000000000000000e+02,-1.242311643897021645e+00,0.000000000000000000e+00
6.330000000000000000e+02,-1.166588515332200648e+00,0.000000000000000000e+00
6.340000000000000000e+02,-9.795032146849941279e-01,0.000000000000000000e+00
6.350000000000000000e+02,-7.716467943131926077e-01,0.000000000000000000e+00
6.360000000000000000e+02,-8.813104135168966513e-01,0.000000000000000000e+00
6.370000000000000000e+02,-8.870311807799825532e-01,0.000000000000000000e+00
6.380000000000000000e+02,-5.441595490366127885e-01,0.000000000000000000e+00
6.390000000000000000e+02,-5.256115757685645429e-01,0.000000000000000000e+00
6.400000000000000000e+02,-3.944871014723937974e-01,0.000000000000000000e+00
6.410000000000000000e+02,-2.052542238163781452e-01,0.000000000000000000e+00
6.420000000000000000e+02,-2.155139809853615085e-01,0.000000000000000000e+00
6.430000000000000000e+02,9.175576282789439653e-02,0.000000000000000000e+00
6.440000000000000000e+02,1.309250440325573613e-03,0.000000000000000000e+00
6.450000000000000000e+02,2.586953076316103606e-01,0.000000000000000000e+00
6.460000000000000000e+02,4.987109915918169767e-01,0.000000000000000000e+00
6.470000000000000000e+02,4.000996957943012688e-01,0.000000000000000000e+00
6.480000000000000000e+02,1.675338119091418221e-01,0.000000000000000000e+00
6.490000000000000000e+02,1.380976947433878825e-02,0.000000000000000000e+00
6.500000000000000000e+02,-1.328428193472762642e-01,0.000000000000000000e+00
6.510000000000000000e+02,-1.845754176603680019e-01,0.000000000000000000e+00
6.520000000000000000e+02,-2.067775879143282924e-01,0.000000000000000000e+00
6.530000000000000000e+02,-1.172598022483632568e-01,0.000000000000000000e+00
6.540000000000000000e+02,-2.341318025188073373e-02,0.000000000000000000e+00
6.550000000000000000e+02,-2.721244252388611007e-01,0.000000000000000000e+00
6.560000000000000000e+02,-1.890722087325072964e-01,0.000000000000000000e+00
6.570000000000000000e+02,-1.315799682878980581e-01,0.000000000000000000e+00
6.580000000000000000e+02,-7.607648642993418420e-02,0.000000000000000000e+00
6.590000000000000000e+02,7.966075271838995997e-02,0.000000000000000000e+00
6.600000000000000000e+02,2.144733448920319724e-02,0.000000000000000000e+00
6.610000000000000000e+02,6.045942617889302900e-02,0.000000000000000000e+00
6.620000000000000000e+02,-1.452532118192540189e-01,0.000000000000000000e+00
6.630000000000000000e+02,-6.639188482500571475e-02,0.000000000000000000e+00
6.640000000000000000e+02,-1.675411937105770466e-01,0.000000000000000000e+00
6.650000000000000000e+02,2.272412835169094203e-01,0.000000000000000000e+00
6.660000000000000000e+02,-2.023210658409010376e-01,0.000000000000000000e+00
6.670000000000000000e+02,1.251314316834298002e-01,0.000000000000000000e+00
6.680000000000000000e+02,-1.000117739928155086e-01,0.000000000000000000e+00
6.690000000000000000e+02,5.045697467297535765e-02,0.000000000000000000e+00
6.700000000000000000e+02,-4.289025505150151352e-02,0.000000000000000000e+00
6.710000000000000000e+02,2.305392127390246126e-02,0.000000000000000000e+00
6.720000000000000000e+02,1.402220987452253986e-01,0.000000000000000000e+00
6.730000000000000000e+02,2.281153847389362221e-01,0.000000000000000000e+00
6.740000000000000000e+02,1.861740193416581146e-01,0.000000000000000000e+00
6.750000000000000000e+02,3.941668985675527703e-01,0.000000000000000000e+00
6.760000000000000000e+02,4.663997452964767088e-01,0.000000000000000000e+00
6.770000000000000000e+02,5.261150429262049233e-01,0.000000000000000000e+00
6.780000000000000000e+02,-2.195686687030523956e-02,0.000000000000000000e+00
6.790000000000000000e+02,-1.208748578739803209e-01,0.000000000000000000e+00
6.800000000000000000e+02,-4.449741277185938482e-01,0.000000000000000000e+00
6.810000000000000000e+02,3.689104370669481214e-02,0.000000000000000000e+00
6.820000000000000000e+02,-4.943116004068815461e-01,0.000000000000000000e+00
6.830000000000000000e+02,2.384001197045895637e+00,0.000000000000000000e+00
6.840000000000000000e+02,5.879809726606349152e+00,0.000000000000000000e+00
6.850000000000000000e+02,1.094003247232913756e+00,1.000000000000000000e+00
6.860000000000000000e+02,-3.189683995176418319e-01,0.000000000000000000e+00
6.870000000000000000e+02,-1.767979088683193201e+00,0.000000000000000000e+00
6.880000000000000000e+02,-1.472829556207588375e+00,0.000000000000000000e+00
6.890000000000000000e+02,-1.485885044590972148e+00,0.000000000000000000e+00
6.900000000000000000e+02,-1.177601128998810642e+00,0.000000000000000000e+00
6.910000000000000000e+02,-1.294586403728838819e+00,0.000000000000000000e+00
6.920000000000000000e+02,-9.891989992556288191e-01,0.000000000000000000e+00
6.930000000000000000e+02,-9.541586355979387868e-01,0.000000000000000000e+00
6.940000000000000000e+02,-7.618242877358560872e-01,0.000000000000000000e+00
6.950000000000000000e+02,-6.132437967513928445e-01,0.000000000000000000e+00
6.960000000000000000e+02,-3.792100833105577773e-01,0.000000000000000000e+00
6.970000000000000000e+02,-3.964601253980211126e-01,0.000000000000000000e+00
6.980000000000000000e+02,-2.369548254372309259e-01,0.000000000000000000e+00
6.990000000000000000e+02,1.066147737932665769e-02,0.000000000000000000e+00
7.000000000000000000e+02,7.202690285561715033e-02,0.000000000000000000e+00
7.010000000000000000e+02,2.396321041719606526e-01,0.000000000000000000e+00
7.020000000000000000e+02,3.954949580001700382e-01,0.000000000000000000e+00
7.030000000000000000e+02,3.701901015705847953e-01,0.000000000000000000e+00
7.040000000000000000e+02,2.941172767423426149e-01,0.000000000000000000e+00
7.050000000000000000e+02,1.813882642186849248e-01,0.000000000000000000e+00
7.060000000000000000e+02,-1.579039299317341327e-01,0.000000000000000000e+00
7.070000000000000000e+02,-1.695647978175857107e-01,0.000000000000000000e+00
7.080000000000000000e+02,-3.562177234805762316e-01,0.000000000000000000e+00
7.090000000000000000e+02,-1.260512717550102135e-01,0.000000000000000000e+00
7.100000000000000000e+02,-1.456445229958031329e-01,0.000000000000000000e+00
7.110000000000000000e+02,-2.601522344769691131e-01,0.000000000000000000e+00
7.120000000000000000e+02,8.089696301997439942e-02,0.000000000000000000e+00
7.130000000000000000e+02,-1.438185251730867142e-01,0.000000000000000000e+00
7.140000000000000000e+02,2.024529632618719266e-01,0.000000000000000000e+00
7.150000000000000000e+02,2.028070975499064177e-01,0.000000000000000000e+00
7.160000000000000000e+02,2.561409481139161892e-01,0.000000000000000000e+00
7.170000000000000000e+02,8.114853531736759829e-02,0.000000000000000000e+00
7.180000000000000000e+02,3.473752784433203344e-01,0.000000000000000000e+00
7.190000000000000000e+02,1.174523156698696058e-01,0.000000000000000000e+00
7.200000000000000000e+02,2.808081760039197738e-01,0.000000000000000000e+00
7.210000000000000000e+02,3.059578395808451590e-01,0.000000000000000000e+00
7.220000000000000000e+02,3.128774191245424774e-01,0.000000000000000000e+00
7.230000000000000000e+02,1.267757510227389972e-01,0.000000000000000000e+00
7.240000000000000000e+02,5.056609209661185877e-01,0.000000000000000000e+00
7.250000000000000000e+02,1.629050359092245326e-01,0.000000000000000000e+00
7.260000000000000000e+02,3.781622023957609269e-01,0.000000000000000000e+00
7.270000000000000000e+02,2.610155403696245435e-01,0.000000000000000000e+00
7.280000000000000000e+02,3.467931812138672076e-01,0.000000000000000000e+00
7.290000000000000000e+02,2.700075655725868162e-01,0.000000000000000000e+00
7.300000000000000000e+02,5.086369630458633662e-01,0.000000000000000000e+00
7.310000000000000000e+02,5.791200019724994652e-01,0.000000000000000000e+00
7.320000000000000000e+02,8.815341969924064269e-01,0.000000000000000000e+00
7.330000000000000000e+02,4.723100707307423818e-01,0.000000000000000000e+00
7.340000000000000000e+02,6.299670662405856270e-01,0.000000000000000000e+00
7.350000000000000000e+02,-3.791115215450605036e-02,0.000000000000000000e+00
7.360000000000000000e+02,7.831164824333389229e-02,0.000000000000000000e+00
7.370000000000000000e+02,-2.535719429965143656e-01,0.000000000000000000e+00
7.380000000000000000e+02,3.783255508318162375e-01,0.000000000000000000e+00
7.390000000000000000e+02,-5.524926512827551539e-01,0.000000000000000000e+00
7.400000000000000000e+02,3.377595901048273230e+00,0.000000000000000000e+00
7.410000000000000000e+02,5.319490628098208163e+00,0.000000000000000000e+00
7.420000000000000000e+02,9.414308756899773811e-02,1.000000000000000000e+00
7.430000000000000000e+02,-5.418230645283937941e-01,0.000000000000000000e+00
7.440000000000000000e+02,-1.708713611131655874e+00,0.000000000000000000e+00
7.450000000000000000e+02,-1.271052294632477153e+00,0.000000000000000000e+00
7.460000000000000000e+02,-1.514610015026590650e+00,0.000000000000000000e+00
7.470000000000000000e+02,-1.096374812459155024e+00,0.000000000000000000e+00
7.480000000000000000e+02,-1.087651459488672367e+00,0.000000000000000000e+00
7.490000000000000000e+02,-9.588131103104640118e-01,0.000000000000000000e+00
7.500000000000000000e+02,-8.470152486686843840e-01,0.000000000000000000e+00
7.510000000000000000e+02,-7.241741645553962936e-01,0.000000000000000000e+00
7.520000000000000000e+02,-6.629051539344138488e-01,0.000000000000000000e+00
7.530000000000000000e+02,-2.954592626987068149e-01,0.000000000000000000e+00
7.540000000000000000e+02,-4.439609710201991022e-01,0.000000000000000000e+00
7.550000000000000000e+02,-2.450932960502335278e-01,0.000000000000000000e+00
7.560000000000000000e+02,-9.200653749471579892e-03,0.000000000000000000e+00
7.570000000000000000e+02,9.507260414690264783e-02,0.000000000000000000e+00
7.580000000000000000e+02,1.178562445821132315e-01,0.000000000000000000e+00
7.590000000000000000e+02,3.427200085003428431e-01,0.000000000000000000e+00
7.600000000000000000e+02,3.324763508719445482e-01,0.000000000000000000e+00
7.610000000000000000e+02,3.382003097861700502e-01,0.000000000000000000e+00
7.620000000000000000e+02,-5.353067810838265522e-02,0.000000000000000000e+00
7.630000000000000000e+02,-1.506756774363156026e-01,0.000000000000000000e+00
7.640000000000000000e+02,-3.965718971337141574e-01,0.000000000000000000e+00
7.650000000000000000e+02,-3.705561770504293695e-01,0.000000000000000000e+00
7.660000000000000000e+02,-4.304101911672369440e-01,0.000000000000000000e+00
7.670000000000000000e+02,-1.876755497275662266e-01,0.000000000000000000e+00
7.680000000000000000e+02,-2.509278062455183589e-01,0.000000000000000000e+00
7.690000000000000000e+02,-5.578250531940976385e-03,0.000000000000000000e+00
7.700000000000000000e+02,-2.267542042969620808e-01,0.000000000000000000e+00
7.710000000000000000e+02,-2.880770561106602012e-02,0.000000000000000000e+00
7.720000000000000000e+02,-4.526418842019652722e-02,0.000000000000000000e+00
7.730000000000000000e+02,-8.597301850461086525e-02,0.000000000000000000e+00
7.740000000000000000e+02,-1.459330190009869577e-01,0.000000000000000000e+00
7.750000000000000000e+02,-9.683451953779340093e-02,0.000000000000000000e+00
7.760000000000000000e+02,-1.812897034475213498e-01,0.000000000000000000e+00
7.770000000000000000e+02,-1.809861793765435434e-01,0.000000000000000000e+00
7.780000000000000000e+02,-1.586635732244673913e-01,0.000000000000000000e+00
7.790000000000000000e+02,-4.503025333536520708e-02,0.000000000000000000e+00
7.800000000000000000e+02,-2.036416041292022916e-01,0.000000000000000000e+00
7.810000000000000000e+02,-1.836607905808708419e-01,0.000000000000000000e+00
7.820000000000000000e+02,3.802772576722756454e-02,0.000000000000000000e+00
7.830000000000000000e+02,-2.206767264543514628e-01,0.000000000000000000e+00
7.840000000000000000e+02,1.113813669677737872e-01,0.000000000000000000e+00
7.850000000000000000e+02,-2.080926293703913021e-01,0.000000000000000000e+00
7.860000000000000000e+02,6.349570634936542446e-02,0.000000000000000000e+00
7.870000000000000000e+02,1.212472591706742209e-01,0.000000000000000000e+00
7.880000000000000000e+02,4.976672488034488140e-01,0.000000000000000000e+00
7.890000000000000000e+02,3.210858228070851972e-01,0.000000000000000000e+00
7.900000000000000000e+02,2.868173802435053377e-01,0.000000000000000000e+00
7.910000000000000000e+02,-1.565860120251036935e-01,0.000000000000000000e+00
7.920000000000000000e+02,-2.400203080170532355e-01,0.000000000000000000e+00
7.930000000000000000e+02,-4.641981500059572663e-01,0.000000000000000000e+00
7.940000000000000000e+02,9.757948954227207983e-02,0.000000000000000000e+00
7.950000000000000000e+02,-4.892141208412494335e-01,0.000000000000000000e+00
7.960000000000000000e+02,2.299556860337834241e+00,0.000000000000000000e+00
7.970000000000000000e+02,5.461938361655698237e+00,0.000000000000000000e+00
7.980000000000000000e+02,6.799830888630596926e-01,1.000000000000000000e+00
7.990000000000000000e+02,-4.400253429615037515e-01,0.000000000000000000e+00
8.000000000000000000e+02,-1.614986815689203770e+00,0.000000000000000000e+00
8.010000000000000000e+02,-1.494320952054988272e+00,0.000000000000000000e+00
8.020000000000000000e+02,-1.400029614107040299e+00,0.000000000000000000e+00
8.030000000000000000e+02,-9.502056809240025936e-01,0.000000000000000000e+00
8.040000000000000000e+02,-1.026213760942362274e+00,0.000000000000000000e+00
8.050000000000000000e+02,-8.603607367964913877e-01,0.000000000000000000e+00
8.060000000000000000e+02,-8.430688397453901528e-01,0.000000000000000000e+00
8.070000000000000000e+02,-7.594227806069261399e-01,0.000000000000000000e+00
8.080000000000000000e+02,-6.969871058422224541e-01,0.000000000000000000e+00
8.090000000000000000e+02,-4.357551189937594605e-01,0.000000000000000000e+00
8.100000000000000000e+02,-4.080842962114561434e-01,0.000000000000000000e+00
8.110000000000000000e+02,-1.851721572645268210e-01,0.000000000000000000e+00
8.120000000000000000e+02,-1.365770909828601387e-01,0.000000000000000000e+00
8.130000000000000000e+02,2.601313397263017857e-02,0.000000000000000000e+00
8.140000000000000000e+02,3.603606924015484436e-01,0.000000000000000000e+00
8.150000000000000000e+02,2.586787438712668252e-01,0.000000000000000000e+00
8.160000000000000000e+02,4.978881058022753270e-01,0.000000000000000000e+00
8.170000000000000000e+02,4.129942341358667779e-01,0.000000000000000000e+00
8.180000000000000000e+02,7.866340489801869340e-02,0.000000000000000000e+00
8.190000000000000000e+02,-1.071865832361627510e-02,0.000000000000000000e+00
8.200000000000000000e+02,-2.159397049038495053e-01,0.000000000000000000e+00
8.210000000000000000e+02,3.130543260828828889e-02,0.000000000000000000e+00
8.220000000000000000e+02,-1.723522256100977201e-01,0.000000000000000000e+00
8.230000000000000000e+02,-5.280803394456672767e-03,0.000000000000000000e+00
8.240000000000000000e+02,-9.889251978011659450e-02,0.000000000000000000e+00
8.250000000000000000e+02,6.752414998562888959e-02,0.000000000000000000e+00
8.260000000000000000e+02,2.906995083127401555e-02,0.000000000000000000e+00
8.270000000000000000e+02,1.799677886257912696e-01,0.000000000000000000e+00
8.280000000000000000e+02,2.511719428079856042e-01,0.000000000000000000e+00
8.290000000000000000e+02,8.004768405968085143e-02,0.000000000000000000e+00
8.300000000000000000e+02,2.797572085514631879e-01,0.000000000000000000e+00
8.310000000000000000e+02,1.570870492345439184e-01,0.000000000000000000e+00
8.320000000000000000e+02,1.010164066312495973e-01,0.000000000000000000e+00
8.330000000000000000e+02,1.436746325561082949e-01,0.000000000000000000e+00
8.340000000000000000e+02,1.115482312164457583e-03,0.000000000000000000e+00
8.350000000000000000e+02,1.138606445133313327e-01,0.000000000000000000e+00
8.360000000000000000e+02,1.806621905131719774e-01,0.000000000000000000e+00
8.370000000000000000e+02,2.038394737495770326e-01,0.000000000000000000e+00
8.380000000000000000e+02,9.091624164996085777e-02,0.000000000000000000e+00
8.390000000000000000e+02,7.307012184609719407e-02,0.000000000000000000e+00
8.400000000000000000e+02,1.678809278455252740e-01,0.000000000000000000e+00
8.410000000000000000e+02,2.430861883848529637e-01,0.000000000000000000e+00
8.420000000000000000e+02,2.476065431238490544e-01,0.000000000000000000e+00
8.430000000000000000e+02,5.351408590352375594e-01,0.000000000000000000e+00
8.440000000000000000e+02,4.769679691403846955e-01,0.000000000000000000e+00
8.450000000000000000e+02,5.788145845806677015e-01,0.000000000000000000e+00
8.460000000000000000e+02,9.347295486020440469e-01,0.000000000000000000e+00
8.470000000000000000e+02,6.709275716418829916e-01,0.000000000000000000e+00
8.480000000000000000e+02,6.084242406602096143e-01,0.000000000000000000e+00
8.490000000000000000e+02,-8.811937141072137547e-02,0.000000000000000000e+00
8.500000000000000000e+02,-3.093542811162431835e-02,0.000000000000000000e+00
8.510000000000000000e+02,-2.699777323129667339e-01,0.000000000000000000e+00
8.520000000000000000e+02,2.692364855489525755e-01,0.000000000000000000e+00
8.530000000000000000e+02,-1.892435102547683212e-01,0.000000000000000000e+00
8.540000000000000000e+02,4.663295871263951398e+00,0.000000000000000000e+00
8.550000000000000000e+02,3.711057550472540267e+00,0.000000000000000000e+00
8.560000000000000000e+02,-2.414263956476138950e-01,1.000000000000000000e+00
8.570000000000000000e+02,-1.188896932822197439e+00,0.000000000000000000e+00
8.580000000000000000e+02,-2.138051793792220767e+00,0.000000000000000000e+00
8.590000000000000000e+02,-1.689279415523502248e+00,0.000000000000000000e+00
8.600000000000000000e+02,-1.833896257967739807e+00,0.000000000000000000e+00
8.610000000000000000e+02,-1.421968247491064430e+00,0.000000000000000000e+00
8.620000000000000000e+02,-1.471665022237880205e+00,0.000000000000000000e+00
8.630000000000000000e+02,-1.141019620961589487e+00,0.000000000000000000e+00
8.640000000000000000e+02,-1.092913160036911968e+00,0.000000000000000000e+00
8.650000000000000000e+02,-8.006456848564145190e-01,0.000000000000000000e+00
8.660000000000000000e+02,-8.331460294438935987e-01,0.000000000000000000e+00
8.670000000000000000e+02,-5.437781607527943928e-01,0.000000000000000000e+00
8.680000000000000000e+02,-5.528177077206302137e-01,0.000000000000000000e+00
8.690000000000000000e+02,-1.650585162278507545e-01,0.000000000000000000e+00
8.700000000000000000e+02,-1.105762705594634798e-01,0.000000000000000000e+00
8.710000000000000000e+02,1.288260500256596941e-01,0.000000000000000000e+00
8.720000000000000000e+02,-6.564471950730538241e-02,0.000000000000000000e+00
8.730000000000000000e+02,5.866056645377757395e-01,0.000000000000000000e+00
8.740000000000000000e+02,5.643792330917600797e-01,0.000000000000000000e+00
8.750000000000000000e+02,4.768214818830051049e-01,0.000000000000000000e+00
8.760000000000000000e+02,8.313903992193281967e-02,0.000000000000000000e+00
8.770000000000000000e+02,-2.734285640905105563e-02,0.000000000000000000e+00
8.780000000000000000e+02,-1.066901424809378468e-01,0.000000000000000000e+00
8.790000000000000000e+02,1.777138048170160134e-01,0.000000000000000000e+00
8.800000000000000000e+02,-1.675017285239957868e-02,0.000000000000000000e+00
8.810000000000000000e+02,-9.643045088979179669e-02,0.000000000000000000e+00
8.820000000000000000e+02,2.848959216855265555e-02,0.000000000000000000e+00
8.830000000000000000e+02,4.184481878152238044e-02,0.000000000000000000e+00
8.840000000000000000e+02,-1.910655790126584985e-02,0.000000000000000000e+00
8.850000000000000000e+02,2.350416780359634306e-01,0.000000000000000000e+00
8.860000000000000000e+02,1.733560474543602570e-01,0.000000000000000000e+00
8.870000000000000000e+02,1.233866086163832171e-01,0.000000000000000000e+00
8.880000000000000000e+02,2.646579685201907450e-01,0.000000000000000000e+00
8.890000000000000000e+02,7.607817416764464657e-02,0.000000000000000000e+00
8.900000000000000000e+02,7.282305984143959410e-02,0.000000000000000000e+00
8.910000000000000000e+02,2.271145987971459335e-01,0.000000000000000000e+00
8.920000000000000000e+02,1.161736609358834937e-01,0.000000000000000000e+00
8.930000000000000000e+02,1.305372744901041326e-01,0.000000000000000000e+00
8.940000000000000000e+02,1.636892479002511058e-01,0.000000000000000000e+00
8.950000000000000000e+02,1.724690415257626730e-01,0.000000000000000000e+00
8.960000000000000000e+02,4.506867347354658743e-02,0.000000000000000000e+00
8.970000000000000000e+02,1.325111501311855566e-01,0.000000000000000000e+00
8.980000000000000000e+02,1.947503989174835526e-01,0.000000000000000000e+00
8.990000000000000000e+02,2.299927459963599374e-02,0.000000000000000000e+00
9.000000000000000000e+02,1.791254141837039238e-01,0.000000000000000000e+00
9.010000000000000000e+02,2.304241300506343904e-01,0.000000000000000000e+00
9.020000000000000000e+02,1.255188367004557437e-01,0.000000000000000000e+00
9.030000000000000000e+02,4.655097753972143315e-01,0.000000000000000000e+00
9.040000000000000000e+02,5.862200066504975604e-01,0.000000000000000000e+00
9.050000000000000000e+02,4.532042899641794964e-01,0.000000000000000000e+00
9.060000000000000000e+02,3.453216959552044552e-01,0.000000000000000000e+00
9.070000000000000000e+02,-5.112969071939752613e-02,0.000000000000000000e+00
9.080000000000000000e+02,-9.394460596267793784e-02,0.000000000000000000e+00
9.090000000000000000e+02,-4.690010511986076325e-01,0.000000000000000000e+00
9.100000000000000000e+02,1.693365905654417580e-01,0.000000000000000000e+00
9.110000000000000000e+02,-4.550113642641524514e-01,0.000000000000000000e+00
9.120000000000000000e+02,2.844270174661958972e+00,0.000000000000000000e+00
9.130000000000000000e+02,5.914707186295013130e+00,0.000000000000000000e+00
9.140000000000000000e+02,3.862476336395025411e-01,1.000000000000000000e+00
9.150000000000000000e+02,-5.317751413496045743e-01,0.000000000000000000e+00
9.160000000000000000e+02,-1.716867562357170529e+00,0.000000000000000000e+00
9.170000000000000000e+02,-1.543053161940926898e+00,0.000000000000000000e+00
9.180000000000000000e+02,-1.596441065707953744e+00,0.000000000000000000e+00
9.190000000000000000e+02,-1.125578906739176377e+00,0.000000000000000000e+00
9.200000000000000000e+02,-1.351506015791720250e+00,0.000000000000000000e+00
9.210000000000000000e+02,-8.740014255541831423e-01,0.000000000000000000e+00
9.220000000000000000e+02,-1.035104381620706171e+00,0.000000000000000000e+00
9.230000000000000000e+02,-6.111398230765758832e-01,0.000000000000000000e+00
9.240000000000000000e+02,-8.653144570199539087e-01,0.000000000000000000e+00
9.250000000000000000e+02,-2.825475508209303044e-01,0.000000000000000000e+00
9.260000000000000000e+02,-4.471790637948937497e-01,0.000000000000000000e+00
9.270000000000000000e+02,-6.209711382924692352e-02,0.000000000000000000e+00
9.280000000000000000e+02,-2.723899716978572805e-01,0.000000000000000000e+00
9.290000000000000000e+02,2.319005843979951020e-01,0.000000000000000000e+00
9.300000000000000000e+02,5.984767773539609315e-02,0.000000000000000000e+00
9.310000000000000000e+02,4.773779675578055381e-01,0.000000000000000000e+00
9.320000000000000000e+02,4.971276075896126079e-01,0.000000000000000000e+00
9.330000000000000000e+02,3.923020196876981780e-01,0.000000000000000000e+00
9.340000000000000000e+02,6.139060434739640471e-02,0.000000000000000000e+00
9.350000000000000000e+02,5.057987397346462577e-02,0.000000000000000000e+00
9.360000000000000000e+02,-3.224201764633237710e-01,0.000000000000000000e+00
9.370000000000000000e+02,-1.154588553950496310e-01,0.000000000000000000e+00
9.380000000000000000e+02,-2.928750799849655917e-01,0.000000000000000000e+00
9.390000000000000000e+02,-3.045890994995789081e-01,0.000000000000000000e+00
9.400000000000000000e+02,-1.909146244329091580e-01,0.000000000000000000e+00
9.410000000000000000e+02,-6.351557607588001475e-02,0.000000000000000000e+00
9.420000000000000000e+02,-3.318875139507927730e-02,0.000000000000000000e+00
9.430000000000000000e+02,7.081196650628440725e-02,0.000000000000000000e+00
9.440000000000000000e+02,-3.334371508657119759e-02,0.000000000000000000e+00
9.450000000000000000e+02,-6.677005054118449745e-02,0.000000000000000000e+00
9.460000000000000000e+02,-7.606331257397416779e-02,0.000000000000000000e+00
9.470000000000000000e+02,1.240201816651354538e-01,0.000000000000000000e+00
9.480000000000000000e+02,-2.359049278554916362e-01,0.000000000000000000e+00
9.490000000000000000e+02,2.726090377447051849e-01,0.000000000000000000e+00
9.500000000000000000e+02,-1.606710194817873305e-01,0.000000000000000000e+00
9.510000000000000000e+02,-8.282972790456619161e-02,0.000000000000000000e+00
9.520000000000000000e+02,1.053135927552596024e-02,0.000000000000000000e+00
9.530000000000000000e+02,1.036740803195618649e-01,0.000000000000000000e+00
9.540000000000000000e+02,-3.602653210561207464e-02,0.000000000000000000e+00
9.550000000000000000e+02,3.309007284508829749e-01,0.000000000000000000e+00
9.560000000000000000e+02,-3.496801861226581792e-02,0.000000000000000000e+00
9.570000000000000000e+02,3.785838262262319898e-02,0.000000000000000000e+00
9.580000000000000000e+02,5.555275820823626920e-02,0.000000000000000000e+00
9.590000000000000000e+02,3.569915379952328105e-01,0.000000000000000000e+00
9.600000000000000000e+02,1.197080128508296037e-01,0.000000000000000000e+00
9.610000000000000000e+02,8.406608597678040251e-01,0.000000000000000000e+00
9.620000000000000000e+02,2.249907274372368315e-01,0.000000000000000000e+00
9.630000000000000000e+02,4.158976421509448795e-01,0.000000000000000000e+00
9.640000000000000000e+02,-1.461159515137545606e-01,0.000000000000000000e+00
9.650000000000000000e+02,7.168198160311377298e-02,0.000000000000000000e+00
9.660000000000000000e+02,-3.936770130797668243e-01,0.000000000000000000e+00
9.670000000000000000e+02,2.546114455116698649e-01,0.000000000000000000e+00
9.680000000000000000e+02,-7.737077772317213498e-01,0.000000000000000000e+00
9.690000000000000000e+02,3.773743174927185251e+00,0.000000000000000000e+00
9.700000000000000000e+02,4.734747620950722435e+00,0.000000000000000000e+00
9.710000000000000000e+02,-1.589056176795965170e-01,1.000000000000000000e+00
9.720000000000000000e+02,-6.354483927707380575e-01,0.000000000000000000e+00
9.730000000000000000e+02,-1.570646340530619023e+00,0.000000000000000000e+00
9.740000000000000000e+02,-1.397663334627232468e+00,0.000000000000000000e+00
9.750000000000000000e+02,-1.374094778508425652e+00,0.000000000000000000e+00
9.760000000000000000e+02,-9.579326493271881349e-01,0.000000000000000000e+00
9.770000000000000000e+02,-1.141108986641221401e+00,0.000000000000000000e+00
9.780000000000000000e+02,-7.444960206845142592e-01,0.000000000000000000e+00
9.790000000000000000e+02,-7.808184833508055034e-01,0.000000000000000000e+00
9.800000000000000000e+02,-5.134110513431732192e-01,0.000000000000000000e+00
9.810000000000000000e+02,-6.024094719407685483e-01,0.000000000000000000e+00
9.820000000000000000e+02,-3.393893806857519180e-01,0.000000000000000000e+00
9.830000000000000000e+02,-2.198746395752990967e-01,0.000000000000000000e+00
9.840000000000000000e+02,-1.676071631315450075e-02,0.000000000000000000e+00
9.850000000000000000e+02,3.235077990907271606e-02,0.000000000000000000e+00
9.860000000000000000e+02,1.454080322775579137e-01,0.000000000000000000e+00
9.870000000000000000e+02,3.193109808432412766e-01,0.000000000000000000e+00
9.880000000000000000e+02,3.449591279734252058e-01,0.000000000000000000e+00
9.890000000000000000e+02,5.702145904057345227e-01,0.000000000000000000e+00
9.900000000000000000e+02,4.143963274300718203e-01,0.000000000000000000e+00
9.910000000000000000e+02,2.624168037834922335e-02,0.000000000000000000e+00
9.920000000000000000e+02,-1.785296746333699114e-01,0.000000000000000000e+00
9.930000000000000000e+02,-1.998051780275044431e-01,0.000000000000000000e+00
9.940000000000000000e+02,-1.517179410185723332e-01,0.000000000000000000e+00
9.950000000000000000e+02,-3.129511195501216148e-01,0.000000000000000000e+00
9.960000000000000000e+02,-7.880724601690893005e-02,0.000000000000000000e+00
9.970000000000000000e+02,-1.426366311694652889e-01,0.000000000000000000e+00
9.980000000000000000e+02,1.241561906267313886e-01,0.000000000000000000e+00
9.990000000000000000e+02,-1.865460574172966152e-02,0.000000000000000000e+00
1.000000000000000000e+03,2.218539302398869206e-01,0.000000000000000000e+00
1.001000000000000000e+03,1.944690191292822732e-03,0.000000000000000000e+00
1.002000000000000000e+03,7.355236763580268178e-02,0.000000000000000000e+00
1.003000000000000000e+03,6.720850550589645145e-02,0.000000000000000000e+00
1.004000000000000000e+03,-5.757465272658317951e-02,0.000000000000000000e+00
1.005000000000000000e+03,1.600489117655881921e-01,0.000000000000000000e+00
1.006000000000000000e+03,-1.399691386401890336e-01,0.000000000000000000e+00
1.007000000000000000e+03,5.716639501269859397e-02,0.000000000000000000e+00
1.008000000000000000e+03,-5.669502660248502968e-02,0.000000000000000000e+00
1.009000000000000000e+03,5.693684268094215128e-02,0.000000000000000000e+00
1.010000000000000000e+03,-1.323001256760638830e-02,0.000000000000000000e+00
1.011000000000000000e+03,3.081359630950095130e-02,0.000000000000000000e+00
1.012000000000000000e+03,-6.343537793237659372e-02,0.000000000000000000e+00
1.013000000000000000e+03,5.890662929591340691e-02,0.000000000000000000e+00
1.014000000000000000e+03,-1.902506779843000928e-02,0.000000000000000000e+00
1.015000000000000000e+03,-3.266398297342486268e-02,0.000000000000000000e+00
1.016000000000000000e+03,2.364976295631714687e-01,0.000000000000000000e+00
1.017000000000000000e+03,1.679035113268360635e-01,0.000000000000000000e+00
1.018000000000000000e+03,3.266445142563652593e-01,0.000000000000000000e+00
1.019000000000000000e+03,5.129643084767042671e-01,0.000000000000000000e+00
1.020000000000000000e+03,3.664957188469559202e-01,0.000000000000000000e+00
1.021000000000000000e+03,1.752904549661723488e-01,0.000000000000000000e+00
1.022000000000000000e+03,-8.853967811676541344e-02,0.000000000000000000e+00
1.023000000000000000e+03,-2.056381957772181746e-01,0.000000000000000000e+00
1.024000000000000000e+03,-4.166038586098972374e-01,0.000000000000000000e+00
1.025000000000000000e+03,5.570390983884593999e-02,0.000000000000000000e+00
1.026000000000000000e+03,2.864449301720791916e-02,0.000000000000000000e+00
1.027000000000000000e+03,5.031008488363387876e+00,0.000000000000000000e+00
1.028000000000000000e+03,3.445303125913346864e+00,1.000000000000000000e+00
1.029000000000000000e+03,-2.006697052834792161e-01,0.000000000000000000e+00
1.030000000000000000e+03,-8.823665070741771865e-01,0.000000000000000000e+00
1.031000000000000000e+03,-1.938030072328704501e+00,0.000000000000000000e+00
1.032000000000000000e+03,-1.367744310939987384e+00,0.000000000000000000e+00
1.033000000000000000e+03,-1.524337380501705308e+00,0.000000000000000000e+00
1.034000000000000000e+03,-1.312056457852401437e+00,0.000000000000000000e+00
1.035000000000000000e+03,-1.121918503305946668e+00,0.000000000000000000e+00
1.036000000000000000e+03,-9.847119992107541409e-01,0.000000000000000000e+00
1.037000000000000000e+03,-9.086828729138138883e-01,0.000000000000000000e+00
1.038000000000000000e+03,-5.939658074189116954e-01,0.000000000000000000e+00
1.039000000000000000e+03,-5.762545653579397298e-01,0.000000000000000000e+00
1.040000000000000000e+03,-4.758402359532470927e-01,0.000000000000000000e+00
1.041000000000000000e+03,-5.227894241822975685e-01,0.000000000000000000e+00
1.042000000000000000e+03,7.599740843694877124e-02,0.000000000000000000e+00
1.043000000000000000e+03,-9.222569310767557427e-02,0.000000000000000000e+00
1.044000000000000000e+03,1.324644562087193278e-01,0.000000000000000000e+00
1.045000000000000000e+03,1.965161430183764713e-01,0.000000000000000000e+00
1.046000000000000000e+03,3.514143168845154652e-01,0.000000000000000000e+00
1.047000000000000000e+03,4.600242464082041072e-01,0.000000000000000000e+00
1.048000000000000000e+03,4.570016812335991330e-01,0.000000000000000000e+00
1.049000000000000000e+03,-4.217142672341758075e-02,0.000000000000000000e+00
1.050000000000000000e+03,-4.528242672245872541e-02,0.000000000000000000e+00
1.051000000000000000e+03,5.030192942148042218e-02,0.000000000000000000e+00
1.052000000000000000e+03,-1.574489877604807464e-01,0.000000000000000000e+00
1.053000000000000000e+03,-2.944120325492233792e-01,0.000000000000000000e+00
1.054000000000000000e+03,1.763156965379460714e-03,0.000000000000000000e+00
1.055000000000000000e+03,-8.295939862465998016e-02,0.000000000000000000e+00
1.056000000000000000e+03,1.786198378382244229e-04,0.000000000000000000e+00
1.057000000000000000e+03,-3.444684074342264923e-02,0.000000000000000000e+00
1.058000000000000000e+03,8.260981987378125668e-02,0.000000000000000000e+00
1.059000000000000000e+03,1.168698134394505345e-01,0.000000000000000000e+00
1.060000000000000000e+03,1.675415254063346848e-01,0.000000000000000000e+00
1.061000000000000000e+03,1.882255324476423686e-01,0.000000000000000000e+00
1.062000000000000000e+03,2.140009850038533945e-01,0.000000000000000000e+00
1.063000000000000000e+03,2.861186934106273519e-02,0.000000000000000000e+00
1.064000000000000000e+03,1.522732791611943748e-01,0.000000000000000000e+00
1.065000000000000000e+03,1.719036153407644263e-01,0.000000000000000000e+00
1.066000000000000000e+03,4.825725330585747472e-03,0.000000000000000000e+00
1.067000000000000000e+03,1.924916097944346927e-01,0.000000000000000000e+00
1.068000000000000000e+03,1.996820826710726249e-01,0.000000000000000000e+00
1.069000000000000000e+03,-3.117419955448325411e-02,0.000000000000000000e+00
1.070000000000000000e+03,2.579307637637170414e-01,0.000000000000000000e+00
1.071000000000000000e+03,1.253536732350516991e-01,0.000000000000000000e+00
1.072000000000000000e+03,1.007225227900819808e-01,0.000000000000000000e+00
1.073000000000000000e+03,1.547654261693557631e-01,0.000000000000000000e+00
1.074000000000000000e+03,1.941253433748051649e-01,0.000000000000000000e+00
1.075000000000000000e+03,1.709606057884265895e-01,0.000000000000000000e+00
1.076000000000000000e+03,5.674347601043201461e-01,0.000000000000000000e+00
1.077000000000000000e+03,1.599834308908316682e-01,0.000000000000000000e+00
1.078000000000000000e+03,6.765839384575040860e-01,0.000000000000000000e+00
1.079000000000000000e+03,2.524158149837674170e-01,0.000000000000000000e+00
1.080000000000000000e+03,3.821914757608857460e-01,0.000000000000000000e+00
1.081000000000000000e+03,-1.040722355555563500e-01,0.000000000000000000e+00
1.082000000000000000e+03,-1.234799414480219348e-01,0.000000000000000000e+00
1.083000000000000000e+03,-3.383414206399354418e-01,0.000000000000000000e+00
1.084000000000000000e+03,4.626987744857979923e-02,0.000000000000000000e+00
1.085000000000000000e+03,-4.602776354455431207e-01,0.000000000000000000e+00
1.086000000000000000e+03,4.472780149020074703e+00,0.000000000000000000e+00
1.087000000000000000e+03,4.464303804117645491e+00,0.000000000000000000e+00
1.088000000000000000e+03,2.202296203143226383e-01,1.000000000000000000e+00
1.089000000000000000e+03,-6.138042947451690656e-01,0.000000000000000000e+00
1.090000000000000000e+03,-1.963413418445904446e+00,0.000000000000000000e+00
1.091000000000000000e+03,-1.478803090831122935e+00,0.000000000000000000e+00
1.092000000000000000e+03,-1.681190801039278870e+00,0.000000000000000000e+00
1.093000000000000000e+03,-1.196113464329143117e+00,0.000000000000000000e+00
1.094000000000000000e+03,-1.314841954627663290e+00,0.000000000000000000e+00
1.095000000000000000e+03,-8.926512814162340659e-01,0.000000000000000000e+00
1.096000000000000000e+03,-1.092322420413075479e+00,0.000000000000000000e+00
1.097000000000000000e+03,-6.880129361655854536e-01,0.000000000000000000e+00
1.098000000000000000e+03,-8.022086593425397094e-01,0.000000000000000000e+00
1.099000000000000000e+03,-4.263544566600915298e-01,0.000000000000000000e+00
1.100000000000000000e+03,-4.217242280397096033e-01,0.000000000000000000e+00
1.101000000000000000e+03,-1.150771756389369349e-01,0.000000000000000000e+00
1.102000000000000000e+03,-2.915260968143547696e-02,0.000000000000000000e+00
1.103000000000000000e+03,8.538306425089719348e-03,0.000000000000000000e+00
1.104000000000000000e+03,2.219150933051456387e-01,0.000000000000000000e+00
1.105000000000000000e+03,4.470562275519153195e-01,0.000000000000000000e+00
1.106000000000000000e+03,5.787933201930726135e-01,0.000000000000000000e+00
1.107000000000000000e+03,5.573926216195383976e-01,0.000000000000000000e+00
1.108000000000000000e+03,-9.466528902165694676e-03,0.000000000000000000e+00
1.109000000000000000e+03,1.030163870115287511e-01,0.000000000000000000e+00
1.110000000000000000e+03,-2.059163517742958194e-01,0.000000000000000000e+00
1.111000000000000000e+03,-7.191095165313725335e-02,0.000000000000000000e+00
1.112000000000000000e+03,-1.152392012755640467e-02,0.000000000000000000e+00
1.113000000000000000e+03,-2.296307020479167738e-01,0.000000000000000000e+00
1.114000000000000000e+03,-1.550551478699976060e-01,0.000000000000000000e+00
1.115000000000000000e+03,-7.720596159403059211e-02,0.000000000000000000e+00
1.116000000000000000e+03,-7.104584775702783850e-02,0.000000000000000000e+00
1.117000000000000000e+03,1.462602188984328533e-01,0.000000000000000000e+00
1.118000000000000000e+03,-3.014278306085504955e-02,0.000000000000000000e+00
1.119000000000000000e+03,2.595448545591919065e-01,0.000000000000000000e+00
1.120000000000000000e+03,-3.433874682777490750e-02,0.000000000000000000e+00
1.121000000000000000e+03,1.373811280012203206e-01,0.000000000000000000e+00
1.122000000000000000e+03,3.282151083690398180e-02,0.000000000000000000e+00
1.123000000000000000e+03,2.353161099517107613e-01,0.000000000000000000e+00
1.124000000000000000e+03,7.288196512198884258e-02,0.000000000000000000e+00
1.125000000000000000e+03,1.216927682725731617e-02,0.000000000000000000e+00
1.126000000000000000e+03,1.444937454324215706e-02,0.000000000000000000e+00
1.127000000000000000e+03,9.218728799895825610e-02,0.000000000000000000e+00
1.128000000000000000e+03,1.719136936926394521e-01,0.000000000000000000e+00
1.129000000000000000e+03,1.700412580561469766e-01,0.000000000000000000e+00
1.130000000000000000e+03,3.911620452227382999e-02,0.000000000000000000e+00
1.131000000000000000e+03,7.104099350384061873e-02,0.000000000000000000e+00
1.132000000000000000e+03,4.652887805126006832e-02,0.000000000000000000e+00
1.133000000000000000e+03,3.316242431052027206e-01,0.000000000000000000e+00
1.134000000000000000e+03,3.197150029507173086e-01,0.000000000000000000e+00
1.135000000000000000e+03,3.695915963602770526e-01,0.000000000000000000e+00
1.136000000000000000e+03,4.653585103284120783e-01,0.000000000000000000e+00
1.137000000000000000e+03,2.314192971685588296e-01,0.000000000000000000e+00
1.138000000000000000e+03,2.577062660910882097e-01,0.000000000000000000e+00
1.139000000000000000e+03,-1.994457887758612491e-01,0.000000000000000000e+00
1.140000000000000000e+03,-2.068423416983868612e-01,0.000000000000000000e+00
1.141000000000000000e+03,-3.918675073104595508e-01,0.000000000000000000e+00
1.142000000000000000e+03,-1.704315662893299277e-01,0.000000000000000000e+00
1.143000000000000000e+03,5.341442188593231721e-01,0.000000000000000000e+00
1.144000000000000000e+03,5.782527113847027778e+00,0.000000000000000000e+00
1.145000000000000000e+03,2.262929307357872233e+00,1.000000000000000000e+00
1.146000000000000000e+03,-6.471285203533294617e-01,0.000000000000000000e+00
1.147000000000000000e+03,-1.201468276197328766e+00,0.000000000000000000e+00
1.148000000000000000e+03,-1.673399304405904564e+00,0.000000000000000000e+00
1.149000000000000000e+03,-1.391877718822065679e+00,0.000000000000000000e+00
1.150000000000000000e+03,-1.434456774623697584e+00,0.000000000000000000e+00
1.151000000000000000e+03,-1.076975013549223315e+00,0.000000000000000000e+00
1.152000000000000000e+03,-1.060368309188789215e+00,0.000000000000000000e+00
1.153000000000000000e+03,-9.466824875729982214e-01,0.000000000000000000e+00
1.154000000000000000e+03,-7.802218344056602861e-01,0.000000000000000000e+00
1.155000000000000000e+03,-6.958848645840723934e-01,0.000000000000000000e+00
1.156000000000000000e+03,-4.046328192668774415e-01,0.000000000000000000e+00
1.157000000000000000e+03,-4.261803470619431322e-01,0.000000000000000000e+00
1.158000000000000000e+03,-3.292668073237111082e-01,0.000000000000000000e+00
1.159000000000000000e+03,3.873805531102043204e-02,0.000000000000000000e+00
1.160000000000000000e+03,-8.114577797562141925e-02,0.000000000000000000e+00
1.161000000000000000e+03,3.359317407400018718e-01,0.000000000000000000e+00
1.162000000000000000e+03,1.545494010945680508e-01,0.000000000000000000e+00
1.163000000000000000e+03,4.419954743828327093e-01,0.000000000000000000e+00
1.164000000000000000e+03,3.478147461029418852e-01,0.000000000000000000e+00
1.165000000000000000e+03,3.223344475597265668e-01,0.000000000000000000e+00
1.166000000000000000e+03,-1.160587041584401763e-01,0.000000000000000000e+00
1.167000000000000000e+03,-1.267373666873751747e-01,0.000000000000000000e+00
1.168000000000000000e+03,-3.674301607074698661e-01,0.000000000000000000e+00
1.169000000000000000e+03,-2.271697124784845256e-01,0.000000000000000000e+00
1.170000000000000000e+03,-2.581502870140872097e-01,0.000000000000000000e+00
1.171000000000000000e+03,-4.298316841654127585e-02,0.000000000000000000e+00
1.172000000000000000e+03,5.228227321331781891e-02,0.000000000000000000e+00
1.173000000000000000e+03,-2.483494536221683008e-02,0.000000000000000000e+00
1.174000000000000000e+03,-2.548227740363401359e-03,0.000000000000000000e+00
1.175000000000000000e+03,3.372942840321320745e-01,0.000000000000000000e+00
1.176000000000000000e+03,-1.104009252082127773e-01,0.000000000000000000e+00
1.177000000000000000e+03,1.305502651953575621e-01,0.000000000000000000e+00
1.178000000000000000e+03,6.823862362932478498e-02,0.000000000000000000e+00
1.179000000000000000e+03,4.606366495880706048e-03,0.000000000000000000e+00
1.180000000000000000e+03,7.404645651310053089e-02,0.000000000000000000e+00
1.181000000000000000e+03,1.875805778233180232e-01,0.000000000000000000e+00
1.182000000000000000e+03,-8.258880501967300058e-02,0.000000000000000000e+00
1.183000000000000000e+03,6.059970040595827334e-02,0.000000000000000000e+00
1.184000000000000000e+03,2.117970171450681560e-01,0.000000000000000000e+00
1.185000000000000000e+03,3.613770217659849349e-02,0.000000000000000000e+00
1.186000000000000000e+03,6.720976700741022880e-02,0.000000000000000000e+00
1.187000000000000000e+03,1.189586155511518500e-01,0.000000000000000000e+00
1.188000000000000000e+03,1.122322695932690961e-01,0.000000000000000000e+00
1.189000000000000000e+03,1.005159787999024140e-01,0.000000000000000000e+00
1.190000000000000000e+03,2.266084060403209255e-01,0.000000000000000000e+00
1.191000000000000000e+03,2.819200298288524476e-01,0.000000000000000000e+00
1.192000000000000000e+03,4.292477005924987821e-01,0.000000000000000000e+00
1.193000000000000000e+03,7.027315284403584661e-01,0.000000000000000000e+00
1.194000000000000000e+03,2.918548460280963597e-01,0.000000000000000000e+00
1.195000000000000000e+03,1.652202762342883102e-01,0.000000000000000000e+00
1.196000000000000000e+03,-2.687691131357290431e-01,0.000000000000000000e+00
1.197000000000000000e+03,4.329877978702679348e-02,0.000000000000000000e+00
1.198000000000000000e+03,-3.170599955752910759e-01,0.000000000000000000e+00
1.199000000000000000e+03,8.943392000982153256e-02,0.000000000000000000e+00
1.200000000000000000e+03,1.575158555501913471e-01,0.000000000000000000e+00
1.201000000000000000e+03,5.487774019493620870e+00,0.000000000000000000e+00
1.202000000000000000e+03,2.566944975006931084e+00,1.000000000000000000e+00
1.203000000000000000e+03,-4.718496785415871031e-02,0.000000000000000000e+00
1.204000000000000000e+03,-1.259171100153585909e+00,0.000000000000000000e+00
1.205000000000000000e+03,-1.559060309666438160e+00,0.000000000000000000e+00
1.206000000000000000e+03,-1.521797897422457302e+00,0.000000000000000000e+00
1.207000000000000000e+03,-1.289853539677030314e+00,0.000000000000000000e+00
1.208000000000000000e+03,-9.298150704142558176e-01,0.000000000000000000e+00
1.209000000000000000e+03,-1.027305453345811914e+00,0.000000000000000000e+00
1.210000000000000000e+03,-9.130369255522265970e-01,0.000000000000000000e+00
1.211000000000000000e+03,-5.905963890915556513e-01,0.000000000000000000e+00
1.212000000000000000e+03,-4.445958523732892465e-01,0.000000000000000000e+00
1.213000000000000000e+03,-2.188719478464035140e-01,0.000000000000000000e+00
1.214000000000000000e+03,-2.919458957907041241e-01,0.000000000000000000e+00
1.215000000000000000e+03,-2.503505296843790973e-01,0.000000000000000000e+00
1.216000000000000000e+03,-4.464500336622054602e-03,0.000000000000000000e+00
1.217000000000000000e+03,-1.141069029858866705e-02,0.000000000000000000e+00
1.218000000000000000e+03,3.420792395770888006e-01,0.000000000000000000e+00
1.219000000000000000e+03,3.293966948987399057e-01,0.000000000000000000e+00
1.220000000000000000e+03,3.661422381738379528e-01,0.000000000000000000e+00
1.221000000000000000e+03,5.478076110518442787e-01,0.000000000000000000e+00
1.222000000000000000e+03,6.334907170698371448e-02,0.000000000000000000e+00
1.223000000000000000e+03,2.010645911058082935e-01,0.000000000000000000e+00
1.224000000000000000e+03,-1.766880699536543808e-01,0.000000000000000000e+00
1.225000000000000000e+03,-2.558483111070157245e-01,0.000000000000000000e+00
1.226000000000000000e+03,-1.343181579301778727e-01,0.000000000000000000e+00
1.227000000000000000e+03,-3.981522705445903476e-01,0.000000000000000000e+00
1.228000000000000000e+03,-1.353962421233264324e-01,0.000000000000000000e+00
1.229000000000000000e+03,-1.872561410231527723e-01,0.000000000000000000e+00
1.230000000000000000e+03,-2.416363624387423206e-02,0.000000000000000000e+00
1.231000000000000000e+03,-2.087844900923801761e-01,0.000000000000000000e+00
1.232000000000000000e+03,-7.374024312621152433e-02,0.000000000000000000e+00
1.233000000000000000e+03,-1.175621944342212198e-02,0.000000000000000000e+00
1.234000000000000000e+03,-4.601921945193254704e-02,0.000000000000000000e+00
1.235000000000000000e+03,-6.665227159320391559e-02,0.000000000000000000e+00
1.236000000000000000e+03,5.875752919964813414e-02,0.000000000000000000e+00
1.237000000000000000e+03,-5.833970871989115070e-02,0.000000000000000000e+00
1.238000000000000000e+03,-1.936146907043665433e-01,0.000000000000000000e+00
1.239000000000000000e+03,3.446731788417883857e-02,0.000000000000000000e+00
1.240000000000000000e+03,-1.344709324121134419e-01,0.000000000000000000e+00
1.241000000000000000e+03,6.068467556987607731e-02,0.000000000000000000e+00
1.242000000000000000e+03,-6.790208399172023568e-02,0.000000000000000000e+00
1.243000000000000000e+03,-1.024957540563789793e-01,0.000000000000000000e+00
1.244000000000000000e+03,1.019339055458693827e-01,0.000000000000000000e+00
1.245000000000000000e+03,1.259504284112288597e-01,0.000000000000000000e+00
1.246000000000000000e+03,-8.240787246579966974e-02,0.000000000000000000e+00
1.247000000000000000e+03,-3.172548385995010989e-02,0.000000000000000000e+00
1.248000000000000000e+03,-4.703513533903181526e-02,0.000000000000000000e+00
1.249000000000000000e+03,7.765054314367503263e-02,0.000000000000000000e+00
1.250000000000000000e+03,4.054344225557123260e-01,0.000000000000000000e+00
1.251000000000000000e+03,4.373970621141453075e-01,0.000000000000000000e+00
1.252000000000000000e+03,4.044293847941859282e-02,0.000000000000000000e+00
1.253000000000000000e+03,2.552177319055048965e-01,0.000000000000000000e+00
1.254000000000000000e+03,-3.414781613070270727e-01,0.000000000000000000e+00
1.255000000000000000e+03,-2.255759821744682259e-01,0.000000000000000000e+00
1.256000000000000000e+03,-3.473760012962759935e-01,0.000000000000000000e+00
1.257000000000000000e+03,-1.353748597155517708e-01,0.000000000000000000e+00
1.258000000000000000e+03,2.844333673767518444e-01,0.000000000000000000e+00
1.259000000000000000e+03,5.386517712455685114e+00,0.000000000000000000e+00
1.260000000000000000e+03,3.288225302874134393e+00,1.000000000000000000e+00
1.261000000000000000e+03,-4.102850862934716292e-02,0.000000000000000000e+00
1.262000000000000000e+03,-9.973630484412853159e-01,0.000000000000000000e+00
1.263000000000000000e+03,-1.703129235902176575e+00,0.000000000000000000e+00
1.264000000000000000e+03,-1.295765061314833266e+00,0.000000000000000000e+00
1.265000000000000000e+03,-1.447646156207451851e+00,0.000000000000000000e+00
1.266000000000000000e+03,-1.035046544726724083e+00,0.000000000000000000e+00
1.267000000000000000e+03,-1.120513517611139376e+00,0.000000000000000000e+00
1.268000000000000000e+03,-7.952540287946328057e-01,0.000000000000000000e+00
1.269000000000000000e+03,-7.489809030389785738e-01,0.000000000000000000e+00
1.270000000000000000e+03,-6.110230642507198384e-01,0.000000000000000000e+00
1.271000000000000000e+03,-5.418667678689630396e-01,0.000000000000000000e+00
1.272000000000000000e+03,-3.759604469281208616e-01,0.000000000000000000e+00
1.273000000000000000e+03,-1.297664613503203557e-01,0.000000000000000000e+00
1.274000000000000000e+03,2.862213526437425506e-02,0.000000000000000000e+00
1.275000000000000000e+03,1.917873430431194237e-01,0.000000000000000000e+00
1.276000000000000000e+03,1.381453139818023812e-01,0.000000000000000000e+00
1.277000000000000000e+03,4.067118721098045842e-01,0.000000000000000000e+00
1.278000000000000000e+03,4.836217616787826801e-01,0.000000000000000000e+00
1.279000000000000000e+03,8.892431246367297204e-01,0.000000000000000000e+00
1.280000000000000000e+03,3.351353068119456435e-01,0.000000000000000000e+00
1.281000000000000000e+03,3.166920044213334395e-01,0.000000000000000000e+00
1.282000000000000000e+03,2.268608115081455212e-02,0.000000000000000000e+00
1.283000000000000000e+03,4.020615339515951070e-02,0.000000000000000000e+00
1.284000000000000000e+03,1.211181084669914025e-02,0.000000000000000000e+00
1.285000000000000000e+03,1.380670031486280758e-02,0.000000000000000000e+00
1.286000000000000000e+03,6.733703228769198634e-02,0.000000000000000000e+00
1.287000000000000000e+03,-7.508008819973338577e-02,0.000000000000000000e+00
1.288000000000000000e+03,9.645315246433501521e-02,0.000000000000000000e+00
1.289000000000000000e+03,8.405526662399829402e-03,0.000000000000000000e+00
1.290000000000000000e+03,5.298748250471718019e-02,0.000000000000000000e+00
1.291000000000000000e+03,1.793524175610804738e-01,0.000000000000000000e+00
1.292000000000000000e+03,1.426708380674368004e-01,0.000000000000000000e+00
1.293000000000000000e+03,3.163267107458769267e-01,0.000000000000000000e+00
1.294000000000000000e+03,1.211584281113068512e-01,0.000000000000000000e+00
1.295000000000000000e+03,2.096253164221576204e-01,0.000000000000000000e+00
1.296000000000000000e+03,1.543219060079969174e-01,0.000000000000000000e+00
1.297000000000000000e+03,9.626949137520898758e-02,0.000000000000000000e+00
1.298000000000000000e+03,2.639751426470220499e-02,0.000000000000000000e+00
1.299000000000000000e+03,1.894294325732530926e-01,0.000000000000000000e+00
1.300000000000000000e+03,-8.972148193408711891e-02,0.000000000000000000e+00
1.301000000000000000e+03,-1.477030973708294732e-02,0.000000000000000000e+00
1.302000000000000000e+03,-7.194219029808419930e-02,0.000000000000000000e+00
1.303000000000000000e+03,7.913727953333256349e-02,0.000000000000000000e+00
1.304000000000000000e+03,-2.740228275994800733e-02,0.000000000000000000e+00
1.305000000000000000e+03,7.049815262123905468e-02,0.000000000000000000e+00
1.306000000000000000e+03,7.746122331453809962e-02,0.000000000000000000e+00
1.307000000000000000e+03,2.011019350546189299e-01,0.000000000000000000e+00
1.308000000000000000e+03,8.779258145801387136e-02,0.000000000000000000e+00
1.309000000000000000e+03,6.962022873515349985e-01,0.000000000000000000e+00
1.310000000000000000e+03,1.231636679519832606e-01,0.000000000000000000e+00
1.311000000000000000e+03,1.443943495610283123e-01,0.000000000000000000e+00
1.312000000000000000e+03,-7.342888873159933438e-02,0.000000000000000000e+00
1.313000000000000000e+03,-2.349165980741726167e-01,0.000000000000000000e+00
1.314000000000000000e+03,-4.467974610935837587e-01,0.000000000000000000e+00
1.315000000000000000e+03,-7.599479910606415922e-02,0.000000000000000000e+00
1.316000000000000000e+03,-2.602372754628425322e-01,0.000000000000000000e+00
1.317000000000000000e+03,5.422673046535861907e+00,0.000000000000000000e+00
1.318000000000000000e+03,3.672025107270747490e+00,1.000000000000000000e+00
1.319000000000000000e+03,-3.472748006985609259e-01,0.000000000000000000e+00
1.320000000000000000e+03,-8.766864407589224362e-01,0.000000000000000000e+00
1.321000000000000000e+03,-2.108929668290355774e+00,0.000000000000000000e+00
1.322000000000000000e+03,-1.445843755969396405e+00,0.000000000000000000e+00
1.323000000000000000e+03,-1.640296315441423847e+00,0.000000000000000000e+00
1.324000000000000000e+03,-1.236561920061530984e+00,0.000000000000000000e+00
1.325000000000000000e+03,-1.131668991317516415e+00,0.000000000000000000e+00
1.326000000000000000e+03,-1.054060244440695682e+00,0.000000000000000000e+00
1.327000000000000000e+03,-1.132304304102138559e+00,0.000000000000000000e+00
1.328000000000000000e+03,-6.628162740631710070e-01,0.000000000000000000e+00
1.329000000000000000e+03,-6.419643482246655264e-01,0.000000000000000000e+00
1.330000000000000000e+03,-3.781836791717760882e-01,0.000000000000000000e+00
1.331000000000000000e+03,-4.184834089993350048e-01,0.000000000000000000e+00
1.332000000000000000e+03,-1.529216372165290994e-01,0.000000000000000000e+00
1.333000000000000000e+03,-1.921147264056627946e-01,0.000000000000000000e+00
1.334000000000000000e+03,1.553310147061147950e-01,0.000000000000000000e+00
1.335000000000000000e+03,3.365935032769160618e-01,0.000000000000000000e+00
1.336000000000000000e+03,4.771957503914671106e-01,0.000000000000000000e+00
1.337000000000000000e+03,4.709589552611487817e-01,0.000000000000000000e+00
1.338000000000000000e+03,2.826744286371839499e-01,0.000000000000000000e+00
1.339000000000000000e+03,-6.327330958588256449e-02,0.000000000000000000e+00
1.340000000000000000e+03,9.685584406753595943e-02,0.000000000000000000e+00
1.341000000000000000e+03,-1.806097995221782881e-01,0.000000000000000000e+00
1.342000000000000000e+03,-1.009975185243503076e-01,0.000000000000000000e+00
1.343000000000000000e+03,-2.453597177657787787e-01,0.000000000000000000e+00
1.344000000000000000e+03,-8.726867400764042049e-02,0.000000000000000000e+00
1.345000000000000000e+03,-1.844069992024418569e-01,0.000000000000000000e+00
1.346000000000000000e+03,-6.812294675738203575e-02,0.000000000000000000e+00
1.347000000000000000e+03,1.508319978811252515e-01,0.000000000000000000e+00
1.348000000000000000e+03,5.999783083118740562e-02,0.000000000000000000e+00
1.349000000000000000e+03,2.130788528695037320e-01,0.000000000000000000e+00
1.350000000000000000e+03,4.499626114351111539e-02,0.000000000000000000e+00
1.351000000000000000e+03,4.543443637645470934e-02,0.000000000000000000e+00
1.352000000000000000e+03,6.457704942409972504e-02,0.000000000000000000e+00
1.353000000000000000e+03,4.621020474382495774e-02,0.000000000000000000e+00
1.354000000000000000e+03,1.425422088637321449e-01,0.000000000000000000e+00
1.355000000000000000e+03,-1.198003954582482905e-01,0.000000000000000000e+00
1.356000000000000000e+03,8.275015133882669682e-02,0.000000000000000000e+00
1.357000000000000000e+03,5.266069191810248545e-02,0.000000000000000000e+00
1.358000000000000000e+03,1.601456879250974866e-02,0.000000000000000000e+00
1.359000000000000000e+03,-5.428193259931218817e-02,0.000000000000000000e+00
1.360000000000000000e+03,5.273449351334556778e-02,0.000000000000000000e+00
1.361000000000000000e+03,6.384374932051678497e-02,0.000000000000000000e+00
1.362000000000000000e+03,1.485983906355225481e-01,0.000000000000000000e+00
1.363000000000000000e+03,-5.119336314705814905e-02,0.000000000000000000e+00
1.364000000000000000e+03,2.551117618900249906e-01,0.000000000000000000e+00
1.365000000000000000e+03,2.649366693673556594e-01,0.000000000000000000e+00
1.366000000000000000e+03,6.618041424971133901e-01,0.000000000000000000e+00
1.367000000000000000e+03,3.258468178124530046e-01,0.000000000000000000e+00
1.368000000000000000e+03,3.570361070781673529e-01,0.000000000000000000e+00
1.369000000000000000e+03,-2.939910827577844610e-01,0.000000000000000000e+00
1.370000000000000000e+03,-2.257985961023399879e-01,0.000000000000000000e+00
1.371000000000000000e+03,-2.803340326603201982e-01,0.000000000000000000e+00
1.372000000000000000e+03,3.308920097059545040e-02,0.000000000000000000e+00
1.373000000000000000e+03,1.076865541175450747e-01,0.000000000000000000e+00
1.374000000000000000e+03,5.548933824780307056e+00,0.000000000000000000e+00
1.375000000000000000e+03,2.657174535050931041e+00,1.000000000000000000e+00
1.376000000000000000e+03,-6.446716980977286182e-01,0.000000000000000000e+00
1.377000000000000000e+03,-8.805247339540286378e-01,0.000000000000000000e+00
1.378000000000000000e+03,-1.733761821512539658e+00,0.000000000000000000e+00
1.379000000000000000e+03,-1.176246821843973445e+00,0.000000000000000000e+00
1.380000000000000000e+03,-1.345218357039771551e+00,0.000000000000000000e+00
1.381000000000000000e+03,-1.169977593837541407e+00,0.000000000000000000e+00
1.382000000000000000e+03,-1.001197937280042582e+00,0.000000000000000000e+00
1.383000000000000000e+03,-7.525013655214185526e-01,0.000000000000000000e+00
1.384000000000000000e+03,-7.806223432249740357e-01,0.000000000000000000e+00
1.385000000000000000e+03,-5.172998142448715919e-01,0.000000000000000000e+00
1.386000000000000000e+03,-5.087907791428131210e-01,0.000000000000000000e+00
1.387000000000000000e+03,-4.096938198239813977e-01,0.000000000000000000e+00
1.388000000000000000e+03,-1.059565401024780973e-01,0.000000000000000000e+00
1.389000000000000000e+03,1.001118993781790860e-02,0.000000000000000000e+00
1.390000000000000000e+03,2.166624338834786945e-02,0.000000000000000000e+00
1.391000000000000000e+03,2.656717799906049282e-01,0.000000000000000000e+00
1.392000000000000000e+03,1.899007496014794016e-01,0.000000000000000000e+00
1.393000000000000000e+03,4.744118391289258718e-01,0.000000000000000000e+00
1.394000000000000000e+03,5.204500573561275933e-01,0.000000000000000000e+00
1.395000000000000000e+03,2.153686132151280408e-01,0.000000000000000000e+00
1.396000000000000000e+03,9.687835298742696055e-02,0.000000000000000000e+00
1.397000000000000000e+03,-1.937656323892835430e-01,0.000000000000000000e+00
1.398000000000000000e+03,-1.621928217552878193e-01,0.000000000000000000e+00
1.399000000000000000e+03,-2.381463061843554774e-01,0.000000000000000000e+00
1.400000000000000000e+03,-2.319877366772659100e-01,0.000000000000000000e+00
1.401000000000000000e+03,2.032687624724510353e-02,0.000000000000000000e+00
1.402000000000000000e+03,-9.492162908185906856e-02,0.000000000000000000e+00
1.403000000000000000e+03,2.196507495948171393e-02,0.000000000000000000e+00
1.404000000000000000e+03,2.619864637112520600e-02,0.000000000000000000e+00
1.405000000000000000e+03,2.061021155765576096e-01,0.000000000000000000e+00
1.406000000000000000e+03,6.264618890868252354e-02,0.000000000000000000e+00
1.407000000000000000e+03,7.896520525140643398e-02,0.000000000000000000e+00
1.408000000000000000e+03,-2.590671346253358570e-02,0.000000000000000000e+00
1.409000000000000000e+03,-4.237437110636479293e-02,0.000000000000000000e+00
1.410000000000000000e+03,6.058621306766625442e-02,0.000000000000000000e+00
1.411000000000000000e+03,-4.729501239034048649e-02,0.000000000000000000e+00
1.412000000000000000e+03,9.448486333567271411e-02,0.000000000000000000e+00
1.413000000000000000e+03,1.164684698824110590e-02,0.000000000000000000e+00
1.414000000000000000e+03,2.596672807969354485e-02,0.000000000000000000e+00
1.415000000000000000e+03,6.423367705995920718e-03,0.000000000000000000e+00
1.416000000000000000e+03,6.192722827455958423e-02,0.000000000000000000e+00
1.417000000000000000e+03,1.514950349633318871e-01,0.000000000000000000e+00
1.418000000000000000e+03,4.942856384187738206e-02,0.000000000000000000e+00
1.419000000000000000e+03,1.906359645332830199e-01,0.000000000000000000e+00
1.420000000000000000e+03,3.590681843986774369e-01,0.000000000000000000e+00
1.421000000000000000e+03,4.774773394790856051e-01,0.000000000000000000e+00
1.422000000000000000e+03,7.139187201520977855e-01,0.000000000000000000e+00
1.423000000000000000e+03,2.474746740443422022e-01,0.000000000000000000e+00
1.424000000000000000e+03,2.583645039033290458e-01,0.000000000000000000e+00
1.425000000000000000e+03,-3.256006061568955667e-01,0.000000000000000000e+00
1.426000000000000000e+03,-1.014103368989848278e-02,0.000000000000000000e+00
1.427000000000000000e+03,-3.374837251020658124e-01,0.000000000000000000e+00
1.428000000000000000e+03,2.618866404631097280e-02,0.000000000000000000e+00
1.429000000000000000e+03,4.511991920989121690e-03,0.000000000000000000e+00
1.430000000000000000e+03,5.206310197786545579e+00,0.000000000000000000e+00
1.431000000000000000e+03,3.519471311470541597e+00,1.000000000000000000e+00
1.432000000000000000e+03,-7.702019177841297470e-02,0.000000000000000000e+00
1.433000000000000000e+03,-9.814442218186946176e-01,0.000000000000000000e+00
1.434000000000000000e+03,-1.754232407571056696e+00,0.000000000000000000e+00
1.435000000000000000e+03,-1.330006506684253909e+00,0.000000000000000000e+00
1.436000000000000000e+03,-1.489668181937933378e+00,0.000000000000000000e+00
1.437000000000000000e+03,-1.133583911825208013e+00,0.000000000000000000e+00
1.438000000000000000e+03,-1.169346080026102408e+00,0.000000000000000000e+00
1.439000000000000000e+03,-7.739590776607891964e-01,0.000000000000000000e+00
1.440000000000000000e+03,-7.256998066683476578e-01,0.000000000000000000e+00
1.441000000000000000e+03,-3.271152733474843033e-01,0.000000000000000000e+00
1.442000000000000000e+03,-4.402627672542487880e-01,0.000000000000000000e+00
1.443000000000000000e+03,-2.219196034422913910e-01,0.000000000000000000e+00
1.444000000000000000e+03,-1.257341148912626272e-01,0.000000000000000000e+00
1.445000000000000000e+03,-3.051699661089371865e-02,0.000000000000000000e+00
1.446000000000000000e+03,1.189424942035803845e-01,0.000000000000000000e+00
1.447000000000000000e+03,4.176828909445567950e-01,0.000000000000000000e+00
1.448000000000000000e+03,2.307752894143696165e-01,0.000000000000000000e+00
1.449000000000000000e+03,4.518957202242628868e-01,0.000000000000000000e+00
1.450000000000000000e+03,5.170358205504236304e-01,0.000000000000000000e+00
1.451000000000000000e+03,3.532258238412632201e-01,0.000000000000000000e+00
1.452000000000000000e+03,3.119999794665071977e-02,0.000000000000000000e+00
1.453000000000000000e+03,4.229549652408760158e-02,0.000000000000000000e+00
1.454000000000000000e+03,-1.870884927361879113e-01,0.000000000000000000e+00
1.455000000000000000e+03,-3.067863607568923623e-01,0.000000000000000000e+00
1.456000000000000000e+03,-1.546459956669618552e-01,0.000000000000000000e+00
1.457000000000000000e+03,-5.944930937651259767e-02,0.000000000000000000e+00
1.458000000000000000e+03,-2.217577118703792372e-01,0.000000000000000000e+00
1.459000000000000000e+03,-7.186113312106644224e-02,0.000000000000000000e+00
1.460000000000000000e+03,-1.284322844591044288e-01,0.000000000000000000e+00
1.461000000000000000e+03,-1.228421464199137003e-01,0.000000000000000000e+00
1.462000000000000000e+03,-4.079599057237457554e-02,0.000000000000000000e+00
1.463000000000000000e+03,1.156092466134457097e-01,0.000000000000000000e+00
1.464000000000000000e+03,-6.085587193445644860e-02,0.000000000000000000e+00
1.465000000000000000e+03,-1.741052573704339745e-01,0.000000000000000000e+00
1.466000000000000000e+03,1.138228798785941021e-01,0.000000000000000000e+00
1.467000000000000000e+03,-1.722367238710206805e-01,0.000000000000000000e+00
1.468000000000000000e+03,-7.913121987536077262e-02,0.000000000000000000e+00
1.469000000000000000e+03,-6.807296532690608470e-02,0.000000000000000000e+00
1.470000000000000000e+03,-1.284719937421172353e-01,0.000000000000000000e+00
1.471000000000000000e+03,-2.094110443946942679e-01,0.000000000000000000e+00
1.472000000000000000e+03,-9.035037511689028578e-02,0.000000000000000000e+00
1.473000000000000000e+03,-3.371109548911840337e-01,0.000000000000000000e+00
1.474000000000000000e+03,-1.926573714462677389e-01,0.000000000000000000e+00
1.475000000000000000e+03,-2.726717276851290395e-01,0.000000000000000000e+00
1.476000000000000000e+03,-1.789190092152872780e-01,0.000000000000000000e+00
1.477000000000000000e+03,1.352147247615418345e-03,0.000000000000000000e+00
1.478000000000000000e+03,-9.703038225854095089e-02,0.000000000000000000e+00
1.479000000000000000e+03,5.666796336820287827e-01,0.000000000000000000e+00
1.480000000000000000e+03,7.526619018384869131e-01,0.000000000000000000e+00
1.481000000000000000e+03,2.641994751627967930e-01,0.000000000000000000e+00
1.482000000000000000e+03,3.864643955801518316e-01,0.000000000000000000e+00
1.483000000000000000e+03,-1.171660581579753724e-01,0.000000000000000000e+00
1.484000000000000000e+03,3.288462705775190703e-02,0.000000000000000000e+00
1.485000000000000000e+03,-1.983946001705022277e-01,0.000000000000000000e+00
1.486000000000000000e+03,3.809786915656778600e-02,0.000000000000000000e+00
1.487000000000000000e+03,-1.792320969339665782e-01,0.000000000000000000e+00
1.488000000000000000e+03,4.201683113120017410e+00,0.000000000000000000e+00
1.489000000000000000e+03,5.055123916965053255e+00,0.000000000000000000e+00
1.490000000000000000e+03,4.526994656937067818e-01,1.000000000000000000e+00
1.491000000000000000e+03,-6.949432100173241755e-01,0.000000000000000000e+00
1.492000000000000000e+03,-1.957465531597926356e+00,0.000000000000000000e+00
1.493000000000000000e+03,-1.243871389674300332e+00,0.000000000000000000e+00
1.494000000000000000e+03,-1.592829327520064897e+00,0.000000000000000000e+00
1.495000000000000000e+03,-1.166481326486724202e+00,0.000000000000000000e+00
1.496000000000000000e+03,-1.364438622116963540e+00,0.000000000000000000e+00
1.497000000000000000e+03,-9.188814925056273397e-01,0.000000000000000000e+00
1.498000000000000000e+03,-1.115394997391737641e+00,0.000000000000000000e+00
1.499000000000000000e+03,-7.846246525277589257e-01,0.000000000000000000e+00
1.500000000000000000e+03,-8.493276036428935027e-01,0.000000000000000000e+00
1.501000000000000000e+03,-6.251359314849297411e-01,0.000000000000000000e+00
1.502000000000000000e+03,-6.702394310506083475e-01,0.000000000000000000e+00
1.503000000000000000e+03,-3.303391720835729406e-01,0.000000000000000000e+00
1.504000000000000000e+03,-1.981679502991104125e-01,0.000000000000000000e+00
1.505000000000000000e+03,1.700944926264306711e-01,0.000000000000000000e+00
1.506000000000000000e+03,4.605330644275332230e-02,0.000000000000000000e+00
1.507000000000000000e+03,5.261053744243952002e-01,0.000000000000000000e+00
1.508000000000000000e+03,2.901409423883750116e-01,0.000000000000000000e+00
1.509000000000000000e+03,5.467373318660078141e-01,0.000000000000000000e+00
1.510000000000000000e+03,2.356684891290593276e-01,0.000000000000000000e+00
1.511000000000000000e+03,1.878627654303331451e-01,0.000000000000000000e+00
1.512000000000000000e+03,1.260041859020576485e-02,0.000000000000000000e+00
1.513000000000000000e+03,1.051347225768339416e-01,0.000000000000000000e+00
1.514000000000000000e+03,-1.500706813803278639e-01,0.000000000000000000e+00
1.515000000000000000e+03,2.547340322418550906e-01,0.000000000000000000e+00
1.516000000000000000e+03,-2.606826055795162800e-01,0.000000000000000000e+00
1.517000000000000000e+03,2.663197476458711854e-01,0.000000000000000000e+00
1.518000000000000000e+03,4.134612830607626265e-03,0.000000000000000000e+00
1.519000000000000000e+03,3.912320606606668472e-01,0.000000000000000000e+00
1.520000000000000000e+03,8.578080315063460470e-02,0.000000000000000000e+00
1.521000000000000000e+03,2.969333917228240693e-01,0.000000000000000000e+00
1.522000000000000000e+03,1.491859861128414233e-01,0.000000000000000000e+00
1.523000000000000000e+03,2.578121809134288900e-01,0.000000000000000000e+00
1.524000000000000000e+03,1.436078264964146811e-01,0.000000000000000000e+00
1.525000000000000000e+03,2.197897819677581410e-01,0.000000000000000000e+00
1.526000000000000000e+03,2.091725337484520719e-01,0.000000000000000000e+00
1.527000000000000000e+03,1.673134020357674723e-01,0.000000000000000000e+00
1.528000000000000000e+03,7.369369179047260965e-02,0.000000000000000000e+00
1.529000000000000000e+03,2.710163655837778407e-01,0.000000000000000000e+00
1.530000000000000000e+03,-7.310515652214238935e-02,0.000000000000000000e+00
1.531000000000000000e+03,4.332921420193278084e-01,0.000000000000000000e+00
1.532000000000000000e+03,4.061055974623858922e-02,0.000000000000000000e+00
1.533000000000000000e+03,2.981396103089747895e-01,0.000000000000000000e+00
1.534000000000000000e+03,1.763681608681629681e-02,0.000000000000000000e+00
1.535000000000000000e+03,4.314497683706385867e-01,0.000000000000000000e+00
1.536000000000000000e+03,4.189974557432182833e-01,0.000000000000000000e+00
1.537000000000000000e+03,8.400391219203072746e-01,0.000000000000000000e+00
1.538000000000000000e+03,3.361907724286974930e-01,0.000000000000000000e+00
1.539000000000000000e+03,3.991947297405127881e-01,0.000000000000000000e+00
1.540000000000000000e+03,-1.941244452023491440e-01,0.000000000000000000e+00
1.541000000000000000e+03,-6.186543146466086385e-02,0.000000000000000000e+00
1.542000000000000000e+03,-4.560051069402997204e-01,0.000000000000000000e+00
1.543000000000000000e+03,2.420209189983937303e-01,0.000000000000000000e+00
1.544000000000000000e+03,-7.776983912008926803e-01,0.000000000000000000e+00
1.545000000000000000e+03,2.771539456322614559e+00,0.000000000000000000e+00
1.546000000000000000e+03,5.981225538624189042e+00,0.000000000000000000e+00
1.547000000000000000e+03,4.362046200934474594e-01,1.000000000000000000e+00
1.548000000000000000e+03,-5.813030917497246097e-01,0.000000000000000000e+00
1.549000000000000000e+03,-1.655651103882027853e+00,0.000000000000000000e+00
1.550000000000000000e+03,-1.512413028698354367e+00,0.000000000000000000e+00
1.551000000000000000e+03,-1.481019370476348351e+00,0.000000000000000000e+00
1.552000000000000000e+03,-1.344927034827566148e+00,0.000000000000000000e+00
1.553000000000000000e+03,-1.193239680030847794e+00,0.000000000000000000e+00
1.554000000000000000e+03,-1.146935242858078130e+00,0.000000000000000000e+00
1.555000000000000000e+03,-9.493877906408078049e-01,0.000000000000000000e+00
1.556000000000000000e+03,-6.295414452154026730e-01,0.000000000000000000e+00
1.557000000000000000e+03,-5.649085747999458285e-01,0.000000000000000000e+00
1.558000000000000000e+03,-5.096851695446203978e-01,0.000000000000000000e+00
1.559000000000000000e+03,-3.624151347739205109e-01,0.000000000000000000e+00
1.560000000000000000e+03,-2.547637309968474040e-01,0.000000000000000000e+00
1.561000000000000000e+03,3.017836967005567070e-02,0.000000000000000000e+00
1.562000000000000000e+03,1.659432718362308101e-01,0.000000000000000000e+00
1.563000000000000000e+03,2.752928209233660994e-01,0.000000000000000000e+00
1.564000000000000000e+03,2.843216317363902457e-01,0.000000000000000000e+00
1.565000000000000000e+03,5.074648439026779867e-01,0.000000000000000000e+00
1.566000000000000000e+03,3.497323039891038210e-01,0.000000000000000000e+00
1.567000000000000000e+03,2.739261787880338250e-01,0.000000000000000000e+00
1.568000000000000000e+03,-3.620279022604151308e-03,0.000000000000000000e+00
1.569000000000000000e+03,-2.174297806057255145e-01,0.000000000000000000e+00
1.570000000000000000e+03,-9.831042959265237635e-02,0.000000000000000000e+00
1.571000000000000000e+03,-3.459190750126356906e-01,0.000000000000000000e+00
1.572000000000000000e+03,-2.340154420340789243e-01,0.000000000000000000e+00
1.573000000000000000e+03,-4.762525151556545877e-02,0.000000000000000000e+00
1.574000000000000000e+03,-1.778931638668609927e-01,0.000000000000000000e+00
1.575000000000000000e+03,4.353392460897180863e-03,0.000000000000000000e+00
1.576000000000000000e+03,6.343377934144275865e-02,0.000000000000000000e+00
1.577000000000000000e+03,-2.507747512585512539e-01,0.000000000000000000e+00
1.578000000000000000e+03,1.155058792053924310e-01,0.000000000000000000e+00
1.579000000000000000e+03,-1.130270037361556373e-01,0.000000000000000000e+00
1.580000000000000000e+03,6.686999942196823060e-03,0.000000000000000000e+00
1.581000000000000000e+03,2.154607357734144787e-02,0.000000000000000000e+00
1.582000000000000000e+03,-1.934504934220419026e-01,0.000000000000000000e+00
1.583000000000000000e+03,-5.172628491300493986e-02,0.000000000000000000e+00
1.584000000000000000e+03,-1.084295450385530796e-01,0.000000000000000000e+00
1.585000000000000000e+03,3.674222766972654042e-02,0.000000000000000000e+00
1.586000000000000000e+03,3.526329595811708573e-02,0.000000000000000000e+00
1.587000000000000000e+03,-9.789345728736666141e-02,0.000000000000000000e+00
