timestamp,ecg_measurement,qrs_detected
0.000000000000000000e+00,-1.139788050705811129e+00,0.000000000000000000e+00
1.000000000000000000e+00,-1.208530733520651657e+00,0.000000000000000000e+00
2.000000000000000000e+00,-9.578809167135647895e-01,0.000000000000000000e+00
3.000000000000000000e+00,-1.107696104945867344e+00,0.000000000000000000e+00
4.000000000000000000e+00,-8.562831381391293739e-01,0.000000000000000000e+00
5.000000000000000000e+00,-7.497290953769208954e-01,0.000000000000000000e+00
6.000000000000000000e+00,-6.960183336348922944e-01,0.000000000000000000e+00
7.000000000000000000e+00,-3.999005013247985962e-01,0.000000000000000000e+00
8.000000000000000000e+00,-4.331164249036924541e-01,0.000000000000000000e+00
9.000000000000000000e+00,-2.618931460632425434e-01,0.000000000000000000e+00
1.000000000000000000e+01,-1.736062461621332709e-01,0.000000000000000000e+00
1.100000000000000000e+01,-1.177182133395691804e-01,0.000000000000000000e+00
1.200000000000000000e+01,3.039489311142961822e-02,0.000000000000000000e+00
1.300000000000000000e+01,2.901710623568017344e-01,0.000000000000000000e+00
1.400000000000000000e+01,4.141119497930605964e-01,0.000000000000000000e+00
1.500000000000000000e+01,4.301162477857753963e-01,0.000000000000000000e+00
1.600000000000000000e+01,6.413762818953697153e-02,0.000000000000000000e+00
1.700000000000000000e+01,-2.032427340648236269e-01,0.000000000000000000e+00
1.800000000000000000e+01,-1.355350350602429199e-01,0.000000000000000000e+00
1.900000000000000000e+01,-5.439295956579840441e-01,0.000000000000000000e+00
2.000000000000000000e+01,-3.400431025123220041e-01,0.000000000000000000e+00
2.100000000000000000e+01,-3.542651177005079477e-01,0.000000000000000000e+00
2.200000000000000000e+01,-3.264201462038496260e-01,0.000000000000000000e+00
2.300000000000000000e+01,-3.283884725501233226e-01,0.000000000000000000e+00
2.400000000000000000e+01,-2.581299809498298070e-01,0.000000000000000000e+00
2.500000000000000000e+01,-1.439792878407413212e-01,0.000000000000000000e+00
2.600000000000000000e+01,-8.773379995739027937e-02,0.000000000000000000e+00
2.700000000000000000e+01,-1.480937400354055133e-01,0.000000000000000000e+00
2.800000000000000000e+01,-2.960760434692243093e-02,0.000000000000000000e+00
2.900000000000000000e+01,-1.698117923418150377e-01,0.000000000000000000e+00
3.000000000000000000e+01,-2.090331733151445937e-01,0.000000000000000000e+00
3.100000000000000000e+01,-9.467725349393317502e-02,0.000000000000000000e+00
3.200000000000000000e+01,-6.850679380186514011e-02,0.000000000000000000e+00
3.300000000000000000e+01,-1.598680161344264161e-01,0.000000000000000000e+00
3.400000000000000000e+01,-2.842595396178605391e-02,0.000000000000000000e+00
3.500000000000000000e+01,-8.429602481961334659e-02,0.000000000000000000e+00
3.600000000000000000e+01,-1.902902731232870015e-01,0.000000000000000000e+00
3.700000000000000000e+01,-2.240449111345419603e-02,0.000000000000000000e+00
3.800000000000000000e+01,3.571195878340360091e-02,0.000000000000000000e+00
3.900000000000000000e+01,2.692233945394111316e-01,0.000000000000000000e+00
4.000000000000000000e+01,2.434238298247089205e-01,0.000000000000000000e+00
4.100000000000000000e+01,3.760665610980364337e-01,0.000000000000000000e+00
4.200000000000000000e+01,2.807272396205729992e-01,0.000000000000000000e+00
4.300000000000000000e+01,1.706948102511969823e-01,0.000000000000000000e+00
4.400000000000000000e+01,-2.736792140891154412e-01,0.000000000000000000e+00
4.500000000000000000e+01,-1.825232855272338264e-02,0.000000000000000000e+00
4.600000000000000000e+01,-3.468245502679070391e-01,0.000000000000000000e+00
4.700000000000000000e+01,1.155710563862758222e-01,0.000000000000000000e+00
4.800000000000000000e+01,2.877022746332772440e-01,0.000000000000000000e+00
4.900000000000000000e+01,5.474004421863606140e+00,0.000000000000000000e+00
5.000000000000000000e+01,2.254330750295872043e+00,1.000000000000000000e+00
5.100000000000000000e+01,-5.139013806470684731e-01,0.000000000000000000e+00
5.200000000000000000e+01,-9.950889932963097317e-01,0.000000000000000000e+00
5.300000000000000000e+01,-1.489371511826200978e+00,0.000000000000000000e+00
5.400000000000000000e+01,-9.848142116700009385e-01,0.000000000000000000e+00
5.500000000000000000e+01,-1.240413573013761095e+00,0.000000000000000000e+00
5.600000000000000000e+01,-1.166343629044410468e+00,0.000000000000000000e+00
5.700000000000000000e+01,-1.276839420773050904e+00,0.000000000000000000e+00
5.800000000000000000e+01,-9.559636394411483717e-01,0.000000000000000000e+00
5.900000000000000000e+01,-9.144620926738967759e-01,0.000000000000000000e+00
6.000000000000000000e+01,-7.863582686931475108e-01,0.000000000000000000e+00
6.100000000000000000e+01,-5.145897770973654195e-01,0.000000000000000000e+00
6.200000000000000000e+01,-3.376212311977322966e-01,0.000000000000000000e+00
6.300000000000000000e+01,-1.954327443952936783e-01,0.000000000000000000e+00
6.400000000000000000e+01,-1.598677695516695640e-01,0.000000000000000000e+00
6.500000000000000000e+01,2.673771775644986359e-01,0.000000000000000000e+00
6.600000000000000000e+01,2.736898550513352513e-01,0.000000000000000000e+00
6.700000000000000000e+01,5.744892470369841186e-01,0.000000000000000000e+00
6.800000000000000000e+01,6.269136020196508507e-01,0.000000000000000000e+00
6.900000000000000000e+01,4.623452252478807978e-01,0.000000000000000000e+00
7.000000000000000000e+01,3.541593637144945239e-01,0.000000000000000000e+00
7.100000000000000000e+01,1.719236998349452927e-01,0.000000000000000000e+00
7.200000000000000000e+01,3.134893407727976644e-01,0.000000000000000000e+00
7.300000000000000000e+01,7.055716398428424352e-02,0.000000000000000000e+00
7.400000000000000000e+01,1.306381586532193162e-01,0.000000000000000000e+00
7.500000000000000000e+01,4.796542924391409835e-01,0.000000000000000000e+00
7.600000000000000000e+01,4.136308837082981471e-01,0.000000000000000000e+00
7.700000000000000000e+01,6.487676851549768475e-01,0.000000000000000000e+00
7.800000000000000000e+01,8.164247741621118992e-01,0.000000000000000000e+00
7.900000000000000000e+01,7.380067044001078491e-01,0.000000000000000000e+00
8.000000000000000000e+01,5.497389145596903726e-01,0.000000000000000000e+00
8.100000000000000000e+01,7.174221835411231929e-01,0.000000000000000000e+00
8.200000000000000000e+01,4.698011425733332747e-01,0.000000000000000000e+00
8.300000000000000000e+01,3.905951409493156889e-01,0.000000000000000000e+00
8.400000000000000000e+01,4.626552733889528479e-01,0.000000000000000000e+00
8.500000000000000000e+01,3.235324093983141247e-01,0.000000000000000000e+00
8.600000000000000000e+01,2.125341988661084425e-01,0.000000000000000000e+00
8.700000000000000000e+01,1.214283075383065930e-01,0.000000000000000000e+00
8.800000000000000000e+01,2.837327722703841815e-01,0.000000000000000000e+00
8.900000000000000000e+01,2.068180795487463142e-01,0.000000000000000000e+00
9.000000000000000000e+01,5.763076202913076235e-02,0.000000000000000000e+00
9.100000000000000000e+01,3.166785186800288171e-02,0.000000000000000000e+00
9.200000000000000000e+01,1.718683304789238031e-01,0.000000000000000000e+00
9.300000000000000000e+01,2.110352288117974817e-01,0.000000000000000000e+00
9.400000000000000000e+01,2.495740601408760195e-01,0.000000000000000000e+00
9.500000000000000000e+01,5.572592164856609021e-01,0.000000000000000000e+00
9.600000000000000000e+01,1.169849391746803358e-01,0.000000000000000000e+00
9.700000000000000000e+01,1.774258991688084930e-01,0.000000000000000000e+00
9.800000000000000000e+01,-3.218980333419137474e-01,0.000000000000000000e+00
9.900000000000000000e+01,-1.441042784809550281e-01,0.000000000000000000e+00
1.000000000000000000e+02,-6.019756693621720611e-01,0.000000000000000000e+00
1.010000000000000000e+02,-2.452412803207211153e-02,0.000000000000000000e+00
1.020000000000000000e+02,-5.379885741726102566e-01,0.000000000000000000e+00
1.030000000000000000e+02,3.412142037415386575e+00,0.000000000000000000e+00
1.040000000000000000e+02,4.573606826726679841e+00,0.000000000000000000e+00
1.050000000000000000e+02,2.265044305590310780e-01,1.000000000000000000e+00
1.060000000000000000e+02,-7.166719382346631306e-01,0.000000000000000000e+00
1.070000000000000000e+02,-1.927175892107731325e+00,0.000000000000000000e+00
1.080000000000000000e+02,-1.489481902800223745e+00,0.000000000000000000e+00
1.090000000000000000e+02,-1.795680298835793609e+00,0.000000000000000000e+00
1.100000000000000000e+02,-1.245411053794028167e+00,0.000000000000000000e+00
1.110000000000000000e+02,-1.421718255100380635e+00,0.000000000000000000e+00
1.120000000000000000e+02,-1.105082774050166972e+00,0.000000000000000000e+00
1.130000000000000000e+02,-1.242809411317375545e+00,0.000000000000000000e+00
1.140000000000000000e+02,-1.194825057345042074e+00,0.000000000000000000e+00
1.150000000000000000e+02,-1.110172774600049372e+00,0.000000000000000000e+00
1.160000000000000000e+02,-8.516516162202074636e-01,0.000000000000000000e+00
1.170000000000000000e+02,-8.263557019561358352e-01,0.000000000000000000e+00
1.180000000000000000e+02,-4.840208568071377448e-01,0.000000000000000000e+00
1.190000000000000000e+02,-4.973046934158964483e-01,0.000000000000000000e+00
1.200000000000000000e+02,-1.952713145710029685e-01,0.000000000000000000e+00
1.210000000000000000e+02,-7.367816230006521416e-02,0.000000000000000000e+00
1.220000000000000000e+02,2.926632359207486100e-01,0.000000000000000000e+00
1.230000000000000000e+02,2.561276802698036481e-01,0.000000000000000000e+00
1.240000000000000000e+02,2.749153363989479404e-01,0.000000000000000000e+00
1.250000000000000000e+02,-5.986349376932409427e-02,0.000000000000000000e+00
1.260000000000000000e+02,7.100407550180692917e-02,0.000000000000000000e+00
1.270000000000000000e+02,-1.551443107133757549e-01,0.000000000000000000e+00
1.280000000000000000e+02,-5.603173572444117984e-02,0.000000000000000000e+00
1.290000000000000000e+02,-1.309068143773388926e-01,0.000000000000000000e+00
1.300000000000000000e+02,2.397646381469927673e-02,0.000000000000000000e+00
1.310000000000000000e+02,-2.240801992034450185e-01,0.000000000000000000e+00
1.320000000000000000e+02,1.715878002770402644e-01,0.000000000000000000e+00
1.330000000000000000e+02,3.232625603650861323e-02,0.000000000000000000e+00
1.340000000000000000e+02,1.065895875309913060e-01,0.000000000000000000e+00
1.350000000000000000e+02,7.541215291133392118e-02,0.000000000000000000e+00
1.360000000000000000e+02,4.111705978485951096e-01,0.000000000000000000e+00
1.370000000000000000e+02,-9.819727802697529595e-02,0.000000000000000000e+00
1.380000000000000000e+02,3.201624390190659364e-01,0.000000000000000000e+00
1.390000000000000000e+02,3.019091089504475911e-01,0.000000000000000000e+00
1.400000000000000000e+02,2.534911019298969892e-01,0.000000000000000000e+00
1.410000000000000000e+02,1.931747229078190353e-01,0.000000000000000000e+00
1.420000000000000000e+02,1.672079796408991459e-01,0.000000000000000000e+00
1.430000000000000000e+02,1.244770340868195380e-01,0.000000000000000000e+00
1.440000000000000000e+02,3.901687328996441551e-01,0.000000000000000000e+00
1.450000000000000000e+02,1.017979819235833167e-01,0.000000000000000000e+00
1.460000000000000000e+02,3.499712600992453404e-01,0.000000000000000000e+00
1.470000000000000000e+02,2.713651904261066283e-01,0.000000000000000000e+00
1.480000000000000000e+02,4.711391964748453676e-01,0.000000000000000000e+00
1.490000000000000000e+02,2.797502580068009781e-01,0.000000000000000000e+00
1.500000000000000000e+02,6.556242469528315020e-01,0.000000000000000000e+00
1.510000000000000000e+02,5.178887446186924981e-01,0.000000000000000000e+00
1.520000000000000000e+02,6.804611751423271793e-01,0.000000000000000000e+00
1.530000000000000000e+02,-8.852377473634261834e-03,0.000000000000000000e+00
1.540000000000000000e+02,1.017552723690209604e-01,0.000000000000000000e+00
1.550000000000000000e+02,-2.516142785363514323e-01,0.000000000000000000e+00
1.560000000000000000e+02,3.412796231942177294e-01,0.000000000000000000e+00
1.570000000000000000e+02,-5.491443995449853954e-01,0.000000000000000000e+00
1.580000000000000000e+02,2.798668142745165621e+00,0.000000000000000000e+00
1.590000000000000000e+02,5.893807299285146684e+00,0.000000000000000000e+00
1.600000000000000000e+02,6.554469966735135822e-01,1.000000000000000000e+00
1.610000000000000000e+02,-3.471400128036083998e-01,0.000000000000000000e+00
1.620000000000000000e+02,-1.741388263719463092e+00,0.000000000000000000e+00
1.630000000000000000e+02,-1.263258977089257495e+00,0.000000000000000000e+00
1.640000000000000000e+02,-1.580747428884637262e+00,0.000000000000000000e+00
1.650000000000000000e+02,-9.761816473107061132e-01,0.000000000000000000e+00
1.660000000000000000e+02,-1.213118466209388124e+00,0.000000000000000000e+00
1.670000000000000000e+02,-8.710210912504224856e-01,0.000000000000000000e+00
1.680000000000000000e+02,-9.716064744583300383e-01,0.000000000000000000e+00
1.690000000000000000e+02,-7.109541075318187575e-01,0.000000000000000000e+00
1.700000000000000000e+02,-4.615559439676223397e-01,0.000000000000000000e+00
1.710000000000000000e+02,-5.534903494477292352e-01,0.000000000000000000e+00
1.720000000000000000e+02,-4.575234256537177302e-01,0.000000000000000000e+00
1.730000000000000000e+02,-1.136022583921604961e-01,0.000000000000000000e+00
1.740000000000000000e+02,-9.929347638387002808e-03,0.000000000000000000e+00
1.750000000000000000e+02,5.499360247734858681e-02,0.000000000000000000e+00
1.760000000000000000e+02,2.989052308473756914e-01,0.000000000000000000e+00
1.770000000000000000e+02,3.822962591597345305e-01,0.000000000000000000e+00
1.780000000000000000e+02,5.592970381574551286e-01,0.000000000000000000e+00
1.790000000000000000e+02,3.012748178061675497e-01,0.000000000000000000e+00
1.800000000000000000e+02,2.069872606216561772e-01,0.000000000000000000e+00
1.810000000000000000e+02,-1.605440788801824614e-01,0.000000000000000000e+00
1.820000000000000000e+02,-3.907835205372756082e-01,0.000000000000000000e+00
1.830000000000000000e+02,-2.545076128228207502e-01,0.000000000000000000e+00
1.840000000000000000e+02,-1.971285691230960646e-01,0.000000000000000000e+00
1.850000000000000000e+02,-3.407988366212604814e-01,0.000000000000000000e+00
1.860000000000000000e+02,-1.780959349020775628e-01,0.000000000000000000e+00
1.870000000000000000e+02,-2.472072976242193632e-01,0.000000000000000000e+00
1.880000000000000000e+02,-1.942306720905304096e-01,0.000000000000000000e+00
1.890000000000000000e+02,-1.404198705451969176e-01,0.000000000000000000e+00
1.900000000000000000e+02,-1.300795678335600614e-01,0.000000000000000000e+00
1.910000000000000000e+02,-1.188637461848780774e-01,0.000000000000000000e+00
1.920000000000000000e+02,-1.052264258551084131e-01,0.000000000000000000e+00
1.930000000000000000e+02,-3.282597978803866723e-02,0.000000000000000000e+00
1.940000000000000000e+02,9.177669464114505959e-02,0.000000000000000000e+00
1.950000000000000000e+02,-2.875234326972835319e-01,0.000000000000000000e+00
1.960000000000000000e+02,-1.755552419356140245e-02,0.000000000000000000e+00
1.970000000000000000e+02,-6.966332292361869516e-02,0.000000000000000000e+00
1.980000000000000000e+02,-1.359514667254602127e-01,0.000000000000000000e+00
1.990000000000000000e+02,-2.884430903497637866e-01,0.000000000000000000e+00
2.000000000000000000e+02,-3.201805770925580941e-02,0.000000000000000000e+00
2.010000000000000000e+02,-1.471183114799135272e-01,0.000000000000000000e+00
2.020000000000000000e+02,1.957380692269219697e-03,0.000000000000000000e+00
2.030000000000000000e+02,1.749541755824201572e-01,0.000000000000000000e+00
2.040000000000000000e+02,3.103905714113826542e-01,0.000000000000000000e+00
2.050000000000000000e+02,3.359678568339141691e-01,0.000000000000000000e+00
2.060000000000000000e+02,1.130994221790574128e-01,0.000000000000000000e+00
2.070000000000000000e+02,2.755253573688195012e-01,0.000000000000000000e+00
2.080000000000000000e+02,-2.983986570915119207e-01,0.000000000000000000e+00
2.090000000000000000e+02,-2.295167762751426921e-01,0.000000000000000000e+00
2.100000000000000000e+02,-2.274227665345948945e-01,0.000000000000000000e+00
2.110000000000000000e+02,-2.155855799544069140e-01,0.000000000000000000e+00
2.120000000000000000e+02,2.713085090046450931e-01,0.000000000000000000e+00
2.130000000000000000e+02,5.328559977803054792e+00,0.000000000000000000e+00
2.140000000000000000e+02,2.357173943138453076e+00,1.000000000000000000e+00
2.150000000000000000e+02,-4.905039112663495682e-01,0.000000000000000000e+00
2.160000000000000000e+02,-1.058443389690854719e+00,0.000000000000000000e+00
2.170000000000000000e+02,-1.549326305232058276e+00,0.000000000000000000e+00
2.180000000000000000e+02,-1.194616855913462672e+00,0.000000000000000000e+00
2.190000000000000000e+02,-1.132640472167580015e+00,0.000000000000000000e+00
2.200000000000000000e+02,-1.076208219821737977e+00,0.000000000000000000e+00
2.210000000000000000e+02,-9.407309220437181096e-01,0.000000000000000000e+00
2.220000000000000000e+02,-5.516594200758461186e-01,0.000000000000000000e+00
2.230000000000000000e+02,-6.541069738896627683e-01,0.000000000000000000e+00
2.240000000000000000e+02,-4.347641776720384543e-01,0.000000000000000000e+00
2.250000000000000000e+02,-2.408900220170022144e-01,0.000000000000000000e+00
2.260000000000000000e+02,-2.919348406930551421e-01,0.000000000000000000e+00
2.270000000000000000e+02,-1.090646013502224454e-01,0.000000000000000000e+00
2.280000000000000000e+02,1.096862819960629093e-02,0.000000000000000000e+00
2.290000000000000000e+02,3.071810439623787747e-01,0.000000000000000000e+00
2.300000000000000000e+02,3.136695554954188059e-01,0.000000000000000000e+00
2.310000000000000000e+02,4.153948890340312672e-01,0.000000000000000000e+00
2.320000000000000000e+02,5.055735107131753558e-01,0.000000000000000000e+00
2.330000000000000000e+02,5.627641189077240425e-01,0.000000000000000000e+00
2.340000000000000000e+02,3.613241442960249405e-01,0.000000000000000000e+00
2.350000000000000000e+02,-4.476843205704095566e-03,0.000000000000000000e+00
2.360000000000000000e+02,-2.052041921178160144e-01,0.000000000000000000e+00
2.370000000000000000e+02,-1.604568083546811519e-01,0.000000000000000000e+00
2.380000000000000000e+02,-3.277450152484644996e-01,0.000000000000000000e+00
2.390000000000000000e+02,-1.053025367244558863e-02,0.000000000000000000e+00
2.400000000000000000e+02,-3.677291240137722100e-02,0.000000000000000000e+00
2.410000000000000000e+02,6.022613048892922621e-02,0.000000000000000000e+00
2.420000000000000000e+02,1.607643134537097285e-01,0.000000000000000000e+00
2.430000000000000000e+02,1.973985274681739344e-01,0.000000000000000000e+00
2.440000000000000000e+02,-3.122637661009683083e-02,0.000000000000000000e+00
2.450000000000000000e+02,4.137368271729616742e-01,0.000000000000000000e+00
2.460000000000000000e+02,1.586253810576673806e-01,0.000000000000000000e+00
2.470000000000000000e+02,3.955552488613213458e-02,0.000000000000000000e+00
2.480000000000000000e+02,4.488501348866015817e-01,0.000000000000000000e+00
2.490000000000000000e+02,7.909193142277030908e-02,0.000000000000000000e+00
2.500000000000000000e+02,-6.761505474095043378e-02,0.000000000000000000e+00
2.510000000000000000e+02,2.249846135083856946e-01,0.000000000000000000e+00
2.520000000000000000e+02,-4.586579095478296626e-03,0.000000000000000000e+00
2.530000000000000000e+02,4.497754348655440548e-01,0.000000000000000000e+00
2.540000000000000000e+02,2.483088541372792737e-02,0.000000000000000000e+00
2.550000000000000000e+02,2.458280605463364077e-01,0.000000000000000000e+00
2.560000000000000000e+02,1.216491389814118029e-01,0.000000000000000000e+00
2.570000000000000000e+02,4.524311050272688539e-01,0.000000000000000000e+00
2.580000000000000000e+02,1.857259609115491372e-01,0.000000000000000000e+00
2.590000000000000000e+02,6.747945340438770145e-01,0.000000000000000000e+00
2.600000000000000000e+02,2.830923511916909052e-01,0.000000000000000000e+00
2.610000000000000000e+02,5.003816395488636104e-01,0.000000000000000000e+00
2.620000000000000000e+02,-2.363801730987548366e-02,0.000000000000000000e+00
2.630000000000000000e+02,1.093407734584109642e-01,0.000000000000000000e+00
2.640000000000000000e+02,-3.513140140216645113e-01,0.000000000000000000e+00
2.650000000000000000e+02,1.477564763229309019e-01,0.000000000000000000e+00
2.660000000000000000e+02,-3.374299883656451393e-01,0.000000000000000000e+00
2.670000000000000000e+02,2.127918647352184056e+00,0.000000000000000000e+00
2.680000000000000000e+02,5.542085818207594272e+00,0.000000000000000000e+00
2.690000000000000000e+02,1.393930044809789104e+00,1.000000000000000000e+00
2.700000000000000000e+02,-3.426301942785500709e-01,0.000000000000000000e+00
2.710000000000000000e+02,-1.505859982996738955e+00,0.000000000000000000e+00
2.720000000000000000e+02,-1.591003973283040107e+00,0.000000000000000000e+00
2.730000000000000000e+02,-1.504676375285158629e+00,0.000000000000000000e+00
2.740000000000000000e+02,-1.143748620722979670e+00,0.000000000000000000e+00
2.750000000000000000e+02,-1.090167252964820310e+00,0.000000000000000000e+00
2.760000000000000000e+02,-1.006011688766416778e+00,0.000000000000000000e+00
2.770000000000000000e+02,-1.011455954994994411e+00,0.000000000000000000e+00
2.780000000000000000e+02,-7.678363307215201328e-01,0.000000000000000000e+00
2.790000000000000000e+02,-6.825967538328960860e-01,0.000000000000000000e+00
2.800000000000000000e+02,-3.819851559048511036e-01,0.000000000000000000e+00
2.810000000000000000e+02,-2.410793861947643224e-01,0.000000000000000000e+00
2.820000000000000000e+02,-1.412777790246541876e-01,0.000000000000000000e+00
2.830000000000000000e+02,-6.728454349310740434e-02,0.000000000000000000e+00
2.840000000000000000e+02,2.997698341011810208e-01,0.000000000000000000e+00
2.850000000000000000e+02,5.520630695076062661e-02,0.000000000000000000e+00
2.860000000000000000e+02,4.510326697324367751e-01,0.000000000000000000e+00
2.870000000000000000e+02,4.178210267525869215e-01,0.000000000000000000e+00
2.880000000000000000e+02,3.873815839164890251e-01,0.000000000000000000e+00
2.890000000000000000e+02,1.142450400126293966e-02,0.000000000000000000e+00
2.900000000000000000e+02,-1.701407406670382705e-01,0.000000000000000000e+00
2.910000000000000000e+02,-2.135650149152259203e-01,0.000000000000000000e+00
2.920000000000000000e+02,-9.141958483833274862e-02,0.000000000000000000e+00
2.930000000000000000e+02,-3.019289686612107171e-01,0.000000000000000000e+00
2.940000000000000000e+02,-2.939490820149738837e-01,0.000000000000000000e+00
2.950000000000000000e+02,-2.089612985485530816e-01,0.000000000000000000e+00
2.960000000000000000e+02,-4.287651277673876771e-01,0.000000000000000000e+00
2.970000000000000000e+02,-2.752917945576874859e-01,0.000000000000000000e+00
2.980000000000000000e+02,-1.166632865727368212e-01,0.000000000000000000e+00
2.990000000000000000e+02,-8.929886143996343395e-02,0.000000000000000000e+00
3.000000000000000000e+02,-1.435523152413573367e-01,0.000000000000000000e+00
3.010000000000000000e+02,-1.647452322855701493e-02,0.000000000000000000e+00
3.020000000000000000e+02,-1.910012015925701967e-01,0.000000000000000000e+00
3.030000000000000000e+02,-7.850049073282082401e-02,0.000000000000000000e+00
3.040000000000000000e+02,9.906871377139440590e-03,0.000000000000000000e+00
3.050000000000000000e+02,-2.674497047405259287e-01,0.000000000000000000e+00
3.060000000000000000e+02,-8.144577606804363767e-02,0.000000000000000000e+00
3.070000000000000000e+02,-2.012466542298816941e-01,0.000000000000000000e+00
3.080000000000000000e+02,-1.582715230917558502e-01,0.000000000000000000e+00
3.090000000000000000e+02,-1.658792218693498632e-01,0.000000000000000000e+00
3.100000000000000000e+02,1.105750908040371329e-02,0.000000000000000000e+00
3.110000000000000000e+02,9.848028492173663273e-02,0.000000000000000000e+00
3.120000000000000000e+02,-1.154975815625930158e-01,0.000000000000000000e+00
3.130000000000000000e+02,-6.780904267544332620e-02,0.000000000000000000e+00
3.140000000000000000e+02,8.768450701662247604e-02,0.000000000000000000e+00
3.150000000000000000e+02,5.383619253446187969e-01,0.000000000000000000e+00
3.160000000000000000e+02,4.968112391152759710e-01,0.000000000000000000e+00
3.170000000000000000e+02,2.659087729073388862e-01,0.000000000000000000e+00
3.180000000000000000e+02,-4.001562796138518480e-02,0.000000000000000000e+00
3.190000000000000000e+02,-4.223860832938949317e-01,0.000000000000000000e+00
3.200000000000000000e+02,-3.201868387791681481e-01,0.000000000000000000e+00
3.210000000000000000e+02,-1.707171999652755123e-01,0.000000000000000000e+00
3.220000000000000000e+02,-3.674965398171853859e-01,0.000000000000000000e+00
3.230000000000000000e+02,1.024617376410607239e+00,0.000000000000000000e+00
3.240000000000000000e+02,5.693960414507801993e+00,0.000000000000000000e+00
3.250000000000000000e+02,2.230347740834381476e+00,1.000000000000000000e+00
3.260000000000000000e+02,-4.415045615880882068e-01,0.000000000000000000e+00
3.270000000000000000e+02,-1.346858664487370794e+00,0.000000000000000000e+00
3.280000000000000000e+02,-1.645551636014874086e+00,0.000000000000000000e+00
3.290000000000000000e+02,-1.424808068415269746e+00,0.000000000000000000e+00
3.300000000000000000e+02,-1.407805782719385057e+00,0.000000000000000000e+00
3.310000000000000000e+02,-9.689986853688535851e-01,0.000000000000000000e+00
3.320000000000000000e+02,-1.137402166219145583e+00,0.000000000000000000e+00
3.330000000000000000e+02,-9.327830307201880888e-01,0.000000000000000000e+00
3.340000000000000000e+02,-7.159695591357828626e-01,0.000000000000000000e+00
3.350000000000000000e+02,-5.888063169620502135e-01,0.000000000000000000e+00
3.360000000000000000e+02,-4.670522331179343123e-01,0.000000000000000000e+00
3.370000000000000000e+02,-1.764619257691619481e-01,0.000000000000000000e+00
3.380000000000000000e+02,-1.817472746916311277e-01,0.000000000000000000e+00
3.390000000000000000e+02,-7.954363873057029855e-02,0.000000000000000000e+00
3.400000000000000000e+02,6.879572697131805525e-02,0.000000000000000000e+00
3.410000000000000000e+02,2.447349454991607776e-01,0.000000000000000000e+00
3.420000000000000000e+02,5.456029646312343662e-01,0.000000000000000000e+00
3.430000000000000000e+02,6.970775757372870141e-01,0.000000000000000000e+00
3.440000000000000000e+02,5.711709493541438087e-01,0.000000000000000000e+00
3.450000000000000000e+02,3.806173574690875361e-01,0.000000000000000000e+00
3.460000000000000000e+02,4.394072706456656624e-02,0.000000000000000000e+00
3.470000000000000000e+02,1.268175642939218251e-01,0.000000000000000000e+00
3.480000000000000000e+02,-1.415147877983180258e-01,0.000000000000000000e+00
3.490000000000000000e+02,2.434272798772597543e-02,0.000000000000000000e+00
3.500000000000000000e+02,1.100671261864725609e-01,0.000000000000000000e+00
3.510000000000000000e+02,7.037179812581498793e-03,0.000000000000000000e+00
3.520000000000000000e+02,-1.385642167999606711e-01,0.000000000000000000e+00
3.530000000000000000e+02,-6.275524952072493445e-02,0.000000000000000000e+00
3.540000000000000000e+02,6.434510010970818927e-02,0.000000000000000000e+00
3.550000000000000000e+02,1.052986802100703140e-01,0.000000000000000000e+00
3.560000000000000000e+02,2.390054121821680311e-01,0.000000000000000000e+00
3.570000000000000000e+02,2.570528546161001682e-01,0.000000000000000000e+00
3.580000000000000000e+02,2.076023770739405527e-01,0.000000000000000000e+00
3.590000000000000000e+02,1.845048404744012716e-01,0.000000000000000000e+00
3.600000000000000000e+02,2.216674888135465316e-01,0.000000000000000000e+00
3.610000000000000000e+02,1.272025582693642742e-01,0.000000000000000000e+00
3.620000000000000000e+02,-5.147512389193698024e-02,0.000000000000000000e+00
3.630000000000000000e+02,3.695867693715036428e-01,0.000000000000000000e+00
3.640000000000000000e+02,-5.025038248188011536e-02,0.000000000000000000e+00
3.650000000000000000e+02,2.888964618136273810e-01,0.000000000000000000e+00
3.660000000000000000e+02,1.420886903330329798e-01,0.000000000000000000e+00
3.670000000000000000e+02,1.012793460593368750e-01,0.000000000000000000e+00
3.680000000000000000e+02,1.617019186853371482e-01,0.000000000000000000e+00
3.690000000000000000e+02,4.031734619184402235e-01,0.000000000000000000e+00
3.700000000000000000e+02,3.295925545694782799e-01,0.000000000000000000e+00
3.710000000000000000e+02,5.637270081344913919e-01,0.000000000000000000e+00
3.720000000000000000e+02,3.054959687501397902e-01,0.000000000000000000e+00
3.730000000000000000e+02,3.808821758752502507e-01,0.000000000000000000e+00
3.740000000000000000e+02,-1.747956226527223322e-01,0.000000000000000000e+00
3.750000000000000000e+02,-1.937253364726957555e-02,0.000000000000000000e+00
3.760000000000000000e+02,-4.198452095198861311e-01,0.000000000000000000e+00
3.770000000000000000e+02,1.908734088382809113e-01,0.000000000000000000e+00
3.780000000000000000e+02,-2.566973676933966275e-01,0.000000000000000000e+00
3.790000000000000000e+02,5.068180115744723935e+00,0.000000000000000000e+00
3.800000000000000000e+02,3.414099546978444533e+00,1.000000000000000000e+00
3.810000000000000000e+02,-8.283642913253951301e-01,0.000000000000000000e+00
3.820000000000000000e+02,-7.604950489482349418e-01,0.000000000000000000e+00
3.830000000000000000e+02,-1.636614840881663646e+00,0.000000000000000000e+00
3.840000000000000000e+02,-1.271249779419021175e+00,0.000000000000000000e+00
3.850000000000000000e+02,-1.318699667246479468e+00,0.000000000000000000e+00
3.860000000000000000e+02,-1.017486565966040590e+00,0.000000000000000000e+00
3.870000000000000000e+02,-1.253011492186144382e+00,0.000000000000000000e+00
3.880000000000000000e+02,-7.365269614228120432e-01,0.000000000000000000e+00
3.890000000000000000e+02,-9.044915141067680908e-01,0.000000000000000000e+00
3.900000000000000000e+02,-5.749768822021735781e-01,0.000000000000000000e+00
3.910000000000000000e+02,-5.359459203066353483e-01,0.000000000000000000e+00
3.920000000000000000e+02,-3.076833614619827739e-01,0.000000000000000000e+00
3.930000000000000000e+02,-3.314452892936857187e-01,0.000000000000000000e+00
3.940000000000000000e+02,-4.168924130169151393e-02,0.000000000000000000e+00
3.950000000000000000e+02,-1.309947887146277190e-01,0.000000000000000000e+00
3.960000000000000000e+02,2.189864521411398202e-01,0.000000000000000000e+00
3.970000000000000000e+02,1.860959442185818880e-01,0.000000000000000000e+00
3.980000000000000000e+02,4.416896265357986295e-01,0.000000000000000000e+00
3.990000000000000000e+02,4.415449405942281080e-01,0.000000000000000000e+00
4.000000000000000000e+02,1.638519984133070817e-01,0.000000000000000000e+00
4.010000000000000000e+02,-2.124110281717593862e-01,0.000000000000000000e+00
4.020000000000000000e+02,-3.616427034437904586e-01,0.000000000000000000e+00
4.030000000000000000e+02,-3.144170007674133016e-01,0.000000000000000000e+00
4.040000000000000000e+02,-2.813578016814514138e-01,0.000000000000000000e+00
4.050000000000000000e+02,-2.912667563908862278e-01,0.000000000000000000e+00
4.060000000000000000e+02,-1.130910428505318560e-01,0.000000000000000000e+00
4.070000000000000000e+02,7.817218951829718598e-02,0.000000000000000000e+00
4.080000000000000000e+02,-1.627556649783640577e-02,0.000000000000000000e+00
4.090000000000000000e+02,-6.098306661276815810e-02,0.000000000000000000e+00
4.100000000000000000e+02,1.121143477238090852e-01,0.000000000000000000e+00
4.110000000000000000e+02,-8.288450398645563766e-02,0.000000000000000000e+00
4.120000000000000000e+02,8.787681400104560558e-02,0.000000000000000000e+00
4.130000000000000000e+02,-1.256073264332684403e-01,0.000000000000000000e+00
4.140000000000000000e+02,-5.746824190105466077e-04,0.000000000000000000e+00
4.150000000000000000e+02,-9.553220435879709871e-02,0.000000000000000000e+00
4.160000000000000000e+02,5.559206790539163862e-02,0.000000000000000000e+00
4.170000000000000000e+02,-2.003981637051862053e-01,0.000000000000000000e+00
4.180000000000000000e+02,1.209124016750951908e-01,0.000000000000000000e+00
4.190000000000000000e+02,3.485266342622210002e-03,0.000000000000000000e+00
4.200000000000000000e+02,5.996608249163038612e-02,0.000000000000000000e+00
4.210000000000000000e+02,-2.281607421494932508e-01,0.000000000000000000e+00
4.220000000000000000e+02,8.518215468524728551e-02,0.000000000000000000e+00
4.230000000000000000e+02,2.029804261895067352e-01,0.000000000000000000e+00
4.240000000000000000e+02,3.381032019366665420e-01,0.000000000000000000e+00
4.250000000000000000e+02,1.805328569624036761e-01,0.000000000000000000e+00
4.260000000000000000e+02,5.982350239615830123e-01,0.000000000000000000e+00
4.270000000000000000e+02,2.988556463587129230e-01,0.000000000000000000e+00
4.280000000000000000e+02,3.022938262118011754e-01,0.000000000000000000e+00
4.290000000000000000e+02,-1.125595256887094581e-01,0.000000000000000000e+00
4.300000000000000000e+02,-6.640962397852606669e-02,0.000000000000000000e+00
4.310000000000000000e+02,-3.032216429382936229e-01,0.000000000000000000e+00
4.320000000000000000e+02,4.144862282457656422e-02,0.000000000000000000e+00
4.330000000000000000e+02,-3.002642781334088906e-01,0.000000000000000000e+00
4.340000000000000000e+02,4.212716261712561305e+00,0.000000000000000000e+00
4.350000000000000000e+02,4.229483682038888581e+00,0.000000000000000000e+00
4.360000000000000000e+02,2.150744534907232108e-01,1.000000000000000000e+00
4.370000000000000000e+02,-7.307047561208953601e-01,0.000000000000000000e+00
4.380000000000000000e+02,-1.681007592873327017e+00,0.000000000000000000e+00
4.390000000000000000e+02,-1.320529068407076512e+00,0.000000000000000000e+00
4.400000000000000000e+02,-1.515647776618180176e+00,0.000000000000000000e+00
4.410000000000000000e+02,-8.693630134631847861e-01,0.000000000000000000e+00
4.420000000000000000e+02,-1.234101050292907953e+00,0.000000000000000000e+00
4.430000000000000000e+02,-5.633462679543890239e-01,0.000000000000000000e+00
4.440000000000000000e+02,-1.069981637011154785e+00,0.000000000000000000e+00
4.450000000000000000e+02,-4.756063088888409784e-01,0.000000000000000000e+00
4.460000000000000000e+02,-6.584318977593611733e-01,0.000000000000000000e+00
4.470000000000000000e+02,-2.763716819463034047e-01,0.000000000000000000e+00
4.480000000000000000e+02,-2.531142941163121440e-01,0.000000000000000000e+00
4.490000000000000000e+02,-1.155086635235270109e-01,0.000000000000000000e+00
4.500000000000000000e+02,1.192072396073976838e-02,0.000000000000000000e+00
4.510000000000000000e+02,2.140589350697345294e-01,0.000000000000000000e+00
4.520000000000000000e+02,2.667122752641235550e-01,0.000000000000000000e+00
4.530000000000000000e+02,5.411854673960823092e-01,0.000000000000000000e+00
4.540000000000000000e+02,3.268993665714132191e-01,0.000000000000000000e+00
4.550000000000000000e+02,4.134909320735691285e-01,0.000000000000000000e+00
4.560000000000000000e+02,1.497303372686532574e-01,0.000000000000000000e+00
4.570000000000000000e+02,-1.393837302226406429e-02,0.000000000000000000e+00
4.580000000000000000e+02,-1.042524920432915114e-01,0.000000000000000000e+00
4.590000000000000000e+02,1.424330628606289839e-01,0.000000000000000000e+00
4.600000000000000000e+02,-1.286694840520250238e-01,0.000000000000000000e+00
4.610000000000000000e+02,-4.650704685762686863e-02,0.000000000000000000e+00
4.620000000000000000e+02,-9.179608057572594126e-02,0.000000000000000000e+00
4.630000000000000000e+02,-2.082708056792491672e-02,0.000000000000000000e+00
4.640000000000000000e+02,6.325086127411326531e-02,0.000000000000000000e+00
4.650000000000000000e+02,4.260234596879547420e-02,0.000000000000000000e+00
4.660000000000000000e+02,7.917764452119953333e-02,0.000000000000000000e+00
4.670000000000000000e+02,2.226860763864660087e-01,0.000000000000000000e+00
4.680000000000000000e+02,1.070149008249915712e-01,0.000000000000000000e+00
4.690000000000000000e+02,1.250958941226384680e-01,0.000000000000000000e+00
4.700000000000000000e+02,1.205061806241474881e-01,0.000000000000000000e+00
4.710000000000000000e+02,2.776445881003240523e-01,0.000000000000000000e+00
4.720000000000000000e+02,-1.009085738759340628e-01,0.000000000000000000e+00
4.730000000000000000e+02,1.162864829594649346e-01,0.000000000000000000e+00
4.740000000000000000e+02,1.201658950354873769e-03,0.000000000000000000e+00
4.750000000000000000e+02,1.107192800952163936e-01,0.000000000000000000e+00
4.760000000000000000e+02,-9.661594891901650883e-02,0.000000000000000000e+00
4.770000000000000000e+02,2.356470045049477435e-01,0.000000000000000000e+00
4.780000000000000000e+02,1.200645753082975886e-01,0.000000000000000000e+00
4.790000000000000000e+02,2.949779898326741479e-01,0.000000000000000000e+00
4.800000000000000000e+02,1.138558734744225115e-01,0.000000000000000000e+00
4.810000000000000000e+02,6.737506372340811289e-01,0.000000000000000000e+00
4.820000000000000000e+02,2.100996235708007392e-02,0.000000000000000000e+00
4.830000000000000000e+02,5.226802330754026782e-01,0.000000000000000000e+00
4.840000000000000000e+02,-1.650774771470360225e-01,0.000000000000000000e+00
4.850000000000000000e+02,-1.278947678169549407e-01,0.000000000000000000e+00
4.860000000000000000e+02,-3.762648834578436463e-01,0.000000000000000000e+00
4.870000000000000000e+02,4.154739554125321324e-03,0.000000000000000000e+00
4.880000000000000000e+02,-4.485892430896594729e-01,0.000000000000000000e+00
4.890000000000000000e+02,3.682702299500058452e+00,0.000000000000000000e+00
4.900000000000000000e+02,4.707525763270413499e+00,0.000000000000000000e+00
4.910000000000000000e+02,5.795979379433806589e-01,1.000000000000000000e+00
4.920000000000000000e+02,-7.467054870468042838e-01,0.000000000000000000e+00
4.930000000000000000e+02,-1.955698014299764420e+00,0.000000000000000000e+00
4.940000000000000000e+02,-1.338105344584657352e+00,0.000000000000000000e+00
4.950000000000000000e+02,-1.586905263667925725e+00,0.000000000000000000e+00
4.960000000000000000e+02,-1.266581134408800269e+00,0.000000000000000000e+00
4.970000000000000000e+02,-1.211191750784339716e+00,0.000000000000000000e+00
4.980000000000000000e+02,-1.098244157807107380e+00,0.000000000000000000e+00
4.990000000000000000e+02,-1.037601169375992560e+00,0.000000000000000000e+00
5.000000000000000000e+02,-7.493425262514893381e-01,0.000000000000000000e+00
5.010000000000000000e+02,-6.898975982279152985e-01,0.000000000000000000e+00
5.020000000000000000e+02,-3.414203006102275451e-01,0.000000000000000000e+00
5.030000000000000000e+02,-3.496430067017680665e-01,0.000000000000000000e+00
5.040000000000000000e+02,-2.353004135211900216e-01,0.000000000000000000e+00
5.050000000000000000e+02,-8.438783623465331840e-02,0.000000000000000000e+00
5.060000000000000000e+02,8.849736684055767300e-02,0.000000000000000000e+00
5.070000000000000000e+02,2.063906786535742444e-01,0.000000000000000000e+00
5.080000000000000000e+02,4.538475461958102475e-01,0.000000000000000000e+00
5.090000000000000000e+02,7.438976249717735856e-01,0.000000000000000000e+00
5.100000000000000000e+02,3.822083830772191604e-01,0.000000000000000000e+00
5.110000000000000000e+02,8.746259521090463118e-02,0.000000000000000000e+00
5.120000000000000000e+02,-5.391920434768184001e-02,0.000000000000000000e+00
5.130000000000000000e+02,8.349551595874474264e-02,0.000000000000000000e+00
5.140000000000000000e+02,-1.956627853371855907e-01,0.000000000000000000e+00
5.150000000000000000e+02,-1.957140772782739735e-01,0.000000000000000000e+00
5.160000000000000000e+02,-1.371653606432163830e-01,0.000000000000000000e+00
5.170000000000000000e+02,-1.661927759499793045e-01,0.000000000000000000e+00
5.180000000000000000e+02,-2.038884641251174634e-01,0.000000000000000000e+00
5.190000000000000000e+02,-9.385702090447262114e-02,0.000000000000000000e+00
5.200000000000000000e+02,3.504605281626129581e-02,0.000000000000000000e+00
5.210000000000000000e+02,2.498833736641589004e-02,0.000000000000000000e+00
5.220000000000000000e+02,1.706852143629686291e-03,0.000000000000000000e+00
5.230000000000000000e+02,2.043098397811789757e-01,0.000000000000000000e+00
5.240000000000000000e+02,-1.592538281641332418e-02,0.000000000000000000e+00
5.250000000000000000e+02,3.861972741711252460e-02,0.000000000000000000e+00
5.260000000000000000e+02,1.949020345411806021e-01,0.000000000000000000e+00
5.270000000000000000e+02,9.933194765300219775e-02,0.000000000000000000e+00
5.280000000000000000e+02,5.155285321533895071e-02,0.000000000000000000e+00
5.290000000000000000e+02,1.709596332516730155e-02,0.000000000000000000e+00
5.300000000000000000e+02,1.385063378026860359e-01,0.000000000000000000e+00
5.310000000000000000e+02,4.166782633484057696e-03,0.000000000000000000e+00
5.320000000000000000e+02,1.944391648425113361e-01,0.000000000000000000e+00
5.330000000000000000e+02,2.181286285807548242e-01,0.000000000000000000e+00
5.340000000000000000e+02,3.297178277211693653e-01,0.000000000000000000e+00
5.350000000000000000e+02,2.164004556289699233e-01,0.000000000000000000e+00
5.360000000000000000e+02,2.891338677011044966e-01,0.000000000000000000e+00
5.370000000000000000e+02,5.432561548583516586e-01,0.000000000000000000e+00
5.380000000000000000e+02,2.086015865339114206e-01,0.000000000000000000e+00
5.390000000000000000e+02,3.966564931228704904e-01,0.000000000000000000e+00
5.400000000000000000e+02,-2.151313216397428840e-01,0.000000000000000000e+00
5.410000000000000000e+02,-8.799800144728540940e-02,0.000000000000000000e+00
5.420000000000000000e+02,-2.500551645881358143e-01,0.000000000000000000e+00
5.430000000000000000e+02,9.156747162142861440e-02,0.000000000000000000e+00
5.440000000000000000e+02,-6.332395191120135380e-02,0.000000000000000000e+00
5.450000000000000000e+02,5.777325604235143963e+00,0.000000000000000000e+00
5.460000000000000000e+02,2.622387426187688053e+00,1.000000000000000000e+00
5.470000000000000000e+02,-6.454912363204515779e-01,0.000000000000000000e+00
5.480000000000000000e+02,-8.259481377338305785e-01,0.000000000000000000e+00
5.490000000000000000e+02,-1.620196614356863130e+00,0.000000000000000000e+00
5.500000000000000000e+02,-1.288200751116324261e+00,0.000000000000000000e+00
5.510000000000000000e+02,-1.394610239047228140e+00,0.000000000000000000e+00
5.520000000000000000e+02,-9.887059374110549470e-01,0.000000000000000000e+00
5.530000000000000000e+02,-9.253654985212993456e-01,0.000000000000000000e+00
5.540000000000000000e+02,-7.953884751411620657e-01,0.000000000000000000e+00
5.550000000000000000e+02,-7.768599265653688413e-01,0.000000000000000000e+00
5.560000000000000000e+02,-8.124072489165982125e-01,0.000000000000000000e+00
5.570000000000000000e+02,-6.090439512654165499e-01,0.000000000000000000e+00
5.580000000000000000e+02,-3.035351387074003982e-01,0.000000000000000000e+00
5.590000000000000000e+02,-3.966666944917460191e-01,0.000000000000000000e+00
5.600000000000000000e+02,-1.305452803825339347e-01,0.000000000000000000e+00
5.610000000000000000e+02,4.606331599650853245e-03,0.000000000000000000e+00
5.620000000000000000e+02,1.681679118903814940e-01,0.000000000000000000e+00
5.630000000000000000e+02,1.831116818949001246e-01,0.000000000000000000e+00
5.640000000000000000e+02,5.172102811147785140e-01,0.000000000000000000e+00
5.650000000000000000e+02,3.241379381077453270e-01,0.000000000000000000e+00
5.660000000000000000e+02,3.952177259404170834e-02,0.000000000000000000e+00
5.670000000000000000e+02,2.261710718248437398e-03,0.000000000000000000e+00
5.680000000000000000e+02,-2.654049927930802744e-01,0.000000000000000000e+00
5.690000000000000000e+02,-3.309692446629917684e-01,0.000000000000000000e+00
5.700000000000000000e+02,-1.270015667729817166e-01,0.000000000000000000e+00
5.710000000000000000e+02,-2.935849764436883058e-01,0.000000000000000000e+00
5.720000000000000000e+02,-8.887659081885591894e-02,0.000000000000000000e+00
5.730000000000000000e+02,-2.854385853844374279e-02,0.000000000000000000e+00
5.740000000000000000e+02,5.442430049484604099e-02,0.000000000000000000e+00
5.750000000000000000e+02,1.000639881208739979e-01,0.000000000000000000e+00
5.760000000000000000e+02,-3.576588470082069093e-02,0.000000000000000000e+00
5.770000000000000000e+02,4.418131171883704633e-01,0.000000000000000000e+00
5.780000000000000000e+02,1.085703919842726378e-01,0.000000000000000000e+00
5.790000000000000000e+02,2.435470844432805204e-01,0.000000000000000000e+00
5.800000000000000000e+02,2.220536821121283366e-01,0.000000000000000000e+00
5.810000000000000000e+02,-1.695207750667461488e-02,0.000000000000000000e+00
5.820000000000000000e+02,-1.188890618950328298e-01,0.000000000000000000e+00
5.830000000000000000e+02,2.782463012346580652e-02,0.000000000000000000e+00
5.840000000000000000e+02,5.938160836791124726e-03,0.000000000000000000e+00
5.850000000000000000e+02,9.537821762302406414e-02,0.000000000000000000e+00
5.860000000000000000e+02,6.761173401931908078e-02,0.000000000000000000e+00
5.870000000000000000e+02,1.271431785285838667e-01,0.000000000000000000e+00
5.880000000000000000e+02,9.494243854320703890e-02,0.000000000000000000e+00
5.890000000000000000e+02,3.117129021086558205e-01,0.000000000000000000e+00
5.900000000000000000e+02,2.570105468734021348e-01,0.000000000000000000e+00
5.910000000000000000e+02,4.852676115049993077e-01,0.000000000000000000e+00
5.920000000000000000e+02,4.311365392249095208e-01,0.000000000000000000e+00
5.930000000000000000e+02,5.595543072908186755e-01,0.000000000000000000e+00
5.940000000000000000e+02,-8.071937563829974238e-02,0.000000000000000000e+00
5.950000000000000000e+02,-4.725448238797451406e-02,0.000000000000000000e+00
5.960000000000000000e+02,-3.882529421227948752e-01,0.000000000000000000e+00
5.970000000000000000e+02,2.714268302951157730e-01,0.000000000000000000e+00
5.980000000000000000e+02,-3.623177241221089973e-01,0.000000000000000000e+00
5.990000000000000000e+02,3.745554527216686580e+00,0.000000000000000000e+00
6.000000000000000000e+02,4.601171574153654298e+00,0.000000000000000000e+00
6.010000000000000000e+02,5.089200852626777488e-02,1.000000000000000000e+00
6.020000000000000000e+02,-4.585779744319115614e-01,0.000000000000000000e+00
6.030000000000000000e+02,-1.656082999944398892e+00,0.000000000000000000e+00
6.040000000000000000e+02,-1.100927500530880954e+00,0.000000000000000000e+00
6.050000000000000000e+02,-1.453871211790185081e+00,0.000000000000000000e+00
6.060000000000000000e+02,-8.677864632305836157e-01,0.000000000000000000e+00
6.070000000000000000e+02,-1.209250232155014482e+00,0.000000000000000000e+00
6.080000000000000000e+02,-6.959233083506989326e-01,0.000000000000000000e+00
6.090000000000000000e+02,-8.347048992313098603e-01,0.000000000000000000e+00
6.100000000000000000e+02,-6.914566355697034927e-01,0.000000000000000000e+00
6.110000000000000000e+02,-4.370644039424085858e-01,0.000000000000000000e+00
6.120000000000000000e+02,-3.221915203072029388e-01,0.000000000000000000e+00
6.130000000000000000e+02,-4.134730449848068590e-01,0.000000000000000000e+00
6.140000000000000000e+02,-6.615566805259558147e-02,0.000000000000000000e+00
6.150000000000000000e+02,-1.141026523275159854e-01,0.000000000000000000e+00
6.160000000000000000e+02,2.326622515585100026e-01,0.000000000000000000e+00
6.170000000000000000e+02,2.318687759090953260e-01,0.000000000000000000e+00
6.180000000000000000e+02,4.750860993791273246e-01,0.000000000000000000e+00
6.190000000000000000e+02,2.901656579948841408e-01,0.000000000000000000e+00
6.200000000000000000e+02,2.219366540889561590e-01,0.000000000000000000e+00
6.210000000000000000e+02,4.850334799006345010e-03,0.000000000000000000e+00
6.220000000000000000e+02,9.536621280940478507e-02,0.000000000000000000e+00
6.230000000000000000e+02,-1.184437750888315127e-01,0.000000000000000000e+00
6.240000000000000000e+02,-1.326465500157314459e-01,0.000000000000000000e+00
6.250000000000000000e+02,-1.546783365429444390e-01,0.000000000000000000e+00
6.260000000000000000e+02,2.573955738228361767e-02,0.000000000000000000e+00
6.270000000000000000e+02,-1.281249227660747336e-01,0.000000000000000000e+00
6.280000000000000000e+02,-5.823733326787604303e-02,0.000000000000000000e+00
6.290000000000000000e+02,-2.070620739598720214e-02,0.000000000000000000e+00
6.300000000000000000e+02,-1.813678176205750781e-01,0.000000000000000000e+00
6.310000000000000000e+02,1.647459406068361165e-01,0.000000000000000000e+00
6.320000000000000000e+02,2.787183220268604940e-03,0.000000000000000000e+00
6.330000000000000000e+02,-8.480516983385215368e-02,0.000000000000000000e+00
6.340000000000000000e+02,1.167976173215165975e-01,0.000000000000000000e+00
6.350000000000000000e+02,7.355843802398408064e-03,0.000000000000000000e+00
6.360000000000000000e+02,-5.258727013180902743e-02,0.000000000000000000e+00
6.370000000000000000e+02,-5.032156738094434312e-02,0.000000000000000000e+00
6.380000000000000000e+02,-7.407064957435241515e-02,0.000000000000000000e+00
6.390000000000000000e+02,-1.659825303731082280e-01,0.000000000000000000e+00
6.400000000000000000e+02,-2.801322001123482050e-02,0.000000000000000000e+00
6.410000000000000000e+02,8.062395345294232421e-03,0.000000000000000000e+00
6.420000000000000000e+02,-6.197572909565318006e-02,0.000000000000000000e+00
6.430000000000000000e+02,-4.481015319076298020e-02,0.000000000000000000e+00
6.440000000000000000e+02,-1.521199309964855161e-02,0.000000000000000000e+00
6.450000000000000000e+02,-1.494023370597232989e-02,0.000000000000000000e+00
6.460000000000000000e+02,1.455107103180729167e-01,0.000000000000000000e+00
6.470000000000000000e+02,3.130608505203355540e-01,0.000000000000000000e+00
6.480000000000000000e+02,2.973810521405151341e-01,0.000000000000000000e+00
6.490000000000000000e+02,2.120069795258619494e-01,0.000000000000000000e+00
6.500000000000000000e+02,-2.021116460327460895e-01,0.000000000000000000e+00
6.510000000000000000e+02,-1.605772514689827457e-01,0.000000000000000000e+00
6.520000000000000000e+02,-2.174627169205461674e-01,0.000000000000000000e+00
6.530000000000000000e+02,-1.358261075498228276e-01,0.000000000000000000e+00
6.540000000000000000e+02,-6.265065149628093466e-02,0.000000000000000000e+00
6.550000000000000000e+02,4.772715148649982808e+00,0.000000000000000000e+00
6.560000000000000000e+02,3.798583783270161884e+00,1.000000000000000000e+00
6.570000000000000000e+02,1.755505834924901976e-01,0.000000000000000000e+00
6.580000000000000000e+02,-9.047051133494288244e-01,0.000000000000000000e+00
6.590000000000000000e+02,-1.950316603133442461e+00,0.000000000000000000e+00
6.600000000000000000e+02,-1.452816181908533455e+00,0.000000000000000000e+00
6.610000000000000000e+02,-1.610486564680277954e+00,0.000000000000000000e+00
6.620000000000000000e+02,-1.352983003335012313e+00,0.000000000000000000e+00
6.630000000000000000e+02,-1.085469343641543460e+00,0.000000000000000000e+00
6.640000000000000000e+02,-8.248762427889024806e-01,0.000000000000000000e+00
6.650000000000000000e+02,-1.144446959504314298e+00,0.000000000000000000e+00
6.660000000000000000e+02,-6.543606700813064947e-01,0.000000000000000000e+00
6.670000000000000000e+02,-8.114003839661717565e-01,0.000000000000000000e+00
6.680000000000000000e+02,-3.717041801667541612e-01,0.000000000000000000e+00
6.690000000000000000e+02,-4.292814979582357804e-01,0.000000000000000000e+00
6.700000000000000000e+02,1.050992999253856364e-01,0.000000000000000000e+00
6.710000000000000000e+02,-2.106850944875934273e-01,0.000000000000000000e+00
6.720000000000000000e+02,2.148419770897040948e-01,0.000000000000000000e+00
6.730000000000000000e+02,2.653398447596942433e-01,0.000000000000000000e+00
6.740000000000000000e+02,4.442677902838316761e-01,0.000000000000000000e+00
6.750000000000000000e+02,6.388280932158204584e-01,0.000000000000000000e+00
6.760000000000000000e+02,3.306236072944761517e-01,0.000000000000000000e+00
6.770000000000000000e+02,1.197636069111942952e-01,0.000000000000000000e+00
6.780000000000000000e+02,3.964856973796057060e-01,0.000000000000000000e+00
6.790000000000000000e+02,3.265023573653079714e-01,0.000000000000000000e+00
6.800000000000000000e+02,4.144675810480438760e-01,0.000000000000000000e+00
6.810000000000000000e+02,3.087134319688028539e-01,0.000000000000000000e+00
6.820000000000000000e+02,2.819135217148596162e-01,0.000000000000000000e+00
6.830000000000000000e+02,2.549913750879397867e-01,0.000000000000000000e+00
6.840000000000000000e+02,1.683662161867909568e-01,0.000000000000000000e+00
6.850000000000000000e+02,7.256253436832577064e-02,0.000000000000000000e+00
6.860000000000000000e+02,1.752056374775751157e-01,0.000000000000000000e+00
6.870000000000000000e+02,1.845679747124500669e-01,0.000000000000000000e+00
6.880000000000000000e+02,3.074272770893633488e-01,0.000000000000000000e+00
6.890000000000000000e+02,2.297999478299533049e-01,0.000000000000000000e+00
6.900000000000000000e+02,3.528177021526528873e-02,0.000000000000000000e+00
6.910000000000000000e+02,2.056857705605285858e-01,0.000000000000000000e+00
6.920000000000000000e+02,-9.421254431969235121e-03,0.000000000000000000e+00
6.930000000000000000e+02,2.837378376070872135e-02,0.000000000000000000e+00
6.940000000000000000e+02,3.525595196629526754e-03,0.000000000000000000e+00
6.950000000000000000e+02,2.685563497096444749e-02,0.000000000000000000e+00
6.960000000000000000e+02,2.123240113519587330e-02,0.000000000000000000e+00
6.970000000000000000e+02,7.670678216302948861e-03,0.000000000000000000e+00
6.980000000000000000e+02,-2.427927833331905080e-03,0.000000000000000000e+00
6.990000000000000000e+02,-9.630379526234213172e-02,0.000000000000000000e+00
7.000000000000000000e+02,1.176496757317415515e-01,0.000000000000000000e+00
7.010000000000000000e+02,1.853738992243721406e-01,0.000000000000000000e+00
7.020000000000000000e+02,7.047473767226492686e-03,0.000000000000000000e+00
7.030000000000000000e+02,4.919201113833442940e-01,0.000000000000000000e+00
7.040000000000000000e+02,2.762830919600167343e-02,0.000000000000000000e+00
7.050000000000000000e+02,8.770405086264493333e-02,0.000000000000000000e+00
7.060000000000000000e+02,-4.160795681309205629e-01,0.000000000000000000e+00
7.070000000000000000e+02,-2.096231204475413612e-01,0.000000000000000000e+00
7.080000000000000000e+02,-4.679467409256028443e-01,0.000000000000000000e+00
7.090000000000000000e+02,-3.248017089069087926e-01,0.000000000000000000e+00
7.100000000000000000e+02,3.633646866299234945e-01,0.000000000000000000e+00
7.110000000000000000e+02,5.612188542281351999e+00,0.000000000000000000e+00
7.120000000000000000e+02,2.618542412258504815e+00,1.000000000000000000e+00
7.130000000000000000e+02,-5.765215644576656695e-01,0.000000000000000000e+00
7.140000000000000000e+02,-1.123566734404222833e+00,0.000000000000000000e+00
7.150000000000000000e+02,-2.048371940561538818e+00,0.000000000000000000e+00
7.160000000000000000e+02,-1.478606539375935558e+00,0.000000000000000000e+00
7.170000000000000000e+02,-1.345248654024648438e+00,0.000000000000000000e+00
7.180000000000000000e+02,-1.275882377466169837e+00,0.000000000000000000e+00
7.190000000000000000e+02,-1.178025005467995046e+00,0.000000000000000000e+00
7.200000000000000000e+02,-8.379863648426598699e-01,0.000000000000000000e+00
7.210000000000000000e+02,-9.817768109638632668e-01,0.000000000000000000e+00
7.220000000000000000e+02,-7.433573034715096339e-01,0.000000000000000000e+00
7.230000000000000000e+02,-5.763581920211559018e-01,0.000000000000000000e+00
7.240000000000000000e+02,-4.244895742528504989e-01,0.000000000000000000e+00
7.250000000000000000e+02,-5.318048387497771312e-01,0.000000000000000000e+00
7.260000000000000000e+02,-2.434315004061744225e-01,0.000000000000000000e+00
7.270000000000000000e+02,-3.205640327217208485e-01,0.000000000000000000e+00
7.280000000000000000e+02,-8.051744994945250755e-02,0.000000000000000000e+00
7.290000000000000000e+02,-1.357247557042702210e-02,0.000000000000000000e+00
7.300000000000000000e+02,4.553103328568639530e-01,0.000000000000000000e+00
7.310000000000000000e+02,2.909428991051888347e-01,0.000000000000000000e+00
7.320000000000000000e+02,1.115176420681729119e-01,0.000000000000000000e+00
7.330000000000000000e+02,-1.430758073880355752e-01,0.000000000000000000e+00
7.340000000000000000e+02,-7.758803494347130125e-02,0.000000000000000000e+00
7.350000000000000000e+02,-1.412086084491573357e-01,0.000000000000000000e+00
7.360000000000000000e+02,-1.301002517270954950e-01,0.000000000000000000e+00
7.370000000000000000e+02,-1.319358246491262321e-01,0.000000000000000000e+00
7.380000000000000000e+02,-9.195377127642220816e-02,0.000000000000000000e+00
7.390000000000000000e+02,3.675530087286432018e-02,0.000000000000000000e+00
7.400000000000000000e+02,6.093857072653637019e-02,0.000000000000000000e+00
7.410000000000000000e+02,2.035609296407587254e-01,0.000000000000000000e+00
7.420000000000000000e+02,1.378482956592264885e-01,0.000000000000000000e+00
7.430000000000000000e+02,3.030749890670408342e-01,0.000000000000000000e+00
7.440000000000000000e+02,1.704819863608924291e-01,0.000000000000000000e+00
7.450000000000000000e+02,3.908057018304869068e-01,0.000000000000000000e+00
7.460000000000000000e+02,4.254021022121783902e-01,0.000000000000000000e+00
7.470000000000000000e+02,3.202199305435706189e-01,0.000000000000000000e+00
7.480000000000000000e+02,3.223752268743330651e-01,0.000000000000000000e+00
7.490000000000000000e+02,3.306146578863818908e-01,0.000000000000000000e+00
7.500000000000000000e+02,3.519619920190609208e-01,0.000000000000000000e+00
7.510000000000000000e+02,1.894473974713532793e-01,0.000000000000000000e+00
7.520000000000000000e+02,4.794876759850124626e-01,0.000000000000000000e+00
7.530000000000000000e+02,4.200694252616332114e-01,0.000000000000000000e+00
7.540000000000000000e+02,5.857217461112884660e-01,0.000000000000000000e+00
7.550000000000000000e+02,4.703337081720561086e-01,0.000000000000000000e+00
7.560000000000000000e+02,6.160569349458945299e-01,0.000000000000000000e+00
7.570000000000000000e+02,8.846219252873986916e-01,0.000000000000000000e+00
7.580000000000000000e+02,4.049669342207336542e-01,0.000000000000000000e+00
7.590000000000000000e+02,5.967551073226003977e-01,0.000000000000000000e+00
7.600000000000000000e+02,3.685513917231824088e-01,0.000000000000000000e+00
7.610000000000000000e+02,2.526737171753482003e-01,0.000000000000000000e+00
7.620000000000000000e+02,-2.996948581533332989e-01,0.000000000000000000e+00
7.630000000000000000e+02,3.536618290764667605e-01,0.000000000000000000e+00
7.640000000000000000e+02,-3.940336846318634456e-01,0.000000000000000000e+00
7.650000000000000000e+02,2.422292153491835354e+00,0.000000000000000000e+00
7.660000000000000000e+02,5.438529389476831177e+00,0.000000000000000000e+00
7.670000000000000000e+02,4.272506102964027663e-01,1.000000000000000000e+00
7.680000000000000000e+02,-4.626241373461526529e-01,0.000000000000000000e+00
7.690000000000000000e+02,-1.348762511640184902e+00,0.000000000000000000e+00
7.700000000000000000e+02,-1.151918736465491255e+00,0.000000000000000000e+00
7.710000000000000000e+02,-1.414847329922580554e+00,0.000000000000000000e+00
7.720000000000000000e+02,-1.064997765364823490e+00,0.000000000000000000e+00
7.730000000000000000e+02,-1.018699508235358930e+00,0.000000000000000000e+00
7.740000000000000000e+02,-8.384181446037595187e-01,0.000000000000000000e+00
7.750000000000000000e+02,-7.922224204842890360e-01,0.000000000000000000e+00
7.760000000000000000e+02,-5.865089583546421181e-01,0.000000000000000000e+00
7.770000000000000000e+02,-6.242442804251427946e-01,0.000000000000000000e+00
7.780000000000000000e+02,-4.963136818350264434e-01,0.000000000000000000e+00
7.790000000000000000e+02,-4.454555177465630011e-01,0.000000000000000000e+00
7.800000000000000000e+02,-4.353656266238410677e-02,0.000000000000000000e+00
7.810000000000000000e+02,-2.415030483685837726e-01,0.000000000000000000e+00
7.820000000000000000e+02,2.369681245689206905e-01,0.000000000000000000e+00
7.830000000000000000e+02,-1.862627805448152304e-02,0.000000000000000000e+00
7.840000000000000000e+02,3.807087952711910583e-01,0.000000000000000000e+00
7.850000000000000000e+02,3.364437302079808512e-01,0.000000000000000000e+00
7.860000000000000000e+02,2.042590190253995852e-01,0.000000000000000000e+00
7.870000000000000000e+02,-3.040801286432893158e-01,0.000000000000000000e+00
7.880000000000000000e+02,-1.111106658934194608e-01,0.000000000000000000e+00
7.890000000000000000e+02,-4.813945055557845021e-01,0.000000000000000000e+00
7.900000000000000000e+02,-3.687269587054616271e-01,0.000000000000000000e+00
7.910000000000000000e+02,-5.653286493663851608e-01,0.000000000000000000e+00
7.920000000000000000e+02,-2.225801053445924382e-01,0.000000000000000000e+00
7.930000000000000000e+02,-2.545102719617600706e-01,0.000000000000000000e+00
7.940000000000000000e+02,-2.201256356494110666e-01,0.000000000000000000e+00
7.950000000000000000e+02,9.289031619219345615e-02,0.000000000000000000e+00
7.960000000000000000e+02,-8.819379407693721251e-02,0.000000000000000000e+00
7.970000000000000000e+02,-1.458490281688525070e-01,0.000000000000000000e+00
7.980000000000000000e+02,1.594658221195634565e-02,0.000000000000000000e+00
7.990000000000000000e+02,-1.961168469927267177e-01,0.000000000000000000e+00
8.000000000000000000e+02,6.383587440111997136e-02,0.000000000000000000e+00
8.010000000000000000e+02,-1.492777438268922952e-01,0.000000000000000000e+00
8.020000000000000000e+02,-2.513516833373860213e-02,0.000000000000000000e+00
8.030000000000000000e+02,-1.991707928277211548e-01,0.000000000000000000e+00
8.040000000000000000e+02,8.743338752240018344e-03,0.000000000000000000e+00
8.050000000000000000e+02,-2.028615233140975138e-01,0.000000000000000000e+00
8.060000000000000000e+02,2.011904091217256094e-02,0.000000000000000000e+00
8.070000000000000000e+02,-1.038315424949296795e-01,0.000000000000000000e+00
8.080000000000000000e+02,8.920720721841253475e-02,0.000000000000000000e+00
8.090000000000000000e+02,-6.342707508191736121e-02,0.000000000000000000e+00
8.100000000000000000e+02,1.442166842994455911e-01,0.000000000000000000e+00
8.110000000000000000e+02,6.805905218130627043e-02,0.000000000000000000e+00
8.120000000000000000e+02,5.238480667764425780e-01,0.000000000000000000e+00
8.130000000000000000e+02,2.314222679546658057e-01,0.000000000000000000e+00
8.140000000000000000e+02,4.378801825787364543e-01,0.000000000000000000e+00
8.150000000000000000e+02,-8.466587561572429255e-02,0.000000000000000000e+00
8.160000000000000000e+02,-1.879886735186285796e-01,0.000000000000000000e+00
8.170000000000000000e+02,-3.156006142692604488e-01,0.000000000000000000e+00
8.180000000000000000e+02,-1.743784117063644154e-02,0.000000000000000000e+00
8.190000000000000000e+02,-3.867442494922150864e-01,0.000000000000000000e+00
8.200000000000000000e+02,2.190085081506053299e+00,0.000000000000000000e+00
8.210000000000000000e+02,5.346024893751712526e+00,0.000000000000000000e+00
8.220000000000000000e+02,1.347997477123928034e+00,1.000000000000000000e+00
8.230000000000000000e+02,-4.421237927376837074e-01,0.000000000000000000e+00
8.240000000000000000e+02,-1.746976825710261805e+00,0.000000000000000000e+00
8.250000000000000000e+02,-1.358403199129767147e+00,0.000000000000000000e+00
8.260000000000000000e+02,-1.622887081224505978e+00,0.000000000000000000e+00
8.270000000000000000e+02,-1.101554394604457698e+00,0.000000000000000000e+00
8.280000000000000000e+02,-1.149349357838976848e+00,0.000000000000000000e+00
8.290000000000000000e+02,-1.056504211373039182e+00,0.000000000000000000e+00
8.300000000000000000e+02,-9.082345621341544328e-01,0.000000000000000000e+00
8.310000000000000000e+02,-1.030104840844078717e+00,0.000000000000000000e+00
8.320000000000000000e+02,-5.456763797040898867e-01,0.000000000000000000e+00
8.330000000000000000e+02,-5.007503676418899596e-01,0.000000000000000000e+00
8.340000000000000000e+02,-4.015287637129894005e-01,0.000000000000000000e+00
8.350000000000000000e+02,-1.536754468807496887e-01,0.000000000000000000e+00
8.360000000000000000e+02,-1.556013408579463297e-01,0.000000000000000000e+00
8.370000000000000000e+02,-6.747542324086160115e-02,0.000000000000000000e+00
8.380000000000000000e+02,4.868456523161185379e-02,0.000000000000000000e+00
8.390000000000000000e+02,3.985958894020688592e-01,0.000000000000000000e+00
8.400000000000000000e+02,5.774148716669130765e-01,0.000000000000000000e+00
8.410000000000000000e+02,4.108078262011320425e-01,0.000000000000000000e+00
8.420000000000000000e+02,1.057071618280185782e-01,0.000000000000000000e+00
8.430000000000000000e+02,-2.026903409823488378e-02,0.000000000000000000e+00
8.440000000000000000e+02,3.014468471812783296e-02,0.000000000000000000e+00
8.450000000000000000e+02,-1.246567477699147275e-01,0.000000000000000000e+00
8.460000000000000000e+02,6.787715372506793188e-02,0.000000000000000000e+00
8.470000000000000000e+02,-1.331760581383173436e-01,0.000000000000000000e+00
8.480000000000000000e+02,-1.054096293416222907e-01,0.000000000000000000e+00
8.490000000000000000e+02,-2.713717770341450911e-02,0.000000000000000000e+00
8.500000000000000000e+02,-3.452658952682973684e-03,0.000000000000000000e+00
8.510000000000000000e+02,-6.564127375432733669e-02,0.000000000000000000e+00
8.520000000000000000e+02,1.048218902358032251e-01,0.000000000000000000e+00
8.530000000000000000e+02,1.583590963695274689e-01,0.000000000000000000e+00
8.540000000000000000e+02,2.831728324803081120e-01,0.000000000000000000e+00
8.550000000000000000e+02,-1.515250390446416405e-03,0.000000000000000000e+00
8.560000000000000000e+02,1.986217199692493773e-01,0.000000000000000000e+00
8.570000000000000000e+02,1.582611363224000756e-01,0.000000000000000000e+00
8.580000000000000000e+02,2.963631341126561347e-01,0.000000000000000000e+00
8.590000000000000000e+02,1.189280712409663265e-01,0.000000000000000000e+00
8.600000000000000000e+02,2.220189652790981183e-01,0.000000000000000000e+00
8.610000000000000000e+02,1.436648736643766355e-01,0.000000000000000000e+00
8.620000000000000000e+02,1.362794482487953429e-01,0.000000000000000000e+00
8.630000000000000000e+02,9.740746509195373493e-02,0.000000000000000000e+00
8.640000000000000000e+02,2.035148378139442771e-01,0.000000000000000000e+00
8.650000000000000000e+02,1.832976190742582889e-01,0.000000000000000000e+00
8.660000000000000000e+02,5.667251698424334849e-01,0.000000000000000000e+00
8.670000000000000000e+02,2.010152439097037669e-01,0.000000000000000000e+00
8.680000000000000000e+02,6.331961141313653396e-01,0.000000000000000000e+00
8.690000000000000000e+02,3.278190398243943093e-01,0.000000000000000000e+00
8.700000000000000000e+02,4.450690069593041809e-01,0.000000000000000000e+00
8.710000000000000000e+02,-1.567459348424019711e-02,0.000000000000000000e+00
8.720000000000000000e+02,4.775536904983194997e-02,0.000000000000000000e+00
8.730000000000000000e+02,-4.022757340281822858e-01,0.000000000000000000e+00
8.740000000000000000e+02,3.558534802622577153e-01,0.000000000000000000e+00
8.750000000000000000e+02,-6.359546631729461330e-01,0.000000000000000000e+00
8.760000000000000000e+02,2.960353252810271840e+00,0.000000000000000000e+00
8.770000000000000000e+02,5.479683669180483108e+00,0.000000000000000000e+00
8.780000000000000000e+02,8.038705298266111132e-01,1.000000000000000000e+00
8.790000000000000000e+02,-3.404335881971676803e-01,0.000000000000000000e+00
8.800000000000000000e+02,-1.685291620392882717e+00,0.000000000000000000e+00
8.810000000000000000e+02,-1.478793623351143616e+00,0.000000000000000000e+00
8.820000000000000000e+02,-1.638469878223738796e+00,0.000000000000000000e+00
8.830000000000000000e+02,-1.255308666617113156e+00,0.000000000000000000e+00
8.840000000000000000e+02,-1.149029492002795694e+00,0.000000000000000000e+00
8.850000000000000000e+02,-9.675904102675044749e-01,0.000000000000000000e+00
8.860000000000000000e+02,-9.788002886601083752e-01,0.000000000000000000e+00
8.870000000000000000e+02,-7.296909456273066308e-01,0.000000000000000000e+00
8.880000000000000000e+02,-6.496538438582140085e-01,0.000000000000000000e+00
8.890000000000000000e+02,-4.923779449136401198e-01,0.000000000000000000e+00
8.900000000000000000e+02,-3.703147019292475917e-01,0.000000000000000000e+00
8.910000000000000000e+02,-2.517624767173292089e-01,0.000000000000000000e+00
8.920000000000000000e+02,-9.799725831219464889e-02,0.000000000000000000e+00
8.930000000000000000e+02,1.873368438733894470e-01,0.000000000000000000e+00
8.940000000000000000e+02,1.633487750268683425e-01,0.000000000000000000e+00
8.950000000000000000e+02,4.253658603791363180e-01,0.000000000000000000e+00
8.960000000000000000e+02,6.382910253858274929e-01,0.000000000000000000e+00
8.970000000000000000e+02,2.667928551030455675e-01,0.000000000000000000e+00
8.980000000000000000e+02,1.376204325021835873e-01,0.000000000000000000e+00
8.990000000000000000e+02,6.354333513375226561e-02,0.000000000000000000e+00
9.000000000000000000e+02,-6.018886473664684239e-02,0.000000000000000000e+00
9.010000000000000000e+02,-7.233308261922997973e-02,0.000000000000000000e+00
9.020000000000000000e+02,-2.707018064100257249e-01,0.000000000000000000e+00
9.030000000000000000e+02,-1.458099546023344795e-01,0.000000000000000000e+00
9.040000000000000000e+02,-2.067542133648351266e-01,0.000000000000000000e+00
9.050000000000000000e+02,-3.132929359575722383e-01,0.000000000000000000e+00
9.060000000000000000e+02,-1.370338154862475732e-01,0.000000000000000000e+00
9.070000000000000000e+02,4.806485162274330702e-02,0.000000000000000000e+00
9.080000000000000000e+02,1.433114270825906200e-01,0.000000000000000000e+00
9.090000000000000000e+02,-5.954207512019234205e-02,0.000000000000000000e+00
9.100000000000000000e+02,3.490347200324301485e-02,0.000000000000000000e+00
9.110000000000000000e+02,-1.024536712303067559e-01,0.000000000000000000e+00
9.120000000000000000e+02,-4.770486339008270932e-02,0.000000000000000000e+00
9.130000000000000000e+02,2.428942068756226591e-01,0.000000000000000000e+00
9.140000000000000000e+02,1.109156039222749662e-01,0.000000000000000000e+00
9.150000000000000000e+02,-1.134518580780830566e-01,0.000000000000000000e+00
9.160000000000000000e+02,1.243027732872701574e-01,0.000000000000000000e+00
9.170000000000000000e+02,-1.062940284627662130e-02,0.000000000000000000e+00
9.180000000000000000e+02,9.932747767347763213e-02,0.000000000000000000e+00
9.190000000000000000e+02,1.163987559668842875e-01,0.000000000000000000e+00
9.200000000000000000e+02,1.292795712215880910e-01,0.000000000000000000e+00
9.210000000000000000e+02,1.697380412310462994e-01,0.000000000000000000e+00
9.220000000000000000e+02,3.283805756825649569e-01,0.000000000000000000e+00
9.230000000000000000e+02,2.531496425328693678e-01,0.000000000000000000e+00
9.240000000000000000e+02,5.212097093696589356e-01,0.000000000000000000e+00
9.250000000000000000e+02,2.757474093955867844e-01,0.000000000000000000e+00
9.260000000000000000e+02,1.861762277321009906e-01,0.000000000000000000e+00
9.270000000000000000e+02,-1.224283256106211970e-01,0.000000000000000000e+00
9.280000000000000000e+02,-1.393716657639072209e-01,0.000000000000000000e+00
9.290000000000000000e+02,-2.211145670237726069e-01,0.000000000000000000e+00
9.300000000000000000e+02,-1.184401364040962717e-01,0.000000000000000000e+00
9.310000000000000000e+02,4.052591653488613610e-01,0.000000000000000000e+00
9.320000000000000000e+02,5.730261544127780660e+00,0.000000000000000000e+00
9.330000000000000000e+02,1.940388640483958316e+00,1.000000000000000000e+00
9.340000000000000000e+02,-6.822942437850706421e-01,0.000000000000000000e+00
9.350000000000000000e+02,-1.012593448255070694e+00,0.000000000000000000e+00
9.360000000000000000e+02,-1.485824915658813916e+00,0.000000000000000000e+00
9.370000000000000000e+02,-1.376155958813733315e+00,0.000000000000000000e+00
9.380000000000000000e+02,-1.096457159569435236e+00,0.000000000000000000e+00
9.390000000000000000e+02,-1.125616912670498238e+00,0.000000000000000000e+00
9.400000000000000000e+02,-9.176241824669257863e-01,0.000000000000000000e+00
9.410000000000000000e+02,-6.909665372616639045e-01,0.000000000000000000e+00
9.420000000000000000e+02,-7.932423023062438183e-01,0.000000000000000000e+00
9.430000000000000000e+02,-4.656724910901378078e-01,0.000000000000000000e+00
9.440000000000000000e+02,-4.616194594088924297e-01,0.000000000000000000e+00
9.450000000000000000e+02,-2.974345085031699920e-01,0.000000000000000000e+00
9.460000000000000000e+02,-1.597950873376104419e-01,0.000000000000000000e+00
9.470000000000000000e+02,-1.707827280415626786e-02,0.000000000000000000e+00
9.480000000000000000e+02,-1.831435406578894171e-02,0.000000000000000000e+00
9.490000000000000000e+02,3.918997352111581733e-01,0.000000000000000000e+00
9.500000000000000000e+02,4.274749716912222275e-01,0.000000000000000000e+00
9.510000000000000000e+02,4.244576029292123631e-01,0.000000000000000000e+00
9.520000000000000000e+02,2.890260507409884716e-01,0.000000000000000000e+00
9.530000000000000000e+02,1.349511406075456221e-01,0.000000000000000000e+00
9.540000000000000000e+02,-2.481397002269201124e-01,0.000000000000000000e+00
9.550000000000000000e+02,-1.618199326096551038e-01,0.000000000000000000e+00
9.560000000000000000e+02,-3.302880821258599164e-01,0.000000000000000000e+00
9.570000000000000000e+02,-2.253371729374020471e-01,0.000000000000000000e+00
9.580000000000000000e+02,-1.257331401135159676e-01,0.000000000000000000e+00
9.590000000000000000e+02,-1.595367977966496986e-01,0.000000000000000000e+00
9.600000000000000000e+02,-1.228409552404946120e-01,0.000000000000000000e+00
9.610000000000000000e+02,1.050000519581818781e-01,0.000000000000000000e+00
9.620000000000000000e+02,1.532381037864070927e-01,0.000000000000000000e+00
9.630000000000000000e+02,3.389019079494811487e-02,0.000000000000000000e+00
9.640000000000000000e+02,5.720015351983621932e-02,0.000000000000000000e+00
9.650000000000000000e+02,-6.310888356318454517e-02,0.000000000000000000e+00
9.660000000000000000e+02,-2.641540305097663660e-02,0.000000000000000000e+00
9.670000000000000000e+02,-6.327511348315814632e-02,0.000000000000000000e+00
9.680000000000000000e+02,7.950433347654063676e-02,0.000000000000000000e+00
9.690000000000000000e+02,-1.342908330619986268e-01,0.000000000000000000e+00
9.700000000000000000e+02,6.398106081403981404e-02,0.000000000000000000e+00
9.710000000000000000e+02,-3.666854479399958566e-02,0.000000000000000000e+00
9.720000000000000000e+02,1.152366191971137960e-01,0.000000000000000000e+00
9.730000000000000000e+02,-8.204966157379273151e-02,0.000000000000000000e+00
9.740000000000000000e+02,1.865726997769242834e-01,0.000000000000000000e+00
9.750000000000000000e+02,9.052866766797525166e-02,0.000000000000000000e+00
9.760000000000000000e+02,2.417170967073060950e-01,0.000000000000000000e+00
9.770000000000000000e+02,3.275099999368525916e-01,0.000000000000000000e+00
9.780000000000000000e+02,4.251646044568890281e-01,0.000000000000000000e+00
9.790000000000000000e+02,2.421955261829135397e-01,0.000000000000000000e+00
9.800000000000000000e+02,2.784931905564516086e-01,0.000000000000000000e+00
9.810000000000000000e+02,-1.285300145974470898e-01,0.000000000000000000e+00
9.820000000000000000e+02,-2.899037846175216496e-02,0.000000000000000000e+00
9.830000000000000000e+02,-3.895956840219215178e-01,0.000000000000000000e+00
9.840000000000000000e+02,1.295409507416742378e-01,0.000000000000000000e+00
9.850000000000000000e+02,-9.988370693261459932e-02,0.000000000000000000e+00
9.860000000000000000e+02,4.942511964972624128e+00,0.000000000000000000e+00
9.870000000000000000e+02,3.401287655874628335e+00,1.000000000000000000e+00
9.880000000000000000e+02,-2.228660684689725835e-01,0.000000000000000000e+00
9.890000000000000000e+02,-7.609486143192289997e-01,0.000000000000000000e+00
9.900000000000000000e+02,-1.536786389671747299e+00,0.000000000000000000e+00
9.910000000000000000e+02,-1.363610673881985091e+00,0.000000000000000000e+00
9.920000000000000000e+02,-1.364993645096955976e+00,0.000000000000000000e+00
9.930000000000000000e+02,-1.075451807433655205e+00,0.000000000000000000e+00
9.940000000000000000e+02,-1.093493551058595026e+00,0.000000000000000000e+00
9.950000000000000000e+02,-6.312530471062326454e-01,0.000000000000000000e+00
9.960000000000000000e+02,-9.777171982066036326e-01,0.000000000000000000e+00
9.970000000000000000e+02,-5.381016526936824862e-01,0.000000000000000000e+00
9.980000000000000000e+02,-5.091289602136477299e-01,0.000000000000000000e+00
9.990000000000000000e+02,-2.976682459285882043e-01,0.000000000000000000e+00
1.000000000000000000e+03,-3.212723915160477506e-01,0.000000000000000000e+00
1.001000000000000000e+03,-2.604817663287469290e-02,0.000000000000000000e+00
1.002000000000000000e+03,1.813473575962970263e-01,0.000000000000000000e+00
1.003000000000000000e+03,1.402679562268236424e-01,0.000000000000000000e+00
1.004000000000000000e+03,4.375153531236437576e-01,0.000000000000000000e+00
1.005000000000000000e+03,4.732775780027501100e-01,0.000000000000000000e+00
1.006000000000000000e+03,5.406306412546058038e-01,0.000000000000000000e+00
1.007000000000000000e+03,1.864882563824498685e-01,0.000000000000000000e+00
1.008000000000000000e+03,1.081251745017579452e-01,0.000000000000000000e+00
1.009000000000000000e+03,-1.530543896343802140e-02,0.000000000000000000e+00
1.010000000000000000e+03,-2.194912779452810880e-01,0.000000000000000000e+00
1.011000000000000000e+03,1.336309983624601842e-03,0.000000000000000000e+00
1.012000000000000000e+03,-1.480832803109402296e-01,0.000000000000000000e+00
1.013000000000000000e+03,-1.614783070863753389e-01,0.000000000000000000e+00
1.014000000000000000e+03,-7.984523470111343224e-02,0.000000000000000000e+00
1.015000000000000000e+03,1.503022424030165359e-02,0.000000000000000000e+00
1.016000000000000000e+03,-3.153419989071645779e-02,0.000000000000000000e+00
1.017000000000000000e+03,-3.534756045825209608e-02,0.000000000000000000e+00
1.018000000000000000e+03,5.961538876349854049e-02,0.000000000000000000e+00
1.019000000000000000e+03,1.101554570759445129e-01,0.000000000000000000e+00
1.020000000000000000e+03,1.526988891589984576e-01,0.000000000000000000e+00
1.021000000000000000e+03,-3.805429390408489321e-02,0.000000000000000000e+00
1.022000000000000000e+03,1.562119214023818259e-01,0.000000000000000000e+00
1.023000000000000000e+03,1.715741135592051270e-01,0.000000000000000000e+00
1.024000000000000000e+03,5.348046177192828515e-03,0.000000000000000000e+00
1.025000000000000000e+03,8.104833544682783775e-02,0.000000000000000000e+00
1.026000000000000000e+03,1.316658720299954122e-01,0.000000000000000000e+00
1.027000000000000000e+03,1.794161936390197346e-02,0.000000000000000000e+00
1.028000000000000000e+03,4.459436922937811548e-02,0.000000000000000000e+00
1.029000000000000000e+03,2.581368050418781923e-01,0.000000000000000000e+00
1.030000000000000000e+03,1.989476576916607842e-01,0.000000000000000000e+00
1.031000000000000000e+03,-6.841334719325848149e-03,0.000000000000000000e+00
1.032000000000000000e+03,2.091037406294685985e-01,0.000000000000000000e+00
1.033000000000000000e+03,2.055614174181014109e-01,0.000000000000000000e+00
1.034000000000000000e+03,5.839279230352115713e-01,0.000000000000000000e+00
1.035000000000000000e+03,4.007009002822526922e-01,0.000000000000000000e+00
1.036000000000000000e+03,2.976598768265327766e-01,0.000000000000000000e+00
1.037000000000000000e+03,-8.763094110225785882e-02,0.000000000000000000e+00
1.038000000000000000e+03,-1.348442082991805624e-01,0.000000000000000000e+00
1.039000000000000000e+03,-4.821819973316557317e-01,0.000000000000000000e+00
1.040000000000000000e+03,9.994611172073522565e-02,0.000000000000000000e+00
1.041000000000000000e+03,-3.382236089494807807e-01,0.000000000000000000e+00
1.042000000000000000e+03,2.692425171812350637e+00,0.000000000000000000e+00
1.043000000000000000e+03,5.338764376808247114e+00,0.000000000000000000e+00
1.044000000000000000e+03,9.101194150573415076e-01,1.000000000000000000e+00
1.045000000000000000e+03,-4.280378189198471572e-01,0.000000000000000000e+00
1.046000000000000000e+03,-1.841659457428600266e+00,0.000000000000000000e+00
1.047000000000000000e+03,-1.467869113572233708e+00,0.000000000000000000e+00
1.048000000000000000e+03,-1.515621802310056498e+00,0.000000000000000000e+00
1.049000000000000000e+03,-1.215448006649981760e+00,0.000000000000000000e+00
1.050000000000000000e+03,-1.270293672880933533e+00,0.000000000000000000e+00
1.051000000000000000e+03,-9.970147872803681866e-01,0.000000000000000000e+00
1.052000000000000000e+03,-9.679923082019634695e-01,0.000000000000000000e+00
1.053000000000000000e+03,-7.312627009492920216e-01,0.000000000000000000e+00
1.054000000000000000e+03,-6.625420799340614453e-01,0.000000000000000000e+00
1.055000000000000000e+03,-4.697542116323921157e-01,0.000000000000000000e+00
1.056000000000000000e+03,-3.964065340191058051e-01,0.000000000000000000e+00
1.057000000000000000e+03,-1.771449768551496828e-01,0.000000000000000000e+00
1.058000000000000000e+03,-1.833659851600513979e-01,0.000000000000000000e+00
1.059000000000000000e+03,1.139791874561080220e-01,0.000000000000000000e+00
1.060000000000000000e+03,4.557833019364525284e-02,0.000000000000000000e+00
1.061000000000000000e+03,6.025995101035853674e-01,0.000000000000000000e+00
1.062000000000000000e+03,7.827688961277211588e-01,0.000000000000000000e+00
1.063000000000000000e+03,7.256522540357750461e-01,0.000000000000000000e+00
1.064000000000000000e+03,2.751061935035778450e-01,0.000000000000000000e+00
1.065000000000000000e+03,2.467483737290967483e-01,0.000000000000000000e+00
1.066000000000000000e+03,-1.671944473191692426e-01,0.000000000000000000e+00
1.067000000000000000e+03,-1.602728689808467222e-01,0.000000000000000000e+00
1.068000000000000000e+03,-9.824217017603048552e-02,0.000000000000000000e+00
1.069000000000000000e+03,-1.695340246823711650e-01,0.000000000000000000e+00
1.070000000000000000e+03,-4.135688208555480250e-01,0.000000000000000000e+00
1.071000000000000000e+03,-3.336457429230778038e-01,0.000000000000000000e+00
1.072000000000000000e+03,-1.876882831899110149e-01,0.000000000000000000e+00
1.073000000000000000e+03,-1.587105272530051625e-01,0.000000000000000000e+00
1.074000000000000000e+03,-1.435745445714456392e-02,0.000000000000000000e+00
1.075000000000000000e+03,-8.498627726390188541e-02,0.000000000000000000e+00
1.076000000000000000e+03,-5.787448956910885151e-02,0.000000000000000000e+00
1.077000000000000000e+03,-1.053462407306773180e-02,0.000000000000000000e+00
1.078000000000000000e+03,9.291766317820916721e-02,0.000000000000000000e+00
1.079000000000000000e+03,-6.616113055913458441e-02,0.000000000000000000e+00
1.080000000000000000e+03,1.855227905815642550e-02,0.000000000000000000e+00
1.081000000000000000e+03,7.662085685250133449e-02,0.000000000000000000e+00
1.082000000000000000e+03,-2.497007487299414755e-02,0.000000000000000000e+00
1.083000000000000000e+03,1.334897654579486614e-01,0.000000000000000000e+00
1.084000000000000000e+03,1.057060946616781606e-02,0.000000000000000000e+00
1.085000000000000000e+03,5.307114724147887763e-02,0.000000000000000000e+00
1.086000000000000000e+03,-3.390452264261679255e-02,0.000000000000000000e+00
1.087000000000000000e+03,4.979866698209180209e-02,0.000000000000000000e+00
1.088000000000000000e+03,1.598949404143346908e-01,0.000000000000000000e+00
1.089000000000000000e+03,4.622767792215167759e-01,0.000000000000000000e+00
1.090000000000000000e+03,3.161886304711962747e-01,0.000000000000000000e+00
1.091000000000000000e+03,5.348909392895478954e-01,0.000000000000000000e+00
1.092000000000000000e+03,2.699824974817352508e-01,0.000000000000000000e+00
1.093000000000000000e+03,1.993468800173334166e-01,0.000000000000000000e+00
1.094000000000000000e+03,-1.862273268485886701e-01,0.000000000000000000e+00
1.095000000000000000e+03,-2.625187738167306106e-01,0.000000000000000000e+00
1.096000000000000000e+03,-3.610624360094794733e-02,0.000000000000000000e+00
1.097000000000000000e+03,-2.797886753285482309e-01,0.000000000000000000e+00
1.098000000000000000e+03,1.294553548602377369e+00,0.000000000000000000e+00
1.099000000000000000e+03,6.279731889856431160e+00,0.000000000000000000e+00
1.100000000000000000e+03,1.656322306355858531e+00,1.000000000000000000e+00
1.101000000000000000e+03,-2.658590946893251705e-01,0.000000000000000000e+00
1.102000000000000000e+03,-1.580218481758465909e+00,0.000000000000000000e+00
1.103000000000000000e+03,-1.547935994120873904e+00,0.000000000000000000e+00
1.104000000000000000e+03,-1.636338077867983909e+00,0.000000000000000000e+00
1.105000000000000000e+03,-1.155505254725905706e+00,0.000000000000000000e+00
1.106000000000000000e+03,-1.351299703218689086e+00,0.000000000000000000e+00
1.107000000000000000e+03,-1.021994991994016333e+00,0.000000000000000000e+00
1.108000000000000000e+03,-1.058084821485257621e+00,0.000000000000000000e+00
1.109000000000000000e+03,-8.449212285788265664e-01,0.000000000000000000e+00
1.110000000000000000e+03,-7.549539507612436084e-01,0.000000000000000000e+00
1.111000000000000000e+03,-5.992351305927064997e-01,0.000000000000000000e+00
1.112000000000000000e+03,-6.005665453330883974e-01,0.000000000000000000e+00
1.113000000000000000e+03,-1.659181358173628940e-01,0.000000000000000000e+00
1.114000000000000000e+03,-1.306198915513820669e-01,0.000000000000000000e+00
1.115000000000000000e+03,1.009749211712691191e-02,0.000000000000000000e+00
1.116000000000000000e+03,1.184094278673197553e-01,0.000000000000000000e+00
1.117000000000000000e+03,5.003930924933491786e-01,0.000000000000000000e+00
1.118000000000000000e+03,5.238115577116594368e-01,0.000000000000000000e+00
1.119000000000000000e+03,5.043701593511745740e-01,0.000000000000000000e+00
1.120000000000000000e+03,2.057512154291989415e-01,0.000000000000000000e+00
1.121000000000000000e+03,-6.747591095658279914e-02,0.000000000000000000e+00
1.122000000000000000e+03,-4.265063798302695663e-02,0.000000000000000000e+00
1.123000000000000000e+03,-2.216682612548206144e-01,0.000000000000000000e+00
1.124000000000000000e+03,1.598652905736653307e-01,0.000000000000000000e+00
1.125000000000000000e+03,1.359945942756883019e-01,0.000000000000000000e+00
1.126000000000000000e+03,-6.195731781468370725e-02,0.000000000000000000e+00
1.127000000000000000e+03,-8.948268185891516957e-02,0.000000000000000000e+00
1.128000000000000000e+03,-8.916856805802905739e-02,0.000000000000000000e+00
1.129000000000000000e+03,3.101679095329337721e-02,0.000000000000000000e+00
1.130000000000000000e+03,-9.720083989921785017e-02,0.000000000000000000e+00
1.131000000000000000e+03,1.691377790063378905e-01,0.000000000000000000e+00
1.132000000000000000e+03,-3.753793311565840202e-02,0.000000000000000000e+00
1.133000000000000000e+03,1.732626320678490595e-01,0.000000000000000000e+00
1.134000000000000000e+03,-6.427251252978669060e-02,0.000000000000000000e+00
1.135000000000000000e+03,5.060240810332246320e-02,0.000000000000000000e+00
1.136000000000000000e+03,1.225604067732523200e-01,0.000000000000000000e+00
1.137000000000000000e+03,-2.155630136557968451e-02,0.000000000000000000e+00
1.138000000000000000e+03,1.005135601601382482e-02,0.000000000000000000e+00
1.139000000000000000e+03,1.527970925717708761e-01,0.000000000000000000e+00
1.140000000000000000e+03,-4.948794797407118917e-02,0.000000000000000000e+00
1.141000000000000000e+03,7.141327215752875379e-02,0.000000000000000000e+00
1.142000000000000000e+03,3.340576454197721201e-01,0.000000000000000000e+00
1.143000000000000000e+03,3.311710684315418152e-01,0.000000000000000000e+00
1.144000000000000000e+03,1.774845243616635926e-01,0.000000000000000000e+00
1.145000000000000000e+03,6.667813299521323511e-01,0.000000000000000000e+00
1.146000000000000000e+03,3.511652812040179650e-01,0.000000000000000000e+00
1.147000000000000000e+03,5.113760486537693994e-01,0.000000000000000000e+00
1.148000000000000000e+03,-4.212952883257361364e-02,0.000000000000000000e+00
1.149000000000000000e+03,2.189629704309111746e-01,0.000000000000000000e+00
1.150000000000000000e+03,-5.725711394728247132e-03,0.000000000000000000e+00
1.151000000000000000e+03,6.044216504659090106e-01,0.000000000000000000e+00
1.152000000000000000e+03,-2.572810921269243489e-01,0.000000000000000000e+00
1.153000000000000000e+03,3.602888397737964432e+00,0.000000000000000000e+00
1.154000000000000000e+03,5.249492283090108735e+00,0.000000000000000000e+00
1.155000000000000000e+03,1.762933488880921995e-01,1.000000000000000000e+00
1.156000000000000000e+03,-2.882564331502341370e-01,0.000000000000000000e+00
1.157000000000000000e+03,-1.281368388116679746e+00,0.000000000000000000e+00
1.158000000000000000e+03,-1.172675825147579287e+00,0.000000000000000000e+00
1.159000000000000000e+03,-1.237424038659385328e+00,0.000000000000000000e+00
1.160000000000000000e+03,-9.021248396945015235e-01,0.000000000000000000e+00
1.161000000000000000e+03,-7.664146683719358366e-01,0.000000000000000000e+00
1.162000000000000000e+03,-7.672404027802007809e-01,0.000000000000000000e+00
1.163000000000000000e+03,-7.206831354166274295e-01,0.000000000000000000e+00
1.164000000000000000e+03,-5.199891656980575316e-01,0.000000000000000000e+00
1.165000000000000000e+03,-5.569890816107331277e-01,0.000000000000000000e+00
1.166000000000000000e+03,-3.194053124292852153e-01,0.000000000000000000e+00
1.167000000000000000e+03,-3.342969920291218311e-01,0.000000000000000000e+00
1.168000000000000000e+03,-1.432723713004322996e-01,0.000000000000000000e+00
1.169000000000000000e+03,5.835334021227783080e-02,0.000000000000000000e+00
1.170000000000000000e+03,2.613767359794368431e-02,0.000000000000000000e+00
1.171000000000000000e+03,1.983962502551186169e-01,0.000000000000000000e+00
1.172000000000000000e+03,3.059452876800135557e-01,0.000000000000000000e+00
1.173000000000000000e+03,3.265653684763134001e-01,0.000000000000000000e+00
1.174000000000000000e+03,2.980914874136290568e-02,0.000000000000000000e+00
1.175000000000000000e+03,-2.832100919526902016e-01,0.000000000000000000e+00
1.176000000000000000e+03,-4.237201321674483045e-01,0.000000000000000000e+00
1.177000000000000000e+03,-4.787909872970741998e-01,0.000000000000000000e+00
1.178000000000000000e+03,-5.803428842625487638e-01,0.000000000000000000e+00
1.179000000000000000e+03,-4.853828643031580792e-01,0.000000000000000000e+00
1.180000000000000000e+03,-4.286051231516877502e-01,0.000000000000000000e+00
1.181000000000000000e+03,-2.748026492314755709e-01,0.000000000000000000e+00
1.182000000000000000e+03,-1.556867999517415058e-01,0.000000000000000000e+00
1.183000000000000000e+03,-3.085941628935230940e-01,0.000000000000000000e+00
1.184000000000000000e+03,-1.123795574378646939e-01,0.000000000000000000e+00
1.185000000000000000e+03,-1.892299417538243489e-01,0.000000000000000000e+00
1.186000000000000000e+03,-1.610472407194392108e-01,0.000000000000000000e+00
1.187000000000000000e+03,-1.503089831806180832e-01,0.000000000000000000e+00
1.188000000000000000e+03,-2.071375806469531455e-01,0.000000000000000000e+00
1.189000000000000000e+03,-1.195963905393757631e-01,0.000000000000000000e+00
1.190000000000000000e+03,-2.211227224041083239e-01,0.000000000000000000e+00
1.191000000000000000e+03,-1.557418421054442836e-01,0.000000000000000000e+00
1.192000000000000000e+03,-1.765099909824460189e-01,0.000000000000000000e+00
1.193000000000000000e+03,-2.819015261552242912e-01,0.000000000000000000e+00
1.194000000000000000e+03,-5.760862069690434600e-02,0.000000000000000000e+00
1.195000000000000000e+03,-1.438328965579101781e-01,0.000000000000000000e+00
1.196000000000000000e+03,-9.395029540248646394e-02,0.000000000000000000e+00
1.197000000000000000e+03,1.920803413228250045e-01,0.000000000000000000e+00
1.198000000000000000e+03,2.237678171868365783e-03,0.000000000000000000e+00
1.199000000000000000e+03,4.523418671242407374e-01,0.000000000000000000e+00
1.200000000000000000e+03,2.485640348172517555e-01,0.000000000000000000e+00
1.201000000000000000e+03,2.616261457183033379e-01,0.000000000000000000e+00
1.202000000000000000e+03,-1.161567758383252047e-01,0.000000000000000000e+00
1.203000000000000000e+03,-7.335104920715754262e-02,0.000000000000000000e+00
1.204000000000000000e+03,-2.893849891445585132e-01,0.000000000000000000e+00
1.205000000000000000e+03,-7.362288140064489339e-02,0.000000000000000000e+00
1.206000000000000000e+03,-4.744068737386663015e-01,0.000000000000000000e+00
1.207000000000000000e+03,2.741362025290547511e+00,0.000000000000000000e+00
1.208000000000000000e+03,5.332823792999189294e+00,0.000000000000000000e+00
1.209000000000000000e+03,9.239777386165297646e-01,1.000000000000000000e+00
1.210000000000000000e+03,-4.173883028233568160e-01,0.000000000000000000e+00
1.211000000000000000e+03,-1.717202656177701181e+00,0.000000000000000000e+00
1.212000000000000000e+03,-1.230128493703058323e+00,0.000000000000000000e+00
1.213000000000000000e+03,-1.617156970912854375e+00,0.000000000000000000e+00
1.214000000000000000e+03,-1.070615152656191782e+00,0.000000000000000000e+00
1.215000000000000000e+03,-1.132719288027001614e+00,0.000000000000000000e+00
1.216000000000000000e+03,-7.265016750081709773e-01,0.000000000000000000e+00
1.217000000000000000e+03,-7.824826432834400824e-01,0.000000000000000000e+00
1.218000000000000000e+03,-7.373997390499834603e-01,0.000000000000000000e+00
1.219000000000000000e+03,-6.808674536674746980e-01,0.000000000000000000e+00
1.220000000000000000e+03,-3.577534852627387574e-01,0.000000000000000000e+00
1.221000000000000000e+03,-2.840138451453462776e-01,0.000000000000000000e+00
1.222000000000000000e+03,-4.134565477373174369e-01,0.000000000000000000e+00
1.223000000000000000e+03,-2.145225379888888451e-01,0.000000000000000000e+00
1.224000000000000000e+03,-1.842929146399081008e-01,0.000000000000000000e+00
1.225000000000000000e+03,-4.800298303122244037e-02,0.000000000000000000e+00
1.226000000000000000e+03,2.319485247889798707e-01,0.000000000000000000e+00
1.227000000000000000e+03,4.029963206030834355e-01,0.000000000000000000e+00
1.228000000000000000e+03,2.290500981422519400e-01,0.000000000000000000e+00
1.229000000000000000e+03,2.551352273709530955e-03,0.000000000000000000e+00
1.230000000000000000e+03,-5.748849500655675571e-02,0.000000000000000000e+00
1.231000000000000000e+03,-1.765516180548901692e-01,0.000000000000000000e+00
1.232000000000000000e+03,1.437333299975869227e-01,0.000000000000000000e+00
1.233000000000000000e+03,-9.988994241532678231e-02,0.000000000000000000e+00
1.234000000000000000e+03,1.074984763794243903e-01,0.000000000000000000e+00
1.235000000000000000e+03,5.839023435530314721e-02,0.000000000000000000e+00
1.236000000000000000e+03,2.104740261330969794e-03,0.000000000000000000e+00
1.237000000000000000e+03,4.451967532415628676e-02,0.000000000000000000e+00
1.238000000000000000e+03,2.831289109853219466e-01,0.000000000000000000e+00
1.239000000000000000e+03,2.290500698831894610e-01,0.000000000000000000e+00
1.240000000000000000e+03,3.906131930273477049e-01,0.000000000000000000e+00
1.241000000000000000e+03,3.645896186819497786e-01,0.000000000000000000e+00
1.242000000000000000e+03,2.978662821829802798e-01,0.000000000000000000e+00
1.243000000000000000e+03,2.649286707869272228e-01,0.000000000000000000e+00
1.244000000000000000e+03,3.414641167206151073e-01,0.000000000000000000e+00
1.245000000000000000e+03,5.150361834920377246e-01,0.000000000000000000e+00
1.246000000000000000e+03,3.185793160012991843e-01,0.000000000000000000e+00
1.247000000000000000e+03,2.698715324164709384e-01,0.000000000000000000e+00
1.248000000000000000e+03,3.955765048188281119e-01,0.000000000000000000e+00
1.249000000000000000e+03,2.041625798519280111e-01,0.000000000000000000e+00
1.250000000000000000e+03,4.289964217258791512e-01,0.000000000000000000e+00
1.251000000000000000e+03,3.478481145881931469e-01,0.000000000000000000e+00
1.252000000000000000e+03,5.769676165495130071e-01,0.000000000000000000e+00
1.253000000000000000e+03,3.815599169779593236e-01,0.000000000000000000e+00
1.254000000000000000e+03,6.084228763429787579e-01,0.000000000000000000e+00
1.255000000000000000e+03,7.653372431753688865e-01,0.000000000000000000e+00
1.256000000000000000e+03,5.216905542037167942e-01,0.000000000000000000e+00
1.257000000000000000e+03,4.446113430685256773e-01,0.000000000000000000e+00
1.258000000000000000e+03,1.301225040818003997e-01,0.000000000000000000e+00
1.259000000000000000e+03,-7.169088464018044671e-02,0.000000000000000000e+00
1.260000000000000000e+03,2.903423154682294866e-02,0.000000000000000000e+00
1.261000000000000000e+03,-3.381269156424777933e-02,0.000000000000000000e+00
1.262000000000000000e+03,4.206539971226271324e-01,0.000000000000000000e+00
1.263000000000000000e+03,5.479241395354026878e+00,0.000000000000000000e+00
1.264000000000000000e+03,3.349717164460994212e+00,1.000000000000000000e+00
1.265000000000000000e+03,3.600920029904045028e-02,0.000000000000000000e+00
1.266000000000000000e+03,-9.501492354782329341e-01,0.000000000000000000e+00
1.267000000000000000e+03,-1.733489755467244597e+00,0.000000000000000000e+00
1.268000000000000000e+03,-1.360023345792376714e+00,0.000000000000000000e+00
1.269000000000000000e+03,-1.470825322220145503e+00,0.000000000000000000e+00
1.270000000000000000e+03,-9.588182373218847587e-01,0.000000000000000000e+00
1.271000000000000000e+03,-1.221741310101702060e+00,0.000000000000000000e+00
1.272000000000000000e+03,-8.293900398899468618e-01,0.000000000000000000e+00
1.273000000000000000e+03,-1.025676351323995927e+00,0.000000000000000000e+00
1.274000000000000000e+03,-5.915066929568867371e-01,0.000000000000000000e+00
1.275000000000000000e+03,-7.582779266984412958e-01,0.000000000000000000e+00
1.276000000000000000e+03,-4.742998112058387505e-01,0.000000000000000000e+00
1.277000000000000000e+03,-1.326476792126967674e-01,0.000000000000000000e+00
1.278000000000000000e+03,-3.099539479922067131e-01,0.000000000000000000e+00
1.279000000000000000e+03,7.761866236644410222e-02,0.000000000000000000e+00
1.280000000000000000e+03,1.455599762207855363e-01,0.000000000000000000e+00
1.281000000000000000e+03,2.012828184709621882e-01,0.000000000000000000e+00
1.282000000000000000e+03,3.906318685285551373e-01,0.000000000000000000e+00
1.283000000000000000e+03,4.134171524738939896e-01,0.000000000000000000e+00
1.284000000000000000e+03,2.091213169089931045e-01,0.000000000000000000e+00
1.285000000000000000e+03,-1.211938500243221056e-01,0.000000000000000000e+00
1.286000000000000000e+03,-3.228195898092088567e-02,0.000000000000000000e+00
1.287000000000000000e+03,-3.836042313513689517e-01,0.000000000000000000e+00
1.288000000000000000e+03,-1.936512383293499673e-01,0.000000000000000000e+00
1.289000000000000000e+03,-3.134780321463092045e-01,0.000000000000000000e+00
1.290000000000000000e+03,-1.784479495326777576e-01,0.000000000000000000e+00
1.291000000000000000e+03,-1.925247604605840879e-01,0.000000000000000000e+00
1.292000000000000000e+03,-3.118747782263401880e-01,0.000000000000000000e+00
1.293000000000000000e+03,-1.082698779777663822e-01,0.000000000000000000e+00
1.294000000000000000e+03,-3.020780051695756696e-01,0.000000000000000000e+00
1.295000000000000000e+03,-1.535904593350183589e-01,0.000000000000000000e+00
1.296000000000000000e+03,9.285806457116782542e-02,0.000000000000000000e+00
1.297000000000000000e+03,-5.247379198050545514e-03,0.000000000000000000e+00
1.298000000000000000e+03,4.630377765557386338e-02,0.000000000000000000e+00
1.299000000000000000e+03,-1.906733167026667397e-01,0.000000000000000000e+00
1.300000000000000000e+03,3.711770122987950032e-02,0.000000000000000000e+00
1.301000000000000000e+03,-2.502951823907852424e-01,0.000000000000000000e+00
1.302000000000000000e+03,-6.228972107367630566e-03,0.000000000000000000e+00
1.303000000000000000e+03,-3.972160223396898476e-02,0.000000000000000000e+00
1.304000000000000000e+03,9.872608792012288470e-02,0.000000000000000000e+00
1.305000000000000000e+03,-1.922592638041508983e-01,0.000000000000000000e+00
1.306000000000000000e+03,6.763773443400983298e-02,0.000000000000000000e+00
1.307000000000000000e+03,-8.340619770320760462e-02,0.000000000000000000e+00
1.308000000000000000e+03,9.165750462767220663e-02,0.000000000000000000e+00
1.309000000000000000e+03,1.809228043738644320e-01,0.000000000000000000e+00
1.310000000000000000e+03,4.214903627365426675e-01,0.000000000000000000e+00
1.311000000000000000e+03,3.573809374035100683e-01,0.000000000000000000e+00
1.312000000000000000e+03,1.386619237445316788e-01,0.000000000000000000e+00
1.313000000000000000e+03,-2.304996253436227827e-01,0.000000000000000000e+00
1.314000000000000000e+03,-1.645397659687265479e-01,0.000000000000000000e+00
1.315000000000000000e+03,-4.414166625593166082e-01,0.000000000000000000e+00
1.316000000000000000e+03,9.539743253995097358e-03,0.000000000000000000e+00
1.317000000000000000e+03,-7.109696315230173980e-01,0.000000000000000000e+00
1.318000000000000000e+03,3.221855091579392205e+00,0.000000000000000000e+00
1.319000000000000000e+03,5.037000859673747222e+00,0.000000000000000000e+00
1.320000000000000000e+03,1.149467452694043629e-01,1.000000000000000000e+00
1.321000000000000000e+03,-5.524370819831710966e-01,0.000000000000000000e+00
1.322000000000000000e+03,-1.762154269129646789e+00,0.000000000000000000e+00
1.323000000000000000e+03,-1.333396680276829338e+00,0.000000000000000000e+00
1.324000000000000000e+03,-1.522672803946570452e+00,0.000000000000000000e+00
1.325000000000000000e+03,-1.062131913164892083e+00,0.000000000000000000e+00
1.326000000000000000e+03,-1.395500572386714211e+00,0.000000000000000000e+00
1.327000000000000000e+03,-9.941703473449183814e-01,0.000000000000000000e+00
1.328000000000000000e+03,-6.095711124180986928e-01,0.000000000000000000e+00
1.329000000000000000e+03,-8.049260137194947928e-01,0.000000000000000000e+00
1.330000000000000000e+03,-7.043492102592520121e-01,0.000000000000000000e+00
1.331000000000000000e+03,-3.137426845599741165e-01,0.000000000000000000e+00
1.332000000000000000e+03,-4.643062116716105692e-01,0.000000000000000000e+00
1.333000000000000000e+03,-1.644434429198902148e-01,0.000000000000000000e+00
1.334000000000000000e+03,7.315749349707659221e-02,0.000000000000000000e+00
1.335000000000000000e+03,1.572127490557616303e-01,0.000000000000000000e+00
1.336000000000000000e+03,2.646437153148121224e-01,0.000000000000000000e+00
1.337000000000000000e+03,4.289948153194191871e-01,0.000000000000000000e+00
1.338000000000000000e+03,4.993844747202047518e-01,0.000000000000000000e+00
1.339000000000000000e+03,4.100114857216726749e-01,0.000000000000000000e+00
1.340000000000000000e+03,4.295521787291625704e-02,0.000000000000000000e+00
1.341000000000000000e+03,8.569119675522141738e-03,0.000000000000000000e+00
1.342000000000000000e+03,-2.626339955990500963e-01,0.000000000000000000e+00
1.343000000000000000e+03,-2.570473338783835771e-01,0.000000000000000000e+00
1.344000000000000000e+03,-2.547669800836238063e-01,0.000000000000000000e+00
1.345000000000000000e+03,-1.139315807985053497e-01,0.000000000000000000e+00
1.346000000000000000e+03,-5.756911634886092977e-02,0.000000000000000000e+00
1.347000000000000000e+03,-3.461253465135891161e-02,0.000000000000000000e+00
1.348000000000000000e+03,1.690038723025967804e-01,0.000000000000000000e+00
1.349000000000000000e+03,-4.827619611869454763e-02,0.000000000000000000e+00
1.350000000000000000e+03,-6.589003715277784445e-02,0.000000000000000000e+00
1.351000000000000000e+03,1.357059390365495111e-01,0.000000000000000000e+00
1.352000000000000000e+03,1.533984404775650401e-01,0.000000000000000000e+00
1.353000000000000000e+03,3.698596946146918280e-02,0.000000000000000000e+00
1.354000000000000000e+03,2.684567461043964043e-01,0.000000000000000000e+00
1.355000000000000000e+03,6.133624782849054352e-02,0.000000000000000000e+00
1.356000000000000000e+03,2.128516349299008209e-02,0.000000000000000000e+00
1.357000000000000000e+03,-2.062494485453542081e-02,0.000000000000000000e+00
1.358000000000000000e+03,2.260054702500499946e-01,0.000000000000000000e+00
1.359000000000000000e+03,-2.961607455415298309e-02,0.000000000000000000e+00
1.360000000000000000e+03,2.787081168829340094e-01,0.000000000000000000e+00
1.361000000000000000e+03,3.213555366707770283e-02,0.000000000000000000e+00
1.362000000000000000e+03,3.590062740130717800e-01,0.000000000000000000e+00
1.363000000000000000e+03,3.345914600344773726e-01,0.000000000000000000e+00
1.364000000000000000e+03,5.708629662756851131e-01,0.000000000000000000e+00
1.365000000000000000e+03,3.571961202289394843e-01,0.000000000000000000e+00
1.366000000000000000e+03,4.338995648682201223e-01,0.000000000000000000e+00
1.367000000000000000e+03,-1.108755182628676922e-02,0.000000000000000000e+00
1.368000000000000000e+03,5.995125924027316228e-02,0.000000000000000000e+00
1.369000000000000000e+03,-2.324905771505492436e-01,0.000000000000000000e+00
1.370000000000000000e+03,1.210198973571772613e-01,0.000000000000000000e+00
1.371000000000000000e+03,-4.883360192079314599e-01,0.000000000000000000e+00
1.372000000000000000e+03,2.197958367143899139e+00,0.000000000000000000e+00
1.373000000000000000e+03,5.665505149891661318e+00,0.000000000000000000e+00
1.374000000000000000e+03,8.568931427161566861e-01,1.000000000000000000e+00
1.375000000000000000e+03,-3.626515142821886140e-01,0.000000000000000000e+00
1.376000000000000000e+03,-1.365452391000448795e+00,0.000000000000000000e+00
1.377000000000000000e+03,-1.290643463111993183e+00,0.000000000000000000e+00
1.378000000000000000e+03,-1.462796741581826154e+00,0.000000000000000000e+00
1.379000000000000000e+03,-1.023420596532613303e+00,0.000000000000000000e+00
1.380000000000000000e+03,-1.019904562262714087e+00,0.000000000000000000e+00
1.381000000000000000e+03,-9.155441110360653667e-01,0.000000000000000000e+00
1.382000000000000000e+03,-6.836744383721218288e-01,0.000000000000000000e+00
1.383000000000000000e+03,-6.685085137709643188e-01,0.000000000000000000e+00
1.384000000000000000e+03,-4.202261715798950026e-01,0.000000000000000000e+00
1.385000000000000000e+03,-5.727026444840769281e-01,0.000000000000000000e+00
1.386000000000000000e+03,-2.126551467765092907e-01,0.000000000000000000e+00
1.387000000000000000e+03,-6.627646042323588615e-02,0.000000000000000000e+00
1.388000000000000000e+03,1.448824876872492964e-02,0.000000000000000000e+00
1.389000000000000000e+03,7.926648412043112157e-02,0.000000000000000000e+00
1.390000000000000000e+03,1.982461742082731737e-01,0.000000000000000000e+00
1.391000000000000000e+03,5.729819145665081548e-01,0.000000000000000000e+00
1.392000000000000000e+03,5.573530846376688608e-01,0.000000000000000000e+00
1.393000000000000000e+03,3.020108408963000368e-01,0.000000000000000000e+00
1.394000000000000000e+03,2.344858347065782722e-01,0.000000000000000000e+00
1.395000000000000000e+03,-1.067074617595315661e-01,0.000000000000000000e+00
1.396000000000000000e+03,-1.536562314423602360e-01,0.000000000000000000e+00
1.397000000000000000e+03,-1.813172732987781699e-01,0.000000000000000000e+00
1.398000000000000000e+03,-1.605713440379586687e-01,0.000000000000000000e+00
1.399000000000000000e+03,-9.115857469149615810e-02,0.000000000000000000e+00
1.400000000000000000e+03,3.197743656895574160e-02,0.000000000000000000e+00
1.401000000000000000e+03,-7.519966141118086811e-02,0.000000000000000000e+00
1.402000000000000000e+03,-3.868818584289349799e-02,0.000000000000000000e+00
1.403000000000000000e+03,1.740172361195763961e-01,0.000000000000000000e+00
1.404000000000000000e+03,1.528614051606360935e-01,0.000000000000000000e+00
1.405000000000000000e+03,1.883417585648930748e-01,0.000000000000000000e+00
1.406000000000000000e+03,1.449273147980281451e-01,0.000000000000000000e+00
1.407000000000000000e+03,8.149135583845644459e-02,0.000000000000000000e+00
1.408000000000000000e+03,3.324674859694773388e-02,0.000000000000000000e+00
1.409000000000000000e+03,7.565751804917483780e-02,0.000000000000000000e+00
1.410000000000000000e+03,-9.224823322245456758e-02,0.000000000000000000e+00
1.411000000000000000e+03,1.382915278842561657e-01,0.000000000000000000e+00
1.412000000000000000e+03,-1.388470373254555856e-01,0.000000000000000000e+00
1.413000000000000000e+03,6.260397726114876049e-02,0.000000000000000000e+00
1.414000000000000000e+03,2.740512884891285195e-01,0.000000000000000000e+00
1.415000000000000000e+03,-1.422806029578593812e-01,0.000000000000000000e+00
1.416000000000000000e+03,8.980041834531822531e-02,0.000000000000000000e+00
1.417000000000000000e+03,2.129085041364033593e-01,0.000000000000000000e+00
1.418000000000000000e+03,1.203602395121241009e-01,0.000000000000000000e+00
1.419000000000000000e+03,2.501298034951551785e-01,0.000000000000000000e+00
1.420000000000000000e+03,5.756826368193914689e-01,0.000000000000000000e+00
1.421000000000000000e+03,2.477208787434081183e-01,0.000000000000000000e+00
1.422000000000000000e+03,-7.402684523695340912e-02,0.000000000000000000e+00
1.423000000000000000e+03,-1.317908738109719868e-01,0.000000000000000000e+00
1.424000000000000000e+03,-3.589697443021565570e-01,0.000000000000000000e+00
1.425000000000000000e+03,-1.176845791211687947e-01,0.000000000000000000e+00
1.426000000000000000e+03,-3.003874736983824234e-01,0.000000000000000000e+00
1.427000000000000000e+03,1.963933573959561585e+00,0.000000000000000000e+00
1.428000000000000000e+03,5.615493471840865780e+00,0.000000000000000000e+00
1.429000000000000000e+03,1.406628164836646766e+00,1.000000000000000000e+00
1.430000000000000000e+03,-3.804111206078423235e-01,0.000000000000000000e+00
1.431000000000000000e+03,-1.472468842168587422e+00,0.000000000000000000e+00
1.432000000000000000e+03,-1.630122125809193134e+00,0.000000000000000000e+00
1.433000000000000000e+03,-1.617048155769213125e+00,0.000000000000000000e+00
1.434000000000000000e+03,-1.272986526147090069e+00,0.000000000000000000e+00
1.435000000000000000e+03,-1.400281860641998888e+00,0.000000000000000000e+00
1.436000000000000000e+03,-9.673408216287293637e-01,0.000000000000000000e+00
1.437000000000000000e+03,-9.790373482859491272e-01,0.000000000000000000e+00
1.438000000000000000e+03,-7.186496384401350745e-01,0.000000000000000000e+00
1.439000000000000000e+03,-7.186093195721737770e-01,0.000000000000000000e+00
1.440000000000000000e+03,-5.657578430620638921e-01,0.000000000000000000e+00
1.441000000000000000e+03,-4.713684091813993837e-01,0.000000000000000000e+00
1.442000000000000000e+03,-1.190339284249169738e-01,0.000000000000000000e+00
1.443000000000000000e+03,-1.731883933003827425e-01,0.000000000000000000e+00
1.444000000000000000e+03,-3.247197479269353648e-02,0.000000000000000000e+00
1.445000000000000000e+03,2.624924096443124744e-01,0.000000000000000000e+00
1.446000000000000000e+03,3.013474665119902918e-01,0.000000000000000000e+00
1.447000000000000000e+03,4.686272552261538937e-01,0.000000000000000000e+00
1.448000000000000000e+03,4.733198173521761531e-01,0.000000000000000000e+00
1.449000000000000000e+03,8.052250253921479362e-02,0.000000000000000000e+00
1.450000000000000000e+03,-3.284100708454916473e-02,0.000000000000000000e+00
1.451000000000000000e+03,1.671572564667760386e-01,0.000000000000000000e+00
1.452000000000000000e+03,-2.666064152312156987e-01,0.000000000000000000e+00
1.453000000000000000e+03,-1.682324444842843991e-01,0.000000000000000000e+00
1.454000000000000000e+03,1.137028924336240948e-01,0.000000000000000000e+00
1.455000000000000000e+03,-2.297854859404059591e-01,0.000000000000000000e+00
1.456000000000000000e+03,-6.212990457645410636e-02,0.000000000000000000e+00
1.457000000000000000e+03,-2.792933347892032070e-01,0.000000000000000000e+00
1.458000000000000000e+03,6.907618646463886680e-02,0.000000000000000000e+00
1.459000000000000000e+03,-7.466071135865758046e-02,0.000000000000000000e+00
1.460000000000000000e+03,2.601131856667660003e-01,0.000000000000000000e+00
1.461000000000000000e+03,1.345776655872054639e-01,0.000000000000000000e+00
1.462000000000000000e+03,1.348881007988998459e-01,0.000000000000000000e+00
1.463000000000000000e+03,1.024371915644511216e-01,0.000000000000000000e+00
1.464000000000000000e+03,6.015615545556145943e-02,0.000000000000000000e+00
1.465000000000000000e+03,-1.774545302689831822e-02,0.000000000000000000e+00
1.466000000000000000e+03,1.476700827717139786e-01,0.000000000000000000e+00
1.467000000000000000e+03,7.312802953907145131e-02,0.000000000000000000e+00
1.468000000000000000e+03,2.652494165733543241e-01,0.000000000000000000e+00
1.469000000000000000e+03,8.037804927270951472e-02,0.000000000000000000e+00
1.470000000000000000e+03,-6.508310657192226123e-02,0.000000000000000000e+00
1.471000000000000000e+03,-3.832123868985671394e-02,0.000000000000000000e+00
1.472000000000000000e+03,1.942111407259549671e-01,0.000000000000000000e+00
1.473000000000000000e+03,1.721161147387091916e-01,0.000000000000000000e+00
1.474000000000000000e+03,4.324639433389249610e-01,0.000000000000000000e+00
1.475000000000000000e+03,6.669733883665311669e-02,0.000000000000000000e+00
1.476000000000000000e+03,4.833827642941270208e-01,0.000000000000000000e+00
1.477000000000000000e+03,3.314611711448181564e-01,0.000000000000000000e+00
1.478000000000000000e+03,3.317897783709953252e-01,0.000000000000000000e+00
1.479000000000000000e+03,3.197275593102193864e-02,0.000000000000000000e+00
1.480000000000000000e+03,2.283918897259663502e-02,0.000000000000000000e+00
1.481000000000000000e+03,-4.870780185534903106e-01,0.000000000000000000e+00
1.482000000000000000e+03,6.908765570211705676e-02,0.000000000000000000e+00
1.483000000000000000e+03,-7.800310388553146623e-01,0.000000000000000000e+00
1.484000000000000000e+03,3.132475728712663887e+00,0.000000000000000000e+00
1.485000000000000000e+03,5.457524695686969629e+00,0.000000000000000000e+00
1.486000000000000000e+03,5.067959286387516693e-01,1.000000000000000000e+00
1.487000000000000000e+03,-3.410885464055123939e-01,0.000000000000000000e+00
1.488000000000000000e+03,-2.040278449428262864e+00,0.000000000000000000e+00
1.489000000000000000e+03,-1.446914806443609702e+00,0.000000000000000000e+00
1.490000000000000000e+03,-1.437319605091583741e+00,0.000000000000000000e+00
1.491000000000000000e+03,-1.415616782875376067e+00,0.000000000000000000e+00
1.492000000000000000e+03,-1.220213949894928485e+00,0.000000000000000000e+00
1.493000000000000000e+03,-9.127750046536993178e-01,0.000000000000000000e+00
1.494000000000000000e+03,-1.020660269246057794e+00,0.000000000000000000e+00
1.495000000000000000e+03,-8.446769046367078593e-01,0.000000000000000000e+00
1.496000000000000000e+03,-5.521765328425543018e-01,0.000000000000000000e+00
1.497000000000000000e+03,-5.241435840281211123e-01,0.000000000000000000e+00
1.498000000000000000e+03,-3.691023953211170494e-01,0.000000000000000000e+00
1.499000000000000000e+03,-1.155050775101590654e-01,0.000000000000000000e+00
1.500000000000000000e+03,-2.291617891493937798e-01,0.000000000000000000e+00
1.501000000000000000e+03,2.778057910368956218e-01,0.000000000000000000e+00
1.502000000000000000e+03,2.336011516207129324e-01,0.000000000000000000e+00
1.503000000000000000e+03,3.471644892882104760e-01,0.000000000000000000e+00
1.504000000000000000e+03,4.884972464055010177e-01,0.000000000000000000e+00
1.505000000000000000e+03,4.813430280539954809e-01,0.000000000000000000e+00
1.506000000000000000e+03,2.138158635905283156e-01,0.000000000000000000e+00
1.507000000000000000e+03,-1.383500957345050741e-01,0.000000000000000000e+00
1.508000000000000000e+03,-2.062973103450088663e-01,0.000000000000000000e+00
1.509000000000000000e+03,-2.336728099381444601e-01,0.000000000000000000e+00
1.510000000000000000e+03,-2.719637299353321325e-01,0.000000000000000000e+00
1.511000000000000000e+03,5.789497022054964498e-02,0.000000000000000000e+00
1.512000000000000000e+03,-2.185331406498040030e-01,0.000000000000000000e+00
1.513000000000000000e+03,-2.491832754334136202e-02,0.000000000000000000e+00
1.514000000000000000e+03,-1.979980615131746446e-01,0.000000000000000000e+00
1.515000000000000000e+03,6.278751916405274358e-02,0.000000000000000000e+00
1.516000000000000000e+03,1.801346813476112085e-01,0.000000000000000000e+00
1.517000000000000000e+03,8.675721157467930142e-03,0.000000000000000000e+00
1.518000000000000000e+03,9.018622595067350700e-02,0.000000000000000000e+00
1.519000000000000000e+03,1.883426148294728986e-01,0.000000000000000000e+00
1.520000000000000000e+03,2.196130274052858211e-01,0.000000000000000000e+00
1.521000000000000000e+03,-8.974472763993750213e-02,0.000000000000000000e+00
1.522000000000000000e+03,1.705629274730813272e-02,0.000000000000000000e+00
1.523000000000000000e+03,-4.828209404158673862e-02,0.000000000000000000e+00
1.524000000000000000e+03,2.801792784633326261e-01,0.000000000000000000e+00
1.525000000000000000e+03,-1.087974948582502363e-02,0.000000000000000000e+00
1.526000000000000000e+03,8.116405506306996476e-02,0.000000000000000000e+00
1.527000000000000000e+03,2.052498251894990244e-01,0.000000000000000000e+00
1.528000000000000000e+03,3.490229803944619718e-03,0.000000000000000000e+00
1.529000000000000000e+03,1.652621961801163386e-01,0.000000000000000000e+00
1.530000000000000000e+03,2.311494506012938266e-01,0.000000000000000000e+00
1.531000000000000000e+03,4.236323591513755371e-01,0.000000000000000000e+00
1.532000000000000000e+03,5.703308907727824284e-01,0.000000000000000000e+00
1.533000000000000000e+03,4.104312481602337970e-01,0.000000000000000000e+00
1.534000000000000000e+03,2.490319212820021194e-02,0.000000000000000000e+00
1.535000000000000000e+03,-1.525422656786028230e-01,0.000000000000000000e+00
1.536000000000000000e+03,-1.023867113585930633e-01,0.000000000000000000e+00
1.537000000000000000e+03,-1.221062023718206546e-01,0.000000000000000000e+00
1.538000000000000000e+03,-3.228955011181860457e-01,0.000000000000000000e+00
1.539000000000000000e+03,1.287373193432259644e+00,0.000000000000000000e+00
1.540000000000000000e+03,5.852712040953903738e+00,0.000000000000000000e+00
1.541000000000000000e+03,1.195418929635595484e+00,1.000000000000000000e+00
1.542000000000000000e+03,-6.478683742218350750e-01,0.000000000000000000e+00
1.543000000000000000e+03,-1.087712773716123626e+00,0.000000000000000000e+00
1.544000000000000000e+03,-1.390718441343504752e+00,0.000000000000000000e+00
1.545000000000000000e+03,-1.334825279462531045e+00,0.000000000000000000e+00
1.546000000000000000e+03,-1.035142687147660778e+00,0.000000000000000000e+00
1.547000000000000000e+03,-9.191956177470077538e-01,0.000000000000000000e+00
1.548000000000000000e+03,-7.746708464054979926e-01,0.000000000000000000e+00
1.549000000000000000e+03,-7.257344862295425081e-01,0.000000000000000000e+00
1.550000000000000000e+03,-7.406472969902745396e-01,0.000000000000000000e+00
1.551000000000000000e+03,-4.888104984896671223e-01,0.000000000000000000e+00
1.552000000000000000e+03,-4.324106219372464976e-01,0.000000000000000000e+00
1.553000000000000000e+03,-1.485044256523464223e-01,0.000000000000000000e+00
1.554000000000000000e+03,-8.752619006793950496e-03,0.000000000000000000e+00
1.555000000000000000e+03,-5.057880637578782146e-02,0.000000000000000000e+00
1.556000000000000000e+03,6.019122541188526992e-02,0.000000000000000000e+00
1.557000000000000000e+03,2.908128284395817276e-01,0.000000000000000000e+00
1.558000000000000000e+03,4.024946947013691156e-01,0.000000000000000000e+00
1.559000000000000000e+03,5.483845674135676695e-01,0.000000000000000000e+00
1.560000000000000000e+03,3.473949268387477862e-01,0.000000000000000000e+00
1.561000000000000000e+03,4.187046858131630162e-02,0.000000000000000000e+00
1.562000000000000000e+03,-2.329532745903597768e-01,0.000000000000000000e+00
1.563000000000000000e+03,-2.181093208071323009e-01,0.000000000000000000e+00
1.564000000000000000e+03,-3.779134798798859385e-01,0.000000000000000000e+00
1.565000000000000000e+03,-3.128726257900247276e-01,0.000000000000000000e+00
1.566000000000000000e+03,-6.438725896829251838e-02,0.000000000000000000e+00
1.567000000000000000e+03,5.087482664025473438e-03,0.000000000000000000e+00
1.568000000000000000e+03,-3.995989634157095377e-02,0.000000000000000000e+00
1.569000000000000000e+03,-2.371344414738497594e-02,0.000000000000000000e+00
1.570000000000000000e+03,-1.056911499064765690e-02,0.000000000000000000e+00
1.571000000000000000e+03,1.458463336493421858e-01,0.000000000000000000e+00
1.572000000000000000e+03,-5.268186941205465351e-02,0.000000000000000000e+00
1.573000000000000000e+03,2.956425547111547411e-02,0.000000000000000000e+00
1.574000000000000000e+03,4.902238672303598638e-02,0.000000000000000000e+00
1.575000000000000000e+03,-8.265879578070020606e-02,0.000000000000000000e+00
1.576000000000000000e+03,-1.027841878751766247e-01,0.000000000000000000e+00
1.577000000000000000e+03,2.576505696973631007e-02,0.000000000000000000e+00
1.578000000000000000e+03,7.068046246131763632e-02,0.000000000000000000e+00
1.579000000000000000e+03,-4.224494821114647275e-03,0.000000000000000000e+00
1.580000000000000000e+03,-1.266048830534368674e-01,0.000000000000000000e+00
1.581000000000000000e+03,9.725506976355072219e-02,0.000000000000000000e+00
1.582000000000000000e+03,3.224526582972529754e-02,0.000000000000000000e+00
1.583000000000000000e+03,2.159957434012227118e-01,0.000000000000000000e+00
1.584000000000000000e+03,2.999678227370174144e-02,0.000000000000000000e+00
1.585000000000000000e+03,1.948927900589062789e-01,0.000000000000000000e+00
1.586000000000000000e+03,2.665209647781131563e-01,0.000000000000000000e+00
1.587000000000000000e+03,5.100081984086046738e-01,0.000000000000000000e+00
