timestamp,ecg_measurement,qrs_detected
0.000000000000000000e+00,-6.475474809123414888e-01,0.000000000000000000e+00
1.000000000000000000e+00,-6.642427281131796368e-01,0.000000000000000000e+00
2.000000000000000000e+00,-6.741440719849187690e-01,0.000000000000000000e+00
3.000000000000000000e+00,-6.791371634887054531e-01,0.000000000000000000e+00
4.000000000000000000e+00,-6.894182790346045087e-01,0.000000000000000000e+00
5.000000000000000000e+00,-7.066831965786457559e-01,0.000000000000000000e+00
6.000000000000000000e+00,-7.190631420629108872e-01,0.000000000000000000e+00
7.000000000000000000e+00,-7.220707025551291736e-01,0.000000000000000000e+00
8.000000000000000000e+00,-7.232812911245203313e-01,0.000000000000000000e+00
9.000000000000000000e+00,-7.293827686069915828e-01,0.000000000000000000e+00
1.000000000000000000e+01,-7.394605198877449714e-01,0.000000000000000000e+00
1.100000000000000000e+01,-7.508176000975873565e-01,0.000000000000000000e+00
1.200000000000000000e+01,-7.635557269090246235e-01,0.000000000000000000e+00
1.300000000000000000e+01,-7.718650815771580520e-01,0.000000000000000000e+00
1.400000000000000000e+01,-7.697939057462386270e-01,0.000000000000000000e+00
1.500000000000000000e+01,-7.424142807596044724e-01,0.000000000000000000e+00
1.600000000000000000e+01,-6.833363128870887371e-01,0.000000000000000000e+00
1.700000000000000000e+01,-6.032673119367556458e-01,0.000000000000000000e+00
1.800000000000000000e+01,-5.147603284377026966e-01,0.000000000000000000e+00
1.900000000000000000e+01,-4.184270921314057756e-01,0.000000000000000000e+00
2.000000000000000000e+01,-3.202052505892832301e-01,0.000000000000000000e+00
2.100000000000000000e+01,-2.254197075710281661e-01,0.000000000000000000e+00
2.200000000000000000e+01,-1.349191406986161579e-01,0.000000000000000000e+00
2.300000000000000000e+01,-5.167508593691505503e-02,0.000000000000000000e+00
2.400000000000000000e+01,2.357795939527028081e-02,0.000000000000000000e+00
2.500000000000000000e+01,9.458726863986534339e-02,0.000000000000000000e+00
2.600000000000000000e+01,1.608184343654476267e-01,0.000000000000000000e+00
2.700000000000000000e+01,2.198035419513167388e-01,0.000000000000000000e+00
2.800000000000000000e+01,2.644696505129979225e-01,0.000000000000000000e+00
2.900000000000000000e+01,2.888923007306831159e-01,0.000000000000000000e+00
3.000000000000000000e+01,2.956036034560889370e-01,0.000000000000000000e+00
3.100000000000000000e+01,2.931224979295944943e-01,0.000000000000000000e+00
3.200000000000000000e+01,2.871411336190663466e-01,0.000000000000000000e+00
3.300000000000000000e+01,2.816112088122413870e-01,0.000000000000000000e+00
3.400000000000000000e+01,2.812698310401503532e-01,0.000000000000000000e+00
3.500000000000000000e+01,2.831789732065766452e-01,0.000000000000000000e+00
3.600000000000000000e+01,2.837228945543171510e-01,0.000000000000000000e+00
3.700000000000000000e+01,2.835272243126876202e-01,0.000000000000000000e+00
3.800000000000000000e+01,2.794712148950532216e-01,0.000000000000000000e+00
3.900000000000000000e+01,2.694703106088870426e-01,0.000000000000000000e+00
4.000000000000000000e+01,2.577263779385136067e-01,0.000000000000000000e+00
4.100000000000000000e+01,2.397093334194804748e-01,0.000000000000000000e+00
4.200000000000000000e+01,2.146957251381275689e-01,0.000000000000000000e+00
4.300000000000000000e+01,1.895165716382895271e-01,0.000000000000000000e+00
4.400000000000000000e+01,1.654376417095763663e-01,0.000000000000000000e+00
4.500000000000000000e+01,1.379689557541885492e-01,0.000000000000000000e+00
4.600000000000000000e+01,1.096762500758850234e-01,0.000000000000000000e+00
4.700000000000000000e+01,8.850950791605707857e-02,0.000000000000000000e+00
4.800000000000000000e+01,6.997951024014380239e-02,0.000000000000000000e+00
4.900000000000000000e+01,5.261172215478647496e-02,0.000000000000000000e+00
5.000000000000000000e+01,3.441151877231676814e-02,0.000000000000000000e+00
5.100000000000000000e+01,1.094101855884698285e-02,0.000000000000000000e+00
5.200000000000000000e+01,-1.539448043715037698e-02,0.000000000000000000e+00
5.300000000000000000e+01,-4.234317405406448631e-02,0.000000000000000000e+00
5.400000000000000000e+01,-6.779268977553283559e-02,0.000000000000000000e+00
5.500000000000000000e+01,-8.842684350987056741e-02,0.000000000000000000e+00
5.600000000000000000e+01,-1.072016797331964144e-01,0.000000000000000000e+00
5.700000000000000000e+01,-1.325306429102014460e-01,0.000000000000000000e+00
5.800000000000000000e+01,-1.596723693694110935e-01,0.000000000000000000e+00
5.900000000000000000e+01,-1.856954502978150345e-01,0.000000000000000000e+00
6.000000000000000000e+01,-2.153146298992703045e-01,0.000000000000000000e+00
6.100000000000000000e+01,-2.463109619306597942e-01,0.000000000000000000e+00
6.200000000000000000e+01,-2.702066142112682923e-01,0.000000000000000000e+00
6.300000000000000000e+01,-2.862233137263917593e-01,0.000000000000000000e+00
6.400000000000000000e+01,-2.974139627789476048e-01,0.000000000000000000e+00
6.500000000000000000e+01,-3.119862005836705476e-01,0.000000000000000000e+00
6.600000000000000000e+01,-3.312341867739379553e-01,0.000000000000000000e+00
6.700000000000000000e+01,-3.496425551251230446e-01,0.000000000000000000e+00
6.800000000000000000e+01,-3.637543690831757104e-01,0.000000000000000000e+00
6.900000000000000000e+01,-3.738792187643111831e-01,0.000000000000000000e+00
7.000000000000000000e+01,-3.851257132390138449e-01,0.000000000000000000e+00
7.100000000000000000e+01,-4.017013647819964728e-01,0.000000000000000000e+00
7.200000000000000000e+01,-4.255238029228097241e-01,0.000000000000000000e+00
7.300000000000000000e+01,-4.439156386844496094e-01,0.000000000000000000e+00
7.400000000000000000e+01,-4.387125727641643103e-01,0.000000000000000000e+00
7.500000000000000000e+01,-4.000948981897874956e-01,0.000000000000000000e+00
7.600000000000000000e+01,-3.385925687813107210e-01,0.000000000000000000e+00
7.700000000000000000e+01,-2.662864045690201964e-01,0.000000000000000000e+00
7.800000000000000000e+01,-1.880868563521441994e-01,0.000000000000000000e+00
7.900000000000000000e+01,-1.068576474478014904e-01,0.000000000000000000e+00
8.000000000000000000e+01,-2.697909809462918640e-02,0.000000000000000000e+00
8.100000000000000000e+01,5.356729902468010396e-02,0.000000000000000000e+00
8.200000000000000000e+01,1.298471519638275118e-01,0.000000000000000000e+00
8.300000000000000000e+01,1.949175106124580725e-01,0.000000000000000000e+00
8.400000000000000000e+01,2.555197274834119514e-01,0.000000000000000000e+00
8.500000000000000000e+01,3.096434951604796759e-01,0.000000000000000000e+00
8.600000000000000000e+01,3.517336344190324926e-01,0.000000000000000000e+00
8.700000000000000000e+01,3.831734722001803872e-01,0.000000000000000000e+00
8.800000000000000000e+01,4.020891117300551265e-01,0.000000000000000000e+00
8.900000000000000000e+01,4.033772828203059380e-01,0.000000000000000000e+00
9.000000000000000000e+01,3.903907433664061122e-01,0.000000000000000000e+00
9.100000000000000000e+01,3.749238659866391266e-01,0.000000000000000000e+00
9.200000000000000000e+01,3.628406993468631381e-01,0.000000000000000000e+00
9.300000000000000000e+01,3.565811678737290102e-01,0.000000000000000000e+00
9.400000000000000000e+01,3.531105877173381646e-01,0.000000000000000000e+00
9.500000000000000000e+01,3.486805347081833872e-01,0.000000000000000000e+00
9.600000000000000000e+01,3.410970449476509181e-01,0.000000000000000000e+00
9.700000000000000000e+01,3.272752404149796290e-01,0.000000000000000000e+00
9.800000000000000000e+01,3.091359068666157395e-01,0.000000000000000000e+00
9.900000000000000000e+01,2.890827237245596759e-01,0.000000000000000000e+00
1.000000000000000000e+02,2.658833903405171117e-01,0.000000000000000000e+00
1.010000000000000000e+02,2.403729828381830358e-01,0.000000000000000000e+00
1.020000000000000000e+02,2.165204667708077735e-01,0.000000000000000000e+00
1.030000000000000000e+02,1.882669461889040496e-01,0.000000000000000000e+00
1.040000000000000000e+02,1.582785759849794638e-01,0.000000000000000000e+00
1.050000000000000000e+02,1.318655099059164448e-01,0.000000000000000000e+00
1.060000000000000000e+02,1.092118262488739888e-01,0.000000000000000000e+00
1.070000000000000000e+02,8.864659457597803827e-02,0.000000000000000000e+00
1.080000000000000000e+02,6.829601897320473902e-02,0.000000000000000000e+00
1.090000000000000000e+02,4.301143139181273084e-02,0.000000000000000000e+00
1.100000000000000000e+02,1.380575322024841546e-02,0.000000000000000000e+00
1.110000000000000000e+02,-9.261037885266635780e-03,0.000000000000000000e+00
1.120000000000000000e+02,-2.828050340696221590e-02,0.000000000000000000e+00
1.130000000000000000e+02,-4.782627997297262540e-02,0.000000000000000000e+00
1.140000000000000000e+02,-6.889479264549862314e-02,0.000000000000000000e+00
1.150000000000000000e+02,-9.404248517931745877e-02,0.000000000000000000e+00
1.160000000000000000e+02,-1.239448274636719277e-01,0.000000000000000000e+00
1.170000000000000000e+02,-1.506492013529082963e-01,0.000000000000000000e+00
1.180000000000000000e+02,-1.714198878136951598e-01,0.000000000000000000e+00
1.190000000000000000e+02,-1.951417027614094357e-01,0.000000000000000000e+00
1.200000000000000000e+02,-2.259648269463395975e-01,0.000000000000000000e+00
1.210000000000000000e+02,-2.533632906073011171e-01,0.000000000000000000e+00
1.220000000000000000e+02,-2.702565125323284079e-01,0.000000000000000000e+00
1.230000000000000000e+02,-2.856710897360101864e-01,0.000000000000000000e+00
1.240000000000000000e+02,-3.072610514595189302e-01,0.000000000000000000e+00
1.250000000000000000e+02,-3.280893778776282077e-01,0.000000000000000000e+00
1.260000000000000000e+02,-3.398378627610315617e-01,0.000000000000000000e+00
1.270000000000000000e+02,-3.480112323807021957e-01,0.000000000000000000e+00
1.280000000000000000e+02,-3.613368546403515902e-01,0.000000000000000000e+00
1.290000000000000000e+02,-3.811658946658355585e-01,0.000000000000000000e+00
1.300000000000000000e+02,-4.016113149573573571e-01,0.000000000000000000e+00
1.310000000000000000e+02,-4.092255835234946404e-01,0.000000000000000000e+00
1.320000000000000000e+02,-3.920813142946024121e-01,0.000000000000000000e+00
1.330000000000000000e+02,-3.491065073189680290e-01,0.000000000000000000e+00
1.340000000000000000e+02,-2.857774064601778519e-01,0.000000000000000000e+00
1.350000000000000000e+02,-2.059721687191835016e-01,0.000000000000000000e+00
1.360000000000000000e+02,-1.203155620628756917e-01,0.000000000000000000e+00
1.370000000000000000e+02,-4.152634929143191739e-02,0.000000000000000000e+00
1.380000000000000000e+02,2.786277089285056283e-02,0.000000000000000000e+00
1.390000000000000000e+02,9.289853644224850548e-02,0.000000000000000000e+00
1.400000000000000000e+02,1.587065160000206421e-01,0.000000000000000000e+00
1.410000000000000000e+02,2.217808784312192139e-01,0.000000000000000000e+00
1.420000000000000000e+02,2.762671591753271816e-01,0.000000000000000000e+00
1.430000000000000000e+02,3.220610974245476377e-01,0.000000000000000000e+00
1.440000000000000000e+02,3.611694932857516527e-01,0.000000000000000000e+00
1.450000000000000000e+02,3.880031737115672286e-01,0.000000000000000000e+00
1.460000000000000000e+02,3.974345916916324772e-01,0.000000000000000000e+00
1.470000000000000000e+02,3.943136922035078151e-01,0.000000000000000000e+00
1.480000000000000000e+02,3.825778067556258044e-01,0.000000000000000000e+00
1.490000000000000000e+02,3.693215215961767606e-01,0.000000000000000000e+00
1.500000000000000000e+02,3.622845958489497309e-01,0.000000000000000000e+00
1.510000000000000000e+02,3.600383075100861419e-01,0.000000000000000000e+00
1.520000000000000000e+02,3.594520169663422138e-01,0.000000000000000000e+00
1.530000000000000000e+02,3.555294465367460077e-01,0.000000000000000000e+00
1.540000000000000000e+02,3.494311553388402825e-01,0.000000000000000000e+00
1.550000000000000000e+02,3.463623642567297822e-01,0.000000000000000000e+00
1.560000000000000000e+02,3.360932762250653516e-01,0.000000000000000000e+00
1.570000000000000000e+02,3.066911783501861666e-01,0.000000000000000000e+00
1.580000000000000000e+02,2.695670404357818351e-01,0.000000000000000000e+00
1.590000000000000000e+02,2.397847310439158719e-01,0.000000000000000000e+00
1.600000000000000000e+02,2.168049140377782402e-01,0.000000000000000000e+00
1.610000000000000000e+02,1.955678140293463652e-01,0.000000000000000000e+00
1.620000000000000000e+02,1.756304761623122823e-01,0.000000000000000000e+00
1.630000000000000000e+02,1.524031688322635136e-01,0.000000000000000000e+00
1.640000000000000000e+02,1.266749465780715733e-01,0.000000000000000000e+00
1.650000000000000000e+02,1.069733595925543984e-01,0.000000000000000000e+00
1.660000000000000000e+02,9.176373683472700826e-02,0.000000000000000000e+00
1.670000000000000000e+02,7.251982661960372500e-02,0.000000000000000000e+00
1.680000000000000000e+02,4.927196200639406137e-02,0.000000000000000000e+00
1.690000000000000000e+02,2.946725313600564305e-02,0.000000000000000000e+00
1.700000000000000000e+02,1.596200992872479421e-02,0.000000000000000000e+00
1.710000000000000000e+02,7.076272713760803704e-03,0.000000000000000000e+00
1.720000000000000000e+02,-5.457077191002822347e-03,0.000000000000000000e+00
1.730000000000000000e+02,-2.752455354295264833e-02,0.000000000000000000e+00
1.740000000000000000e+02,-5.584376504757333076e-02,0.000000000000000000e+00
1.750000000000000000e+02,-8.521177746313303436e-02,0.000000000000000000e+00
1.760000000000000000e+02,-1.102492200359740521e-01,0.000000000000000000e+00
1.770000000000000000e+02,-1.302040604253125455e-01,0.000000000000000000e+00
1.780000000000000000e+02,-1.482103474627866624e-01,0.000000000000000000e+00
1.790000000000000000e+02,-1.717466602023819955e-01,0.000000000000000000e+00
1.800000000000000000e+02,-1.979763040804148333e-01,0.000000000000000000e+00
1.810000000000000000e+02,-2.178917450539882283e-01,0.000000000000000000e+00
1.820000000000000000e+02,-2.331545821698407794e-01,0.000000000000000000e+00
1.830000000000000000e+02,-2.478285751272509552e-01,0.000000000000000000e+00
1.840000000000000000e+02,-2.615381479682397092e-01,0.000000000000000000e+00
1.850000000000000000e+02,-2.751543988031835974e-01,0.000000000000000000e+00
1.860000000000000000e+02,-2.915123601654047714e-01,0.000000000000000000e+00
1.870000000000000000e+02,-3.109283010955692927e-01,0.000000000000000000e+00
1.880000000000000000e+02,-3.307717808506409618e-01,0.000000000000000000e+00
1.890000000000000000e+02,-3.495100003006852973e-01,0.000000000000000000e+00
1.900000000000000000e+02,-3.691621819079424216e-01,0.000000000000000000e+00
1.910000000000000000e+02,-3.876212634925123579e-01,0.000000000000000000e+00
1.920000000000000000e+02,-4.031834374519533970e-01,0.000000000000000000e+00
1.930000000000000000e+02,-4.175899771476270783e-01,0.000000000000000000e+00
1.940000000000000000e+02,-4.334002812538882976e-01,0.000000000000000000e+00
1.950000000000000000e+02,-4.511628153695828591e-01,0.000000000000000000e+00
1.960000000000000000e+02,-4.664096156178599850e-01,0.000000000000000000e+00
1.970000000000000000e+02,-4.769605012670257715e-01,0.000000000000000000e+00
1.980000000000000000e+02,-4.869157419854542868e-01,0.000000000000000000e+00
1.990000000000000000e+02,-5.011662358428519148e-01,0.000000000000000000e+00
2.000000000000000000e+02,-5.156776599064929467e-01,0.000000000000000000e+00
2.010000000000000000e+02,-5.258200147720318851e-01,0.000000000000000000e+00
2.020000000000000000e+02,-5.346615425210519135e-01,0.000000000000000000e+00
2.030000000000000000e+02,-5.466794957898598595e-01,0.000000000000000000e+00
2.040000000000000000e+02,-5.588780366850578663e-01,0.000000000000000000e+00
2.050000000000000000e+02,-5.673400980604893507e-01,0.000000000000000000e+00
2.060000000000000000e+02,-5.722839823096138590e-01,0.000000000000000000e+00
2.070000000000000000e+02,-5.745616364952645938e-01,0.000000000000000000e+00
2.080000000000000000e+02,-5.776530738988598923e-01,0.000000000000000000e+00
2.090000000000000000e+02,-5.896523055744418151e-01,0.000000000000000000e+00
2.100000000000000000e+02,-6.087056939887145468e-01,0.000000000000000000e+00
2.110000000000000000e+02,-6.220881672852917044e-01,0.000000000000000000e+00
2.120000000000000000e+02,-6.300552329435128440e-01,0.000000000000000000e+00
2.130000000000000000e+02,-6.441533439709070663e-01,0.000000000000000000e+00
2.140000000000000000e+02,-6.557982499681171973e-01,0.000000000000000000e+00
2.150000000000000000e+02,-6.511026347623104504e-01,0.000000000000000000e+00
2.160000000000000000e+02,-6.251311468420364115e-01,0.000000000000000000e+00
2.170000000000000000e+02,-5.759549320612419310e-01,0.000000000000000000e+00
2.180000000000000000e+02,-5.067425264241171012e-01,0.000000000000000000e+00
2.190000000000000000e+02,-4.288363187100724949e-01,0.000000000000000000e+00
2.200000000000000000e+02,-3.480949308274451370e-01,0.000000000000000000e+00
2.210000000000000000e+02,-2.597516075641638222e-01,0.000000000000000000e+00
2.220000000000000000e+02,-1.611682785710231158e-01,0.000000000000000000e+00
2.230000000000000000e+02,-6.002412551648243083e-02,0.000000000000000000e+00
2.240000000000000000e+02,3.441428791263553139e-02,0.000000000000000000e+00
2.250000000000000000e+02,1.148415373639550541e-01,0.000000000000000000e+00
2.260000000000000000e+02,1.796899000096954524e-01,0.000000000000000000e+00
2.270000000000000000e+02,2.331526257929374679e-01,0.000000000000000000e+00
2.280000000000000000e+02,2.793468641171835132e-01,0.000000000000000000e+00
2.290000000000000000e+02,3.210878876943192295e-01,0.000000000000000000e+00
2.300000000000000000e+02,3.532001808679846588e-01,0.000000000000000000e+00
2.310000000000000000e+02,3.666565207397170512e-01,0.000000000000000000e+00
2.320000000000000000e+02,3.656282025880607800e-01,0.000000000000000000e+00
2.330000000000000000e+02,3.649260488377137346e-01,0.000000000000000000e+00
2.340000000000000000e+02,3.687093802544494370e-01,0.000000000000000000e+00
2.350000000000000000e+02,3.699167129727455317e-01,0.000000000000000000e+00
2.360000000000000000e+02,3.703220732373507795e-01,0.000000000000000000e+00
2.370000000000000000e+02,3.724964502923496235e-01,0.000000000000000000e+00
2.380000000000000000e+02,3.702056537501393074e-01,0.000000000000000000e+00
2.390000000000000000e+02,3.639842394472050935e-01,0.000000000000000000e+00
2.400000000000000000e+02,3.569079138729903677e-01,0.000000000000000000e+00
2.410000000000000000e+02,3.433849067658070187e-01,0.000000000000000000e+00
2.420000000000000000e+02,3.190127543193584381e-01,0.000000000000000000e+00
2.430000000000000000e+02,2.863320924502133491e-01,0.000000000000000000e+00
2.440000000000000000e+02,2.553494936572443530e-01,0.000000000000000000e+00
2.450000000000000000e+02,2.356483705431349773e-01,0.000000000000000000e+00
2.460000000000000000e+02,2.232466303073284974e-01,0.000000000000000000e+00
2.470000000000000000e+02,2.105032564122868155e-01,0.000000000000000000e+00
2.480000000000000000e+02,2.010770632597980168e-01,0.000000000000000000e+00
2.490000000000000000e+02,1.904873927522118537e-01,0.000000000000000000e+00
2.500000000000000000e+02,1.681560047757526821e-01,0.000000000000000000e+00
2.510000000000000000e+02,1.396431367538353285e-01,0.000000000000000000e+00
2.520000000000000000e+02,1.155033518734237402e-01,0.000000000000000000e+00
2.530000000000000000e+02,1.003461690160848407e-01,0.000000000000000000e+00
2.540000000000000000e+02,9.488114233369274175e-02,0.000000000000000000e+00
2.550000000000000000e+02,1.021599646354659080e-01,0.000000000000000000e+00
2.560000000000000000e+02,1.186783113836834685e-01,0.000000000000000000e+00
2.570000000000000000e+02,1.342655329950269705e-01,0.000000000000000000e+00
2.580000000000000000e+02,1.469539927703265858e-01,0.000000000000000000e+00
2.590000000000000000e+02,1.529266274150530847e-01,0.000000000000000000e+00
2.600000000000000000e+02,1.454074666616520517e-01,0.000000000000000000e+00
2.610000000000000000e+02,1.266996435851228120e-01,0.000000000000000000e+00
2.620000000000000000e+02,1.045317729499724152e-01,0.000000000000000000e+00
2.630000000000000000e+02,8.360613170815586748e-02,0.000000000000000000e+00
2.640000000000000000e+02,6.387972999679727981e-02,0.000000000000000000e+00
2.650000000000000000e+02,4.652057232843671841e-02,0.000000000000000000e+00
2.660000000000000000e+02,3.169585678909396520e-02,0.000000000000000000e+00
2.670000000000000000e+02,1.623585869330383333e-02,0.000000000000000000e+00
2.680000000000000000e+02,-5.018041626477948505e-03,0.000000000000000000e+00
2.690000000000000000e+02,-2.840800364789892660e-02,0.000000000000000000e+00
2.700000000000000000e+02,-4.719473270650598185e-02,0.000000000000000000e+00
2.710000000000000000e+02,-6.489314258690888348e-02,0.000000000000000000e+00
2.720000000000000000e+02,-8.894775991534803472e-02,0.000000000000000000e+00
2.730000000000000000e+02,-1.171387263972094445e-01,0.000000000000000000e+00
2.740000000000000000e+02,-1.401870923722880469e-01,0.000000000000000000e+00
2.750000000000000000e+02,-1.549789732132843822e-01,0.000000000000000000e+00
2.760000000000000000e+02,-1.650878951179976240e-01,0.000000000000000000e+00
2.770000000000000000e+02,-1.779873695244120202e-01,0.000000000000000000e+00
2.780000000000000000e+02,-1.981967385905205603e-01,0.000000000000000000e+00
2.790000000000000000e+02,-2.202269616516388251e-01,0.000000000000000000e+00
2.800000000000000000e+02,-2.310079392410940569e-01,0.000000000000000000e+00
2.810000000000000000e+02,-2.199016046091775978e-01,0.000000000000000000e+00
2.820000000000000000e+02,-1.870974447009607355e-01,0.000000000000000000e+00
2.830000000000000000e+02,-1.376696233883251408e-01,0.000000000000000000e+00
2.840000000000000000e+02,-8.262295956618759263e-02,0.000000000000000000e+00
2.850000000000000000e+02,-3.166939601436616347e-02,0.000000000000000000e+00
2.860000000000000000e+02,6.532967302952722571e-03,0.000000000000000000e+00
2.870000000000000000e+02,3.147727682293651602e-02,0.000000000000000000e+00
2.880000000000000000e+02,5.287226980233766110e-02,0.000000000000000000e+00
2.890000000000000000e+02,7.024264953421238689e-02,0.000000000000000000e+00
2.900000000000000000e+02,7.508065899396598741e-02,0.000000000000000000e+00
2.910000000000000000e+02,6.337717048591105795e-02,0.000000000000000000e+00
2.920000000000000000e+02,4.433532545126816354e-02,0.000000000000000000e+00
2.930000000000000000e+02,2.713375405495743048e-02,0.000000000000000000e+00
2.940000000000000000e+02,1.444897290793438135e-02,0.000000000000000000e+00
2.950000000000000000e+02,8.757130389965183531e-03,0.000000000000000000e+00
2.960000000000000000e+02,6.929283218073900574e-03,0.000000000000000000e+00
2.970000000000000000e+02,3.339967378558032253e-03,0.000000000000000000e+00
2.980000000000000000e+02,-1.426592161183294107e-03,0.000000000000000000e+00
2.990000000000000000e+02,-5.396035185253339993e-03,0.000000000000000000e+00
3.000000000000000000e+02,-1.264432807675956380e-02,0.000000000000000000e+00
3.010000000000000000e+02,-2.406706966838220024e-02,0.000000000000000000e+00
3.020000000000000000e+02,-3.803631104396636847e-02,0.000000000000000000e+00
3.030000000000000000e+02,-5.298103542739023009e-02,0.000000000000000000e+00
3.040000000000000000e+02,-7.210538802360780264e-02,0.000000000000000000e+00
3.050000000000000000e+02,-9.574327295913979963e-02,0.000000000000000000e+00
3.060000000000000000e+02,-1.198344721713970884e-01,0.000000000000000000e+00
3.070000000000000000e+02,-1.384349857952165141e-01,0.000000000000000000e+00
3.080000000000000000e+02,-1.483148813595361049e-01,0.000000000000000000e+00
3.090000000000000000e+02,-1.562060142023229126e-01,0.000000000000000000e+00
3.100000000000000000e+02,-1.717190159694864660e-01,0.000000000000000000e+00
3.110000000000000000e+02,-1.935223166653855797e-01,0.000000000000000000e+00
3.120000000000000000e+02,-2.141489695736370213e-01,0.000000000000000000e+00
3.130000000000000000e+02,-2.318646746994169061e-01,0.000000000000000000e+00
3.140000000000000000e+02,-2.457594580551794861e-01,0.000000000000000000e+00
3.150000000000000000e+02,-2.532952090608912021e-01,0.000000000000000000e+00
3.160000000000000000e+02,-2.595485691937000627e-01,0.000000000000000000e+00
3.170000000000000000e+02,-2.726672813607537438e-01,0.000000000000000000e+00
3.180000000000000000e+02,-2.923917939001123290e-01,0.000000000000000000e+00
3.190000000000000000e+02,-3.183217894772782386e-01,0.000000000000000000e+00
3.200000000000000000e+02,-3.441057525019910468e-01,0.000000000000000000e+00
3.210000000000000000e+02,-3.606406615576614461e-01,0.000000000000000000e+00
3.220000000000000000e+02,-3.722300241219989592e-01,0.000000000000000000e+00
3.230000000000000000e+02,-3.881087668685583303e-01,0.000000000000000000e+00
3.240000000000000000e+02,-4.076784388155259009e-01,0.000000000000000000e+00
3.250000000000000000e+02,-4.243355510886147597e-01,0.000000000000000000e+00
3.260000000000000000e+02,-4.322375686716076193e-01,0.000000000000000000e+00
3.270000000000000000e+02,-4.323149585053960298e-01,0.000000000000000000e+00
3.280000000000000000e+02,-4.346258601626814544e-01,0.000000000000000000e+00
3.290000000000000000e+02,-4.479698985480591866e-01,0.000000000000000000e+00
3.300000000000000000e+02,-4.674161126735680294e-01,0.000000000000000000e+00
3.310000000000000000e+02,-4.817020861226429806e-01,0.000000000000000000e+00
3.320000000000000000e+02,-4.887216855571819840e-01,0.000000000000000000e+00
3.330000000000000000e+02,-4.942319634391055816e-01,0.000000000000000000e+00
3.340000000000000000e+02,-5.045882144789808343e-01,0.000000000000000000e+00
3.350000000000000000e+02,-5.177464190097713637e-01,0.000000000000000000e+00
3.360000000000000000e+02,-5.306276232357074463e-01,0.000000000000000000e+00
3.370000000000000000e+02,-5.429306930443231760e-01,0.000000000000000000e+00
3.380000000000000000e+02,-5.561514659922429660e-01,0.000000000000000000e+00
3.390000000000000000e+02,-5.709291049988028943e-01,0.000000000000000000e+00
3.400000000000000000e+02,-5.802910400985692441e-01,0.000000000000000000e+00
3.410000000000000000e+02,-5.728366674613242226e-01,0.000000000000000000e+00
3.420000000000000000e+02,-5.375400611295303444e-01,0.000000000000000000e+00
3.430000000000000000e+02,-4.723946648518506652e-01,0.000000000000000000e+00
3.440000000000000000e+02,-3.856035764476731242e-01,0.000000000000000000e+00
3.450000000000000000e+02,-2.863429556199555970e-01,0.000000000000000000e+00
3.460000000000000000e+02,-1.840782014091622565e-01,0.000000000000000000e+00
3.470000000000000000e+02,-8.345402120029229986e-02,0.000000000000000000e+00
3.480000000000000000e+02,1.772971596078395246e-02,0.000000000000000000e+00
3.490000000000000000e+02,1.154339569608398564e-01,0.000000000000000000e+00
3.500000000000000000e+02,2.070324797416706331e-01,0.000000000000000000e+00
3.510000000000000000e+02,2.922280451491450215e-01,0.000000000000000000e+00
3.520000000000000000e+02,3.641452427536416847e-01,0.000000000000000000e+00
3.530000000000000000e+02,4.227269766504759274e-01,0.000000000000000000e+00
3.540000000000000000e+02,4.704373393948639848e-01,0.000000000000000000e+00
3.550000000000000000e+02,5.070875802464150928e-01,0.000000000000000000e+00
3.560000000000000000e+02,5.278933203212291536e-01,0.000000000000000000e+00
3.570000000000000000e+02,5.326302371237636724e-01,0.000000000000000000e+00
3.580000000000000000e+02,5.312975098036474275e-01,0.000000000000000000e+00
3.590000000000000000e+02,5.304512538138226319e-01,0.000000000000000000e+00
3.600000000000000000e+02,5.319402085516651280e-01,0.000000000000000000e+00
3.610000000000000000e+02,5.354710060359203494e-01,0.000000000000000000e+00
3.620000000000000000e+02,5.374366592719409530e-01,0.000000000000000000e+00
3.630000000000000000e+02,5.352254922980775875e-01,0.000000000000000000e+00
3.640000000000000000e+02,5.308642410644351939e-01,0.000000000000000000e+00
3.650000000000000000e+02,5.222515051094797078e-01,0.000000000000000000e+00
3.660000000000000000e+02,5.093452816062986610e-01,0.000000000000000000e+00
3.670000000000000000e+02,4.908071826192926257e-01,0.000000000000000000e+00
3.680000000000000000e+02,4.666782945495338009e-01,0.000000000000000000e+00
3.690000000000000000e+02,4.391285448477466602e-01,0.000000000000000000e+00
3.700000000000000000e+02,4.109986882032647393e-01,0.000000000000000000e+00
3.710000000000000000e+02,3.832509476136445326e-01,0.000000000000000000e+00
3.720000000000000000e+02,3.576299556208830110e-01,0.000000000000000000e+00
3.730000000000000000e+02,3.350167414520319187e-01,0.000000000000000000e+00
3.740000000000000000e+02,3.146777249350382610e-01,0.000000000000000000e+00
3.750000000000000000e+02,2.928851174267364521e-01,0.000000000000000000e+00
3.760000000000000000e+02,2.663165679197966318e-01,0.000000000000000000e+00
3.770000000000000000e+02,2.411237316615992832e-01,0.000000000000000000e+00
3.780000000000000000e+02,2.205326046543357177e-01,0.000000000000000000e+00
3.790000000000000000e+02,2.001608644122556402e-01,0.000000000000000000e+00
3.800000000000000000e+02,1.745161026066199272e-01,0.000000000000000000e+00
3.810000000000000000e+02,1.463940596934029392e-01,0.000000000000000000e+00
3.820000000000000000e+02,1.166842988783063778e-01,0.000000000000000000e+00
3.830000000000000000e+02,8.847022894722228470e-02,0.000000000000000000e+00
3.840000000000000000e+02,6.637179642215562669e-02,0.000000000000000000e+00
3.850000000000000000e+02,4.196355079901718799e-02,0.000000000000000000e+00
3.860000000000000000e+02,7.867762537087916175e-03,0.000000000000000000e+00
3.870000000000000000e+02,-2.549018637094717030e-02,0.000000000000000000e+00
3.880000000000000000e+02,-4.834485456712736551e-02,0.000000000000000000e+00
3.890000000000000000e+02,-6.275856875004932889e-02,0.000000000000000000e+00
3.900000000000000000e+02,-7.981962893018372529e-02,0.000000000000000000e+00
3.910000000000000000e+02,-1.050823438311677960e-01,0.000000000000000000e+00
3.920000000000000000e+02,-1.292210187442662805e-01,0.000000000000000000e+00
3.930000000000000000e+02,-1.324229841957587916e-01,0.000000000000000000e+00
3.940000000000000000e+02,-1.047208472801368362e-01,0.000000000000000000e+00
3.950000000000000000e+02,-5.470552102959815727e-02,0.000000000000000000e+00
3.960000000000000000e+02,8.194682636190704292e-03,0.000000000000000000e+00
3.970000000000000000e+02,7.818755179294260838e-02,0.000000000000000000e+00
3.980000000000000000e+02,1.502509139699829688e-01,0.000000000000000000e+00
3.990000000000000000e+02,2.237533006221119336e-01,0.000000000000000000e+00
4.000000000000000000e+02,2.970298631393991640e-01,0.000000000000000000e+00
4.010000000000000000e+02,3.632578696104976079e-01,0.000000000000000000e+00
4.020000000000000000e+02,4.187667174945711168e-01,0.000000000000000000e+00
4.030000000000000000e+02,4.666003423915331960e-01,0.000000000000000000e+00
4.040000000000000000e+02,5.095379385769331915e-01,0.000000000000000000e+00
4.050000000000000000e+02,5.449702392184132549e-01,0.000000000000000000e+00
4.060000000000000000e+02,5.685895756901677700e-01,0.000000000000000000e+00
4.070000000000000000e+02,5.758732964546933175e-01,0.000000000000000000e+00
4.080000000000000000e+02,5.684907071582756544e-01,0.000000000000000000e+00
4.090000000000000000e+02,5.520468222577264994e-01,0.000000000000000000e+00
4.100000000000000000e+02,5.321120322785497514e-01,0.000000000000000000e+00
4.110000000000000000e+02,5.210982738247694757e-01,0.000000000000000000e+00
4.120000000000000000e+02,5.198904093016832872e-01,0.000000000000000000e+00
4.130000000000000000e+02,5.163621708205878846e-01,0.000000000000000000e+00
4.140000000000000000e+02,5.055523520156767203e-01,0.000000000000000000e+00
4.150000000000000000e+02,4.916013575544147529e-01,0.000000000000000000e+00
4.160000000000000000e+02,4.776067659466637916e-01,0.000000000000000000e+00
4.170000000000000000e+02,4.621903168233422732e-01,0.000000000000000000e+00
4.180000000000000000e+02,4.389113871168256464e-01,0.000000000000000000e+00
4.190000000000000000e+02,4.102558857123743130e-01,0.000000000000000000e+00
4.200000000000000000e+02,3.853094475574476707e-01,0.000000000000000000e+00
4.210000000000000000e+02,3.610148176958689059e-01,0.000000000000000000e+00
4.220000000000000000e+02,3.314242600173086806e-01,0.000000000000000000e+00
4.230000000000000000e+02,2.985130121053561902e-01,0.000000000000000000e+00
4.240000000000000000e+02,2.659513059628913489e-01,0.000000000000000000e+00
4.250000000000000000e+02,2.334744640893761936e-01,0.000000000000000000e+00
4.260000000000000000e+02,2.030877331763074889e-01,0.000000000000000000e+00
4.270000000000000000e+02,1.781831237042718619e-01,0.000000000000000000e+00
4.280000000000000000e+02,1.557490696137115160e-01,0.000000000000000000e+00
4.290000000000000000e+02,1.333738750809569940e-01,0.000000000000000000e+00
4.300000000000000000e+02,1.140969643554919921e-01,0.000000000000000000e+00
4.310000000000000000e+02,9.533560301916581270e-02,0.000000000000000000e+00
4.320000000000000000e+02,6.942184405006236736e-02,0.000000000000000000e+00
4.330000000000000000e+02,3.864385700706930715e-02,0.000000000000000000e+00
4.340000000000000000e+02,6.486749474062784675e-03,0.000000000000000000e+00
4.350000000000000000e+02,-2.525399325461583772e-02,0.000000000000000000e+00
4.360000000000000000e+02,-5.321853624712759301e-02,0.000000000000000000e+00
4.370000000000000000e+02,-7.811397298715196114e-02,0.000000000000000000e+00
4.380000000000000000e+02,-1.067235918262826738e-01,0.000000000000000000e+00
4.390000000000000000e+02,-1.324652485514377642e-01,0.000000000000000000e+00
4.400000000000000000e+02,-1.414214459868331220e-01,0.000000000000000000e+00
4.410000000000000000e+02,-1.260315601874300029e-01,0.000000000000000000e+00
4.420000000000000000e+02,-8.223008594030542517e-02,0.000000000000000000e+00
4.430000000000000000e+02,-1.407193063773013939e-02,0.000000000000000000e+00
4.440000000000000000e+02,6.726642764975369893e-02,0.000000000000000000e+00
4.450000000000000000e+02,1.512219670221480183e-01,0.000000000000000000e+00
4.460000000000000000e+02,2.268805762557811467e-01,0.000000000000000000e+00
4.470000000000000000e+02,2.912559504260610055e-01,0.000000000000000000e+00
4.480000000000000000e+02,3.478607552742872810e-01,0.000000000000000000e+00
4.490000000000000000e+02,3.988612337547153275e-01,0.000000000000000000e+00
4.500000000000000000e+02,4.434636822889468366e-01,0.000000000000000000e+00
4.510000000000000000e+02,4.846848578045858114e-01,0.000000000000000000e+00
4.520000000000000000e+02,5.262634375084028759e-01,0.000000000000000000e+00
4.530000000000000000e+02,5.599461087806866244e-01,0.000000000000000000e+00
4.540000000000000000e+02,5.791692657384127640e-01,0.000000000000000000e+00
4.550000000000000000e+02,5.867202941195149846e-01,0.000000000000000000e+00
4.560000000000000000e+02,5.824346226344643274e-01,0.000000000000000000e+00
4.570000000000000000e+02,5.692921274404083576e-01,0.000000000000000000e+00
4.580000000000000000e+02,5.570360531673066440e-01,0.000000000000000000e+00
4.590000000000000000e+02,5.485221992476325692e-01,0.000000000000000000e+00
4.600000000000000000e+02,5.406207922260976018e-01,0.000000000000000000e+00
4.610000000000000000e+02,5.290843588304326994e-01,0.000000000000000000e+00
4.620000000000000000e+02,5.138328848285342865e-01,0.000000000000000000e+00
4.630000000000000000e+02,4.929973861343621699e-01,0.000000000000000000e+00
4.640000000000000000e+02,4.695048575809597224e-01,0.000000000000000000e+00
4.650000000000000000e+02,4.448189631751502393e-01,0.000000000000000000e+00
4.660000000000000000e+02,4.211087840140455008e-01,0.000000000000000000e+00
4.670000000000000000e+02,4.021042527588962745e-01,0.000000000000000000e+00
4.680000000000000000e+02,3.817082382507038796e-01,0.000000000000000000e+00
4.690000000000000000e+02,3.557417505266691760e-01,0.000000000000000000e+00
4.700000000000000000e+02,3.267648891865341243e-01,0.000000000000000000e+00
4.710000000000000000e+02,2.950072827069261661e-01,0.000000000000000000e+00
4.720000000000000000e+02,2.649673717869744927e-01,0.000000000000000000e+00
4.730000000000000000e+02,2.411545850928123458e-01,0.000000000000000000e+00
4.740000000000000000e+02,2.146625838312279655e-01,0.000000000000000000e+00
4.750000000000000000e+02,1.802306115618073079e-01,0.000000000000000000e+00
4.760000000000000000e+02,1.436290921748882565e-01,0.000000000000000000e+00
4.770000000000000000e+02,1.111689280076203629e-01,0.000000000000000000e+00
4.780000000000000000e+02,8.620786184408382735e-02,0.000000000000000000e+00
4.790000000000000000e+02,6.388703545194414357e-02,0.000000000000000000e+00
4.800000000000000000e+02,3.852630913124464179e-02,0.000000000000000000e+00
4.810000000000000000e+02,8.454328403124778887e-03,0.000000000000000000e+00
4.820000000000000000e+02,-2.420561653038369801e-02,0.000000000000000000e+00
4.830000000000000000e+02,-4.867292639225415801e-02,0.000000000000000000e+00
4.840000000000000000e+02,-6.406144694195839429e-02,0.000000000000000000e+00
4.850000000000000000e+02,-8.156701694271543956e-02,0.000000000000000000e+00
4.860000000000000000e+02,-1.071991381152855582e-01,0.000000000000000000e+00
4.870000000000000000e+02,-1.355934089763072281e-01,0.000000000000000000e+00
4.880000000000000000e+02,-1.511066147035804441e-01,0.000000000000000000e+00
4.890000000000000000e+02,-1.355817069046671153e-01,0.000000000000000000e+00
4.900000000000000000e+02,-8.863200098148181494e-02,0.000000000000000000e+00
4.910000000000000000e+02,-1.950892087177783993e-02,0.000000000000000000e+00
4.920000000000000000e+02,6.158354984891758338e-02,0.000000000000000000e+00
4.930000000000000000e+02,1.404847303485398380e-01,0.000000000000000000e+00
4.940000000000000000e+02,2.105405743747112146e-01,0.000000000000000000e+00
4.950000000000000000e+02,2.761970584283288677e-01,0.000000000000000000e+00
4.960000000000000000e+02,3.404237522579764974e-01,0.000000000000000000e+00
4.970000000000000000e+02,3.967003998764824790e-01,0.000000000000000000e+00
4.980000000000000000e+02,4.469894830803782804e-01,0.000000000000000000e+00
4.990000000000000000e+02,4.923264788447893614e-01,0.000000000000000000e+00
5.000000000000000000e+02,5.252528820501694007e-01,0.000000000000000000e+00
5.010000000000000000e+02,5.481418380479341490e-01,0.000000000000000000e+00
5.020000000000000000e+02,5.617210917082602339e-01,0.000000000000000000e+00
5.030000000000000000e+02,5.619798472750641150e-01,0.000000000000000000e+00
5.040000000000000000e+02,5.517206496856542630e-01,0.000000000000000000e+00
5.050000000000000000e+02,5.395697044050656865e-01,0.000000000000000000e+00
5.060000000000000000e+02,5.295493022961722529e-01,0.000000000000000000e+00
5.070000000000000000e+02,5.214016476208467310e-01,0.000000000000000000e+00
5.080000000000000000e+02,5.126840759219277732e-01,0.000000000000000000e+00
5.090000000000000000e+02,5.036857088936002036e-01,0.000000000000000000e+00
5.100000000000000000e+02,4.952875865812850220e-01,0.000000000000000000e+00
5.110000000000000000e+02,4.828058818597658064e-01,0.000000000000000000e+00
5.120000000000000000e+02,4.651973284970786215e-01,0.000000000000000000e+00
5.130000000000000000e+02,4.436893603177053391e-01,0.000000000000000000e+00
5.140000000000000000e+02,4.164878982489707560e-01,0.000000000000000000e+00
5.150000000000000000e+02,3.822220129742089911e-01,0.000000000000000000e+00
5.160000000000000000e+02,3.502886749251201137e-01,0.000000000000000000e+00
5.170000000000000000e+02,3.271771695942079505e-01,0.000000000000000000e+00
5.180000000000000000e+02,3.056733389452306326e-01,0.000000000000000000e+00
5.190000000000000000e+02,2.798196472405989899e-01,0.000000000000000000e+00
5.200000000000000000e+02,2.538508963904080318e-01,0.000000000000000000e+00
5.210000000000000000e+02,2.298879508636190727e-01,0.000000000000000000e+00
5.220000000000000000e+02,2.060590095020894963e-01,0.000000000000000000e+00
5.230000000000000000e+02,1.811039727852267744e-01,0.000000000000000000e+00
5.240000000000000000e+02,1.530169159619540198e-01,0.000000000000000000e+00
5.250000000000000000e+02,1.217892691448265868e-01,0.000000000000000000e+00
5.260000000000000000e+02,9.106816826331788628e-02,0.000000000000000000e+00
5.270000000000000000e+02,6.041630635449384001e-02,0.000000000000000000e+00
5.280000000000000000e+02,3.156667488281558048e-02,0.000000000000000000e+00
5.290000000000000000e+02,6.745589795964685408e-03,0.000000000000000000e+00
5.300000000000000000e+02,-1.319214290262755301e-02,0.000000000000000000e+00
5.310000000000000000e+02,-3.365274329091751115e-02,0.000000000000000000e+00
5.320000000000000000e+02,-6.071431159294474883e-02,0.000000000000000000e+00
5.330000000000000000e+02,-9.573318632447797016e-02,0.000000000000000000e+00
5.340000000000000000e+02,-1.325892556384926091e-01,0.000000000000000000e+00
5.350000000000000000e+02,-1.615472843383435053e-01,0.000000000000000000e+00
5.360000000000000000e+02,-1.825359624149720528e-01,0.000000000000000000e+00
5.370000000000000000e+02,-2.017284200286109386e-01,0.000000000000000000e+00
5.380000000000000000e+02,-2.233115179814150475e-01,0.000000000000000000e+00
5.390000000000000000e+02,-2.466907518045889369e-01,0.000000000000000000e+00
5.400000000000000000e+02,-2.690739378823012729e-01,0.000000000000000000e+00
5.410000000000000000e+02,-2.877679361171911476e-01,0.000000000000000000e+00
5.420000000000000000e+02,-3.075550899738250243e-01,0.000000000000000000e+00
5.430000000000000000e+02,-3.294723517282315828e-01,0.000000000000000000e+00
5.440000000000000000e+02,-3.393828114993843181e-01,0.000000000000000000e+00
5.450000000000000000e+02,-3.236657000829333830e-01,0.000000000000000000e+00
5.460000000000000000e+02,-2.794354515573932440e-01,0.000000000000000000e+00
5.470000000000000000e+02,-2.110465082757702893e-01,0.000000000000000000e+00
5.480000000000000000e+02,-1.250979578992466312e-01,0.000000000000000000e+00
5.490000000000000000e+02,-3.485521703962597001e-02,0.000000000000000000e+00
5.500000000000000000e+02,4.903776859996776538e-02,0.000000000000000000e+00
5.510000000000000000e+02,1.278919913072634473e-01,0.000000000000000000e+00
5.520000000000000000e+02,2.019501341552205342e-01,0.000000000000000000e+00
5.530000000000000000e+02,2.722193794806239131e-01,0.000000000000000000e+00
5.540000000000000000e+02,3.449077236459790474e-01,0.000000000000000000e+00
5.550000000000000000e+02,4.172022065784106171e-01,0.000000000000000000e+00
5.560000000000000000e+02,4.824901814459705007e-01,0.000000000000000000e+00
5.570000000000000000e+02,5.361616958621251428e-01,0.000000000000000000e+00
5.580000000000000000e+02,5.730800619935371154e-01,0.000000000000000000e+00
5.590000000000000000e+02,5.917501164438608852e-01,0.000000000000000000e+00
5.600000000000000000e+02,5.940711912760568980e-01,0.000000000000000000e+00
5.610000000000000000e+02,5.872307002730379200e-01,0.000000000000000000e+00
5.620000000000000000e+02,5.779054824386054001e-01,0.000000000000000000e+00
5.630000000000000000e+02,5.664054125972732834e-01,0.000000000000000000e+00
5.640000000000000000e+02,5.572302747127126921e-01,0.000000000000000000e+00
5.650000000000000000e+02,5.495811461858111091e-01,0.000000000000000000e+00
5.660000000000000000e+02,5.415252420299477842e-01,0.000000000000000000e+00
5.670000000000000000e+02,5.326758813420651162e-01,0.000000000000000000e+00
5.680000000000000000e+02,5.207604725478400809e-01,0.000000000000000000e+00
5.690000000000000000e+02,5.064866735960281696e-01,0.000000000000000000e+00
5.700000000000000000e+02,4.889179682718549635e-01,0.000000000000000000e+00
5.710000000000000000e+02,4.610302434191809740e-01,0.000000000000000000e+00
5.720000000000000000e+02,4.282824880300933890e-01,0.000000000000000000e+00
5.730000000000000000e+02,3.965901779543100081e-01,0.000000000000000000e+00
5.740000000000000000e+02,3.650383461235573446e-01,0.000000000000000000e+00
5.750000000000000000e+02,3.366058432232263975e-01,0.000000000000000000e+00
5.760000000000000000e+02,3.095054728933914201e-01,0.000000000000000000e+00
5.770000000000000000e+02,2.795627345726577895e-01,0.000000000000000000e+00
5.780000000000000000e+02,2.490299251577465789e-01,0.000000000000000000e+00
5.790000000000000000e+02,2.203949286675401242e-01,0.000000000000000000e+00
5.800000000000000000e+02,1.899647432797566815e-01,0.000000000000000000e+00
5.810000000000000000e+02,1.576992610434262421e-01,0.000000000000000000e+00
5.820000000000000000e+02,1.228276342290089834e-01,0.000000000000000000e+00
5.830000000000000000e+02,8.693860941673467457e-02,0.000000000000000000e+00
5.840000000000000000e+02,5.635386486608092577e-02,0.000000000000000000e+00
5.850000000000000000e+02,3.290107840308130471e-02,0.000000000000000000e+00
5.860000000000000000e+02,8.394975447660091988e-03,0.000000000000000000e+00
5.870000000000000000e+02,-2.208445221551475629e-02,0.000000000000000000e+00
5.880000000000000000e+02,-5.503111413008975744e-02,0.000000000000000000e+00
5.890000000000000000e+02,-8.427555087912066978e-02,0.000000000000000000e+00
5.900000000000000000e+02,-1.087712461674195247e-01,0.000000000000000000e+00
5.910000000000000000e+02,-1.309536109955681815e-01,0.000000000000000000e+00
5.920000000000000000e+02,-1.592073905413419199e-01,0.000000000000000000e+00
5.930000000000000000e+02,-1.865277153653203401e-01,0.000000000000000000e+00
5.940000000000000000e+02,-1.971076720203701615e-01,0.000000000000000000e+00
5.950000000000000000e+02,-1.827944832909064177e-01,0.000000000000000000e+00
5.960000000000000000e+02,-1.424093084422524413e-01,0.000000000000000000e+00
5.970000000000000000e+02,-8.152686406305090228e-02,0.000000000000000000e+00
5.980000000000000000e+02,-1.216213532323882039e-02,0.000000000000000000e+00
5.990000000000000000e+02,5.792398710798297989e-02,0.000000000000000000e+00
6.000000000000000000e+02,1.264736302546415059e-01,0.000000000000000000e+00
6.010000000000000000e+02,1.882534509928884825e-01,0.000000000000000000e+00
6.020000000000000000e+02,2.486699368057158910e-01,0.000000000000000000e+00
6.030000000000000000e+02,3.111096544599744051e-01,0.000000000000000000e+00
6.040000000000000000e+02,3.677633895142092824e-01,0.000000000000000000e+00
6.050000000000000000e+02,4.154715748518358343e-01,0.000000000000000000e+00
6.060000000000000000e+02,4.556466837445830032e-01,0.000000000000000000e+00
6.070000000000000000e+02,4.847982551977188526e-01,0.000000000000000000e+00
6.080000000000000000e+02,4.972994831611844968e-01,0.000000000000000000e+00
6.090000000000000000e+02,4.963786738244991281e-01,0.000000000000000000e+00
6.100000000000000000e+02,4.870185709156337750e-01,0.000000000000000000e+00
6.110000000000000000e+02,4.685391656267559046e-01,0.000000000000000000e+00
6.120000000000000000e+02,4.453674484543648227e-01,0.000000000000000000e+00
6.130000000000000000e+02,4.261971055438383837e-01,0.000000000000000000e+00
6.140000000000000000e+02,4.134469659357545845e-01,0.000000000000000000e+00
6.150000000000000000e+02,4.058331397620980607e-01,0.000000000000000000e+00
6.160000000000000000e+02,3.950683296847041781e-01,0.000000000000000000e+00
6.170000000000000000e+02,3.801768055868691154e-01,0.000000000000000000e+00
6.180000000000000000e+02,3.637977694953543062e-01,0.000000000000000000e+00
6.190000000000000000e+02,3.424403356560388745e-01,0.000000000000000000e+00
6.200000000000000000e+02,3.182524032657593760e-01,0.000000000000000000e+00
6.210000000000000000e+02,2.934448434283388751e-01,0.000000000000000000e+00
6.220000000000000000e+02,2.634376962560450730e-01,0.000000000000000000e+00
6.230000000000000000e+02,2.273119194111039854e-01,0.000000000000000000e+00
6.240000000000000000e+02,1.920511670448353525e-01,0.000000000000000000e+00
6.250000000000000000e+02,1.589515256119703457e-01,0.000000000000000000e+00
6.260000000000000000e+02,1.244053578815450117e-01,0.000000000000000000e+00
6.270000000000000000e+02,9.281341000474005454e-02,0.000000000000000000e+00
6.280000000000000000e+02,6.725500392729556742e-02,0.000000000000000000e+00
6.290000000000000000e+02,4.533917251171486196e-02,0.000000000000000000e+00
6.300000000000000000e+02,1.976223879904185146e-02,0.000000000000000000e+00
6.310000000000000000e+02,-1.079303463604037311e-02,0.000000000000000000e+00
6.320000000000000000e+02,-4.087275239616444678e-02,0.000000000000000000e+00
6.330000000000000000e+02,-6.375322701378687007e-02,0.000000000000000000e+00
6.340000000000000000e+02,-8.457101453642539013e-02,0.000000000000000000e+00
6.350000000000000000e+02,-1.127374794914218215e-01,0.000000000000000000e+00
6.360000000000000000e+02,-1.473745190411265005e-01,0.000000000000000000e+00
6.370000000000000000e+02,-1.811983539725046111e-01,0.000000000000000000e+00
6.380000000000000000e+02,-2.122428261807595418e-01,0.000000000000000000e+00
6.390000000000000000e+02,-2.395159629153388314e-01,0.000000000000000000e+00
6.400000000000000000e+02,-2.630360068688476494e-01,0.000000000000000000e+00
6.410000000000000000e+02,-2.869545191167640619e-01,0.000000000000000000e+00
6.420000000000000000e+02,-3.095111739574964438e-01,0.000000000000000000e+00
6.430000000000000000e+02,-3.263585526975111839e-01,0.000000000000000000e+00
6.440000000000000000e+02,-3.302655503333083442e-01,0.000000000000000000e+00
6.450000000000000000e+02,-3.083626347771677434e-01,0.000000000000000000e+00
6.460000000000000000e+02,-2.547218293250194665e-01,0.000000000000000000e+00
6.470000000000000000e+02,-1.791394845615809084e-01,0.000000000000000000e+00
6.480000000000000000e+02,-9.926552427602883255e-02,0.000000000000000000e+00
6.490000000000000000e+02,-2.362216566747476348e-02,0.000000000000000000e+00
6.500000000000000000e+02,4.487601269045111974e-02,0.000000000000000000e+00
6.510000000000000000e+02,1.054401138717476760e-01,0.000000000000000000e+00
6.520000000000000000e+02,1.587248273838738899e-01,0.000000000000000000e+00
6.530000000000000000e+02,2.023214955021343797e-01,0.000000000000000000e+00
6.540000000000000000e+02,2.365393888337823936e-01,0.000000000000000000e+00
6.550000000000000000e+02,2.713734728101449556e-01,0.000000000000000000e+00
6.560000000000000000e+02,3.089180081539043554e-01,0.000000000000000000e+00
6.570000000000000000e+02,3.364447626161526372e-01,0.000000000000000000e+00
6.580000000000000000e+02,3.486604005573006315e-01,0.000000000000000000e+00
6.590000000000000000e+02,3.494588106077479162e-01,0.000000000000000000e+00
6.600000000000000000e+02,3.408559494800639245e-01,0.000000000000000000e+00
6.610000000000000000e+02,3.308061798026587508e-01,0.000000000000000000e+00
6.620000000000000000e+02,3.213264559513727137e-01,0.000000000000000000e+00
6.630000000000000000e+02,3.089443935586825840e-01,0.000000000000000000e+00
6.640000000000000000e+02,2.972124169170164421e-01,0.000000000000000000e+00
6.650000000000000000e+02,2.829979485300506137e-01,0.000000000000000000e+00
6.660000000000000000e+02,2.626935422704618772e-01,0.000000000000000000e+00
6.670000000000000000e+02,2.396516748304125810e-01,0.000000000000000000e+00
6.680000000000000000e+02,2.148666094687241013e-01,0.000000000000000000e+00
6.690000000000000000e+02,1.911473844313623938e-01,0.000000000000000000e+00
6.700000000000000000e+02,1.700032485056407749e-01,0.000000000000000000e+00
6.710000000000000000e+02,1.496360276365114594e-01,0.000000000000000000e+00
6.720000000000000000e+02,1.298856862493396880e-01,0.000000000000000000e+00
6.730000000000000000e+02,1.078776862613257392e-01,0.000000000000000000e+00
6.740000000000000000e+02,8.446015645154308915e-02,0.000000000000000000e+00
6.750000000000000000e+02,6.159220678616589284e-02,0.000000000000000000e+00
6.760000000000000000e+02,3.720397914137785200e-02,0.000000000000000000e+00
6.770000000000000000e+02,4.862207445841317324e-03,0.000000000000000000e+00
6.780000000000000000e+02,-3.550093085996497422e-02,0.000000000000000000e+00
6.790000000000000000e+02,-7.063996412960102389e-02,0.000000000000000000e+00
6.800000000000000000e+02,-9.607590452690972782e-02,0.000000000000000000e+00
6.810000000000000000e+02,-1.197218457182088608e-01,0.000000000000000000e+00
6.820000000000000000e+02,-1.458637419743858687e-01,0.000000000000000000e+00
6.830000000000000000e+02,-1.707905843591028539e-01,0.000000000000000000e+00
6.840000000000000000e+02,-1.914484745537068655e-01,0.000000000000000000e+00
6.850000000000000000e+02,-2.058538230257944412e-01,0.000000000000000000e+00
6.860000000000000000e+02,-2.093439384312454354e-01,0.000000000000000000e+00
6.870000000000000000e+02,-1.887065893059197974e-01,0.000000000000000000e+00
6.880000000000000000e+02,-1.402455348008838087e-01,0.000000000000000000e+00
6.890000000000000000e+02,-8.091128893550746104e-02,0.000000000000000000e+00
6.900000000000000000e+02,-2.176210336632627973e-02,0.000000000000000000e+00
6.910000000000000000e+02,3.889419863664430460e-02,0.000000000000000000e+00
6.920000000000000000e+02,1.024371191069737147e-01,0.000000000000000000e+00
6.930000000000000000e+02,1.606675435844390487e-01,0.000000000000000000e+00
6.940000000000000000e+02,2.108563356235366171e-01,0.000000000000000000e+00
6.950000000000000000e+02,2.528793815358782449e-01,0.000000000000000000e+00
6.960000000000000000e+02,2.918118206353791932e-01,0.000000000000000000e+00
6.970000000000000000e+02,3.313174564948205281e-01,0.000000000000000000e+00
6.980000000000000000e+02,3.627623950511051909e-01,0.000000000000000000e+00
6.990000000000000000e+02,3.749859081501901170e-01,0.000000000000000000e+00
7.000000000000000000e+02,3.693133226328009222e-01,0.000000000000000000e+00
7.010000000000000000e+02,3.537360235867331171e-01,0.000000000000000000e+00
7.020000000000000000e+02,3.368735146984691564e-01,0.000000000000000000e+00
7.030000000000000000e+02,3.192298185668235311e-01,0.000000000000000000e+00
7.040000000000000000e+02,3.019001974078738271e-01,0.000000000000000000e+00
7.050000000000000000e+02,2.887959317908847523e-01,0.000000000000000000e+00
7.060000000000000000e+02,2.803860080490201412e-01,0.000000000000000000e+00
7.070000000000000000e+02,2.719324257810094569e-01,0.000000000000000000e+00
7.080000000000000000e+02,2.596898535868726321e-01,0.000000000000000000e+00
7.090000000000000000e+02,2.445965696205238959e-01,0.000000000000000000e+00
7.100000000000000000e+02,2.235019148620898677e-01,0.000000000000000000e+00
7.110000000000000000e+02,1.932923370461175627e-01,0.000000000000000000e+00
7.120000000000000000e+02,1.541367250532196254e-01,0.000000000000000000e+00
7.130000000000000000e+02,1.144911205532213316e-01,0.000000000000000000e+00
7.140000000000000000e+02,8.010627629975605735e-02,0.000000000000000000e+00
7.150000000000000000e+02,5.110913910675907168e-02,0.000000000000000000e+00
7.160000000000000000e+02,2.597759555431550585e-02,0.000000000000000000e+00
7.170000000000000000e+02,5.907990500528139885e-03,0.000000000000000000e+00
7.180000000000000000e+02,-1.194236416006353406e-02,0.000000000000000000e+00
7.190000000000000000e+02,-3.356481603052713369e-02,0.000000000000000000e+00
7.200000000000000000e+02,-5.634003273455949479e-02,0.000000000000000000e+00
7.210000000000000000e+02,-8.045175136613857969e-02,0.000000000000000000e+00
7.220000000000000000e+02,-1.121826225183066572e-01,0.000000000000000000e+00
7.230000000000000000e+02,-1.525688790677337259e-01,0.000000000000000000e+00
7.240000000000000000e+02,-1.882589078380770553e-01,0.000000000000000000e+00
7.250000000000000000e+02,-2.122300459689953345e-01,0.000000000000000000e+00
7.260000000000000000e+02,-2.335919732791537085e-01,0.000000000000000000e+00
7.270000000000000000e+02,-2.608931280168095834e-01,0.000000000000000000e+00
7.280000000000000000e+02,-2.856986979102272284e-01,0.000000000000000000e+00
7.290000000000000000e+02,-2.911997604848265975e-01,0.000000000000000000e+00
7.300000000000000000e+02,-2.685428327821904326e-01,0.000000000000000000e+00
7.310000000000000000e+02,-2.181884257940752414e-01,0.000000000000000000e+00
7.320000000000000000e+02,-1.420456594005717610e-01,0.000000000000000000e+00
7.330000000000000000e+02,-5.170011727477728108e-02,0.000000000000000000e+00
7.340000000000000000e+02,3.121334727535619510e-02,0.000000000000000000e+00
7.350000000000000000e+02,9.816478850726360894e-02,0.000000000000000000e+00
7.360000000000000000e+02,1.575928190133116802e-01,0.000000000000000000e+00
7.370000000000000000e+02,2.115160935368061157e-01,0.000000000000000000e+00
7.380000000000000000e+02,2.580250250020404978e-01,0.000000000000000000e+00
7.390000000000000000e+02,3.018355775793219453e-01,0.000000000000000000e+00
7.400000000000000000e+02,3.442451373597320008e-01,0.000000000000000000e+00
7.410000000000000000e+02,3.829602748859401440e-01,0.000000000000000000e+00
7.420000000000000000e+02,4.114420692619045195e-01,0.000000000000000000e+00
7.430000000000000000e+02,4.206881121665249079e-01,0.000000000000000000e+00
7.440000000000000000e+02,4.134470847170028107e-01,0.000000000000000000e+00
7.450000000000000000e+02,3.966891838281594307e-01,0.000000000000000000e+00
7.460000000000000000e+02,3.749470805752824765e-01,0.000000000000000000e+00
7.470000000000000000e+02,3.534180493618639396e-01,0.000000000000000000e+00
7.480000000000000000e+02,3.372580729810000233e-01,0.000000000000000000e+00
7.490000000000000000e+02,3.263290514396233744e-01,0.000000000000000000e+00
7.500000000000000000e+02,3.166104368615560993e-01,0.000000000000000000e+00
7.510000000000000000e+02,3.048183546216234330e-01,0.000000000000000000e+00
7.520000000000000000e+02,2.907254173937798281e-01,0.000000000000000000e+00
7.530000000000000000e+02,2.740274486818168875e-01,0.000000000000000000e+00
7.540000000000000000e+02,2.528545953603016372e-01,0.000000000000000000e+00
7.550000000000000000e+02,2.248814988784686719e-01,0.000000000000000000e+00
7.560000000000000000e+02,1.894748044038110923e-01,0.000000000000000000e+00
7.570000000000000000e+02,1.547453301200842624e-01,0.000000000000000000e+00
7.580000000000000000e+02,1.239585963894544174e-01,0.000000000000000000e+00
7.590000000000000000e+02,9.393175986797208665e-02,0.000000000000000000e+00
7.600000000000000000e+02,6.309851484043452197e-02,0.000000000000000000e+00
7.610000000000000000e+02,2.968660175356196973e-02,0.000000000000000000e+00
7.620000000000000000e+02,-2.733006449756692456e-03,0.000000000000000000e+00
7.630000000000000000e+02,-3.330624669862879833e-02,0.000000000000000000e+00
7.640000000000000000e+02,-6.191949808570359343e-02,0.000000000000000000e+00
7.650000000000000000e+02,-8.582226619431457260e-02,0.000000000000000000e+00
7.660000000000000000e+02,-1.079386131161962775e-01,0.000000000000000000e+00
7.670000000000000000e+02,-1.321253087637427048e-01,0.000000000000000000e+00
7.680000000000000000e+02,-1.595410357965480752e-01,0.000000000000000000e+00
7.690000000000000000e+02,-1.845090513504565877e-01,0.000000000000000000e+00
7.700000000000000000e+02,-1.926077414538515942e-01,0.000000000000000000e+00
7.710000000000000000e+02,-1.733083697977193804e-01,0.000000000000000000e+00
7.720000000000000000e+02,-1.298480773035733948e-01,0.000000000000000000e+00
7.730000000000000000e+02,-6.957953856308447815e-02,0.000000000000000000e+00
7.740000000000000000e+02,-2.578590618447316866e-04,0.000000000000000000e+00
7.750000000000000000e+02,6.934588595959169377e-02,0.000000000000000000e+00
7.760000000000000000e+02,1.328864602863026600e-01,0.000000000000000000e+00
7.770000000000000000e+02,1.899329198049526102e-01,0.000000000000000000e+00
7.780000000000000000e+02,2.386116810550563683e-01,0.000000000000000000e+00
7.790000000000000000e+02,2.781074449046158636e-01,0.000000000000000000e+00
7.800000000000000000e+02,3.123511562484847515e-01,0.000000000000000000e+00
7.810000000000000000e+02,3.409755136788516494e-01,0.000000000000000000e+00
7.820000000000000000e+02,3.570343216366742567e-01,0.000000000000000000e+00
7.830000000000000000e+02,3.567712800231622738e-01,0.000000000000000000e+00
7.840000000000000000e+02,3.430850148160294322e-01,0.000000000000000000e+00
7.850000000000000000e+02,3.222564653947790902e-01,0.000000000000000000e+00
7.860000000000000000e+02,3.037040155962611454e-01,0.000000000000000000e+00
7.870000000000000000e+02,2.883300459263216653e-01,0.000000000000000000e+00
7.880000000000000000e+02,2.749461849073590591e-01,0.000000000000000000e+00
7.890000000000000000e+02,2.650759811481077644e-01,0.000000000000000000e+00
7.900000000000000000e+02,2.540704449034191237e-01,0.000000000000000000e+00
7.910000000000000000e+02,2.355938397359965963e-01,0.000000000000000000e+00
7.920000000000000000e+02,2.121200167821649663e-01,0.000000000000000000e+00
7.930000000000000000e+02,1.850475664086870808e-01,0.000000000000000000e+00
7.940000000000000000e+02,1.544924212280457398e-01,0.000000000000000000e+00
7.950000000000000000e+02,1.238165365926173767e-01,0.000000000000000000e+00
7.960000000000000000e+02,9.274209735841371094e-02,0.000000000000000000e+00
7.970000000000000000e+02,6.221990626652600803e-02,0.000000000000000000e+00
7.980000000000000000e+02,3.709286570267476824e-02,0.000000000000000000e+00
7.990000000000000000e+02,1.429059775686073765e-02,0.000000000000000000e+00
8.000000000000000000e+02,-1.570446704356042236e-02,0.000000000000000000e+00
8.010000000000000000e+02,-5.244566876041057563e-02,0.000000000000000000e+00
8.020000000000000000e+02,-8.318335283188640905e-02,0.000000000000000000e+00
8.030000000000000000e+02,-1.053997032493657199e-01,0.000000000000000000e+00
8.040000000000000000e+02,-1.260964481474084187e-01,0.000000000000000000e+00
8.050000000000000000e+02,-1.519543298337269199e-01,0.000000000000000000e+00
8.060000000000000000e+02,-1.783508909905406059e-01,0.000000000000000000e+00
8.070000000000000000e+02,-1.925908243753884086e-01,0.000000000000000000e+00
8.080000000000000000e+02,-1.885430290048018265e-01,0.000000000000000000e+00
8.090000000000000000e+02,-1.616490218098675657e-01,0.000000000000000000e+00
8.100000000000000000e+02,-1.154200913237738158e-01,0.000000000000000000e+00
8.110000000000000000e+02,-5.724771232726601211e-02,0.000000000000000000e+00
8.120000000000000000e+02,2.512020509049094769e-03,0.000000000000000000e+00
8.130000000000000000e+02,5.514006219132851216e-02,0.000000000000000000e+00
8.140000000000000000e+02,1.018499577878778928e-01,0.000000000000000000e+00
8.150000000000000000e+02,1.417241867213497597e-01,0.000000000000000000e+00
8.160000000000000000e+02,1.748667410515716003e-01,0.000000000000000000e+00
8.170000000000000000e+02,2.036406253112392761e-01,0.000000000000000000e+00
8.180000000000000000e+02,2.217272351997751356e-01,0.000000000000000000e+00
8.190000000000000000e+02,2.209514694662889356e-01,0.000000000000000000e+00
8.200000000000000000e+02,2.062734171845886644e-01,0.000000000000000000e+00
8.210000000000000000e+02,1.835871231714940877e-01,0.000000000000000000e+00
8.220000000000000000e+02,1.610441495717883642e-01,0.000000000000000000e+00
8.230000000000000000e+02,1.426046476694109999e-01,0.000000000000000000e+00
8.240000000000000000e+02,1.248359076182317812e-01,0.000000000000000000e+00
8.250000000000000000e+02,1.078583156718035951e-01,0.000000000000000000e+00
8.260000000000000000e+02,9.369832945575108651e-02,0.000000000000000000e+00
8.270000000000000000e+02,8.023997643850228068e-02,0.000000000000000000e+00
8.280000000000000000e+02,6.554851598250331646e-02,0.000000000000000000e+00
8.290000000000000000e+02,4.979023354026527320e-02,0.000000000000000000e+00
8.300000000000000000e+02,3.061766180848108504e-02,0.000000000000000000e+00
8.310000000000000000e+02,6.936238575204848114e-03,0.000000000000000000e+00
8.320000000000000000e+02,-2.042740481857362178e-02,0.000000000000000000e+00
8.330000000000000000e+02,-4.845320148553124151e-02,0.000000000000000000e+00
8.340000000000000000e+02,-7.363203257846194505e-02,0.000000000000000000e+00
8.350000000000000000e+02,-9.552289970351546256e-02,0.000000000000000000e+00
8.360000000000000000e+02,-1.213256987419498445e-01,0.000000000000000000e+00
8.370000000000000000e+02,-1.529369590863849937e-01,0.000000000000000000e+00
8.380000000000000000e+02,-1.856110465673968535e-01,0.000000000000000000e+00
8.390000000000000000e+02,-2.156532944874035573e-01,0.000000000000000000e+00
8.400000000000000000e+02,-2.403667401167716988e-01,0.000000000000000000e+00
8.410000000000000000e+02,-2.566381771797827116e-01,0.000000000000000000e+00
8.420000000000000000e+02,-2.688923312848249814e-01,0.000000000000000000e+00
8.430000000000000000e+02,-2.863443005435106214e-01,0.000000000000000000e+00
8.440000000000000000e+02,-3.104116748003887261e-01,0.000000000000000000e+00
8.450000000000000000e+02,-3.383436288749011589e-01,0.000000000000000000e+00
8.460000000000000000e+02,-3.670497724413527285e-01,0.000000000000000000e+00
8.470000000000000000e+02,-3.943225372247335936e-01,0.000000000000000000e+00
8.480000000000000000e+02,-4.206405985236109646e-01,0.000000000000000000e+00
8.490000000000000000e+02,-4.455153966796668308e-01,0.000000000000000000e+00
8.500000000000000000e+02,-4.612433961258963211e-01,0.000000000000000000e+00
8.510000000000000000e+02,-4.540066422062176144e-01,0.000000000000000000e+00
8.520000000000000000e+02,-4.229542420478716314e-01,0.000000000000000000e+00
8.530000000000000000e+02,-3.720407591861129015e-01,0.000000000000000000e+00
8.540000000000000000e+02,-2.999630511032440050e-01,0.000000000000000000e+00
8.550000000000000000e+02,-2.155792549411905679e-01,0.000000000000000000e+00
8.560000000000000000e+02,-1.327112044710786198e-01,0.000000000000000000e+00
8.570000000000000000e+02,-6.023966353876060442e-02,0.000000000000000000e+00
8.580000000000000000e+02,2.768487901053634948e-03,0.000000000000000000e+00
8.590000000000000000e+02,5.565304873182970458e-02,0.000000000000000000e+00
8.600000000000000000e+02,9.875964650764679220e-02,0.000000000000000000e+00
8.610000000000000000e+02,1.353922376713165565e-01,0.000000000000000000e+00
8.620000000000000000e+02,1.670353748037836650e-01,0.000000000000000000e+00
8.630000000000000000e+02,1.913595039897913186e-01,0.000000000000000000e+00
8.640000000000000000e+02,2.025655953003756560e-01,0.000000000000000000e+00
8.650000000000000000e+02,2.035897326188154111e-01,0.000000000000000000e+00
8.660000000000000000e+02,1.942302304190940965e-01,0.000000000000000000e+00
8.670000000000000000e+02,1.769539862607505953e-01,0.000000000000000000e+00
8.680000000000000000e+02,1.645281185416620218e-01,0.000000000000000000e+00
8.690000000000000000e+02,1.634485217549172531e-01,0.000000000000000000e+00
8.700000000000000000e+02,1.623339296416062838e-01,0.000000000000000000e+00
8.710000000000000000e+02,1.510149583383481042e-01,0.000000000000000000e+00
8.720000000000000000e+02,1.318254673914791009e-01,0.000000000000000000e+00
8.730000000000000000e+02,1.103274805804622116e-01,0.000000000000000000e+00
8.740000000000000000e+02,9.001647398654709364e-02,0.000000000000000000e+00
8.750000000000000000e+02,7.073708866726617639e-02,0.000000000000000000e+00
8.760000000000000000e+02,4.749782345371830750e-02,0.000000000000000000e+00
8.770000000000000000e+02,2.197901915633236267e-02,0.000000000000000000e+00
8.780000000000000000e+02,-5.213215076219804116e-03,0.000000000000000000e+00
8.790000000000000000e+02,-3.022408480957595664e-02,0.000000000000000000e+00
8.800000000000000000e+02,-4.861929587573143169e-02,0.000000000000000000e+00
8.810000000000000000e+02,-6.753911719028761473e-02,0.000000000000000000e+00
8.820000000000000000e+02,-9.514516874715107930e-02,0.000000000000000000e+00
8.830000000000000000e+02,-1.259871701535055788e-01,0.000000000000000000e+00
8.840000000000000000e+02,-1.543989899144356248e-01,0.000000000000000000e+00
8.850000000000000000e+02,-1.824321563431468840e-01,0.000000000000000000e+00
8.860000000000000000e+02,-2.105934552337698773e-01,0.000000000000000000e+00
8.870000000000000000e+02,-2.367184151733948971e-01,0.000000000000000000e+00
8.880000000000000000e+02,-2.637889148116042692e-01,0.000000000000000000e+00
8.890000000000000000e+02,-2.939322177926348978e-01,0.000000000000000000e+00
8.900000000000000000e+02,-3.188890501411151823e-01,0.000000000000000000e+00
8.910000000000000000e+02,-3.347333922289327801e-01,0.000000000000000000e+00
8.920000000000000000e+02,-3.499059288370199305e-01,0.000000000000000000e+00
8.930000000000000000e+02,-3.700723960094323695e-01,0.000000000000000000e+00
8.940000000000000000e+02,-3.939270675036732894e-01,0.000000000000000000e+00
8.950000000000000000e+02,-4.187829324333249836e-01,0.000000000000000000e+00
8.960000000000000000e+02,-4.424504669250695632e-01,0.000000000000000000e+00
8.970000000000000000e+02,-4.652867703095245888e-01,0.000000000000000000e+00
8.980000000000000000e+02,-4.874297567466281400e-01,0.000000000000000000e+00
8.990000000000000000e+02,-5.070294582498303670e-01,0.000000000000000000e+00
9.000000000000000000e+02,-5.265662638036165966e-01,0.000000000000000000e+00
9.010000000000000000e+02,-5.507849609199083618e-01,0.000000000000000000e+00
9.020000000000000000e+02,-5.750061620505477755e-01,0.000000000000000000e+00
9.030000000000000000e+02,-5.939611968992477564e-01,0.000000000000000000e+00
9.040000000000000000e+02,-6.088926251988123761e-01,0.000000000000000000e+00
9.050000000000000000e+02,-6.240095652654422675e-01,0.000000000000000000e+00
9.060000000000000000e+02,-6.392857420522277678e-01,0.000000000000000000e+00
9.070000000000000000e+02,-6.508657265331416752e-01,0.000000000000000000e+00
9.080000000000000000e+02,-6.456126879508934380e-01,0.000000000000000000e+00
9.090000000000000000e+02,-6.121139498436503068e-01,0.000000000000000000e+00
9.100000000000000000e+02,-5.555276411783833801e-01,0.000000000000000000e+00
9.110000000000000000e+02,-4.833577331103419139e-01,0.000000000000000000e+00
9.120000000000000000e+02,-4.037353351781209354e-01,0.000000000000000000e+00
9.130000000000000000e+02,-3.242971547193614912e-01,0.000000000000000000e+00
9.140000000000000000e+02,-2.520643674123547173e-01,0.000000000000000000e+00
9.150000000000000000e+02,-1.846268333918250071e-01,0.000000000000000000e+00
9.160000000000000000e+02,-1.202063871168228271e-01,0.000000000000000000e+00
9.170000000000000000e+02,-6.212590497886893992e-02,0.000000000000000000e+00
9.180000000000000000e+02,-1.359644899413462414e-02,0.000000000000000000e+00
9.190000000000000000e+02,2.558054488589722383e-02,0.000000000000000000e+00
9.200000000000000000e+02,6.120210196557927113e-02,0.000000000000000000e+00
9.210000000000000000e+02,9.550272647234846202e-02,0.000000000000000000e+00
9.220000000000000000e+02,1.209924745745918767e-01,0.000000000000000000e+00
9.230000000000000000e+02,1.321274216829846637e-01,0.000000000000000000e+00
9.240000000000000000e+02,1.320404263382739252e-01,0.000000000000000000e+00
9.250000000000000000e+02,1.224107792473678874e-01,0.000000000000000000e+00
9.260000000000000000e+02,1.045573264410089576e-01,0.000000000000000000e+00
9.270000000000000000e+02,8.880279356741942187e-02,0.000000000000000000e+00
9.280000000000000000e+02,8.255107555001608977e-02,0.000000000000000000e+00
9.290000000000000000e+02,7.868349420037254460e-02,0.000000000000000000e+00
9.300000000000000000e+02,6.992484380310602654e-02,0.000000000000000000e+00
9.310000000000000000e+02,5.618042335096239126e-02,0.000000000000000000e+00
9.320000000000000000e+02,4.315102594336008013e-02,0.000000000000000000e+00
9.330000000000000000e+02,3.292113895672569429e-02,0.000000000000000000e+00
9.340000000000000000e+02,1.573546524083027295e-02,0.000000000000000000e+00
9.350000000000000000e+02,-6.663048732945485962e-03,0.000000000000000000e+00
9.360000000000000000e+02,-3.039342438531814766e-02,0.000000000000000000e+00
9.370000000000000000e+02,-5.886072237624203479e-02,0.000000000000000000e+00
9.380000000000000000e+02,-8.927230013805295683e-02,0.000000000000000000e+00
9.390000000000000000e+02,-1.139881977873898056e-01,0.000000000000000000e+00
9.400000000000000000e+02,-1.326545018856021552e-01,0.000000000000000000e+00
9.410000000000000000e+02,-1.540415015330567905e-01,0.000000000000000000e+00
9.420000000000000000e+02,-1.776580467668618102e-01,0.000000000000000000e+00
9.430000000000000000e+02,-1.999843176210903128e-01,0.000000000000000000e+00
9.440000000000000000e+02,-2.211068550855956327e-01,0.000000000000000000e+00
9.450000000000000000e+02,-2.411928681181185752e-01,0.000000000000000000e+00
9.460000000000000000e+02,-2.597894349952817317e-01,0.000000000000000000e+00
9.470000000000000000e+02,-2.790939458378736138e-01,0.000000000000000000e+00
9.480000000000000000e+02,-2.989999007706936052e-01,0.000000000000000000e+00
9.490000000000000000e+02,-3.182215481617903796e-01,0.000000000000000000e+00
9.500000000000000000e+02,-3.375652529990842976e-01,0.000000000000000000e+00
9.510000000000000000e+02,-3.590935892722745271e-01,0.000000000000000000e+00
9.520000000000000000e+02,-3.825522279662464387e-01,0.000000000000000000e+00
9.530000000000000000e+02,-4.091067695242386337e-01,0.000000000000000000e+00
9.540000000000000000e+02,-4.365814710310531033e-01,0.000000000000000000e+00
9.550000000000000000e+02,-4.579506919079602278e-01,0.000000000000000000e+00
9.560000000000000000e+02,-4.751633056175835756e-01,0.000000000000000000e+00
9.570000000000000000e+02,-4.934350621393531755e-01,0.000000000000000000e+00
9.580000000000000000e+02,-5.142460756659975596e-01,0.000000000000000000e+00
9.590000000000000000e+02,-5.359743224754809354e-01,0.000000000000000000e+00
9.600000000000000000e+02,-5.474965170789231061e-01,0.000000000000000000e+00
9.610000000000000000e+02,-5.370877363809165583e-01,0.000000000000000000e+00
9.620000000000000000e+02,-5.029012823636322960e-01,0.000000000000000000e+00
9.630000000000000000e+02,-4.487496610449097645e-01,0.000000000000000000e+00
9.640000000000000000e+02,-3.786443894502953267e-01,0.000000000000000000e+00
9.650000000000000000e+02,-3.013265077298223349e-01,0.000000000000000000e+00
9.660000000000000000e+02,-2.294476006268270640e-01,0.000000000000000000e+00
9.670000000000000000e+02,-1.735618429691221098e-01,0.000000000000000000e+00
9.680000000000000000e+02,-1.336430457582017395e-01,0.000000000000000000e+00
9.690000000000000000e+02,-9.681281964041998922e-02,0.000000000000000000e+00
9.700000000000000000e+02,-5.811558926805215908e-02,0.000000000000000000e+00
9.710000000000000000e+02,-1.755517273306880788e-02,0.000000000000000000e+00
9.720000000000000000e+02,2.114970613166213334e-02,0.000000000000000000e+00
9.730000000000000000e+02,5.190896789434850528e-02,0.000000000000000000e+00
9.740000000000000000e+02,6.544483201928218141e-02,0.000000000000000000e+00
9.750000000000000000e+02,6.275485002407120427e-02,0.000000000000000000e+00
9.760000000000000000e+02,5.172069574247264989e-02,0.000000000000000000e+00
9.770000000000000000e+02,3.822511675399139358e-02,0.000000000000000000e+00
9.780000000000000000e+02,2.824906101357898755e-02,0.000000000000000000e+00
9.790000000000000000e+02,2.370118820115869884e-02,0.000000000000000000e+00
9.800000000000000000e+02,2.008243846304717459e-02,0.000000000000000000e+00
9.810000000000000000e+02,1.612145764020335090e-02,0.000000000000000000e+00
9.820000000000000000e+02,8.279660216814683713e-03,0.000000000000000000e+00
9.830000000000000000e+02,-6.670119638694598473e-03,0.000000000000000000e+00
9.840000000000000000e+02,-2.635795974900401184e-02,0.000000000000000000e+00
9.850000000000000000e+02,-4.752111231719174239e-02,0.000000000000000000e+00
9.860000000000000000e+02,-6.995154286181118342e-02,0.000000000000000000e+00
9.870000000000000000e+02,-8.868664422405468650e-02,0.000000000000000000e+00
9.880000000000000000e+02,-1.041511841035824421e-01,0.000000000000000000e+00
9.890000000000000000e+02,-1.235845164337459612e-01,0.000000000000000000e+00
9.900000000000000000e+02,-1.478869027805832792e-01,0.000000000000000000e+00
9.910000000000000000e+02,-1.710357445495301054e-01,0.000000000000000000e+00
9.920000000000000000e+02,-1.918374404812926981e-01,0.000000000000000000e+00
9.930000000000000000e+02,-2.125661893982028761e-01,0.000000000000000000e+00
9.940000000000000000e+02,-2.347767901415944714e-01,0.000000000000000000e+00
9.950000000000000000e+02,-2.572202510527416552e-01,0.000000000000000000e+00
9.960000000000000000e+02,-2.740990016449241784e-01,0.000000000000000000e+00
9.970000000000000000e+02,-2.877954519164508396e-01,0.000000000000000000e+00
9.980000000000000000e+02,-3.043552166258888803e-01,0.000000000000000000e+00
9.990000000000000000e+02,-3.228151354645902305e-01,0.000000000000000000e+00
1.000000000000000000e+03,-3.407084030285812970e-01,0.000000000000000000e+00
1.001000000000000000e+03,-3.611130340908240144e-01,0.000000000000000000e+00
1.002000000000000000e+03,-3.824705924376530231e-01,0.000000000000000000e+00
1.003000000000000000e+03,-4.024897660877547190e-01,0.000000000000000000e+00
1.004000000000000000e+03,-4.247643016194060372e-01,0.000000000000000000e+00
1.005000000000000000e+03,-4.498003954806183979e-01,0.000000000000000000e+00
1.006000000000000000e+03,-4.727220225516323704e-01,0.000000000000000000e+00
1.007000000000000000e+03,-4.914569469436064209e-01,0.000000000000000000e+00
1.008000000000000000e+03,-5.085739357185327103e-01,0.000000000000000000e+00
1.009000000000000000e+03,-5.247243290860840181e-01,0.000000000000000000e+00
1.010000000000000000e+03,-5.403896574547346621e-01,0.000000000000000000e+00
1.011000000000000000e+03,-5.563822538146904195e-01,0.000000000000000000e+00
1.012000000000000000e+03,-5.676042303997900218e-01,0.000000000000000000e+00
1.013000000000000000e+03,-5.710642935228741335e-01,0.000000000000000000e+00
1.014000000000000000e+03,-5.611064606156676016e-01,0.000000000000000000e+00
1.015000000000000000e+03,-5.317028632503731922e-01,0.000000000000000000e+00
1.016000000000000000e+03,-4.837743775003037205e-01,0.000000000000000000e+00
1.017000000000000000e+03,-4.294462207937045362e-01,0.000000000000000000e+00
1.018000000000000000e+03,-3.753938548007194620e-01,0.000000000000000000e+00
1.019000000000000000e+03,-3.219646863672404047e-01,0.000000000000000000e+00
1.020000000000000000e+03,-2.682455213186819565e-01,0.000000000000000000e+00
1.021000000000000000e+03,-2.113784764378704717e-01,0.000000000000000000e+00
1.022000000000000000e+03,-1.539019902099326709e-01,0.000000000000000000e+00
1.023000000000000000e+03,-1.039114994015289256e-01,0.000000000000000000e+00
1.024000000000000000e+03,-6.252902763702702926e-02,0.000000000000000000e+00
1.025000000000000000e+03,-2.988526114692614810e-02,0.000000000000000000e+00
1.026000000000000000e+03,-7.362227044253506075e-03,0.000000000000000000e+00
1.027000000000000000e+03,6.939931576691433200e-03,0.000000000000000000e+00
1.028000000000000000e+03,1.335411593237764705e-02,0.000000000000000000e+00
1.029000000000000000e+03,1.154771158414628039e-02,0.000000000000000000e+00
1.030000000000000000e+03,8.221228876253924150e-03,0.000000000000000000e+00
1.031000000000000000e+03,5.164824837402597069e-03,0.000000000000000000e+00
1.032000000000000000e+03,-3.502230665645162527e-03,0.000000000000000000e+00
1.033000000000000000e+03,-1.555259227431341797e-02,0.000000000000000000e+00
1.034000000000000000e+03,-2.447921552749528912e-02,0.000000000000000000e+00
1.035000000000000000e+03,-3.058990333063088887e-02,0.000000000000000000e+00
1.036000000000000000e+03,-3.440367025688077091e-02,0.000000000000000000e+00
1.037000000000000000e+03,-3.874522641586979760e-02,0.000000000000000000e+00
1.038000000000000000e+03,-4.692294197863607769e-02,0.000000000000000000e+00
1.039000000000000000e+03,-5.764037000255287785e-02,0.000000000000000000e+00
1.040000000000000000e+03,-7.128564274137290380e-02,0.000000000000000000e+00
1.041000000000000000e+03,-8.705754598214254791e-02,0.000000000000000000e+00
1.042000000000000000e+03,-1.044465748421800760e-01,0.000000000000000000e+00
1.043000000000000000e+03,-1.258694067448728193e-01,0.000000000000000000e+00
1.044000000000000000e+03,-1.509082822159881487e-01,0.000000000000000000e+00
1.045000000000000000e+03,-1.713362100007379263e-01,0.000000000000000000e+00
1.046000000000000000e+03,-1.820143404165577017e-01,0.000000000000000000e+00
1.047000000000000000e+03,-1.896336788795324468e-01,0.000000000000000000e+00
1.048000000000000000e+03,-2.012412753910305663e-01,0.000000000000000000e+00
1.049000000000000000e+03,-2.188806662539599934e-01,0.000000000000000000e+00
1.050000000000000000e+03,-2.436969887625203279e-01,0.000000000000000000e+00
1.051000000000000000e+03,-2.712946334477633892e-01,0.000000000000000000e+00
1.052000000000000000e+03,-2.943559283090751988e-01,0.000000000000000000e+00
1.053000000000000000e+03,-3.121422773243465731e-01,0.000000000000000000e+00
1.054000000000000000e+03,-3.266418282282095853e-01,0.000000000000000000e+00
1.055000000000000000e+03,-3.389699366836083083e-01,0.000000000000000000e+00
1.056000000000000000e+03,-3.529594486057180402e-01,0.000000000000000000e+00
1.057000000000000000e+03,-3.696741051255306165e-01,0.000000000000000000e+00
1.058000000000000000e+03,-3.859524597823044134e-01,0.000000000000000000e+00
1.059000000000000000e+03,-4.033651178697331696e-01,0.000000000000000000e+00
1.060000000000000000e+03,-4.249081160061888296e-01,0.000000000000000000e+00
1.061000000000000000e+03,-4.423082712963314900e-01,0.000000000000000000e+00
1.062000000000000000e+03,-4.537343251626070328e-01,0.000000000000000000e+00
1.063000000000000000e+03,-4.702650521205821166e-01,0.000000000000000000e+00
1.064000000000000000e+03,-4.904113709638864838e-01,0.000000000000000000e+00
1.065000000000000000e+03,-5.093571233520717279e-01,0.000000000000000000e+00
1.066000000000000000e+03,-5.244782927202804590e-01,0.000000000000000000e+00
1.067000000000000000e+03,-5.353628621863305570e-01,0.000000000000000000e+00
1.068000000000000000e+03,-5.386022477072877068e-01,0.000000000000000000e+00
1.069000000000000000e+03,-5.417975727266352015e-01,0.000000000000000000e+00
1.070000000000000000e+03,-5.519506156356033255e-01,0.000000000000000000e+00
1.071000000000000000e+03,-5.648259582819491476e-01,0.000000000000000000e+00
1.072000000000000000e+03,-5.759541254512908770e-01,0.000000000000000000e+00
1.073000000000000000e+03,-5.855820712323651644e-01,0.000000000000000000e+00
1.074000000000000000e+03,-5.955869352690569274e-01,0.000000000000000000e+00
1.075000000000000000e+03,-6.101801490255530647e-01,0.000000000000000000e+00
1.076000000000000000e+03,-6.303661905819586408e-01,0.000000000000000000e+00
1.077000000000000000e+03,-6.459586179953326068e-01,0.000000000000000000e+00
1.078000000000000000e+03,-6.544843105971672736e-01,0.000000000000000000e+00
1.079000000000000000e+03,-6.628328359506502343e-01,0.000000000000000000e+00
1.080000000000000000e+03,-6.740503158141617490e-01,0.000000000000000000e+00
1.081000000000000000e+03,-6.860949154760282998e-01,0.000000000000000000e+00
1.082000000000000000e+03,-6.942965134369427638e-01,0.000000000000000000e+00
1.083000000000000000e+03,-6.859993709252872884e-01,0.000000000000000000e+00
1.084000000000000000e+03,-6.517792576240326596e-01,0.000000000000000000e+00
1.085000000000000000e+03,-5.943150802295910085e-01,0.000000000000000000e+00
1.086000000000000000e+03,-5.246362981842371820e-01,0.000000000000000000e+00
1.087000000000000000e+03,-4.499985886811965763e-01,0.000000000000000000e+00
1.088000000000000000e+03,-3.765797777843817307e-01,0.000000000000000000e+00
1.089000000000000000e+03,-3.048706802151752160e-01,0.000000000000000000e+00
1.090000000000000000e+03,-2.381483987660742707e-01,0.000000000000000000e+00
1.091000000000000000e+03,-1.805914632499492078e-01,0.000000000000000000e+00
1.092000000000000000e+03,-1.298977480570172038e-01,0.000000000000000000e+00
1.093000000000000000e+03,-8.151265599301764364e-02,0.000000000000000000e+00
1.094000000000000000e+03,-3.624061806090867616e-02,0.000000000000000000e+00
1.095000000000000000e+03,5.611194647617620025e-03,0.000000000000000000e+00
1.096000000000000000e+03,4.150775592193738095e-02,0.000000000000000000e+00
1.097000000000000000e+03,6.357873502095227891e-02,0.000000000000000000e+00
1.098000000000000000e+03,6.966096358879568518e-02,0.000000000000000000e+00
1.099000000000000000e+03,6.808352324294866809e-02,0.000000000000000000e+00
1.100000000000000000e+03,6.605538654110264252e-02,0.000000000000000000e+00
1.101000000000000000e+03,6.456544505302425074e-02,0.000000000000000000e+00
1.102000000000000000e+03,6.361106006951838809e-02,0.000000000000000000e+00
1.103000000000000000e+03,6.131310481322815864e-02,0.000000000000000000e+00
1.104000000000000000e+03,5.792934726076229279e-02,0.000000000000000000e+00
1.105000000000000000e+03,5.450301536562201371e-02,0.000000000000000000e+00
1.106000000000000000e+03,4.966665906012383142e-02,0.000000000000000000e+00
1.107000000000000000e+03,3.897323987730188372e-02,0.000000000000000000e+00
1.108000000000000000e+03,2.726336888712645179e-02,0.000000000000000000e+00
1.109000000000000000e+03,1.649097579378611123e-02,0.000000000000000000e+00
1.110000000000000000e+03,2.271380001919420712e-03,0.000000000000000000e+00
1.111000000000000000e+03,-1.132011767268190604e-02,0.000000000000000000e+00
1.112000000000000000e+03,-2.495188828759123054e-02,0.000000000000000000e+00
1.113000000000000000e+03,-4.500435019012872379e-02,0.000000000000000000e+00
1.114000000000000000e+03,-6.944616979044154759e-02,0.000000000000000000e+00
1.115000000000000000e+03,-9.192749335094496654e-02,0.000000000000000000e+00
1.116000000000000000e+03,-1.145776352020116823e-01,0.000000000000000000e+00
1.117000000000000000e+03,-1.346115907427122838e-01,0.000000000000000000e+00
1.118000000000000000e+03,-1.511920770113115708e-01,0.000000000000000000e+00
1.119000000000000000e+03,-1.672929828385068263e-01,0.000000000000000000e+00
1.120000000000000000e+03,-1.816834869966786337e-01,0.000000000000000000e+00
1.121000000000000000e+03,-1.951612896374169404e-01,0.000000000000000000e+00
1.122000000000000000e+03,-2.082299993931472359e-01,0.000000000000000000e+00
1.123000000000000000e+03,-2.205270052996171071e-01,0.000000000000000000e+00
1.124000000000000000e+03,-2.329613935177886896e-01,0.000000000000000000e+00
1.125000000000000000e+03,-2.476372398023445331e-01,0.000000000000000000e+00
1.126000000000000000e+03,-2.657192442351433148e-01,0.000000000000000000e+00
1.127000000000000000e+03,-2.869260358737899530e-01,0.000000000000000000e+00
1.128000000000000000e+03,-3.100125612634773709e-01,0.000000000000000000e+00
1.129000000000000000e+03,-3.376012251810815989e-01,0.000000000000000000e+00
1.130000000000000000e+03,-3.653820195490851130e-01,0.000000000000000000e+00
1.131000000000000000e+03,-3.766848934857100484e-01,0.000000000000000000e+00
1.132000000000000000e+03,-3.632311312715281182e-01,0.000000000000000000e+00
1.133000000000000000e+03,-3.220209848029559341e-01,0.000000000000000000e+00
1.134000000000000000e+03,-2.564738222213400198e-01,0.000000000000000000e+00
1.135000000000000000e+03,-1.786326701952963836e-01,0.000000000000000000e+00
1.136000000000000000e+03,-9.935195366526275440e-02,0.000000000000000000e+00
1.137000000000000000e+03,-2.330151630978712779e-02,0.000000000000000000e+00
1.138000000000000000e+03,4.708863229124434641e-02,0.000000000000000000e+00
1.139000000000000000e+03,1.120885367925292808e-01,0.000000000000000000e+00
1.140000000000000000e+03,1.718503755424953539e-01,0.000000000000000000e+00
1.141000000000000000e+03,2.230905272454635491e-01,0.000000000000000000e+00
1.142000000000000000e+03,2.673130394137249177e-01,0.000000000000000000e+00
1.143000000000000000e+03,3.076121715585406480e-01,0.000000000000000000e+00
1.144000000000000000e+03,3.414222132123515552e-01,0.000000000000000000e+00
1.145000000000000000e+03,3.643521140028561089e-01,0.000000000000000000e+00
1.146000000000000000e+03,3.751967050628102762e-01,0.000000000000000000e+00
1.147000000000000000e+03,3.741755978154832074e-01,0.000000000000000000e+00
1.148000000000000000e+03,3.660774555545902031e-01,0.000000000000000000e+00
1.149000000000000000e+03,3.573922086416046473e-01,0.000000000000000000e+00
1.150000000000000000e+03,3.524230240471667441e-01,0.000000000000000000e+00
1.151000000000000000e+03,3.500979003392173383e-01,0.000000000000000000e+00
1.152000000000000000e+03,3.442185257210460536e-01,0.000000000000000000e+00
1.153000000000000000e+03,3.306697436412159297e-01,0.000000000000000000e+00
1.154000000000000000e+03,3.136095500112776047e-01,0.000000000000000000e+00
1.155000000000000000e+03,2.934619461051197753e-01,0.000000000000000000e+00
1.156000000000000000e+03,2.698590867572459584e-01,0.000000000000000000e+00
1.157000000000000000e+03,2.463773705768599886e-01,0.000000000000000000e+00
1.158000000000000000e+03,2.220446350233734323e-01,0.000000000000000000e+00
1.159000000000000000e+03,1.933171558905254772e-01,0.000000000000000000e+00
1.160000000000000000e+03,1.687642357735323340e-01,0.000000000000000000e+00
1.161000000000000000e+03,1.530536535492019179e-01,0.000000000000000000e+00
1.162000000000000000e+03,1.369498698585134844e-01,0.000000000000000000e+00
1.163000000000000000e+03,1.154750325310366227e-01,0.000000000000000000e+00
1.164000000000000000e+03,8.715761703444978303e-02,0.000000000000000000e+00
1.165000000000000000e+03,5.452850196067524774e-02,0.000000000000000000e+00
1.166000000000000000e+03,2.115041380955204678e-02,0.000000000000000000e+00
1.167000000000000000e+03,-1.098967826435899922e-02,0.000000000000000000e+00
1.168000000000000000e+03,-3.661771154194029543e-02,0.000000000000000000e+00
1.169000000000000000e+03,-5.423844010307667801e-02,0.000000000000000000e+00
1.170000000000000000e+03,-7.355936160256193457e-02,0.000000000000000000e+00
1.171000000000000000e+03,-9.811955101376197697e-02,0.000000000000000000e+00
1.172000000000000000e+03,-1.184646154936481732e-01,0.000000000000000000e+00
1.173000000000000000e+03,-1.341115747366681821e-01,0.000000000000000000e+00
1.174000000000000000e+03,-1.552356231205060111e-01,0.000000000000000000e+00
1.175000000000000000e+03,-1.792161913546150287e-01,0.000000000000000000e+00
1.176000000000000000e+03,-1.981637207987574645e-01,0.000000000000000000e+00
1.177000000000000000e+03,-2.195152925098630692e-01,0.000000000000000000e+00
1.178000000000000000e+03,-2.462759328573056183e-01,0.000000000000000000e+00
1.179000000000000000e+03,-2.716228685729612513e-01,0.000000000000000000e+00
1.180000000000000000e+03,-2.922241073961557856e-01,0.000000000000000000e+00
1.181000000000000000e+03,-3.099454665669579834e-01,0.000000000000000000e+00
1.182000000000000000e+03,-3.297861268988615535e-01,0.000000000000000000e+00
1.183000000000000000e+03,-3.553692102710609424e-01,0.000000000000000000e+00
1.184000000000000000e+03,-3.802030318346578674e-01,0.000000000000000000e+00
1.185000000000000000e+03,-3.980320341207282397e-01,0.000000000000000000e+00
1.186000000000000000e+03,-4.169869180971844669e-01,0.000000000000000000e+00
1.187000000000000000e+03,-4.379117809435227882e-01,0.000000000000000000e+00
1.188000000000000000e+03,-4.500812633173154054e-01,0.000000000000000000e+00
1.189000000000000000e+03,-4.437505240187165634e-01,0.000000000000000000e+00
1.190000000000000000e+03,-4.147600148835186018e-01,0.000000000000000000e+00
1.191000000000000000e+03,-3.634356590462433645e-01,0.000000000000000000e+00
1.192000000000000000e+03,-2.988755443982229476e-01,0.000000000000000000e+00
1.193000000000000000e+03,-2.281993175756426573e-01,0.000000000000000000e+00
1.194000000000000000e+03,-1.539273559884316578e-01,0.000000000000000000e+00
1.195000000000000000e+03,-7.825514709186302820e-02,0.000000000000000000e+00
1.196000000000000000e+03,-1.015931519673917219e-02,0.000000000000000000e+00
1.197000000000000000e+03,5.016032696977693051e-02,0.000000000000000000e+00
1.198000000000000000e+03,1.035221527226956040e-01,0.000000000000000000e+00
1.199000000000000000e+03,1.513189069146940458e-01,0.000000000000000000e+00
1.200000000000000000e+03,2.000562633918198663e-01,0.000000000000000000e+00
1.201000000000000000e+03,2.491308117383171095e-01,0.000000000000000000e+00
1.202000000000000000e+03,2.886280549554720021e-01,0.000000000000000000e+00
1.203000000000000000e+03,3.126663527325991843e-01,0.000000000000000000e+00
1.204000000000000000e+03,3.228482740228967862e-01,0.000000000000000000e+00
1.205000000000000000e+03,3.209004263462397755e-01,0.000000000000000000e+00
1.206000000000000000e+03,3.135212236453582269e-01,0.000000000000000000e+00
1.207000000000000000e+03,3.035180180183298937e-01,0.000000000000000000e+00
1.208000000000000000e+03,2.894169197785634307e-01,0.000000000000000000e+00
1.209000000000000000e+03,2.798429548279051104e-01,0.000000000000000000e+00
1.210000000000000000e+03,2.777595439357373186e-01,0.000000000000000000e+00
1.211000000000000000e+03,2.732602378193434434e-01,0.000000000000000000e+00
1.212000000000000000e+03,2.648789066153161009e-01,0.000000000000000000e+00
1.213000000000000000e+03,2.561303879489271185e-01,0.000000000000000000e+00
1.214000000000000000e+03,2.419063217947863553e-01,0.000000000000000000e+00
1.215000000000000000e+03,2.197266650135644983e-01,0.000000000000000000e+00
1.216000000000000000e+03,1.940223930725822887e-01,0.000000000000000000e+00
1.217000000000000000e+03,1.696415735759223553e-01,0.000000000000000000e+00
1.218000000000000000e+03,1.454913200382070837e-01,0.000000000000000000e+00
1.219000000000000000e+03,1.216080240149494257e-01,0.000000000000000000e+00
1.220000000000000000e+03,9.578098148077444918e-02,0.000000000000000000e+00
1.221000000000000000e+03,7.023198416405732059e-02,0.000000000000000000e+00
1.222000000000000000e+03,4.691457978373894666e-02,0.000000000000000000e+00
1.223000000000000000e+03,2.296526047822727498e-02,0.000000000000000000e+00
1.224000000000000000e+03,2.278973443444049386e-03,0.000000000000000000e+00
1.225000000000000000e+03,-1.858850152208241929e-02,0.000000000000000000e+00
1.226000000000000000e+03,-4.308662956260840560e-02,0.000000000000000000e+00
1.227000000000000000e+03,-6.397851126199291527e-02,0.000000000000000000e+00
1.228000000000000000e+03,-8.109113195195566393e-02,0.000000000000000000e+00
1.229000000000000000e+03,-1.049651004407708005e-01,0.000000000000000000e+00
1.230000000000000000e+03,-1.350463234232700538e-01,0.000000000000000000e+00
1.231000000000000000e+03,-1.628183212633332877e-01,0.000000000000000000e+00
1.232000000000000000e+03,-1.878198735095011340e-01,0.000000000000000000e+00
1.233000000000000000e+03,-2.113861620413287068e-01,0.000000000000000000e+00
1.234000000000000000e+03,-2.334867753731087459e-01,0.000000000000000000e+00
1.235000000000000000e+03,-2.551473971880835467e-01,0.000000000000000000e+00
1.236000000000000000e+03,-2.736241116917370597e-01,0.000000000000000000e+00
1.237000000000000000e+03,-2.888031314042726061e-01,0.000000000000000000e+00
1.238000000000000000e+03,-3.068051920424284540e-01,0.000000000000000000e+00
1.239000000000000000e+03,-3.262449451760772723e-01,0.000000000000000000e+00
1.240000000000000000e+03,-3.438416740750486200e-01,0.000000000000000000e+00
1.241000000000000000e+03,-3.628788533589230036e-01,0.000000000000000000e+00
1.242000000000000000e+03,-3.804211565650515992e-01,0.000000000000000000e+00
1.243000000000000000e+03,-3.916410583525439248e-01,0.000000000000000000e+00
1.244000000000000000e+03,-4.056407341029235614e-01,0.000000000000000000e+00
1.245000000000000000e+03,-4.308303249958714276e-01,0.000000000000000000e+00
1.246000000000000000e+03,-4.591139462576102614e-01,0.000000000000000000e+00
1.247000000000000000e+03,-4.774808872405055249e-01,0.000000000000000000e+00
1.248000000000000000e+03,-4.778499504308721946e-01,0.000000000000000000e+00
1.249000000000000000e+03,-4.537485349131946122e-01,0.000000000000000000e+00
1.250000000000000000e+03,-4.046547285876729294e-01,0.000000000000000000e+00
1.251000000000000000e+03,-3.378371825669395645e-01,0.000000000000000000e+00
1.252000000000000000e+03,-2.625605217068250896e-01,0.000000000000000000e+00
1.253000000000000000e+03,-1.850353959156533501e-01,0.000000000000000000e+00
1.254000000000000000e+03,-1.121407433862126185e-01,0.000000000000000000e+00
1.255000000000000000e+03,-4.794207971904983212e-02,0.000000000000000000e+00
1.256000000000000000e+03,6.834238989308810512e-03,0.000000000000000000e+00
1.257000000000000000e+03,4.943486744156801865e-02,0.000000000000000000e+00
1.258000000000000000e+03,8.504146133659615248e-02,0.000000000000000000e+00
1.259000000000000000e+03,1.211138858458939704e-01,0.000000000000000000e+00
1.260000000000000000e+03,1.550430472791811953e-01,0.000000000000000000e+00
1.261000000000000000e+03,1.818857687230122921e-01,0.000000000000000000e+00
1.262000000000000000e+03,1.995233579058103834e-01,0.000000000000000000e+00
1.263000000000000000e+03,2.065348965334796727e-01,0.000000000000000000e+00
1.264000000000000000e+03,2.079995043865298932e-01,0.000000000000000000e+00
1.265000000000000000e+03,2.074909569935344533e-01,0.000000000000000000e+00
1.266000000000000000e+03,2.051024110940115608e-01,0.000000000000000000e+00
1.267000000000000000e+03,2.053167500281051772e-01,0.000000000000000000e+00
1.268000000000000000e+03,2.110818352578274493e-01,0.000000000000000000e+00
1.269000000000000000e+03,2.141542755767313622e-01,0.000000000000000000e+00
1.270000000000000000e+03,2.087298477682387188e-01,0.000000000000000000e+00
1.271000000000000000e+03,1.936289825566711309e-01,0.000000000000000000e+00
1.272000000000000000e+03,1.696158127625949918e-01,0.000000000000000000e+00
1.273000000000000000e+03,1.457101912054471760e-01,0.000000000000000000e+00
1.274000000000000000e+03,1.253119552659577307e-01,0.000000000000000000e+00
1.275000000000000000e+03,1.022085787244351313e-01,0.000000000000000000e+00
1.276000000000000000e+03,7.912591122084949857e-02,0.000000000000000000e+00
1.277000000000000000e+03,5.613413395712196774e-02,0.000000000000000000e+00
1.278000000000000000e+03,3.220036516527769593e-02,0.000000000000000000e+00
1.279000000000000000e+03,1.623939989346138632e-02,0.000000000000000000e+00
1.280000000000000000e+03,8.222128124035570432e-03,0.000000000000000000e+00
1.281000000000000000e+03,-6.242470439059807572e-03,0.000000000000000000e+00
1.282000000000000000e+03,-3.004103165859092414e-02,0.000000000000000000e+00
1.283000000000000000e+03,-5.570948937712420085e-02,0.000000000000000000e+00
1.284000000000000000e+03,-7.825775200425294509e-02,0.000000000000000000e+00
1.285000000000000000e+03,-9.528491958274479257e-02,0.000000000000000000e+00
1.286000000000000000e+03,-1.022899313156502565e-01,0.000000000000000000e+00
1.287000000000000000e+03,-9.717837397507654573e-02,0.000000000000000000e+00
1.288000000000000000e+03,-8.174630951201104778e-02,0.000000000000000000e+00
1.289000000000000000e+03,-5.607825562003798670e-02,0.000000000000000000e+00
1.290000000000000000e+03,-2.497242794250083969e-02,0.000000000000000000e+00
1.291000000000000000e+03,9.307954553274495890e-03,0.000000000000000000e+00
1.292000000000000000e+03,4.326595229453720354e-02,0.000000000000000000e+00
1.293000000000000000e+03,7.077835785081022790e-02,0.000000000000000000e+00
1.294000000000000000e+03,9.248051367698156833e-02,0.000000000000000000e+00
1.295000000000000000e+03,1.069138997705389310e-01,0.000000000000000000e+00
1.296000000000000000e+03,1.031269497681438913e-01,0.000000000000000000e+00
1.297000000000000000e+03,8.779049765337383626e-02,0.000000000000000000e+00
1.298000000000000000e+03,7.257650491715035568e-02,0.000000000000000000e+00
1.299000000000000000e+03,5.548196218093598420e-02,0.000000000000000000e+00
1.300000000000000000e+03,3.667256240681204121e-02,0.000000000000000000e+00
1.301000000000000000e+03,2.059259040638005897e-02,0.000000000000000000e+00
1.302000000000000000e+03,7.629999465572158239e-03,0.000000000000000000e+00
1.303000000000000000e+03,-2.547929866263565647e-03,0.000000000000000000e+00
1.304000000000000000e+03,-1.168366624330418983e-02,0.000000000000000000e+00
1.305000000000000000e+03,-2.323599640410838746e-02,0.000000000000000000e+00
1.306000000000000000e+03,-3.861352278250747977e-02,0.000000000000000000e+00
1.307000000000000000e+03,-5.464586721571846467e-02,0.000000000000000000e+00
1.308000000000000000e+03,-7.110525991643415478e-02,0.000000000000000000e+00
1.309000000000000000e+03,-9.187262951270458444e-02,0.000000000000000000e+00
1.310000000000000000e+03,-1.107627598256104989e-01,0.000000000000000000e+00
1.311000000000000000e+03,-1.230038297866170721e-01,0.000000000000000000e+00
1.312000000000000000e+03,-1.353314741212719996e-01,0.000000000000000000e+00
1.313000000000000000e+03,-1.489699024785020032e-01,0.000000000000000000e+00
1.314000000000000000e+03,-1.660334347372726671e-01,0.000000000000000000e+00
1.315000000000000000e+03,-1.894820218784808441e-01,0.000000000000000000e+00
1.316000000000000000e+03,-2.075243354853753275e-01,0.000000000000000000e+00
1.317000000000000000e+03,-2.117211188935504140e-01,0.000000000000000000e+00
1.318000000000000000e+03,-2.055655468619832227e-01,0.000000000000000000e+00
1.319000000000000000e+03,-1.932140865943862695e-01,0.000000000000000000e+00
1.320000000000000000e+03,-1.748820971005465297e-01,0.000000000000000000e+00
1.321000000000000000e+03,-1.539319963615480569e-01,0.000000000000000000e+00
1.322000000000000000e+03,-1.395946259274481738e-01,0.000000000000000000e+00
1.323000000000000000e+03,-1.393538908855785075e-01,0.000000000000000000e+00
1.324000000000000000e+03,-1.519300819213574572e-01,0.000000000000000000e+00
1.325000000000000000e+03,-1.699158686105741445e-01,0.000000000000000000e+00
1.326000000000000000e+03,-1.877104599177877031e-01,0.000000000000000000e+00
1.327000000000000000e+03,-2.048707856391498161e-01,0.000000000000000000e+00
1.328000000000000000e+03,-2.225609508449716001e-01,0.000000000000000000e+00
1.329000000000000000e+03,-2.370158601706789658e-01,0.000000000000000000e+00
1.330000000000000000e+03,-2.509272955125187998e-01,0.000000000000000000e+00
1.331000000000000000e+03,-2.652123671987241527e-01,0.000000000000000000e+00
1.332000000000000000e+03,-2.798998109813349289e-01,0.000000000000000000e+00
1.333000000000000000e+03,-2.930543231660312498e-01,0.000000000000000000e+00
1.334000000000000000e+03,-3.017263917958259989e-01,0.000000000000000000e+00
1.335000000000000000e+03,-3.081139578776880827e-01,0.000000000000000000e+00
1.336000000000000000e+03,-3.151224420719788144e-01,0.000000000000000000e+00
1.337000000000000000e+03,-3.229142881923062758e-01,0.000000000000000000e+00
1.338000000000000000e+03,-3.367678914862884398e-01,0.000000000000000000e+00
1.339000000000000000e+03,-3.553323319436533789e-01,0.000000000000000000e+00
1.340000000000000000e+03,-3.716027923642538644e-01,0.000000000000000000e+00
1.341000000000000000e+03,-3.866583696539556692e-01,0.000000000000000000e+00
1.342000000000000000e+03,-4.038840221810732767e-01,0.000000000000000000e+00
1.343000000000000000e+03,-4.222074299713499679e-01,0.000000000000000000e+00
1.344000000000000000e+03,-4.340228964098243325e-01,0.000000000000000000e+00
1.345000000000000000e+03,-4.413990593002782292e-01,0.000000000000000000e+00
1.346000000000000000e+03,-4.511149141380760286e-01,0.000000000000000000e+00
1.347000000000000000e+03,-4.627687643509179605e-01,0.000000000000000000e+00
1.348000000000000000e+03,-4.714193419037009947e-01,0.000000000000000000e+00
1.349000000000000000e+03,-4.798648493684342098e-01,0.000000000000000000e+00
1.350000000000000000e+03,-4.916179083318719112e-01,0.000000000000000000e+00
1.351000000000000000e+03,-5.025793126094748597e-01,0.000000000000000000e+00
1.352000000000000000e+03,-5.106559891730804157e-01,0.000000000000000000e+00
1.353000000000000000e+03,-5.195894434378454108e-01,0.000000000000000000e+00
1.354000000000000000e+03,-5.304222236457611928e-01,0.000000000000000000e+00
1.355000000000000000e+03,-5.421597667344250082e-01,0.000000000000000000e+00
1.356000000000000000e+03,-5.538190819134544141e-01,0.000000000000000000e+00
1.357000000000000000e+03,-5.647407422058173809e-01,0.000000000000000000e+00
1.358000000000000000e+03,-5.758272939976295524e-01,0.000000000000000000e+00
1.359000000000000000e+03,-5.870072687817883272e-01,0.000000000000000000e+00
1.360000000000000000e+03,-5.976890548314662821e-01,0.000000000000000000e+00
1.361000000000000000e+03,-6.106094191188038423e-01,0.000000000000000000e+00
1.362000000000000000e+03,-6.229167902942406299e-01,0.000000000000000000e+00
1.363000000000000000e+03,-6.251233341541149180e-01,0.000000000000000000e+00
1.364000000000000000e+03,-6.023653344989172709e-01,0.000000000000000000e+00
1.365000000000000000e+03,-5.507923199523712121e-01,0.000000000000000000e+00
1.366000000000000000e+03,-4.821917145696514861e-01,0.000000000000000000e+00
1.367000000000000000e+03,-4.085646388756330460e-01,0.000000000000000000e+00
1.368000000000000000e+03,-3.295787346418435626e-01,0.000000000000000000e+00
1.369000000000000000e+03,-2.500078534172496814e-01,0.000000000000000000e+00
1.370000000000000000e+03,-1.758939956026010776e-01,0.000000000000000000e+00
1.371000000000000000e+03,-1.078878885750806094e-01,0.000000000000000000e+00
1.372000000000000000e+03,-4.303326445497804992e-02,0.000000000000000000e+00
1.373000000000000000e+03,1.338626603414511812e-02,0.000000000000000000e+00
1.374000000000000000e+03,5.890453314476659652e-02,0.000000000000000000e+00
1.375000000000000000e+03,1.019462010289950843e-01,0.000000000000000000e+00
1.376000000000000000e+03,1.411738875397119120e-01,0.000000000000000000e+00
1.377000000000000000e+03,1.653607673554839397e-01,0.000000000000000000e+00
1.378000000000000000e+03,1.745902605446496558e-01,0.000000000000000000e+00
1.379000000000000000e+03,1.748853747360654964e-01,0.000000000000000000e+00
1.380000000000000000e+03,1.733361056171550951e-01,0.000000000000000000e+00
1.381000000000000000e+03,1.728284648498548126e-01,0.000000000000000000e+00
1.382000000000000000e+03,1.730789125000104511e-01,0.000000000000000000e+00
1.383000000000000000e+03,1.742749662293735236e-01,0.000000000000000000e+00
1.384000000000000000e+03,1.753979931177855056e-01,0.000000000000000000e+00
1.385000000000000000e+03,1.781682405243135980e-01,0.000000000000000000e+00
1.386000000000000000e+03,1.789548429902285409e-01,0.000000000000000000e+00
1.387000000000000000e+03,1.716368842776745396e-01,0.000000000000000000e+00
1.388000000000000000e+03,1.531794065604658861e-01,0.000000000000000000e+00
1.389000000000000000e+03,1.266309091290787614e-01,0.000000000000000000e+00
1.390000000000000000e+03,1.025666957354938180e-01,0.000000000000000000e+00
1.391000000000000000e+03,8.598940110868048825e-02,0.000000000000000000e+00
1.392000000000000000e+03,7.203032257557262508e-02,0.000000000000000000e+00
1.393000000000000000e+03,5.572504522237380770e-02,0.000000000000000000e+00
1.394000000000000000e+03,3.429849980974899321e-02,0.000000000000000000e+00
1.395000000000000000e+03,1.136748521538441178e-02,0.000000000000000000e+00
1.396000000000000000e+03,-6.523024948352371122e-03,0.000000000000000000e+00
1.397000000000000000e+03,-2.464133375559783221e-02,0.000000000000000000e+00
1.398000000000000000e+03,-4.239649170929143257e-02,0.000000000000000000e+00
1.399000000000000000e+03,-5.247826102798396758e-02,0.000000000000000000e+00
1.400000000000000000e+03,-6.442000364272061630e-02,0.000000000000000000e+00
1.401000000000000000e+03,-8.731003254087087162e-02,0.000000000000000000e+00
1.402000000000000000e+03,-1.133248499410884763e-01,0.000000000000000000e+00
1.403000000000000000e+03,-1.262359372667141988e-01,0.000000000000000000e+00
1.404000000000000000e+03,-1.194750549739321682e-01,0.000000000000000000e+00
1.405000000000000000e+03,-9.307496246732281653e-02,0.000000000000000000e+00
1.406000000000000000e+03,-5.679668218925908174e-02,0.000000000000000000e+00
1.407000000000000000e+03,-2.264782719436239655e-02,0.000000000000000000e+00
1.408000000000000000e+03,1.336694970534855510e-02,0.000000000000000000e+00
1.409000000000000000e+03,5.576549914369140215e-02,0.000000000000000000e+00
1.410000000000000000e+03,9.747095957784536469e-02,0.000000000000000000e+00
1.411000000000000000e+03,1.288494634945130668e-01,0.000000000000000000e+00
1.412000000000000000e+03,1.536266402741151282e-01,0.000000000000000000e+00
1.413000000000000000e+03,1.774935651589689967e-01,0.000000000000000000e+00
1.414000000000000000e+03,1.935106016963864528e-01,0.000000000000000000e+00
1.415000000000000000e+03,1.956354423645485785e-01,0.000000000000000000e+00
1.416000000000000000e+03,1.858759043985127313e-01,0.000000000000000000e+00
1.417000000000000000e+03,1.717599667336358604e-01,0.000000000000000000e+00
1.418000000000000000e+03,1.582792983422501853e-01,0.000000000000000000e+00
1.419000000000000000e+03,1.447691500120165120e-01,0.000000000000000000e+00
1.420000000000000000e+03,1.267323138503814450e-01,0.000000000000000000e+00
1.421000000000000000e+03,1.062585950903153498e-01,0.000000000000000000e+00
1.422000000000000000e+03,9.170124236697774212e-02,0.000000000000000000e+00
1.423000000000000000e+03,8.283296193844282007e-02,0.000000000000000000e+00
1.424000000000000000e+03,7.226845679740173667e-02,0.000000000000000000e+00
1.425000000000000000e+03,6.074750490881394849e-02,0.000000000000000000e+00
1.426000000000000000e+03,4.757812614804911994e-02,0.000000000000000000e+00
1.427000000000000000e+03,3.435606307808939525e-02,0.000000000000000000e+00
1.428000000000000000e+03,1.879638388096391971e-02,0.000000000000000000e+00
1.429000000000000000e+03,-1.540442607538185390e-04,0.000000000000000000e+00
1.430000000000000000e+03,-1.924318796781438606e-02,0.000000000000000000e+00
1.431000000000000000e+03,-3.666901775903921856e-02,0.000000000000000000e+00
1.432000000000000000e+03,-5.462621984643314943e-02,0.000000000000000000e+00
1.433000000000000000e+03,-7.627453355639388088e-02,0.000000000000000000e+00
1.434000000000000000e+03,-9.607401139866332540e-02,0.000000000000000000e+00
1.435000000000000000e+03,-1.152366332680155869e-01,0.000000000000000000e+00
1.436000000000000000e+03,-1.417013628882870246e-01,0.000000000000000000e+00
1.437000000000000000e+03,-1.723033015336460916e-01,0.000000000000000000e+00
1.438000000000000000e+03,-1.965107260760168839e-01,0.000000000000000000e+00
1.439000000000000000e+03,-2.117595964874999792e-01,0.000000000000000000e+00
1.440000000000000000e+03,-2.260920942755149377e-01,0.000000000000000000e+00
1.441000000000000000e+03,-2.438317604767162583e-01,0.000000000000000000e+00
1.442000000000000000e+03,-2.579297076294937985e-01,0.000000000000000000e+00
1.443000000000000000e+03,-2.585707067819965066e-01,0.000000000000000000e+00
1.444000000000000000e+03,-2.383282857782594300e-01,0.000000000000000000e+00
1.445000000000000000e+03,-1.945383869940187638e-01,0.000000000000000000e+00
1.446000000000000000e+03,-1.339752607980906063e-01,0.000000000000000000e+00
1.447000000000000000e+03,-6.823181763971093716e-02,0.000000000000000000e+00
1.448000000000000000e+03,-6.664407330264378142e-03,0.000000000000000000e+00
1.449000000000000000e+03,5.148147320348318151e-02,0.000000000000000000e+00
1.450000000000000000e+03,1.058132339075307515e-01,0.000000000000000000e+00
1.451000000000000000e+03,1.497657633883409389e-01,0.000000000000000000e+00
1.452000000000000000e+03,1.812246992642787546e-01,0.000000000000000000e+00
1.453000000000000000e+03,2.073067429143428675e-01,0.000000000000000000e+00
1.454000000000000000e+03,2.342395576048713068e-01,0.000000000000000000e+00
1.455000000000000000e+03,2.577548485382354371e-01,0.000000000000000000e+00
1.456000000000000000e+03,2.720891153346335911e-01,0.000000000000000000e+00
1.457000000000000000e+03,2.747988212294711907e-01,0.000000000000000000e+00
1.458000000000000000e+03,2.670562064589055984e-01,0.000000000000000000e+00
1.459000000000000000e+03,2.564544986255155590e-01,0.000000000000000000e+00
1.460000000000000000e+03,2.502333508034733645e-01,0.000000000000000000e+00
1.461000000000000000e+03,2.463444912679072507e-01,0.000000000000000000e+00
1.462000000000000000e+03,2.401916637995216430e-01,0.000000000000000000e+00
1.463000000000000000e+03,2.322656322839815046e-01,0.000000000000000000e+00
1.464000000000000000e+03,2.240636956453632977e-01,0.000000000000000000e+00
1.465000000000000000e+03,2.165913009620519802e-01,0.000000000000000000e+00
1.466000000000000000e+03,2.075343951092346872e-01,0.000000000000000000e+00
1.467000000000000000e+03,1.918168827221715667e-01,0.000000000000000000e+00
1.468000000000000000e+03,1.691163051194381206e-01,0.000000000000000000e+00
1.469000000000000000e+03,1.453269997611772169e-01,0.000000000000000000e+00
1.470000000000000000e+03,1.205945936529382589e-01,0.000000000000000000e+00
1.471000000000000000e+03,9.339748394737634740e-02,0.000000000000000000e+00
1.472000000000000000e+03,6.589514489118922236e-02,0.000000000000000000e+00
1.473000000000000000e+03,4.347057037977295618e-02,0.000000000000000000e+00
1.474000000000000000e+03,2.447868510489671981e-02,0.000000000000000000e+00
1.475000000000000000e+03,4.292152740126595027e-03,0.000000000000000000e+00
1.476000000000000000e+03,-1.696490666079372017e-02,0.000000000000000000e+00
1.477000000000000000e+03,-3.488132724811272845e-02,0.000000000000000000e+00
1.478000000000000000e+03,-5.257121973357142125e-02,0.000000000000000000e+00
1.479000000000000000e+03,-7.132997744386292138e-02,0.000000000000000000e+00
1.480000000000000000e+03,-8.424128724262813783e-02,0.000000000000000000e+00
1.481000000000000000e+03,-9.614618314730513648e-02,0.000000000000000000e+00
1.482000000000000000e+03,-1.146160040839513672e-01,0.000000000000000000e+00
1.483000000000000000e+03,-1.381022821786552501e-01,0.000000000000000000e+00
1.484000000000000000e+03,-1.628957309739684778e-01,0.000000000000000000e+00
1.485000000000000000e+03,-1.914025267592460167e-01,0.000000000000000000e+00
1.486000000000000000e+03,-2.150191245564423426e-01,0.000000000000000000e+00
1.487000000000000000e+03,-2.292392212656852446e-01,0.000000000000000000e+00
1.488000000000000000e+03,-2.470330501118397082e-01,0.000000000000000000e+00
1.489000000000000000e+03,-2.736200661455286953e-01,0.000000000000000000e+00
1.490000000000000000e+03,-2.940617372727721834e-01,0.000000000000000000e+00
1.491000000000000000e+03,-2.933883696355986115e-01,0.000000000000000000e+00
1.492000000000000000e+03,-2.672451720782180185e-01,0.000000000000000000e+00
1.493000000000000000e+03,-2.159046710155333171e-01,0.000000000000000000e+00
1.494000000000000000e+03,-1.453834160215351778e-01,0.000000000000000000e+00
1.495000000000000000e+03,-7.005705512400058066e-02,0.000000000000000000e+00
1.496000000000000000e+03,1.639297872298708318e-05,0.000000000000000000e+00
1.497000000000000000e+03,6.536943530420361026e-02,0.000000000000000000e+00
1.498000000000000000e+03,1.241952888635536045e-01,0.000000000000000000e+00
1.499000000000000000e+03,1.771748893466577601e-01,0.000000000000000000e+00
1.500000000000000000e+03,2.259718491231784698e-01,0.000000000000000000e+00
1.501000000000000000e+03,2.703418177888239904e-01,0.000000000000000000e+00
1.502000000000000000e+03,3.117696952975658187e-01,0.000000000000000000e+00
1.503000000000000000e+03,3.452668807635206893e-01,0.000000000000000000e+00
1.504000000000000000e+03,3.630228140563626638e-01,0.000000000000000000e+00
1.505000000000000000e+03,3.652697248261952967e-01,0.000000000000000000e+00
1.506000000000000000e+03,3.563725020460413173e-01,0.000000000000000000e+00
1.507000000000000000e+03,3.403995311752562869e-01,0.000000000000000000e+00
1.508000000000000000e+03,3.241830365543402204e-01,0.000000000000000000e+00
1.509000000000000000e+03,3.169684117588562056e-01,0.000000000000000000e+00
1.510000000000000000e+03,3.170023203839712478e-01,0.000000000000000000e+00
1.511000000000000000e+03,3.143453329875801616e-01,0.000000000000000000e+00
1.512000000000000000e+03,3.067403369346649034e-01,0.000000000000000000e+00
1.513000000000000000e+03,2.983538572489400353e-01,0.000000000000000000e+00
1.514000000000000000e+03,2.880083213838310896e-01,0.000000000000000000e+00
1.515000000000000000e+03,2.754938643158388323e-01,0.000000000000000000e+00
1.516000000000000000e+03,2.593124229072372722e-01,0.000000000000000000e+00
1.517000000000000000e+03,2.373649130153767661e-01,0.000000000000000000e+00
1.518000000000000000e+03,2.127949617290160744e-01,0.000000000000000000e+00
1.519000000000000000e+03,1.914317217910647684e-01,0.000000000000000000e+00
1.520000000000000000e+03,1.739754762190793558e-01,0.000000000000000000e+00
1.521000000000000000e+03,1.552397948690344698e-01,0.000000000000000000e+00
1.522000000000000000e+03,1.317023755925912087e-01,0.000000000000000000e+00
1.523000000000000000e+03,1.027384144859542076e-01,0.000000000000000000e+00
1.524000000000000000e+03,7.218060383634701538e-02,0.000000000000000000e+00
1.525000000000000000e+03,4.626467065743893048e-02,0.000000000000000000e+00
1.526000000000000000e+03,2.765990254458026293e-02,0.000000000000000000e+00
1.527000000000000000e+03,1.034607072601364045e-02,0.000000000000000000e+00
1.528000000000000000e+03,-9.201899715392947501e-03,0.000000000000000000e+00
1.529000000000000000e+03,-2.996859399649087763e-02,0.000000000000000000e+00
1.530000000000000000e+03,-4.306080464111677886e-02,0.000000000000000000e+00
1.531000000000000000e+03,-3.809499671881413224e-02,0.000000000000000000e+00
1.532000000000000000e+03,-1.207670485399089944e-02,0.000000000000000000e+00
1.533000000000000000e+03,2.870484954577200848e-02,0.000000000000000000e+00
1.534000000000000000e+03,7.966237840272838433e-02,0.000000000000000000e+00
1.535000000000000000e+03,1.366630833376598630e-01,0.000000000000000000e+00
1.536000000000000000e+03,1.923116357502501761e-01,0.000000000000000000e+00
1.537000000000000000e+03,2.412124077809318645e-01,0.000000000000000000e+00
1.538000000000000000e+03,2.843426171648641421e-01,0.000000000000000000e+00
1.539000000000000000e+03,3.245079155641317770e-01,0.000000000000000000e+00
1.540000000000000000e+03,3.581870480199883522e-01,0.000000000000000000e+00
1.541000000000000000e+03,3.834939318576277567e-01,0.000000000000000000e+00
1.542000000000000000e+03,4.013078997745658238e-01,0.000000000000000000e+00
1.543000000000000000e+03,4.121106921527773470e-01,0.000000000000000000e+00
1.544000000000000000e+03,4.177048563489713651e-01,0.000000000000000000e+00
1.545000000000000000e+03,4.113993918960027751e-01,0.000000000000000000e+00
1.546000000000000000e+03,3.959264780232074621e-01,0.000000000000000000e+00
1.547000000000000000e+03,3.833297665824302869e-01,0.000000000000000000e+00
1.548000000000000000e+03,3.780571582150910048e-01,0.000000000000000000e+00
1.549000000000000000e+03,3.717562572336980953e-01,0.000000000000000000e+00
1.550000000000000000e+03,3.618043363775537147e-01,0.000000000000000000e+00
1.551000000000000000e+03,3.511123445882651795e-01,0.000000000000000000e+00
1.552000000000000000e+03,3.371832650442366797e-01,0.000000000000000000e+00
1.553000000000000000e+03,3.171565657131059091e-01,0.000000000000000000e+00
1.554000000000000000e+03,2.967335195317609697e-01,0.000000000000000000e+00
1.555000000000000000e+03,2.784166522066622296e-01,0.000000000000000000e+00
1.556000000000000000e+03,2.573393337128467295e-01,0.000000000000000000e+00
1.557000000000000000e+03,2.338188194455747548e-01,0.000000000000000000e+00
1.558000000000000000e+03,2.099180940739907852e-01,0.000000000000000000e+00
1.559000000000000000e+03,1.891234042010080385e-01,0.000000000000000000e+00
1.560000000000000000e+03,1.717270346570440309e-01,0.000000000000000000e+00
1.561000000000000000e+03,1.538986749405902854e-01,0.000000000000000000e+00
1.562000000000000000e+03,1.305014699679298840e-01,0.000000000000000000e+00
1.563000000000000000e+03,1.024421196321778776e-01,0.000000000000000000e+00
1.564000000000000000e+03,7.900692801144644506e-02,0.000000000000000000e+00
1.565000000000000000e+03,5.771191051530141086e-02,0.000000000000000000e+00
1.566000000000000000e+03,3.212887057699858467e-02,0.000000000000000000e+00
1.567000000000000000e+03,5.219836492749527213e-03,0.000000000000000000e+00
1.568000000000000000e+03,-2.082596382631862059e-02,0.000000000000000000e+00
1.569000000000000000e+03,-4.742374704478444919e-02,0.000000000000000000e+00
1.570000000000000000e+03,-7.257636963369488992e-02,0.000000000000000000e+00
1.571000000000000000e+03,-9.732751535600625559e-02,0.000000000000000000e+00
1.572000000000000000e+03,-1.195549892936867142e-01,0.000000000000000000e+00
1.573000000000000000e+03,-1.249908801087455806e-01,0.000000000000000000e+00
1.574000000000000000e+03,-9.903365200743581565e-02,0.000000000000000000e+00
1.575000000000000000e+03,-4.439831650999814111e-02,0.000000000000000000e+00
1.576000000000000000e+03,2.711023516813596684e-02,0.000000000000000000e+00
1.577000000000000000e+03,1.041870508987459143e-01,0.000000000000000000e+00
1.578000000000000000e+03,1.753361896674799358e-01,0.000000000000000000e+00
1.579000000000000000e+03,2.384199375852836533e-01,0.000000000000000000e+00
1.580000000000000000e+03,2.982739353532923299e-01,0.000000000000000000e+00
1.581000000000000000e+03,3.537743692653465000e-01,0.000000000000000000e+00
1.582000000000000000e+03,3.985063560090084667e-01,0.000000000000000000e+00
1.583000000000000000e+03,4.340713709537972198e-01,0.000000000000000000e+00
1.584000000000000000e+03,4.655077957074325590e-01,0.000000000000000000e+00
1.585000000000000000e+03,4.902320382880216432e-01,0.000000000000000000e+00
1.586000000000000000e+03,5.030721789927771193e-01,0.000000000000000000e+00
1.587000000000000000e+03,5.031016498870424236e-01,0.000000000000000000e+00
1.588000000000000000e+03,4.945481211871294858e-01,0.000000000000000000e+00
