timestamp,ecg_measurement,qrs_detected
0.000000000000000000e+00,-2.006550796341333154e-01,0.000000000000000000e+00
1.000000000000000000e+00,-6.142310101342063344e-01,0.000000000000000000e+00
2.000000000000000000e+00,-3.063201981967037524e-01,0.000000000000000000e+00
3.000000000000000000e+00,-2.673697278260455668e-01,0.000000000000000000e+00
4.000000000000000000e+00,-1.709769822577533738e-01,0.000000000000000000e+00
5.000000000000000000e+00,-4.486801236577074303e-01,0.000000000000000000e+00
6.000000000000000000e+00,-1.869051621931544158e-02,0.000000000000000000e+00
7.000000000000000000e+00,-2.773570678203237660e-01,0.000000000000000000e+00
8.000000000000000000e+00,2.867091811921707381e-02,0.000000000000000000e+00
9.000000000000000000e+00,-1.393494126568217140e-01,0.000000000000000000e+00
1.000000000000000000e+01,-4.772029687953830562e-02,0.000000000000000000e+00
1.100000000000000000e+01,-8.155535922319197273e-02,0.000000000000000000e+00
1.200000000000000000e+01,3.961167062055920979e-02,0.000000000000000000e+00
1.300000000000000000e+01,-7.126071024493735306e-02,0.000000000000000000e+00
1.400000000000000000e+01,2.242685284785570221e-01,0.000000000000000000e+00
1.500000000000000000e+01,4.396840172418010201e-02,0.000000000000000000e+00
1.600000000000000000e+01,1.747458288776909952e-01,0.000000000000000000e+00
1.700000000000000000e+01,1.440601107705723194e-01,0.000000000000000000e+00
1.800000000000000000e+01,6.038595500554907458e-01,0.000000000000000000e+00
1.900000000000000000e+01,4.730132525172913160e-01,0.000000000000000000e+00
2.000000000000000000e+01,9.017329626048110613e-01,0.000000000000000000e+00
2.100000000000000000e+01,4.011996953945870525e-01,0.000000000000000000e+00
2.200000000000000000e+01,6.378981091180575547e-01,0.000000000000000000e+00
2.300000000000000000e+01,-1.774187737840228485e-01,0.000000000000000000e+00
2.400000000000000000e+01,4.179089947373536285e-02,0.000000000000000000e+00
2.500000000000000000e+01,-2.000278260210990033e-01,0.000000000000000000e+00
2.600000000000000000e+01,-5.318544334099337828e-02,0.000000000000000000e+00
2.700000000000000000e+01,-3.043891139075308172e-01,0.000000000000000000e+00
2.800000000000000000e+01,2.884246792239779644e-01,0.000000000000000000e+00
2.900000000000000000e+01,-5.165916279414400902e-01,0.000000000000000000e+00
3.000000000000000000e+01,3.212492484752980548e+00,0.000000000000000000e+00
3.100000000000000000e+01,5.270402139484208881e+00,0.000000000000000000e+00
3.200000000000000000e+01,-1.933770661618833930e+00,1.000000000000000000e+00
3.300000000000000000e+01,-7.734823868201072816e-01,0.000000000000000000e+00
3.400000000000000000e+01,-7.633470631328136413e-01,0.000000000000000000e+00
3.500000000000000000e+01,-7.070620756435884724e-01,0.000000000000000000e+00
3.600000000000000000e+01,-4.948380408087285631e-01,0.000000000000000000e+00
3.700000000000000000e+01,-5.364612193154087993e-01,0.000000000000000000e+00
3.800000000000000000e+01,-2.944638690702940376e-01,0.000000000000000000e+00
3.900000000000000000e+01,-2.545200239387341856e-01,0.000000000000000000e+00
4.000000000000000000e+01,-3.085964317441090010e-01,0.000000000000000000e+00
4.100000000000000000e+01,-9.790591331816306253e-02,0.000000000000000000e+00
4.200000000000000000e+01,9.649675399130493159e-02,0.000000000000000000e+00
4.300000000000000000e+01,1.843679977167737571e-01,0.000000000000000000e+00
4.400000000000000000e+01,2.509639665846751244e-01,0.000000000000000000e+00
4.500000000000000000e+01,7.323815672557045797e-01,0.000000000000000000e+00
4.600000000000000000e+01,5.163857697930106516e-01,0.000000000000000000e+00
4.700000000000000000e+01,1.284760165501878548e+00,0.000000000000000000e+00
4.800000000000000000e+01,1.179833419604957800e+00,0.000000000000000000e+00
4.900000000000000000e+01,9.144736892992080257e-01,0.000000000000000000e+00
5.000000000000000000e+01,9.765887361418448820e-02,0.000000000000000000e+00
5.100000000000000000e+01,-6.617699583807485908e-01,0.000000000000000000e+00
5.200000000000000000e+01,-8.169077098873647191e-01,0.000000000000000000e+00
5.300000000000000000e+01,-1.073985039191683200e+00,0.000000000000000000e+00
5.400000000000000000e+01,-9.635271295096435873e-01,0.000000000000000000e+00
5.500000000000000000e+01,-1.060061691221346081e+00,0.000000000000000000e+00
5.600000000000000000e+01,-9.420987703676874103e-01,0.000000000000000000e+00
5.700000000000000000e+01,-7.760389286361553118e-01,0.000000000000000000e+00
5.800000000000000000e+01,-6.458190568506310125e-01,0.000000000000000000e+00
5.900000000000000000e+01,-6.509002114253580329e-01,0.000000000000000000e+00
6.000000000000000000e+01,-3.565590980403122723e-01,0.000000000000000000e+00
6.100000000000000000e+01,-3.953889293051042753e-01,0.000000000000000000e+00
6.200000000000000000e+01,-3.391397613122618115e-01,0.000000000000000000e+00
6.300000000000000000e+01,-3.443394903383033001e-01,0.000000000000000000e+00
6.400000000000000000e+01,-2.041988877435277350e-01,0.000000000000000000e+00
6.500000000000000000e+01,-2.780949362803977754e-01,0.000000000000000000e+00
6.600000000000000000e+01,-2.228289843497023304e-01,0.000000000000000000e+00
6.700000000000000000e+01,-1.526296128961432408e-01,0.000000000000000000e+00
6.800000000000000000e+01,-1.007957307955481552e-01,0.000000000000000000e+00
6.900000000000000000e+01,-2.191156546807664085e-01,0.000000000000000000e+00
7.000000000000000000e+01,1.080835405568938562e-01,0.000000000000000000e+00
7.100000000000000000e+01,-1.716610186487533829e-01,0.000000000000000000e+00
7.200000000000000000e+01,1.308319358533956978e-01,0.000000000000000000e+00
7.300000000000000000e+01,-1.753745525083846499e-02,0.000000000000000000e+00
7.400000000000000000e+01,1.476024625925985989e-01,0.000000000000000000e+00
7.500000000000000000e+01,4.783880011351927808e-02,0.000000000000000000e+00
7.600000000000000000e+01,2.433287504575422644e-01,0.000000000000000000e+00
7.700000000000000000e+01,8.188493250902598858e-03,0.000000000000000000e+00
7.800000000000000000e+01,3.438458526472973897e-01,0.000000000000000000e+00
7.900000000000000000e+01,2.073291029596823765e-01,0.000000000000000000e+00
8.000000000000000000e+01,5.385729871758851983e-01,0.000000000000000000e+00
8.100000000000000000e+01,5.283950405426438568e-01,0.000000000000000000e+00
8.200000000000000000e+01,8.804617492394464229e-01,0.000000000000000000e+00
8.300000000000000000e+01,5.262803814820296022e-01,0.000000000000000000e+00
8.400000000000000000e+01,4.613093469632070787e-01,0.000000000000000000e+00
8.500000000000000000e+01,-4.874853189411633425e-02,0.000000000000000000e+00
8.600000000000000000e+01,8.132182233128655569e-02,0.000000000000000000e+00
8.700000000000000000e+01,-4.580801041684421926e-01,0.000000000000000000e+00
8.800000000000000000e+01,5.146968939437934765e-02,0.000000000000000000e+00
8.900000000000000000e+01,-1.055352013667757577e-01,0.000000000000000000e+00
9.000000000000000000e+01,2.500310185039518185e-01,0.000000000000000000e+00
9.100000000000000000e+01,-5.367302692896286365e-01,0.000000000000000000e+00
9.200000000000000000e+01,3.397790178795955462e+00,0.000000000000000000e+00
9.300000000000000000e+01,5.268145480570038508e+00,0.000000000000000000e+00
9.400000000000000000e+01,-2.258538412127232942e+00,1.000000000000000000e+00
9.500000000000000000e+01,-7.375422318291752211e-01,0.000000000000000000e+00
9.600000000000000000e+01,-8.478482100580884140e-01,0.000000000000000000e+00
9.700000000000000000e+01,-3.975264551494024912e-01,0.000000000000000000e+00
9.800000000000000000e+01,-7.965709143017472016e-01,0.000000000000000000e+00
9.900000000000000000e+01,-3.833991314829514607e-01,0.000000000000000000e+00
1.000000000000000000e+02,-5.097267568088570400e-01,0.000000000000000000e+00
1.010000000000000000e+02,-5.399728330844935642e-02,0.000000000000000000e+00
1.020000000000000000e+02,-3.927128202737572571e-01,0.000000000000000000e+00
1.030000000000000000e+02,-2.158628826248727706e-02,0.000000000000000000e+00
1.040000000000000000e+02,-4.614406758126462366e-02,0.000000000000000000e+00
1.050000000000000000e+02,1.274153900855493349e-01,0.000000000000000000e+00
1.060000000000000000e+02,3.096056237148261947e-01,0.000000000000000000e+00
1.070000000000000000e+02,5.540546194275044467e-01,0.000000000000000000e+00
1.080000000000000000e+02,8.234770402277481471e-01,0.000000000000000000e+00
1.090000000000000000e+02,1.168603391762013999e+00,0.000000000000000000e+00
1.100000000000000000e+02,1.168858537070477599e+00,0.000000000000000000e+00
1.110000000000000000e+02,8.712525417719449994e-01,0.000000000000000000e+00
1.120000000000000000e+02,5.875143896094789375e-02,0.000000000000000000e+00
1.130000000000000000e+02,-6.584815377673424175e-01,0.000000000000000000e+00
1.140000000000000000e+02,-9.480005117007761495e-01,0.000000000000000000e+00
1.150000000000000000e+02,-1.119824509747077368e+00,0.000000000000000000e+00
1.160000000000000000e+02,-9.545184154686913169e-01,0.000000000000000000e+00
1.170000000000000000e+02,-1.379943630454803838e+00,0.000000000000000000e+00
1.180000000000000000e+02,-7.562634412004766160e-01,0.000000000000000000e+00
1.190000000000000000e+02,-7.371644010502282907e-01,0.000000000000000000e+00
1.200000000000000000e+02,-8.438036305187281982e-01,0.000000000000000000e+00
1.210000000000000000e+02,-7.011934201726384153e-01,0.000000000000000000e+00
1.220000000000000000e+02,-4.578871636562658054e-01,0.000000000000000000e+00
1.230000000000000000e+02,-3.130538864414328382e-01,0.000000000000000000e+00
1.240000000000000000e+02,-4.912520201888608828e-01,0.000000000000000000e+00
1.250000000000000000e+02,-4.630131179818019471e-01,0.000000000000000000e+00
1.260000000000000000e+02,-3.327424892707604442e-01,0.000000000000000000e+00
1.270000000000000000e+02,-8.748493647572476439e-02,0.000000000000000000e+00
1.280000000000000000e+02,-3.047078980794650782e-01,0.000000000000000000e+00
1.290000000000000000e+02,-2.497571582506529220e-01,0.000000000000000000e+00
1.300000000000000000e+02,-9.675041200476014458e-02,0.000000000000000000e+00
1.310000000000000000e+02,-7.609082598858223079e-02,0.000000000000000000e+00
1.320000000000000000e+02,-6.368072322790002682e-02,0.000000000000000000e+00
1.330000000000000000e+02,-3.140474728371956542e-02,0.000000000000000000e+00
1.340000000000000000e+02,-1.114610631427987719e-01,0.000000000000000000e+00
1.350000000000000000e+02,-9.874641142344725564e-02,0.000000000000000000e+00
1.360000000000000000e+02,4.627202789547198158e-02,0.000000000000000000e+00
1.370000000000000000e+02,2.748314301366490686e-01,0.000000000000000000e+00
1.380000000000000000e+02,8.975817103774483274e-02,0.000000000000000000e+00
1.390000000000000000e+02,2.055984229360387217e-01,0.000000000000000000e+00
1.400000000000000000e+02,8.662602456254084315e-02,0.000000000000000000e+00
1.410000000000000000e+02,7.049637856375045031e-01,0.000000000000000000e+00
1.420000000000000000e+02,5.178999700390279903e-01,0.000000000000000000e+00
1.430000000000000000e+02,6.146551516262299675e-01,0.000000000000000000e+00
1.440000000000000000e+02,3.479210315812669707e-01,0.000000000000000000e+00
1.450000000000000000e+02,4.027082203556807127e-01,0.000000000000000000e+00
1.460000000000000000e+02,-1.209738465886490977e-01,0.000000000000000000e+00
1.470000000000000000e+02,-1.545164632301425645e-01,0.000000000000000000e+00
1.480000000000000000e+02,1.233560626575529694e-02,0.000000000000000000e+00
1.490000000000000000e+02,2.651388212951183432e-02,0.000000000000000000e+00
1.500000000000000000e+02,1.698820266610090446e-01,0.000000000000000000e+00
1.510000000000000000e+02,-2.639181679077713394e-01,0.000000000000000000e+00
1.520000000000000000e+02,1.341104104445018930e+00,0.000000000000000000e+00
1.530000000000000000e+02,5.142998364149321766e+00,0.000000000000000000e+00
1.540000000000000000e+02,-1.120733013547200452e+00,1.000000000000000000e+00
1.550000000000000000e+02,-1.525056283882081809e+00,0.000000000000000000e+00
1.560000000000000000e+02,-2.703110572808715140e-01,0.000000000000000000e+00
1.570000000000000000e+02,-2.524823735015538362e-01,0.000000000000000000e+00
1.580000000000000000e+02,-1.867139404881487941e-01,0.000000000000000000e+00
1.590000000000000000e+02,-3.454681326881621217e-01,0.000000000000000000e+00
1.600000000000000000e+02,1.361133730381830498e-01,0.000000000000000000e+00
1.610000000000000000e+02,-2.000261335216453051e-01,0.000000000000000000e+00
1.620000000000000000e+02,1.471911483228276751e-01,0.000000000000000000e+00
1.630000000000000000e+02,-1.195465013770049406e-01,0.000000000000000000e+00
1.640000000000000000e+02,3.856785078218082363e-01,0.000000000000000000e+00
1.650000000000000000e+02,2.202886618590119139e-01,0.000000000000000000e+00
1.660000000000000000e+02,4.445639298607622636e-01,0.000000000000000000e+00
1.670000000000000000e+02,5.349082107437450606e-01,0.000000000000000000e+00
1.680000000000000000e+02,8.459955429274312877e-01,0.000000000000000000e+00
1.690000000000000000e+02,1.237998358076014105e+00,0.000000000000000000e+00
1.700000000000000000e+02,1.116450973865737106e+00,0.000000000000000000e+00
1.710000000000000000e+02,1.143196428725911096e+00,0.000000000000000000e+00
1.720000000000000000e+02,1.259734221172442159e-01,0.000000000000000000e+00
1.730000000000000000e+02,-3.911930178713169393e-01,0.000000000000000000e+00
1.740000000000000000e+02,-9.999956420731352935e-01,0.000000000000000000e+00
1.750000000000000000e+02,-9.992483665198592657e-01,0.000000000000000000e+00
1.760000000000000000e+02,-1.141099479888668666e+00,0.000000000000000000e+00
1.770000000000000000e+02,-9.960361120230729615e-01,0.000000000000000000e+00
1.780000000000000000e+02,-8.573521690220847757e-01,0.000000000000000000e+00
1.790000000000000000e+02,-8.502611517790638063e-01,0.000000000000000000e+00
1.800000000000000000e+02,-7.153660276159962139e-01,0.000000000000000000e+00
1.810000000000000000e+02,-5.007704695127940253e-01,0.000000000000000000e+00
1.820000000000000000e+02,-5.620525968622169799e-01,0.000000000000000000e+00
1.830000000000000000e+02,-5.134953628970176931e-01,0.000000000000000000e+00
1.840000000000000000e+02,-2.871747252441723686e-01,0.000000000000000000e+00
1.850000000000000000e+02,-4.165546235793696206e-01,0.000000000000000000e+00
1.860000000000000000e+02,-3.493004677558471105e-01,0.000000000000000000e+00
1.870000000000000000e+02,-2.788453016357210767e-01,0.000000000000000000e+00
1.880000000000000000e+02,-2.831737059213352281e-01,0.000000000000000000e+00
1.890000000000000000e+02,-1.280462099885634197e-01,0.000000000000000000e+00
1.900000000000000000e+02,-2.569011561689262813e-01,0.000000000000000000e+00
1.910000000000000000e+02,-9.173559745615957051e-02,0.000000000000000000e+00
1.920000000000000000e+02,-1.542061173824621767e-01,0.000000000000000000e+00
1.930000000000000000e+02,-2.432241578833822249e-01,0.000000000000000000e+00
1.940000000000000000e+02,2.613325998549035356e-01,0.000000000000000000e+00
1.950000000000000000e+02,-5.554064370335633216e-02,0.000000000000000000e+00
1.960000000000000000e+02,-2.126874405938312951e-02,0.000000000000000000e+00
1.970000000000000000e+02,-6.808069286141882684e-03,0.000000000000000000e+00
1.980000000000000000e+02,1.942441542288311507e-01,0.000000000000000000e+00
1.990000000000000000e+02,2.134409211580342303e-01,0.000000000000000000e+00
2.000000000000000000e+02,2.717286430228892935e-01,0.000000000000000000e+00
2.010000000000000000e+02,5.613494028779795197e-01,0.000000000000000000e+00
2.020000000000000000e+02,5.742132154751899975e-01,0.000000000000000000e+00
2.030000000000000000e+02,4.793423177079461084e-01,0.000000000000000000e+00
2.040000000000000000e+02,4.551498135202324824e-01,0.000000000000000000e+00
2.050000000000000000e+02,6.099915424239563816e-02,0.000000000000000000e+00
2.060000000000000000e+02,-5.065541034927802111e-02,0.000000000000000000e+00
2.070000000000000000e+02,-2.441519093590053813e-01,0.000000000000000000e+00
2.080000000000000000e+02,5.724218300261581238e-02,0.000000000000000000e+00
2.090000000000000000e+02,-1.410022078627423125e-01,0.000000000000000000e+00
2.100000000000000000e+02,1.808509816039567120e-01,0.000000000000000000e+00
2.110000000000000000e+02,-2.779375592615164203e-01,0.000000000000000000e+00
2.120000000000000000e+02,2.544367155994059715e+00,0.000000000000000000e+00
2.130000000000000000e+02,5.216814268328637816e+00,0.000000000000000000e+00
2.140000000000000000e+02,-1.942011365995004457e+00,1.000000000000000000e+00
2.150000000000000000e+02,-1.040328170301151767e+00,0.000000000000000000e+00
2.160000000000000000e+02,-4.202696148543679233e-01,0.000000000000000000e+00
2.170000000000000000e+02,-3.843187835771016414e-01,0.000000000000000000e+00
2.180000000000000000e+02,-6.300860666054798331e-01,0.000000000000000000e+00
2.190000000000000000e+02,-1.685576755524166581e-01,0.000000000000000000e+00
2.200000000000000000e+02,-3.164677655316114890e-01,0.000000000000000000e+00
2.210000000000000000e+02,-1.981469577048985686e-01,0.000000000000000000e+00
2.220000000000000000e+02,-1.635090931765672273e-01,0.000000000000000000e+00
2.230000000000000000e+02,1.731936766912167414e-01,0.000000000000000000e+00
2.240000000000000000e+02,-2.248865657097072132e-03,0.000000000000000000e+00
2.250000000000000000e+02,2.431523099011251576e-01,0.000000000000000000e+00
2.260000000000000000e+02,2.447512337464844423e-01,0.000000000000000000e+00
2.270000000000000000e+02,7.726253582744452286e-01,0.000000000000000000e+00
2.280000000000000000e+02,6.424810408943352202e-01,0.000000000000000000e+00
2.290000000000000000e+02,1.167397359833186821e+00,0.000000000000000000e+00
2.300000000000000000e+02,1.178226756105956508e+00,0.000000000000000000e+00
2.310000000000000000e+02,1.043008727457736873e+00,0.000000000000000000e+00
2.320000000000000000e+02,1.089756740781947925e-01,0.000000000000000000e+00
2.330000000000000000e+02,-5.386172242750765227e-01,0.000000000000000000e+00
2.340000000000000000e+02,-8.378630711325123492e-01,0.000000000000000000e+00
2.350000000000000000e+02,-8.994248411335281634e-01,0.000000000000000000e+00
2.360000000000000000e+02,-1.145697109480342535e+00,0.000000000000000000e+00
2.370000000000000000e+02,-1.001922615995826105e+00,0.000000000000000000e+00
2.380000000000000000e+02,-7.591195221422264439e-01,0.000000000000000000e+00
2.390000000000000000e+02,-6.469383176006494596e-01,0.000000000000000000e+00
2.400000000000000000e+02,-6.673741879506071006e-01,0.000000000000000000e+00
2.410000000000000000e+02,-5.267820147237450845e-01,0.000000000000000000e+00
2.420000000000000000e+02,-6.063173114371988026e-01,0.000000000000000000e+00
2.430000000000000000e+02,-2.882901577222547473e-01,0.000000000000000000e+00
2.440000000000000000e+02,-4.132788590733855183e-01,0.000000000000000000e+00
2.450000000000000000e+02,-2.277099583162600915e-01,0.000000000000000000e+00
2.460000000000000000e+02,-4.545350994056368554e-01,0.000000000000000000e+00
2.470000000000000000e+02,-1.999419594441969039e-01,0.000000000000000000e+00
2.480000000000000000e+02,-3.052697457000787540e-01,0.000000000000000000e+00
2.490000000000000000e+02,-1.394242395515617461e-01,0.000000000000000000e+00
2.500000000000000000e+02,-2.503998530914985365e-01,0.000000000000000000e+00
2.510000000000000000e+02,-1.408709667007807496e-02,0.000000000000000000e+00
2.520000000000000000e+02,-1.734533767419707551e-01,0.000000000000000000e+00
2.530000000000000000e+02,-1.911031436504231559e-02,0.000000000000000000e+00
2.540000000000000000e+02,-7.848212641010965038e-03,0.000000000000000000e+00
2.550000000000000000e+02,7.689400718680286517e-02,0.000000000000000000e+00
2.560000000000000000e+02,2.198064170166478259e-01,0.000000000000000000e+00
2.570000000000000000e+02,-4.731309643588767211e-02,0.000000000000000000e+00
2.580000000000000000e+02,-1.854660133698469299e-02,0.000000000000000000e+00
2.590000000000000000e+02,1.766072737397158532e-01,0.000000000000000000e+00
2.600000000000000000e+02,1.669647403378705375e-01,0.000000000000000000e+00
2.610000000000000000e+02,3.694626381690893635e-01,0.000000000000000000e+00
2.620000000000000000e+02,4.659026172878519279e-01,0.000000000000000000e+00
2.630000000000000000e+02,7.556286072726582370e-01,0.000000000000000000e+00
2.640000000000000000e+02,5.342738663456298998e-01,0.000000000000000000e+00
2.650000000000000000e+02,5.205625835232610132e-01,0.000000000000000000e+00
2.660000000000000000e+02,-1.409948599137129388e-01,0.000000000000000000e+00
2.670000000000000000e+02,9.185689142884238823e-02,0.000000000000000000e+00
2.680000000000000000e+02,-2.041919813532648842e-01,0.000000000000000000e+00
2.690000000000000000e+02,-1.266847814463035737e-01,0.000000000000000000e+00
2.700000000000000000e+02,-2.478513833031748548e-01,0.000000000000000000e+00
2.710000000000000000e+02,2.159439723065690320e-01,0.000000000000000000e+00
2.720000000000000000e+02,-2.990099482989717616e-01,0.000000000000000000e+00
2.730000000000000000e+02,1.424001532031403006e+00,0.000000000000000000e+00
2.740000000000000000e+02,6.403531525284426706e+00,0.000000000000000000e+00
2.750000000000000000e+02,-9.551046897480849340e-01,1.000000000000000000e+00
2.760000000000000000e+02,-1.206339710410559096e+00,0.000000000000000000e+00
2.770000000000000000e+02,-8.480603525235151929e-01,0.000000000000000000e+00
2.780000000000000000e+02,-7.363326021821111622e-01,0.000000000000000000e+00
2.790000000000000000e+02,-5.383890495933645326e-01,0.000000000000000000e+00
2.800000000000000000e+02,-4.837250422421975893e-01,0.000000000000000000e+00
2.810000000000000000e+02,-3.841873019813351053e-01,0.000000000000000000e+00
2.820000000000000000e+02,-4.576454702536282282e-01,0.000000000000000000e+00
2.830000000000000000e+02,-1.951436864551251982e-01,0.000000000000000000e+00
2.840000000000000000e+02,-1.952957622488717404e-01,0.000000000000000000e+00
2.850000000000000000e+02,6.831798413919396018e-02,0.000000000000000000e+00
2.860000000000000000e+02,-4.012098470291039498e-02,0.000000000000000000e+00
2.870000000000000000e+02,2.830352231419061559e-01,0.000000000000000000e+00
2.880000000000000000e+02,4.122098645625946189e-01,0.000000000000000000e+00
2.890000000000000000e+02,9.451849020553740877e-01,0.000000000000000000e+00
2.900000000000000000e+02,7.405503264837419719e-01,0.000000000000000000e+00
2.910000000000000000e+02,1.238858875647206981e+00,0.000000000000000000e+00
2.920000000000000000e+02,9.690428879328922829e-01,0.000000000000000000e+00
2.930000000000000000e+02,3.268027055532287672e-01,0.000000000000000000e+00
2.940000000000000000e+02,-3.315517670356178948e-01,0.000000000000000000e+00
2.950000000000000000e+02,-7.563709908388550618e-01,0.000000000000000000e+00
2.960000000000000000e+02,-1.254058663426151021e+00,0.000000000000000000e+00
2.970000000000000000e+02,-8.986945075833512320e-01,0.000000000000000000e+00
2.980000000000000000e+02,-1.090534221703623574e+00,0.000000000000000000e+00
2.990000000000000000e+02,-7.250619285912985879e-01,0.000000000000000000e+00
3.000000000000000000e+02,-8.765753085143971335e-01,0.000000000000000000e+00
3.010000000000000000e+02,-5.995075942999491536e-01,0.000000000000000000e+00
3.020000000000000000e+02,-5.676325310398965263e-01,0.000000000000000000e+00
3.030000000000000000e+02,-4.724278154282321451e-01,0.000000000000000000e+00
3.040000000000000000e+02,-3.842540324937743779e-01,0.000000000000000000e+00
3.050000000000000000e+02,-3.234565268165393026e-01,0.000000000000000000e+00
3.060000000000000000e+02,-3.533824996029775733e-01,0.000000000000000000e+00
3.070000000000000000e+02,-2.324354165114554394e-01,0.000000000000000000e+00
3.080000000000000000e+02,-1.488423161952763529e-01,0.000000000000000000e+00
3.090000000000000000e+02,-2.308493731196663568e-01,0.000000000000000000e+00
3.100000000000000000e+02,-2.251469072548255290e-01,0.000000000000000000e+00
3.110000000000000000e+02,-1.557234684699304039e-01,0.000000000000000000e+00
3.120000000000000000e+02,-1.580558575697294521e-01,0.000000000000000000e+00
3.130000000000000000e+02,8.178269647989207594e-03,0.000000000000000000e+00
3.140000000000000000e+02,1.186276373937142532e-02,0.000000000000000000e+00
3.150000000000000000e+02,1.043665364656641559e-01,0.000000000000000000e+00
3.160000000000000000e+02,-2.462205321884861076e-02,0.000000000000000000e+00
3.170000000000000000e+02,-1.523936274951670500e-02,0.000000000000000000e+00
3.180000000000000000e+02,2.771097575977575223e-01,0.000000000000000000e+00
3.190000000000000000e+02,1.325590992229930820e-01,0.000000000000000000e+00
3.200000000000000000e+02,1.961608365490046524e-01,0.000000000000000000e+00
3.210000000000000000e+02,1.141806247848893563e-01,0.000000000000000000e+00
3.220000000000000000e+02,3.343667546687859038e-01,0.000000000000000000e+00
3.230000000000000000e+02,2.877318297417679749e-01,0.000000000000000000e+00
3.240000000000000000e+02,6.452954608150399674e-01,0.000000000000000000e+00
3.250000000000000000e+02,6.278043016731217341e-01,0.000000000000000000e+00
3.260000000000000000e+02,8.279190595751049209e-01,0.000000000000000000e+00
3.270000000000000000e+02,5.185374708839018965e-01,0.000000000000000000e+00
3.280000000000000000e+02,1.469835152762725694e-01,0.000000000000000000e+00
3.290000000000000000e+02,-1.851438477330226429e-01,0.000000000000000000e+00
3.300000000000000000e+02,6.284599787792002901e-02,0.000000000000000000e+00
3.310000000000000000e+02,-1.754121199704631040e-01,0.000000000000000000e+00
3.320000000000000000e+02,-2.767794293020329338e-02,0.000000000000000000e+00
3.330000000000000000e+02,-4.882912814926572420e-02,0.000000000000000000e+00
3.340000000000000000e+02,-1.230338920031607275e-01,0.000000000000000000e+00
3.350000000000000000e+02,7.581769870691100754e-01,0.000000000000000000e+00
3.360000000000000000e+02,6.408245814009354113e+00,0.000000000000000000e+00
3.370000000000000000e+02,2.970348369308553060e-01,1.000000000000000000e+00
3.380000000000000000e+02,-1.789415589814274954e+00,0.000000000000000000e+00
3.390000000000000000e+02,-5.751647500252892176e-01,0.000000000000000000e+00
3.400000000000000000e+02,-9.010935260900665433e-01,0.000000000000000000e+00
3.410000000000000000e+02,-5.486923622543087298e-01,0.000000000000000000e+00
3.420000000000000000e+02,-6.302307051347018074e-01,0.000000000000000000e+00
3.430000000000000000e+02,-2.998048684884277448e-01,0.000000000000000000e+00
3.440000000000000000e+02,-4.459203887544638811e-01,0.000000000000000000e+00
3.450000000000000000e+02,-1.251722798002362913e-01,0.000000000000000000e+00
3.460000000000000000e+02,-3.882555425159895379e-01,0.000000000000000000e+00
3.470000000000000000e+02,1.319042341750571168e-01,0.000000000000000000e+00
3.480000000000000000e+02,-3.779945059928006140e-02,0.000000000000000000e+00
3.490000000000000000e+02,2.077167888382756844e-01,0.000000000000000000e+00
3.500000000000000000e+02,3.010981243698184207e-01,0.000000000000000000e+00
3.510000000000000000e+02,6.779279696559064039e-01,0.000000000000000000e+00
3.520000000000000000e+02,8.320040072811591969e-01,0.000000000000000000e+00
3.530000000000000000e+02,1.284488848525166871e+00,0.000000000000000000e+00
3.540000000000000000e+02,8.924303356319629454e-01,0.000000000000000000e+00
3.550000000000000000e+02,5.235017086253970220e-01,0.000000000000000000e+00
3.560000000000000000e+02,-2.855331139809448859e-01,0.000000000000000000e+00
3.570000000000000000e+02,-8.439405969589008905e-01,0.000000000000000000e+00
3.580000000000000000e+02,-1.141717120458744184e+00,0.000000000000000000e+00
3.590000000000000000e+02,-1.027176502108955836e+00,0.000000000000000000e+00
3.600000000000000000e+02,-1.095258373766481164e+00,0.000000000000000000e+00
3.610000000000000000e+02,-7.645251030853633667e-01,0.000000000000000000e+00
3.620000000000000000e+02,-8.696671356565637279e-01,0.000000000000000000e+00
3.630000000000000000e+02,-8.022322913984475390e-01,0.000000000000000000e+00
3.640000000000000000e+02,-6.779127085797932439e-01,0.000000000000000000e+00
3.650000000000000000e+02,-4.350463671061566839e-01,0.000000000000000000e+00
3.660000000000000000e+02,-6.352300939274010405e-01,0.000000000000000000e+00
3.670000000000000000e+02,-1.664306764321764887e-01,0.000000000000000000e+00
3.680000000000000000e+02,-5.059632349547257268e-01,0.000000000000000000e+00
3.690000000000000000e+02,-3.590494029127111464e-01,0.000000000000000000e+00
3.700000000000000000e+02,-2.483915778190667056e-01,0.000000000000000000e+00
3.710000000000000000e+02,-1.492491841202059910e-01,0.000000000000000000e+00
3.720000000000000000e+02,-3.781655616904263661e-01,0.000000000000000000e+00
3.730000000000000000e+02,-1.982453882001900258e-01,0.000000000000000000e+00
3.740000000000000000e+02,-2.713045384675831506e-02,0.000000000000000000e+00
3.750000000000000000e+02,-9.068804322406018303e-03,0.000000000000000000e+00
3.760000000000000000e+02,-8.731145307382645604e-02,0.000000000000000000e+00
3.770000000000000000e+02,-1.434346599608661565e-01,0.000000000000000000e+00
3.780000000000000000e+02,1.525105434904227564e-01,0.000000000000000000e+00
3.790000000000000000e+02,9.709463934057839529e-02,0.000000000000000000e+00
3.800000000000000000e+02,9.795352219984827802e-02,0.000000000000000000e+00
3.810000000000000000e+02,6.212732557447694232e-02,0.000000000000000000e+00
3.820000000000000000e+02,1.473421535264817783e-01,0.000000000000000000e+00
3.830000000000000000e+02,3.520193852180822369e-01,0.000000000000000000e+00
3.840000000000000000e+02,-5.018776300988436745e-02,0.000000000000000000e+00
3.850000000000000000e+02,5.926103603092192085e-01,0.000000000000000000e+00
3.860000000000000000e+02,5.496750855522893886e-01,0.000000000000000000e+00
3.870000000000000000e+02,5.546528826047338878e-01,0.000000000000000000e+00
3.880000000000000000e+02,6.003416791421274379e-01,0.000000000000000000e+00
3.890000000000000000e+02,6.132116922286768856e-01,0.000000000000000000e+00
3.900000000000000000e+02,2.515752510156688687e-02,0.000000000000000000e+00
3.910000000000000000e+02,-6.543742799607615845e-02,0.000000000000000000e+00
3.920000000000000000e+02,-8.188573985638068764e-02,0.000000000000000000e+00
3.930000000000000000e+02,8.543162953884816946e-02,0.000000000000000000e+00
3.940000000000000000e+02,-1.560812343650747058e-01,0.000000000000000000e+00
3.950000000000000000e+02,2.624451894322666345e-01,0.000000000000000000e+00
3.960000000000000000e+02,-3.813500246140941741e-01,0.000000000000000000e+00
3.970000000000000000e+02,2.248376326025768535e+00,0.000000000000000000e+00
3.980000000000000000e+02,5.413026663550058792e+00,0.000000000000000000e+00
3.990000000000000000e+02,-2.183662584479746371e+00,1.000000000000000000e+00
4.000000000000000000e+02,-1.069829174481721878e+00,0.000000000000000000e+00
4.010000000000000000e+02,-5.028033840778373120e-01,0.000000000000000000e+00
4.020000000000000000e+02,-4.221406478422144448e-01,0.000000000000000000e+00
4.030000000000000000e+02,-3.768095773930494330e-01,0.000000000000000000e+00
4.040000000000000000e+02,-1.796499574672146826e-01,0.000000000000000000e+00
4.050000000000000000e+02,-1.581953354270711209e-01,0.000000000000000000e+00
4.060000000000000000e+02,-1.227733226104415210e-01,0.000000000000000000e+00
4.070000000000000000e+02,-8.600535750519727740e-02,0.000000000000000000e+00
4.080000000000000000e+02,-3.335171774164239714e-04,0.000000000000000000e+00
4.090000000000000000e+02,2.891069036349301902e-01,0.000000000000000000e+00
4.100000000000000000e+02,2.332526742668369624e-01,0.000000000000000000e+00
4.110000000000000000e+02,2.523711100806364516e-01,0.000000000000000000e+00
4.120000000000000000e+02,7.218581555305186859e-01,0.000000000000000000e+00
4.130000000000000000e+02,6.915340784759643755e-01,0.000000000000000000e+00
4.140000000000000000e+02,1.139530982744069387e+00,0.000000000000000000e+00
4.150000000000000000e+02,1.216601347974922032e+00,0.000000000000000000e+00
4.160000000000000000e+02,8.690636504501563220e-01,0.000000000000000000e+00
4.170000000000000000e+02,1.423755464215898658e-01,0.000000000000000000e+00
4.180000000000000000e+02,-3.144235938787942053e-01,0.000000000000000000e+00
4.190000000000000000e+02,-1.096290343589212180e+00,0.000000000000000000e+00
4.200000000000000000e+02,-1.189309106701231133e+00,0.000000000000000000e+00
4.210000000000000000e+02,-1.176783539700523074e+00,0.000000000000000000e+00
4.220000000000000000e+02,-1.047649334773083085e+00,0.000000000000000000e+00
4.230000000000000000e+02,-9.138894231728419415e-01,0.000000000000000000e+00
4.240000000000000000e+02,-8.343048977890437090e-01,0.000000000000000000e+00
4.250000000000000000e+02,-8.676414413211291921e-01,0.000000000000000000e+00
4.260000000000000000e+02,-5.347739574677969898e-01,0.000000000000000000e+00
4.270000000000000000e+02,-5.982913985728354200e-01,0.000000000000000000e+00
4.280000000000000000e+02,-4.067273949672597366e-01,0.000000000000000000e+00
4.290000000000000000e+02,-5.995984064539010561e-01,0.000000000000000000e+00
4.300000000000000000e+02,-2.624570247388987032e-01,0.000000000000000000e+00
4.310000000000000000e+02,-3.317285407576642808e-01,0.000000000000000000e+00
4.320000000000000000e+02,-3.873109168404862412e-01,0.000000000000000000e+00
4.330000000000000000e+02,-3.474042214395791084e-01,0.000000000000000000e+00
4.340000000000000000e+02,-2.135553154894275496e-01,0.000000000000000000e+00
4.350000000000000000e+02,-1.006582275875642085e-01,0.000000000000000000e+00
4.360000000000000000e+02,-2.471276141085671785e-01,0.000000000000000000e+00
4.370000000000000000e+02,-7.721164340651323621e-02,0.000000000000000000e+00
4.380000000000000000e+02,-6.920083514429682670e-02,0.000000000000000000e+00
4.390000000000000000e+02,-1.089783180991987371e-01,0.000000000000000000e+00
4.400000000000000000e+02,1.263501634170293986e-01,0.000000000000000000e+00
4.410000000000000000e+02,-1.414202835304118611e-01,0.000000000000000000e+00
4.420000000000000000e+02,1.267911768691870888e-01,0.000000000000000000e+00
4.430000000000000000e+02,1.147003836425847106e-01,0.000000000000000000e+00
4.440000000000000000e+02,1.762271113086923136e-01,0.000000000000000000e+00
4.450000000000000000e+02,1.656686508773349831e-01,0.000000000000000000e+00
4.460000000000000000e+02,3.722937105998738172e-01,0.000000000000000000e+00
4.470000000000000000e+02,3.999977191997806103e-01,0.000000000000000000e+00
4.480000000000000000e+02,1.098726421088392691e+00,0.000000000000000000e+00
4.490000000000000000e+02,3.937517541639229401e-01,0.000000000000000000e+00
4.500000000000000000e+02,5.492573110965710548e-01,0.000000000000000000e+00
4.510000000000000000e+02,-1.215435599686415652e-01,0.000000000000000000e+00
4.520000000000000000e+02,-2.327431947448004024e-02,0.000000000000000000e+00
4.530000000000000000e+02,-2.317821846319137180e-01,0.000000000000000000e+00
4.540000000000000000e+02,1.526751912793362642e-01,0.000000000000000000e+00
4.550000000000000000e+02,-1.443771942844588319e-01,0.000000000000000000e+00
4.560000000000000000e+02,4.210222442659012909e-01,0.000000000000000000e+00
4.570000000000000000e+02,-7.069349958616399920e-01,0.000000000000000000e+00
4.580000000000000000e+02,2.778136585068744502e+00,0.000000000000000000e+00
4.590000000000000000e+02,5.615908393388261644e+00,0.000000000000000000e+00
4.600000000000000000e+02,-1.741903642615017178e+00,1.000000000000000000e+00
4.610000000000000000e+02,-1.003306844060895653e+00,0.000000000000000000e+00
4.620000000000000000e+02,-8.502199896122774048e-01,0.000000000000000000e+00
4.630000000000000000e+02,-4.394255846936449550e-01,0.000000000000000000e+00
4.640000000000000000e+02,-4.548785256189277204e-01,0.000000000000000000e+00
4.650000000000000000e+02,-3.215141909204184967e-01,0.000000000000000000e+00
4.660000000000000000e+02,-3.484291003898522532e-01,0.000000000000000000e+00
4.670000000000000000e+02,-1.878227188354447408e-01,0.000000000000000000e+00
4.680000000000000000e+02,-1.653159149542723361e-01,0.000000000000000000e+00
4.690000000000000000e+02,-2.901615431052511837e-02,0.000000000000000000e+00
4.700000000000000000e+02,9.862935803609118590e-02,0.000000000000000000e+00
4.710000000000000000e+02,8.483283602168500970e-02,0.000000000000000000e+00
4.720000000000000000e+02,4.485040608121364514e-01,0.000000000000000000e+00
4.730000000000000000e+02,5.279239019690310508e-01,0.000000000000000000e+00
4.740000000000000000e+02,8.533048457299668987e-01,0.000000000000000000e+00
4.750000000000000000e+02,9.932002680476462730e-01,0.000000000000000000e+00
4.760000000000000000e+02,1.270148876786687975e+00,0.000000000000000000e+00
4.770000000000000000e+02,1.071228125857144553e+00,0.000000000000000000e+00
4.780000000000000000e+02,1.053148525251622336e-01,0.000000000000000000e+00
4.790000000000000000e+02,-3.229961061809684675e-01,0.000000000000000000e+00
4.800000000000000000e+02,-9.445694115452868411e-01,0.000000000000000000e+00
4.810000000000000000e+02,-9.077435896244249180e-01,0.000000000000000000e+00
4.820000000000000000e+02,-1.091481790770538751e+00,0.000000000000000000e+00
4.830000000000000000e+02,-6.757311867153505958e-01,0.000000000000000000e+00
4.840000000000000000e+02,-1.045067687735656836e+00,0.000000000000000000e+00
4.850000000000000000e+02,-7.598488080614183016e-01,0.000000000000000000e+00
4.860000000000000000e+02,-5.823668720529864284e-01,0.000000000000000000e+00
4.870000000000000000e+02,-4.289063310597696077e-01,0.000000000000000000e+00
4.880000000000000000e+02,-3.622169771675621819e-01,0.000000000000000000e+00
4.890000000000000000e+02,-4.582845892327490067e-01,0.000000000000000000e+00
4.900000000000000000e+02,-4.063124639040247565e-01,0.000000000000000000e+00
4.910000000000000000e+02,-3.262225698145249098e-01,0.000000000000000000e+00
4.920000000000000000e+02,-1.192714433679790270e-01,0.000000000000000000e+00
4.930000000000000000e+02,-3.578809597285666499e-01,0.000000000000000000e+00
4.940000000000000000e+02,-3.512317372090530965e-01,0.000000000000000000e+00
4.950000000000000000e+02,-1.053272010126395791e-01,0.000000000000000000e+00
4.960000000000000000e+02,-1.370968559676307152e-01,0.000000000000000000e+00
4.970000000000000000e+02,-1.213849855909960168e-01,0.000000000000000000e+00
4.980000000000000000e+02,-1.197499855457162254e-01,0.000000000000000000e+00
4.990000000000000000e+02,8.377818542900812571e-02,0.000000000000000000e+00
5.000000000000000000e+02,-3.612260550831348366e-02,0.000000000000000000e+00
5.010000000000000000e+02,5.420196994715813926e-02,0.000000000000000000e+00
5.020000000000000000e+02,-3.902564330758269483e-04,0.000000000000000000e+00
5.030000000000000000e+02,1.680677715756281332e-01,0.000000000000000000e+00
5.040000000000000000e+02,1.030625096715101635e-01,0.000000000000000000e+00
5.050000000000000000e+02,1.046825346226975401e-01,0.000000000000000000e+00
5.060000000000000000e+02,1.272850165016234103e-01,0.000000000000000000e+00
5.070000000000000000e+02,3.455401513205219599e-01,0.000000000000000000e+00
5.080000000000000000e+02,5.885980009850073913e-02,0.000000000000000000e+00
5.090000000000000000e+02,7.456124449712608904e-01,0.000000000000000000e+00
5.100000000000000000e+02,4.442614825705563653e-01,0.000000000000000000e+00
5.110000000000000000e+02,7.631980988824732526e-01,0.000000000000000000e+00
5.120000000000000000e+02,5.098509670337243449e-01,0.000000000000000000e+00
5.130000000000000000e+02,3.123182283978344076e-01,0.000000000000000000e+00
5.140000000000000000e+02,-1.088732475525076293e-01,0.000000000000000000e+00
5.150000000000000000e+02,1.558341006232217239e-02,0.000000000000000000e+00
5.160000000000000000e+02,-2.613218015582591813e-01,0.000000000000000000e+00
5.170000000000000000e+02,7.250573458094204671e-02,0.000000000000000000e+00
5.180000000000000000e+02,-4.203196622737553900e-01,0.000000000000000000e+00
5.190000000000000000e+02,4.178504739734821283e-01,0.000000000000000000e+00
5.200000000000000000e+02,-2.568477839113569305e-01,0.000000000000000000e+00
5.210000000000000000e+02,5.624521667053899776e+00,0.000000000000000000e+00
5.220000000000000000e+02,2.509363911647022771e+00,1.000000000000000000e+00
5.230000000000000000e+02,-2.427828120733327211e+00,0.000000000000000000e+00
5.240000000000000000e+02,-3.360951887297512486e-01,0.000000000000000000e+00
5.250000000000000000e+02,-1.230450175874069574e+00,0.000000000000000000e+00
5.260000000000000000e+02,-3.912161938951325690e-01,0.000000000000000000e+00
5.270000000000000000e+02,-8.481764946769136948e-01,0.000000000000000000e+00
5.280000000000000000e+02,-4.770761696803766383e-01,0.000000000000000000e+00
5.290000000000000000e+02,-5.747649728148965798e-01,0.000000000000000000e+00
5.300000000000000000e+02,-1.461841490440111135e-01,0.000000000000000000e+00
5.310000000000000000e+02,-3.657729791640256800e-01,0.000000000000000000e+00
5.320000000000000000e+02,-2.360254981554193651e-02,0.000000000000000000e+00
5.330000000000000000e+02,-1.112687516026330259e-01,0.000000000000000000e+00
5.340000000000000000e+02,3.120125602614729626e-02,0.000000000000000000e+00
5.350000000000000000e+02,3.681669831143292160e-01,0.000000000000000000e+00
5.360000000000000000e+02,6.888892538569988400e-01,0.000000000000000000e+00
5.370000000000000000e+02,6.942426791102285222e-01,0.000000000000000000e+00
5.380000000000000000e+02,1.132303361420867960e+00,0.000000000000000000e+00
5.390000000000000000e+02,1.034798234462972033e+00,0.000000000000000000e+00
5.400000000000000000e+02,6.232618507264662266e-01,0.000000000000000000e+00
5.410000000000000000e+02,-3.882803507336757276e-02,0.000000000000000000e+00
5.420000000000000000e+02,-6.444419134964155527e-01,0.000000000000000000e+00
5.430000000000000000e+02,-1.046626568903508581e+00,0.000000000000000000e+00
5.440000000000000000e+02,-1.013813604202598029e+00,0.000000000000000000e+00
5.450000000000000000e+02,-1.109470159530395295e+00,0.000000000000000000e+00
5.460000000000000000e+02,-8.290556916633259332e-01,0.000000000000000000e+00
5.470000000000000000e+02,-9.312547882477003602e-01,0.000000000000000000e+00
5.480000000000000000e+02,-6.205898614178182449e-01,0.000000000000000000e+00
5.490000000000000000e+02,-6.839558087428478927e-01,0.000000000000000000e+00
5.500000000000000000e+02,-5.055652064739887264e-01,0.000000000000000000e+00
5.510000000000000000e+02,-4.893215582711334943e-01,0.000000000000000000e+00
5.520000000000000000e+02,-3.169037355134071143e-01,0.000000000000000000e+00
5.530000000000000000e+02,-3.523926766913727526e-01,0.000000000000000000e+00
5.540000000000000000e+02,-2.711675547383198270e-01,0.000000000000000000e+00
5.550000000000000000e+02,-2.577958563637561262e-01,0.000000000000000000e+00
5.560000000000000000e+02,-3.648792050255795782e-01,0.000000000000000000e+00
5.570000000000000000e+02,-1.866769193741042165e-01,0.000000000000000000e+00
5.580000000000000000e+02,-1.604684180882194333e-01,0.000000000000000000e+00
5.590000000000000000e+02,-5.190388243302598847e-02,0.000000000000000000e+00
5.600000000000000000e+02,-1.951712099569374581e-01,0.000000000000000000e+00
5.610000000000000000e+02,-6.067792561446849059e-02,0.000000000000000000e+00
5.620000000000000000e+02,3.505535988706857953e-02,0.000000000000000000e+00
5.630000000000000000e+02,4.332242946742202901e-03,0.000000000000000000e+00
5.640000000000000000e+02,1.342678891290465804e-01,0.000000000000000000e+00
5.650000000000000000e+02,-7.679160231084450165e-03,0.000000000000000000e+00
5.660000000000000000e+02,8.392524194901770929e-02,0.000000000000000000e+00
5.670000000000000000e+02,1.159226924606489295e-01,0.000000000000000000e+00
5.680000000000000000e+02,4.199819840766388923e-01,0.000000000000000000e+00
5.690000000000000000e+02,4.067754857067303054e-02,0.000000000000000000e+00
5.700000000000000000e+02,3.063506700873971367e-01,0.000000000000000000e+00
5.710000000000000000e+02,1.503745181482775972e-01,0.000000000000000000e+00
5.720000000000000000e+02,6.029731414691567037e-01,0.000000000000000000e+00
5.730000000000000000e+02,5.280949924665003792e-01,0.000000000000000000e+00
5.740000000000000000e+02,9.044640964951998763e-01,0.000000000000000000e+00
5.750000000000000000e+02,4.640135138963679129e-01,0.000000000000000000e+00
5.760000000000000000e+02,4.477387963582684094e-01,0.000000000000000000e+00
5.770000000000000000e+02,-1.889092844227948098e-01,0.000000000000000000e+00
5.780000000000000000e+02,5.347402237417901716e-02,0.000000000000000000e+00
5.790000000000000000e+02,-1.655007291265454261e-01,0.000000000000000000e+00
5.800000000000000000e+02,5.802511825769460230e-02,0.000000000000000000e+00
5.810000000000000000e+02,-4.316005592787712786e-01,0.000000000000000000e+00
5.820000000000000000e+02,5.335009972191878669e-01,0.000000000000000000e+00
5.830000000000000000e+02,-4.044361923278773641e-01,0.000000000000000000e+00
5.840000000000000000e+02,5.603797426656385916e+00,0.000000000000000000e+00
5.850000000000000000e+02,2.893237994930470514e+00,1.000000000000000000e+00
5.860000000000000000e+02,-2.406917236377051683e+00,0.000000000000000000e+00
5.870000000000000000e+02,-2.569805596607815934e-01,0.000000000000000000e+00
5.880000000000000000e+02,-1.158672679108588399e+00,0.000000000000000000e+00
5.890000000000000000e+02,-4.230025675322124923e-01,0.000000000000000000e+00
5.900000000000000000e+02,-8.126295489477887157e-01,0.000000000000000000e+00
5.910000000000000000e+02,-4.084608605670169146e-01,0.000000000000000000e+00
5.920000000000000000e+02,-4.804420809986052476e-01,0.000000000000000000e+00
5.930000000000000000e+02,-1.826457211933388558e-01,0.000000000000000000e+00
5.940000000000000000e+02,-3.575823378055438262e-01,0.000000000000000000e+00
5.950000000000000000e+02,-3.394821630024267255e-03,0.000000000000000000e+00
5.960000000000000000e+02,-1.365411174021425034e-01,0.000000000000000000e+00
5.970000000000000000e+02,2.055246994189708354e-01,0.000000000000000000e+00
5.980000000000000000e+02,2.579206260019479280e-01,0.000000000000000000e+00
5.990000000000000000e+02,6.512677163836436689e-01,0.000000000000000000e+00
6.000000000000000000e+02,8.001874681041730719e-01,0.000000000000000000e+00
6.010000000000000000e+02,1.153003925534695107e+00,0.000000000000000000e+00
6.020000000000000000e+02,9.743165411414140831e-01,0.000000000000000000e+00
6.030000000000000000e+02,8.722139252758883687e-01,0.000000000000000000e+00
6.040000000000000000e+02,-7.206763913295606561e-02,0.000000000000000000e+00
6.050000000000000000e+02,-6.394918259235787827e-01,0.000000000000000000e+00
6.060000000000000000e+02,-1.097120589321578965e+00,0.000000000000000000e+00
6.070000000000000000e+02,-9.843493231288115153e-01,0.000000000000000000e+00
6.080000000000000000e+02,-9.704332326245954654e-01,0.000000000000000000e+00
6.090000000000000000e+02,-9.027110378264106005e-01,0.000000000000000000e+00
6.100000000000000000e+02,-8.369758412806717063e-01,0.000000000000000000e+00
6.110000000000000000e+02,-8.498884454288329060e-01,0.000000000000000000e+00
6.120000000000000000e+02,-5.549488076426262184e-01,0.000000000000000000e+00
6.130000000000000000e+02,-3.035290464375244857e-01,0.000000000000000000e+00
6.140000000000000000e+02,9.295185370206447972e-01,0.000000000000000000e+00
6.150000000000000000e+02,3.192051849038508138e+00,0.000000000000000000e+00
6.160000000000000000e+02,5.567394520833540916e+00,0.000000000000000000e+00
6.170000000000000000e+02,7.127171087153716833e+00,0.000000000000000000e+00
6.180000000000000000e+02,5.974434473666231149e+00,0.000000000000000000e+00
6.190000000000000000e+02,-7.946995237582922256e-01,0.000000000000000000e+00
6.200000000000000000e+02,-5.239308213974508632e+00,1.000000000000000000e+00
6.210000000000000000e+02,-4.305451412682355539e+00,0.000000000000000000e+00
6.220000000000000000e+02,-4.673371590775394324e+00,0.000000000000000000e+00
6.230000000000000000e+02,-3.776880976998832740e+00,0.000000000000000000e+00
6.240000000000000000e+02,-3.773176053480525649e+00,0.000000000000000000e+00
6.250000000000000000e+02,-3.139078244937353546e+00,0.000000000000000000e+00
6.260000000000000000e+02,-3.085523274327381049e+00,0.000000000000000000e+00
6.270000000000000000e+02,-2.735249682190415310e+00,0.000000000000000000e+00
6.280000000000000000e+02,-2.642796433319547500e+00,0.000000000000000000e+00
6.290000000000000000e+02,-2.247469749234656700e+00,0.000000000000000000e+00
6.300000000000000000e+02,-2.443068481292142824e+00,0.000000000000000000e+00
6.310000000000000000e+02,-1.708542487527294096e+00,0.000000000000000000e+00
6.320000000000000000e+02,-1.353171381199068879e+00,0.000000000000000000e+00
6.330000000000000000e+02,4.691877221009660426e-02,0.000000000000000000e+00
6.340000000000000000e+02,7.713060507017420742e-01,0.000000000000000000e+00
6.350000000000000000e+02,2.095660820774924549e+00,0.000000000000000000e+00
6.360000000000000000e+02,1.723598832781197743e+00,0.000000000000000000e+00
6.370000000000000000e+02,2.024619637311260156e+00,0.000000000000000000e+00
6.380000000000000000e+02,1.210047173331358028e+00,0.000000000000000000e+00
6.390000000000000000e+02,1.018750359921330784e+00,0.000000000000000000e+00
6.400000000000000000e+02,7.033819352333153807e-01,0.000000000000000000e+00
6.410000000000000000e+02,6.377189611738232067e-01,0.000000000000000000e+00
6.420000000000000000e+02,4.690892673605103202e-01,0.000000000000000000e+00
6.430000000000000000e+02,7.512891101236799374e-01,0.000000000000000000e+00
6.440000000000000000e+02,6.078325571281187889e-01,0.000000000000000000e+00
6.450000000000000000e+02,9.339352746540892092e-01,0.000000000000000000e+00
6.460000000000000000e+02,4.857212256574636178e-01,0.000000000000000000e+00
6.470000000000000000e+02,9.022955880679794927e-01,0.000000000000000000e+00
6.480000000000000000e+02,4.765476474058595313e-01,0.000000000000000000e+00
6.490000000000000000e+02,9.566286751460486570e-01,0.000000000000000000e+00
6.500000000000000000e+02,4.313337150022999444e-01,0.000000000000000000e+00
6.510000000000000000e+02,9.333000686757096931e-01,0.000000000000000000e+00
6.520000000000000000e+02,9.321459237251672469e-01,0.000000000000000000e+00
6.530000000000000000e+02,7.126355744886332388e+00,0.000000000000000000e+00
6.540000000000000000e+02,1.590646395669051083e+00,1.000000000000000000e+00
6.550000000000000000e+02,-1.251684387121155373e+00,0.000000000000000000e+00
6.560000000000000000e+02,2.478868283282108786e-01,0.000000000000000000e+00
6.570000000000000000e+02,-4.275100959847491500e-01,0.000000000000000000e+00
6.580000000000000000e+02,5.794706417597035586e-02,0.000000000000000000e+00
6.590000000000000000e+02,-1.029152667192635845e-01,0.000000000000000000e+00
6.600000000000000000e+02,1.978124376644757598e-02,0.000000000000000000e+00
6.610000000000000000e+02,-1.784563100027498569e-04,0.000000000000000000e+00
6.620000000000000000e+02,8.965320507779815651e-02,0.000000000000000000e+00
6.630000000000000000e+02,1.900770112394059297e-01,0.000000000000000000e+00
6.640000000000000000e+02,3.274065181928623725e-01,0.000000000000000000e+00
6.650000000000000000e+02,3.700095360604104822e-01,0.000000000000000000e+00
6.660000000000000000e+02,4.005498754335186651e-01,0.000000000000000000e+00
6.670000000000000000e+02,9.106560969197643463e-01,0.000000000000000000e+00
6.680000000000000000e+02,9.732901349227718324e-01,0.000000000000000000e+00
6.690000000000000000e+02,1.158106454000647378e+00,0.000000000000000000e+00
6.700000000000000000e+02,1.338145843460977424e+00,0.000000000000000000e+00
6.710000000000000000e+02,9.810321266763240011e-01,0.000000000000000000e+00
6.720000000000000000e+02,9.483398749379859383e-02,0.000000000000000000e+00
6.730000000000000000e+02,-8.964967503904672785e-01,0.000000000000000000e+00
6.740000000000000000e+02,-1.020187491372499977e+00,0.000000000000000000e+00
6.750000000000000000e+02,-1.083755319701937392e+00,0.000000000000000000e+00
6.760000000000000000e+02,-1.120154537112975968e+00,0.000000000000000000e+00
6.770000000000000000e+02,-9.116823539339781179e-01,0.000000000000000000e+00
6.780000000000000000e+02,-8.374307618542972120e-01,0.000000000000000000e+00
6.790000000000000000e+02,-7.927066807343685628e-01,0.000000000000000000e+00
6.800000000000000000e+02,-9.607989038417845684e-01,0.000000000000000000e+00
6.810000000000000000e+02,-6.982941135861758797e-01,0.000000000000000000e+00
6.820000000000000000e+02,-6.812622575767399713e-01,0.000000000000000000e+00
6.830000000000000000e+02,-4.706788444553023920e-01,0.000000000000000000e+00
6.840000000000000000e+02,-6.576454737378650828e-01,0.000000000000000000e+00
6.850000000000000000e+02,-7.459269258597260865e-01,0.000000000000000000e+00
6.860000000000000000e+02,-5.410698152947486239e-01,0.000000000000000000e+00
6.870000000000000000e+02,-2.797339654126921316e-01,0.000000000000000000e+00
6.880000000000000000e+02,-5.387431080838250841e-01,0.000000000000000000e+00
6.890000000000000000e+02,-4.533608789167970499e-01,0.000000000000000000e+00
6.900000000000000000e+02,-3.756836960411702453e-01,0.000000000000000000e+00
6.910000000000000000e+02,-6.472070615432412577e-02,0.000000000000000000e+00
6.920000000000000000e+02,-4.868876417704017801e-01,0.000000000000000000e+00
6.930000000000000000e+02,-7.490804608840502532e-02,0.000000000000000000e+00
6.940000000000000000e+02,-2.837965137288362971e-01,0.000000000000000000e+00
6.950000000000000000e+02,3.045761750090034137e-01,0.000000000000000000e+00
6.960000000000000000e+02,1.807034910899333047e-01,0.000000000000000000e+00
6.970000000000000000e+02,5.196924735949747243e-01,0.000000000000000000e+00
6.980000000000000000e+02,1.305546092994758489e-01,0.000000000000000000e+00
6.990000000000000000e+02,2.604451959145741013e-01,0.000000000000000000e+00
7.000000000000000000e+02,-4.900381816790130296e-01,0.000000000000000000e+00
7.010000000000000000e+02,-1.970619784492464721e-01,0.000000000000000000e+00
7.020000000000000000e+02,-3.264485950831930716e-01,0.000000000000000000e+00
7.030000000000000000e+02,-1.042408743665412807e-01,0.000000000000000000e+00
7.040000000000000000e+02,-3.436609437697611957e-01,0.000000000000000000e+00
7.050000000000000000e+02,3.126194687041259357e-01,0.000000000000000000e+00
7.060000000000000000e+02,-7.733119598078189716e-01,0.000000000000000000e+00
7.070000000000000000e+02,3.655974947606079883e+00,0.000000000000000000e+00
7.080000000000000000e+02,3.512260549852321390e+00,0.000000000000000000e+00
7.090000000000000000e+02,-2.826888984269166460e+00,1.000000000000000000e+00
7.100000000000000000e+02,-6.689880995043053780e-01,0.000000000000000000e+00
7.110000000000000000e+02,-6.855286062512677692e-01,0.000000000000000000e+00
7.120000000000000000e+02,-2.086730122347401351e-01,0.000000000000000000e+00
7.130000000000000000e+02,-4.311947766617678091e-01,0.000000000000000000e+00
7.140000000000000000e+02,7.726881997015680459e-02,0.000000000000000000e+00
7.150000000000000000e+02,-3.086512056241087487e-01,0.000000000000000000e+00
7.160000000000000000e+02,-1.479131987005070925e-01,0.000000000000000000e+00
7.170000000000000000e+02,-1.064368313722327715e-02,0.000000000000000000e+00
7.180000000000000000e+02,1.530245760176908165e-01,0.000000000000000000e+00
7.190000000000000000e+02,1.963949123197613333e-01,0.000000000000000000e+00
7.200000000000000000e+02,2.431630847431976994e-01,0.000000000000000000e+00
7.210000000000000000e+02,5.331001735226786886e-01,0.000000000000000000e+00
7.220000000000000000e+02,5.227224036021022036e-01,0.000000000000000000e+00
7.230000000000000000e+02,9.770738884319237760e-01,0.000000000000000000e+00
7.240000000000000000e+02,1.033622532527930238e+00,0.000000000000000000e+00
7.250000000000000000e+02,9.970828514055435354e-01,0.000000000000000000e+00
7.260000000000000000e+02,8.517412833192510302e-01,0.000000000000000000e+00
7.270000000000000000e+02,-1.168342592061308444e-01,0.000000000000000000e+00
7.280000000000000000e+02,-6.222470039266009278e-01,0.000000000000000000e+00
7.290000000000000000e+02,-8.847600176628056534e-01,0.000000000000000000e+00
7.300000000000000000e+02,-9.865484193236564447e-01,0.000000000000000000e+00
7.310000000000000000e+02,-7.431216499160931965e-01,0.000000000000000000e+00
7.320000000000000000e+02,-9.849751265924224786e-01,0.000000000000000000e+00
7.330000000000000000e+02,-6.347457616206805264e-01,0.000000000000000000e+00
7.340000000000000000e+02,-4.958264839149243985e-01,0.000000000000000000e+00
7.350000000000000000e+02,-6.922544894785789271e-01,0.000000000000000000e+00
7.360000000000000000e+02,-3.646430543176469308e-01,0.000000000000000000e+00
7.370000000000000000e+02,-6.348824787936295788e-01,0.000000000000000000e+00
7.380000000000000000e+02,-3.180878646753082517e-01,0.000000000000000000e+00
7.390000000000000000e+02,-2.858075819536722295e-01,0.000000000000000000e+00
7.400000000000000000e+02,-3.582535450437581703e-01,0.000000000000000000e+00
7.410000000000000000e+02,-3.890372764382550308e-01,0.000000000000000000e+00
7.420000000000000000e+02,-2.089686964523017054e-01,0.000000000000000000e+00
7.430000000000000000e+02,-3.389182936471589191e-01,0.000000000000000000e+00
7.440000000000000000e+02,-1.662536862150648942e-01,0.000000000000000000e+00
7.450000000000000000e+02,-2.734361439164706975e-01,0.000000000000000000e+00
7.460000000000000000e+02,-6.688076126243282238e-02,0.000000000000000000e+00
7.470000000000000000e+02,-1.722544228397007160e-01,0.000000000000000000e+00
7.480000000000000000e+02,-4.442624432160986736e-02,0.000000000000000000e+00
7.490000000000000000e+02,-4.873083769805338500e-02,0.000000000000000000e+00
7.500000000000000000e+02,9.301050289984795494e-02,0.000000000000000000e+00
7.510000000000000000e+02,5.884661811694576888e-02,0.000000000000000000e+00
7.520000000000000000e+02,6.285861420553691403e-02,0.000000000000000000e+00
7.530000000000000000e+02,1.247088106859339379e-01,0.000000000000000000e+00
7.540000000000000000e+02,2.698822710449821916e-01,0.000000000000000000e+00
7.550000000000000000e+02,1.754863851193696200e-01,0.000000000000000000e+00
7.560000000000000000e+02,5.356176899818340109e-01,0.000000000000000000e+00
7.570000000000000000e+02,6.468283971511894492e-01,0.000000000000000000e+00
7.580000000000000000e+02,5.276979400946332222e-01,0.000000000000000000e+00
7.590000000000000000e+02,5.082303593943370279e-01,0.000000000000000000e+00
7.600000000000000000e+02,1.026415878730411596e-01,0.000000000000000000e+00
7.610000000000000000e+02,-9.586119464587051706e-03,0.000000000000000000e+00
7.620000000000000000e+02,-1.286442611541863956e-01,0.000000000000000000e+00
7.630000000000000000e+02,-2.590272442108553647e-02,0.000000000000000000e+00
7.640000000000000000e+02,3.345628831875327447e-02,0.000000000000000000e+00
7.650000000000000000e+02,1.286547785469341343e-01,0.000000000000000000e+00
7.660000000000000000e+02,-2.189043439015367909e-01,0.000000000000000000e+00
7.670000000000000000e+02,1.552307904778726488e+00,0.000000000000000000e+00
7.680000000000000000e+02,5.434570028923690899e+00,0.000000000000000000e+00
7.690000000000000000e+02,-1.327399553183532310e+00,1.000000000000000000e+00
7.700000000000000000e+02,-1.292400661169815335e+00,0.000000000000000000e+00
7.710000000000000000e+02,-4.380240172664985887e-01,0.000000000000000000e+00
7.720000000000000000e+02,-4.259817315931317960e-01,0.000000000000000000e+00
7.730000000000000000e+02,-1.988373888474359030e-01,0.000000000000000000e+00
7.740000000000000000e+02,-2.470271025742803994e-01,0.000000000000000000e+00
7.750000000000000000e+02,-2.735224166147093849e-01,0.000000000000000000e+00
7.760000000000000000e+02,4.215865840522289854e-02,0.000000000000000000e+00
7.770000000000000000e+02,-9.676157370850128892e-02,0.000000000000000000e+00
7.780000000000000000e+02,5.400634184615629718e-02,0.000000000000000000e+00
7.790000000000000000e+02,3.326678935146150651e-01,0.000000000000000000e+00
7.800000000000000000e+02,1.209341433156491674e-01,0.000000000000000000e+00
7.810000000000000000e+02,4.180159516107605500e-01,0.000000000000000000e+00
7.820000000000000000e+02,6.335235335860848194e-01,0.000000000000000000e+00
7.830000000000000000e+02,7.357641486409133291e-01,0.000000000000000000e+00
7.840000000000000000e+02,9.620679916947687538e-01,0.000000000000000000e+00
7.850000000000000000e+02,9.980477875642844721e-01,0.000000000000000000e+00
7.860000000000000000e+02,9.792081921020792112e-01,0.000000000000000000e+00
7.870000000000000000e+02,3.622679774976171885e-01,0.000000000000000000e+00
7.880000000000000000e+02,-4.233973423343923015e-01,0.000000000000000000e+00
7.890000000000000000e+02,-8.065585717804997223e-01,0.000000000000000000e+00
7.900000000000000000e+02,-1.031803869231779025e+00,0.000000000000000000e+00
7.910000000000000000e+02,-7.217954323242984360e-01,0.000000000000000000e+00
7.920000000000000000e+02,-9.360329166416496705e-01,0.000000000000000000e+00
7.930000000000000000e+02,-7.128791377998354717e-01,0.000000000000000000e+00
7.940000000000000000e+02,-6.376566266061119981e-01,0.000000000000000000e+00
7.950000000000000000e+02,-6.234367756689153106e-01,0.000000000000000000e+00
7.960000000000000000e+02,-4.133224681014167623e-01,0.000000000000000000e+00
7.970000000000000000e+02,-5.765634504530574578e-01,0.000000000000000000e+00
7.980000000000000000e+02,-3.358202422214830452e-01,0.000000000000000000e+00
7.990000000000000000e+02,-3.067192573236696140e-01,0.000000000000000000e+00
8.000000000000000000e+02,-2.665286091170853133e-01,0.000000000000000000e+00
8.010000000000000000e+02,-4.155053441122765756e-01,0.000000000000000000e+00
8.020000000000000000e+02,-3.102130344501732306e-01,0.000000000000000000e+00
8.030000000000000000e+02,-1.133704845168378023e-01,0.000000000000000000e+00
8.040000000000000000e+02,-2.462151246655843173e-01,0.000000000000000000e+00
8.050000000000000000e+02,-1.886489546535282391e-01,0.000000000000000000e+00
8.060000000000000000e+02,-1.534221286331453882e-01,0.000000000000000000e+00
8.070000000000000000e+02,-1.617142797834850154e-01,0.000000000000000000e+00
8.080000000000000000e+02,-1.881056247487735214e-02,0.000000000000000000e+00
8.090000000000000000e+02,-4.011015247803838280e-02,0.000000000000000000e+00
8.100000000000000000e+02,-4.016631861353134325e-02,0.000000000000000000e+00
8.110000000000000000e+02,8.981004920511551082e-02,0.000000000000000000e+00
8.120000000000000000e+02,7.599654586198240080e-02,0.000000000000000000e+00
8.130000000000000000e+02,8.756400353306206807e-02,0.000000000000000000e+00
8.140000000000000000e+02,1.117952129189105498e-01,0.000000000000000000e+00
8.150000000000000000e+02,2.158282610579290162e-01,0.000000000000000000e+00
8.160000000000000000e+02,1.416919941129153038e-01,0.000000000000000000e+00
8.170000000000000000e+02,4.280917844080875390e-01,0.000000000000000000e+00
8.180000000000000000e+02,3.595097592884861082e-01,0.000000000000000000e+00
8.190000000000000000e+02,6.957138404480233129e-01,0.000000000000000000e+00
8.200000000000000000e+02,7.258419970983386316e-01,0.000000000000000000e+00
8.210000000000000000e+02,3.676182600981651727e-01,0.000000000000000000e+00
8.220000000000000000e+02,-4.081048896703321632e-02,0.000000000000000000e+00
8.230000000000000000e+02,-1.073063192493180218e-01,0.000000000000000000e+00
8.240000000000000000e+02,-3.342920401496424776e-01,0.000000000000000000e+00
8.250000000000000000e+02,1.852462373072522039e-01,0.000000000000000000e+00
8.260000000000000000e+02,-2.495968909655255363e-01,0.000000000000000000e+00
8.270000000000000000e+02,1.671714549325099552e-01,0.000000000000000000e+00
8.280000000000000000e+02,-4.359426774885498124e-01,0.000000000000000000e+00
8.290000000000000000e+02,3.194848523886390623e+00,0.000000000000000000e+00
8.300000000000000000e+02,4.948084350267514253e+00,0.000000000000000000e+00
8.310000000000000000e+02,-1.940793741031640263e+00,1.000000000000000000e+00
8.320000000000000000e+02,-6.520517408467675358e-01,0.000000000000000000e+00
8.330000000000000000e+02,-1.071789710569287069e+00,0.000000000000000000e+00
8.340000000000000000e+02,-4.312588714833980319e-01,0.000000000000000000e+00
8.350000000000000000e+02,-7.369342552928498380e-01,0.000000000000000000e+00
8.360000000000000000e+02,-3.172308369946696405e-01,0.000000000000000000e+00
8.370000000000000000e+02,-4.499468093255730161e-01,0.000000000000000000e+00
8.380000000000000000e+02,-9.162099585989140482e-02,0.000000000000000000e+00
8.390000000000000000e+02,-3.880719206425550794e-01,0.000000000000000000e+00
8.400000000000000000e+02,5.283728059122103776e-02,0.000000000000000000e+00
8.410000000000000000e+02,-8.621491407150089215e-02,0.000000000000000000e+00
8.420000000000000000e+02,2.381338587201654033e-01,0.000000000000000000e+00
8.430000000000000000e+02,2.790245522320486393e-01,0.000000000000000000e+00
8.440000000000000000e+02,4.946182120056559772e-01,0.000000000000000000e+00
8.450000000000000000e+02,6.618588227939673496e-01,0.000000000000000000e+00
8.460000000000000000e+02,1.075832438744034558e+00,0.000000000000000000e+00
8.470000000000000000e+02,1.022352560000875155e+00,0.000000000000000000e+00
8.480000000000000000e+02,8.147103076442276937e-01,0.000000000000000000e+00
8.490000000000000000e+02,2.720396607966286961e-02,0.000000000000000000e+00
8.500000000000000000e+02,-5.126493914665223306e-01,0.000000000000000000e+00
8.510000000000000000e+02,-9.433687771055982996e-01,0.000000000000000000e+00
8.520000000000000000e+02,-9.920936038018212111e-01,0.000000000000000000e+00
8.530000000000000000e+02,-9.576836065040851276e-01,0.000000000000000000e+00
8.540000000000000000e+02,-9.520403535449155630e-01,0.000000000000000000e+00
8.550000000000000000e+02,-8.099884503236428612e-01,0.000000000000000000e+00
8.560000000000000000e+02,-8.277214684289394553e-01,0.000000000000000000e+00
8.570000000000000000e+02,-6.187008073396828012e-01,0.000000000000000000e+00
8.580000000000000000e+02,-5.446207690479755170e-01,0.000000000000000000e+00
8.590000000000000000e+02,-4.539415584528493919e-01,0.000000000000000000e+00
8.600000000000000000e+02,-3.784280080586706618e-01,0.000000000000000000e+00
8.610000000000000000e+02,-5.019011872688516895e-01,0.000000000000000000e+00
8.620000000000000000e+02,-1.839961831881779530e-01,0.000000000000000000e+00
8.630000000000000000e+02,-4.078510511832245666e-01,0.000000000000000000e+00
8.640000000000000000e+02,-1.649877278963184923e-01,0.000000000000000000e+00
8.650000000000000000e+02,-2.456785179273281439e-01,0.000000000000000000e+00
8.660000000000000000e+02,-1.146754607817965788e-01,0.000000000000000000e+00
8.670000000000000000e+02,-1.979110713960443857e-01,0.000000000000000000e+00
8.680000000000000000e+02,-1.202731922394974645e-01,0.000000000000000000e+00
8.690000000000000000e+02,-1.850930986946282830e-01,0.000000000000000000e+00
8.700000000000000000e+02,6.235750858100759519e-02,0.000000000000000000e+00
8.710000000000000000e+02,-7.042500637302238908e-02,0.000000000000000000e+00
8.720000000000000000e+02,1.422523822334941790e-01,0.000000000000000000e+00
8.730000000000000000e+02,-1.047672759258397833e-02,0.000000000000000000e+00
8.740000000000000000e+02,1.762586062678392351e-01,0.000000000000000000e+00
8.750000000000000000e+02,8.966307696703919305e-02,0.000000000000000000e+00
8.760000000000000000e+02,1.903031152421778838e-01,0.000000000000000000e+00
8.770000000000000000e+02,7.964922380270018920e-02,0.000000000000000000e+00
8.780000000000000000e+02,3.725744372647138425e-01,0.000000000000000000e+00
8.790000000000000000e+02,1.850983661701311178e-01,0.000000000000000000e+00
8.800000000000000000e+02,6.112146433027693115e-01,0.000000000000000000e+00
8.810000000000000000e+02,5.547744459809532680e-01,0.000000000000000000e+00
8.820000000000000000e+02,6.676656089126002946e-01,0.000000000000000000e+00
8.830000000000000000e+02,8.032989991345375058e-01,0.000000000000000000e+00
8.840000000000000000e+02,1.058545258878183792e-01,0.000000000000000000e+00
8.850000000000000000e+02,-2.373221741485322944e-01,0.000000000000000000e+00
8.860000000000000000e+02,9.644843332277336367e-02,0.000000000000000000e+00
8.870000000000000000e+02,-2.828810670165491925e-01,0.000000000000000000e+00
8.880000000000000000e+02,1.036760616211623576e-01,0.000000000000000000e+00
8.890000000000000000e+02,-3.038515276084381433e-01,0.000000000000000000e+00
8.900000000000000000e+02,3.140886949589927757e-01,0.000000000000000000e+00
8.910000000000000000e+02,-3.247224993497583451e-02,0.000000000000000000e+00
8.920000000000000000e+02,5.953058493007689300e+00,0.000000000000000000e+00
8.930000000000000000e+02,1.877996937832966839e+00,1.000000000000000000e+00
8.940000000000000000e+02,-2.288464376056297045e+00,0.000000000000000000e+00
8.950000000000000000e+02,-3.153403490421585187e-01,0.000000000000000000e+00
8.960000000000000000e+02,-1.109736789833570825e+00,0.000000000000000000e+00
8.970000000000000000e+02,-3.872700379788070468e-01,0.000000000000000000e+00
8.980000000000000000e+02,-6.113192090519103949e-01,0.000000000000000000e+00
8.990000000000000000e+02,-4.271237089074669258e-01,0.000000000000000000e+00
9.000000000000000000e+02,-5.332967997679710637e-01,0.000000000000000000e+00
9.010000000000000000e+02,1.419135817280642309e-02,0.000000000000000000e+00
9.020000000000000000e+02,-4.551249335112979022e-01,0.000000000000000000e+00
9.030000000000000000e+02,7.543143494569633234e-02,0.000000000000000000e+00
9.040000000000000000e+02,-7.780445323467585772e-02,0.000000000000000000e+00
9.050000000000000000e+02,2.987123848044641039e-01,0.000000000000000000e+00
9.060000000000000000e+02,2.262087494725294745e-01,0.000000000000000000e+00
9.070000000000000000e+02,7.684385259770355470e-01,0.000000000000000000e+00
9.080000000000000000e+02,7.471818275180391877e-01,0.000000000000000000e+00
9.090000000000000000e+02,1.197714590747026575e+00,0.000000000000000000e+00
9.100000000000000000e+02,1.040690538926779762e+00,0.000000000000000000e+00
9.110000000000000000e+02,5.625977341054735348e-01,0.000000000000000000e+00
9.120000000000000000e+02,-2.471166521667724769e-01,0.000000000000000000e+00
9.130000000000000000e+02,-7.622221222256235773e-01,0.000000000000000000e+00
9.140000000000000000e+02,-1.045295738253637419e+00,0.000000000000000000e+00
9.150000000000000000e+02,-8.276757337306739348e-01,0.000000000000000000e+00
9.160000000000000000e+02,-1.175739771195174921e+00,0.000000000000000000e+00
9.170000000000000000e+02,-7.826217556554840860e-01,0.000000000000000000e+00
9.180000000000000000e+02,-8.512660397740209328e-01,0.000000000000000000e+00
9.190000000000000000e+02,-7.049545368419880553e-01,0.000000000000000000e+00
9.200000000000000000e+02,-6.436746638260740783e-01,0.000000000000000000e+00
9.210000000000000000e+02,-4.549703151306729310e-01,0.000000000000000000e+00
9.220000000000000000e+02,-5.384865360607222762e-01,0.000000000000000000e+00
9.230000000000000000e+02,-1.631371647803560587e-01,0.000000000000000000e+00
9.240000000000000000e+02,-4.135828199589166032e-01,0.000000000000000000e+00
9.250000000000000000e+02,-2.533707665417940236e-01,0.000000000000000000e+00
9.260000000000000000e+02,-3.249873368705847865e-01,0.000000000000000000e+00
9.270000000000000000e+02,-8.806087111184764116e-02,0.000000000000000000e+00
9.280000000000000000e+02,-3.469250089505443446e-01,0.000000000000000000e+00
9.290000000000000000e+02,-4.150748800077681128e-02,0.000000000000000000e+00
9.300000000000000000e+02,-2.055726648079266028e-01,0.000000000000000000e+00
9.310000000000000000e+02,-5.107289487344837675e-02,0.000000000000000000e+00
9.320000000000000000e+02,-6.185135477546492566e-02,0.000000000000000000e+00
9.330000000000000000e+02,-6.991873648908383809e-02,0.000000000000000000e+00
9.340000000000000000e+02,3.422652870442122186e-02,0.000000000000000000e+00
9.350000000000000000e+02,1.693278159312834041e-01,0.000000000000000000e+00
9.360000000000000000e+02,2.430124334295035576e-02,0.000000000000000000e+00
9.370000000000000000e+02,6.318673150589892984e-02,0.000000000000000000e+00
9.380000000000000000e+02,1.389432162476303967e-01,0.000000000000000000e+00
9.390000000000000000e+02,2.314117557513952483e-01,0.000000000000000000e+00
9.400000000000000000e+02,1.591135072368522752e-01,0.000000000000000000e+00
9.410000000000000000e+02,2.525380051466392661e-01,0.000000000000000000e+00
9.420000000000000000e+02,1.038227042173180958e-01,0.000000000000000000e+00
9.430000000000000000e+02,7.255671564141529251e-01,0.000000000000000000e+00
9.440000000000000000e+02,5.846420689698130779e-01,0.000000000000000000e+00
9.450000000000000000e+02,7.684003048622257692e-01,0.000000000000000000e+00
9.460000000000000000e+02,5.082969970552831951e-01,0.000000000000000000e+00
9.470000000000000000e+02,3.777712638532427225e-01,0.000000000000000000e+00
9.480000000000000000e+02,-1.916739233692694166e-01,0.000000000000000000e+00
9.490000000000000000e+02,5.905214941562780817e-02,0.000000000000000000e+00
9.500000000000000000e+02,-4.275712735111247276e-01,0.000000000000000000e+00
9.510000000000000000e+02,2.332391396756756663e-01,0.000000000000000000e+00
9.520000000000000000e+02,-3.304072164344677431e-01,0.000000000000000000e+00
9.530000000000000000e+02,4.652180003642967243e-01,0.000000000000000000e+00
9.540000000000000000e+02,-7.449687840978717057e-01,0.000000000000000000e+00
9.550000000000000000e+02,4.908439097801162276e+00,0.000000000000000000e+00
9.560000000000000000e+02,3.920121376077847941e+00,1.000000000000000000e+00
9.570000000000000000e+02,-2.552768504888469181e+00,0.000000000000000000e+00
9.580000000000000000e+02,-4.141583350047543521e-01,0.000000000000000000e+00
9.590000000000000000e+02,-1.064789729744413549e+00,0.000000000000000000e+00
9.600000000000000000e+02,-4.445450497871899498e-01,0.000000000000000000e+00
9.610000000000000000e+02,-7.323081323678387600e-01,0.000000000000000000e+00
9.620000000000000000e+02,-4.304894906809701438e-01,0.000000000000000000e+00
9.630000000000000000e+02,-5.317350382894584504e-01,0.000000000000000000e+00
9.640000000000000000e+02,-1.038912693867588138e-01,0.000000000000000000e+00
9.650000000000000000e+02,-4.340961887627943772e-01,0.000000000000000000e+00
9.660000000000000000e+02,5.548114559074682900e-02,0.000000000000000000e+00
9.670000000000000000e+02,-4.010944670659744721e-02,0.000000000000000000e+00
9.680000000000000000e+02,2.665313274591850079e-01,0.000000000000000000e+00
9.690000000000000000e+02,1.697902219610049890e-01,0.000000000000000000e+00
9.700000000000000000e+02,6.063717770771593907e-01,0.000000000000000000e+00
9.710000000000000000e+02,7.988484865115622613e-01,0.000000000000000000e+00
9.720000000000000000e+02,9.768213059090256056e-01,0.000000000000000000e+00
9.730000000000000000e+02,1.155372165193508049e+00,0.000000000000000000e+00
9.740000000000000000e+02,8.005622854217322448e-01,0.000000000000000000e+00
9.750000000000000000e+02,-1.846436720327455372e-01,0.000000000000000000e+00
9.760000000000000000e+02,-5.416513650225681653e-01,0.000000000000000000e+00
9.770000000000000000e+02,-1.030363944002188559e+00,0.000000000000000000e+00
9.780000000000000000e+02,-1.117728575486427678e+00,0.000000000000000000e+00
9.790000000000000000e+02,-1.081161852859042760e+00,0.000000000000000000e+00
9.800000000000000000e+02,-9.346721964071954547e-01,0.000000000000000000e+00
9.810000000000000000e+02,-6.877844462134958814e-01,0.000000000000000000e+00
9.820000000000000000e+02,-7.344783561973631247e-01,0.000000000000000000e+00
9.830000000000000000e+02,-6.756613517013811965e-01,0.000000000000000000e+00
9.840000000000000000e+02,-6.538876282258757611e-01,0.000000000000000000e+00
9.850000000000000000e+02,-4.482577633418416418e-01,0.000000000000000000e+00
9.860000000000000000e+02,-3.621098435826659023e-01,0.000000000000000000e+00
9.870000000000000000e+02,-3.495620101321439410e-01,0.000000000000000000e+00
9.880000000000000000e+02,-2.953152484678908118e-01,0.000000000000000000e+00
9.890000000000000000e+02,-4.375803098074900754e-01,0.000000000000000000e+00
9.900000000000000000e+02,-1.383122163532254645e-01,0.000000000000000000e+00
9.910000000000000000e+02,-2.696157065856443769e-01,0.000000000000000000e+00
9.920000000000000000e+02,-9.392022618897782893e-02,0.000000000000000000e+00
9.930000000000000000e+02,-1.859906623140958060e-01,0.000000000000000000e+00
9.940000000000000000e+02,-1.201832846582548270e-01,0.000000000000000000e+00
9.950000000000000000e+02,-1.529790057103857896e-02,0.000000000000000000e+00
9.960000000000000000e+02,-5.811009418739696009e-02,0.000000000000000000e+00
9.970000000000000000e+02,-6.099580117263016243e-02,0.000000000000000000e+00
9.980000000000000000e+02,9.574953613272307873e-02,0.000000000000000000e+00
9.990000000000000000e+02,3.568446455169905097e-03,0.000000000000000000e+00
1.000000000000000000e+03,1.407767550415433000e-01,0.000000000000000000e+00
1.001000000000000000e+03,8.954071899851034910e-02,0.000000000000000000e+00
1.002000000000000000e+03,8.820215255385140118e-02,0.000000000000000000e+00
1.003000000000000000e+03,2.960528221535626558e-01,0.000000000000000000e+00
1.004000000000000000e+03,1.671146507451783392e-01,0.000000000000000000e+00
1.005000000000000000e+03,4.036515175388592502e-01,0.000000000000000000e+00
1.006000000000000000e+03,4.970716511961392192e-01,0.000000000000000000e+00
1.007000000000000000e+03,6.060008231670880319e-01,0.000000000000000000e+00
1.008000000000000000e+03,7.489594122459606318e-01,0.000000000000000000e+00
1.009000000000000000e+03,4.734110919072485046e-01,0.000000000000000000e+00
1.010000000000000000e+03,3.481595808741873577e-01,0.000000000000000000e+00
1.011000000000000000e+03,-3.818972879331672954e-01,0.000000000000000000e+00
1.012000000000000000e+03,1.026247940105868978e-01,0.000000000000000000e+00
1.013000000000000000e+03,-2.692826582134200675e-01,0.000000000000000000e+00
1.014000000000000000e+03,1.383208072327446470e-01,0.000000000000000000e+00
1.015000000000000000e+03,-2.212421124109309745e-01,0.000000000000000000e+00
1.016000000000000000e+03,1.194526640128788786e-01,0.000000000000000000e+00
1.017000000000000000e+03,5.181430168166368810e-01,0.000000000000000000e+00
1.018000000000000000e+03,6.407983700086382406e+00,0.000000000000000000e+00
1.019000000000000000e+03,3.817778694575170162e-01,1.000000000000000000e+00
1.020000000000000000e+03,-1.909218630367459868e+00,0.000000000000000000e+00
1.021000000000000000e+03,-2.621063255960221494e-01,0.000000000000000000e+00
1.022000000000000000e+03,-1.060779563589338670e+00,0.000000000000000000e+00
1.023000000000000000e+03,-2.172071263828130594e-01,0.000000000000000000e+00
1.024000000000000000e+03,-8.510590671636474314e-01,0.000000000000000000e+00
1.025000000000000000e+03,-3.200711204592239234e-01,0.000000000000000000e+00
1.026000000000000000e+03,-3.429403663022792537e-01,0.000000000000000000e+00
1.027000000000000000e+03,-1.786368897832784075e-01,0.000000000000000000e+00
1.028000000000000000e+03,-3.541427374771875108e-02,0.000000000000000000e+00
1.029000000000000000e+03,-5.739973170506285777e-02,0.000000000000000000e+00
1.030000000000000000e+03,1.024812981706938186e-01,0.000000000000000000e+00
1.031000000000000000e+03,2.283730258679641800e-01,0.000000000000000000e+00
1.032000000000000000e+03,5.778784935106106024e-01,0.000000000000000000e+00
1.033000000000000000e+03,7.409500599138161281e-01,0.000000000000000000e+00
1.034000000000000000e+03,9.733500987542336169e-01,0.000000000000000000e+00
1.035000000000000000e+03,1.012234573514378067e+00,0.000000000000000000e+00
1.036000000000000000e+03,1.138303711327761647e+00,0.000000000000000000e+00
1.037000000000000000e+03,7.210719325401426794e-01,0.000000000000000000e+00
1.038000000000000000e+03,-3.954996374585495467e-01,0.000000000000000000e+00
1.039000000000000000e+03,-7.533939243396756691e-01,0.000000000000000000e+00
1.040000000000000000e+03,-1.194274088110818921e+00,0.000000000000000000e+00
1.041000000000000000e+03,-9.923965694743572818e-01,0.000000000000000000e+00
1.042000000000000000e+03,-9.508972244086308923e-01,0.000000000000000000e+00
1.043000000000000000e+03,-9.571991759098010810e-01,0.000000000000000000e+00
1.044000000000000000e+03,-7.965410694517935930e-01,0.000000000000000000e+00
1.045000000000000000e+03,-6.502882111801655540e-01,0.000000000000000000e+00
1.046000000000000000e+03,-6.890185871091077940e-01,0.000000000000000000e+00
1.047000000000000000e+03,-3.570469715729859828e-01,0.000000000000000000e+00
1.048000000000000000e+03,-5.529889124421284441e-01,0.000000000000000000e+00
1.049000000000000000e+03,-3.606992499865533941e-01,0.000000000000000000e+00
1.050000000000000000e+03,-4.655894395890743387e-01,0.000000000000000000e+00
1.051000000000000000e+03,-2.119895041364296406e-01,0.000000000000000000e+00
1.052000000000000000e+03,-2.645785386905942227e-01,0.000000000000000000e+00
1.053000000000000000e+03,-1.571580360419682076e-01,0.000000000000000000e+00
1.054000000000000000e+03,-3.264123602550100256e-01,0.000000000000000000e+00
1.055000000000000000e+03,-9.459716883223064088e-02,0.000000000000000000e+00
1.056000000000000000e+03,-1.819334072704531235e-01,0.000000000000000000e+00
1.057000000000000000e+03,-1.569325332088904457e-01,0.000000000000000000e+00
1.058000000000000000e+03,-1.579502956612243714e-01,0.000000000000000000e+00
1.059000000000000000e+03,1.738595034876722900e-01,0.000000000000000000e+00
1.060000000000000000e+03,-9.082852913922602467e-02,0.000000000000000000e+00
1.061000000000000000e+03,1.258396951268885844e-01,0.000000000000000000e+00
1.062000000000000000e+03,8.262941704708381963e-02,0.000000000000000000e+00
1.063000000000000000e+03,1.854035225999067782e-01,0.000000000000000000e+00
1.064000000000000000e+03,5.770942179880209078e-02,0.000000000000000000e+00
1.065000000000000000e+03,3.476987987086025411e-01,0.000000000000000000e+00
1.066000000000000000e+03,1.068275721949611817e-01,0.000000000000000000e+00
1.067000000000000000e+03,6.317722516754630258e-01,0.000000000000000000e+00
1.068000000000000000e+03,4.786773572116687636e-01,0.000000000000000000e+00
1.069000000000000000e+03,7.552542773072880022e-01,0.000000000000000000e+00
1.070000000000000000e+03,4.931903145106603104e-01,0.000000000000000000e+00
1.071000000000000000e+03,1.513545504448326195e-01,0.000000000000000000e+00
1.072000000000000000e+03,-1.032242215354488152e-01,0.000000000000000000e+00
1.073000000000000000e+03,7.171044948494066651e-02,0.000000000000000000e+00
1.074000000000000000e+03,-2.296064226019937371e-01,0.000000000000000000e+00
1.075000000000000000e+03,-2.784672223679416150e-02,0.000000000000000000e+00
1.076000000000000000e+03,-1.803887902592990200e-01,0.000000000000000000e+00
1.077000000000000000e+03,2.898718492343596576e-01,0.000000000000000000e+00
1.078000000000000000e+03,6.319716569147424898e-03,0.000000000000000000e+00
1.079000000000000000e+03,5.306310264584866765e+00,0.000000000000000000e+00
1.080000000000000000e+03,9.803861855613679177e-01,1.000000000000000000e+00
1.081000000000000000e+03,-2.424587438917877424e+00,0.000000000000000000e+00
1.082000000000000000e+03,-2.109990043752184297e-01,0.000000000000000000e+00
1.083000000000000000e+03,-6.386706688412449040e-01,0.000000000000000000e+00
1.084000000000000000e+03,-1.312440986727804737e-01,0.000000000000000000e+00
1.085000000000000000e+03,-4.487002540772846992e-01,0.000000000000000000e+00
1.086000000000000000e+03,5.558173136879954873e-02,0.000000000000000000e+00
1.087000000000000000e+03,-1.891389786388596173e-01,0.000000000000000000e+00
1.088000000000000000e+03,7.448129311803050601e-02,0.000000000000000000e+00
1.089000000000000000e+03,-6.218349355752418595e-02,0.000000000000000000e+00
1.090000000000000000e+03,2.139943310937344745e-01,0.000000000000000000e+00
1.091000000000000000e+03,2.488951267335396678e-01,0.000000000000000000e+00
1.092000000000000000e+03,3.915410526767736932e-01,0.000000000000000000e+00
1.093000000000000000e+03,2.707208950916373813e-01,0.000000000000000000e+00
1.094000000000000000e+03,9.844169718287215654e-01,0.000000000000000000e+00
1.095000000000000000e+03,9.130780265886229152e-01,0.000000000000000000e+00
1.096000000000000000e+03,1.220840930928901225e+00,0.000000000000000000e+00
1.097000000000000000e+03,9.454943403712356975e-01,0.000000000000000000e+00
1.098000000000000000e+03,5.289820472445699862e-01,0.000000000000000000e+00
1.099000000000000000e+03,-4.038221054268443244e-01,0.000000000000000000e+00
1.100000000000000000e+03,-7.880622255786406960e-01,0.000000000000000000e+00
1.101000000000000000e+03,-1.310250945873199235e+00,0.000000000000000000e+00
1.102000000000000000e+03,-1.054401454293578455e+00,0.000000000000000000e+00
1.103000000000000000e+03,-1.178439866721459284e+00,0.000000000000000000e+00
1.104000000000000000e+03,-8.442059472084608718e-01,0.000000000000000000e+00
1.105000000000000000e+03,-1.111038827342618607e+00,0.000000000000000000e+00
1.106000000000000000e+03,-7.411945303123090856e-01,0.000000000000000000e+00
1.107000000000000000e+03,-6.278108739379441028e-01,0.000000000000000000e+00
1.108000000000000000e+03,-4.962445076855853676e-01,0.000000000000000000e+00
1.109000000000000000e+03,-6.207251655996403050e-01,0.000000000000000000e+00
1.110000000000000000e+03,-4.712854441182660614e-01,0.000000000000000000e+00
1.111000000000000000e+03,-5.260189477772462263e-01,0.000000000000000000e+00
1.112000000000000000e+03,-4.087986304903274415e-01,0.000000000000000000e+00
1.113000000000000000e+03,-3.496309794483073441e-01,0.000000000000000000e+00
1.114000000000000000e+03,-3.504431746983506790e-01,0.000000000000000000e+00
1.115000000000000000e+03,-3.759524475684505873e-01,0.000000000000000000e+00
1.116000000000000000e+03,-1.243577609475863405e-01,0.000000000000000000e+00
1.117000000000000000e+03,-1.690659622424252606e-01,0.000000000000000000e+00
1.118000000000000000e+03,-9.338883956645735451e-02,0.000000000000000000e+00
1.119000000000000000e+03,-1.658204636682868716e-01,0.000000000000000000e+00
1.120000000000000000e+03,-6.048990243554001889e-02,0.000000000000000000e+00
1.121000000000000000e+03,9.392381531222032676e-02,0.000000000000000000e+00
1.122000000000000000e+03,-3.977196142337286605e-02,0.000000000000000000e+00
1.123000000000000000e+03,2.624971451399474853e-01,0.000000000000000000e+00
1.124000000000000000e+03,-2.182817683935689076e-02,0.000000000000000000e+00
1.125000000000000000e+03,9.736359218100257285e-02,0.000000000000000000e+00
1.126000000000000000e+03,2.899127368656103099e-01,0.000000000000000000e+00
1.127000000000000000e+03,5.241713782512353870e-01,0.000000000000000000e+00
1.128000000000000000e+03,6.414284375366887669e-01,0.000000000000000000e+00
1.129000000000000000e+03,5.190538983374149984e-01,0.000000000000000000e+00
1.130000000000000000e+03,4.632077411616249973e-01,0.000000000000000000e+00
1.131000000000000000e+03,2.804259038020163186e-01,0.000000000000000000e+00
1.132000000000000000e+03,4.564981307084679113e-02,0.000000000000000000e+00
1.133000000000000000e+03,-2.440255690350684736e-01,0.000000000000000000e+00
1.134000000000000000e+03,7.414577282870832287e-02,0.000000000000000000e+00
1.135000000000000000e+03,5.800647133634816155e-02,0.000000000000000000e+00
1.136000000000000000e+03,1.840808725831371839e-01,0.000000000000000000e+00
1.137000000000000000e+03,-1.054771420925516845e-01,0.000000000000000000e+00
1.138000000000000000e+03,8.672468276496447803e-01,0.000000000000000000e+00
1.139000000000000000e+03,5.822134981430318490e+00,0.000000000000000000e+00
1.140000000000000000e+03,-9.548482287856734363e-01,1.000000000000000000e+00
1.141000000000000000e+03,-1.419884106490366893e+00,0.000000000000000000e+00
1.142000000000000000e+03,-4.270393055434259511e-01,0.000000000000000000e+00
1.143000000000000000e+03,-3.667864525590568969e-01,0.000000000000000000e+00
1.144000000000000000e+03,-3.220152957110906100e-01,0.000000000000000000e+00
1.145000000000000000e+03,-3.196079672564284824e-01,0.000000000000000000e+00
1.146000000000000000e+03,-8.682819283871300031e-02,0.000000000000000000e+00
1.147000000000000000e+03,-1.430722315073472695e-01,0.000000000000000000e+00
1.148000000000000000e+03,8.295522722449784336e-02,0.000000000000000000e+00
1.149000000000000000e+03,9.613240439452651331e-02,0.000000000000000000e+00
1.150000000000000000e+03,2.300414298566098859e-02,0.000000000000000000e+00
1.151000000000000000e+03,3.372108076416683309e-01,0.000000000000000000e+00
1.152000000000000000e+03,5.105933167728953226e-01,0.000000000000000000e+00
1.153000000000000000e+03,5.804770522088910090e-01,0.000000000000000000e+00
1.154000000000000000e+03,7.347138719962218456e-01,0.000000000000000000e+00
1.155000000000000000e+03,1.179429411665504857e+00,0.000000000000000000e+00
1.156000000000000000e+03,1.126257413400597818e+00,0.000000000000000000e+00
1.157000000000000000e+03,1.113847973811622261e+00,0.000000000000000000e+00
1.158000000000000000e+03,3.278650553464892980e-01,0.000000000000000000e+00
1.159000000000000000e+03,-3.923226718079412811e-01,0.000000000000000000e+00
1.160000000000000000e+03,-9.132929978697843509e-01,0.000000000000000000e+00
1.161000000000000000e+03,-9.988830300648079419e-01,0.000000000000000000e+00
1.162000000000000000e+03,-8.716095537351887801e-01,0.000000000000000000e+00
1.163000000000000000e+03,-1.135465772850304589e+00,0.000000000000000000e+00
1.164000000000000000e+03,-7.413987705472322443e-01,0.000000000000000000e+00
1.165000000000000000e+03,-8.362980111407778416e-01,0.000000000000000000e+00
1.166000000000000000e+03,-7.245509068501686523e-01,0.000000000000000000e+00
1.167000000000000000e+03,-5.650181144365504782e-01,0.000000000000000000e+00
1.168000000000000000e+03,-4.461923861251348988e-01,0.000000000000000000e+00
1.169000000000000000e+03,-3.628706616689252318e-01,0.000000000000000000e+00
1.170000000000000000e+03,-3.615996050432641051e-01,0.000000000000000000e+00
1.171000000000000000e+03,-3.827397954335146624e-01,0.000000000000000000e+00
1.172000000000000000e+03,-3.369639124514519080e-01,0.000000000000000000e+00
1.173000000000000000e+03,-2.557332588708227106e-01,0.000000000000000000e+00
1.174000000000000000e+03,-2.431838841447226951e-01,0.000000000000000000e+00
1.175000000000000000e+03,-1.606993713970256143e-01,0.000000000000000000e+00
1.176000000000000000e+03,-2.727179483097457724e-01,0.000000000000000000e+00
1.177000000000000000e+03,-7.467653348924505052e-02,0.000000000000000000e+00
1.178000000000000000e+03,-1.053643747723581742e-01,0.000000000000000000e+00
1.179000000000000000e+03,8.370575146441139314e-02,0.000000000000000000e+00
1.180000000000000000e+03,-1.441988616478779295e-01,0.000000000000000000e+00
1.181000000000000000e+03,1.226601635220056150e-02,0.000000000000000000e+00
1.182000000000000000e+03,8.252477969755531162e-02,0.000000000000000000e+00
1.183000000000000000e+03,6.823500188721895454e-02,0.000000000000000000e+00
1.184000000000000000e+03,1.585315703404295840e-01,0.000000000000000000e+00
1.185000000000000000e+03,5.587899377483337288e-02,0.000000000000000000e+00
1.186000000000000000e+03,1.466330907861800592e-01,0.000000000000000000e+00
1.187000000000000000e+03,3.311961546728279804e-01,0.000000000000000000e+00
1.188000000000000000e+03,5.835613129510571762e-01,0.000000000000000000e+00
1.189000000000000000e+03,7.983154815903034107e-01,0.000000000000000000e+00
1.190000000000000000e+03,4.247028818335822353e-01,0.000000000000000000e+00
1.191000000000000000e+03,3.262069531042283699e-01,0.000000000000000000e+00
1.192000000000000000e+03,-2.375351979117714396e-01,0.000000000000000000e+00
1.193000000000000000e+03,9.660109255470122891e-02,0.000000000000000000e+00
1.194000000000000000e+03,-2.844097739616396336e-01,0.000000000000000000e+00
1.195000000000000000e+03,1.395751027548958467e-01,0.000000000000000000e+00
1.196000000000000000e+03,-3.276385150606528351e-01,0.000000000000000000e+00
1.197000000000000000e+03,1.883915885548325397e-01,0.000000000000000000e+00
1.198000000000000000e+03,-3.412474494896186594e-01,0.000000000000000000e+00
1.199000000000000000e+03,4.740713783696923755e+00,0.000000000000000000e+00
1.200000000000000000e+03,3.452243941430549690e+00,1.000000000000000000e+00
1.201000000000000000e+03,-2.643360315581396502e+00,0.000000000000000000e+00
1.202000000000000000e+03,-2.438306087391907129e-01,0.000000000000000000e+00
1.203000000000000000e+03,-9.750820326020255280e-01,0.000000000000000000e+00
1.204000000000000000e+03,-2.898674836870160920e-01,0.000000000000000000e+00
1.205000000000000000e+03,-7.958694410193010160e-01,0.000000000000000000e+00
1.206000000000000000e+03,-1.487307391213055219e-01,0.000000000000000000e+00
1.207000000000000000e+03,-4.189812901403596745e-01,0.000000000000000000e+00
1.208000000000000000e+03,-1.160328577885876566e-01,0.000000000000000000e+00
1.209000000000000000e+03,-2.926101436179204263e-01,0.000000000000000000e+00
1.210000000000000000e+03,1.790929292391860161e-01,0.000000000000000000e+00
1.211000000000000000e+03,-9.754471629295495549e-02,0.000000000000000000e+00
1.212000000000000000e+03,3.902024171466536573e-01,0.000000000000000000e+00
1.213000000000000000e+03,2.362550448256509061e-01,0.000000000000000000e+00
1.214000000000000000e+03,7.216847368028510568e-01,0.000000000000000000e+00
1.215000000000000000e+03,9.008792738090144470e-01,0.000000000000000000e+00
1.216000000000000000e+03,1.163135382518517780e+00,0.000000000000000000e+00
1.217000000000000000e+03,9.927919870576675798e-01,0.000000000000000000e+00
1.218000000000000000e+03,8.940407718541828475e-01,0.000000000000000000e+00
1.219000000000000000e+03,-2.240952783902812884e-01,0.000000000000000000e+00
1.220000000000000000e+03,-6.358407385156642500e-01,0.000000000000000000e+00
1.221000000000000000e+03,-9.953896916518263360e-01,0.000000000000000000e+00
1.222000000000000000e+03,-1.046157331243833477e+00,0.000000000000000000e+00
1.223000000000000000e+03,-1.019207119895226610e+00,0.000000000000000000e+00
1.224000000000000000e+03,-8.496117318550435726e-01,0.000000000000000000e+00
1.225000000000000000e+03,-1.103323971805358683e+00,0.000000000000000000e+00
1.226000000000000000e+03,-4.785185352534321868e-01,0.000000000000000000e+00
1.227000000000000000e+03,-7.964993152622951156e-01,0.000000000000000000e+00
1.228000000000000000e+03,-5.109122163667512151e-01,0.000000000000000000e+00
1.229000000000000000e+03,-4.943406635000093807e-01,0.000000000000000000e+00
1.230000000000000000e+03,-3.000577260366275034e-01,0.000000000000000000e+00
1.231000000000000000e+03,-4.363103064163404987e-01,0.000000000000000000e+00
1.232000000000000000e+03,-2.755588622362665219e-01,0.000000000000000000e+00
1.233000000000000000e+03,-4.414711837628754743e-01,0.000000000000000000e+00
1.234000000000000000e+03,2.583739752765196185e-02,0.000000000000000000e+00
1.235000000000000000e+03,-3.805339689467230335e-01,0.000000000000000000e+00
1.236000000000000000e+03,-5.249383176075936297e-02,0.000000000000000000e+00
1.237000000000000000e+03,-2.916373662278683443e-01,0.000000000000000000e+00
1.238000000000000000e+03,3.835035400278416495e-02,0.000000000000000000e+00
1.239000000000000000e+03,-2.801758562597443936e-01,0.000000000000000000e+00
1.240000000000000000e+03,2.406252200338427488e-02,0.000000000000000000e+00
1.241000000000000000e+03,-9.776725894207015377e-02,0.000000000000000000e+00
1.242000000000000000e+03,1.808428799648303109e-01,0.000000000000000000e+00
1.243000000000000000e+03,-6.289775007820809505e-02,0.000000000000000000e+00
1.244000000000000000e+03,1.808726170204923711e-01,0.000000000000000000e+00
1.245000000000000000e+03,-8.903305802276197112e-02,0.000000000000000000e+00
1.246000000000000000e+03,3.406924092337670351e-01,0.000000000000000000e+00
1.247000000000000000e+03,-2.094410184841731526e-02,0.000000000000000000e+00
1.248000000000000000e+03,5.658714295167306396e-01,0.000000000000000000e+00
1.249000000000000000e+03,3.686255250803055494e-01,0.000000000000000000e+00
1.250000000000000000e+03,9.969505127582679593e-01,0.000000000000000000e+00
1.251000000000000000e+03,4.568422312463741308e-01,0.000000000000000000e+00
1.252000000000000000e+03,4.413495235735697131e-01,0.000000000000000000e+00
1.253000000000000000e+03,2.024334413245738179e-02,0.000000000000000000e+00
1.254000000000000000e+03,-1.842758754716116972e-03,0.000000000000000000e+00
1.255000000000000000e+03,-3.749002637276162009e-01,0.000000000000000000e+00
1.256000000000000000e+03,2.702084150500279613e-01,0.000000000000000000e+00
1.257000000000000000e+03,-4.955773027111325391e-01,0.000000000000000000e+00
1.258000000000000000e+03,5.505725518360234938e-01,0.000000000000000000e+00
1.259000000000000000e+03,-6.452759764416958754e-01,0.000000000000000000e+00
1.260000000000000000e+03,3.604856374442130917e+00,0.000000000000000000e+00
1.261000000000000000e+03,4.905314911917193044e+00,0.000000000000000000e+00
1.262000000000000000e+03,-2.086008601218428016e+00,1.000000000000000000e+00
1.263000000000000000e+03,-6.081584115305979088e-01,0.000000000000000000e+00
1.264000000000000000e+03,-9.378789350044822726e-01,0.000000000000000000e+00
1.265000000000000000e+03,-5.285591406314458229e-01,0.000000000000000000e+00
1.266000000000000000e+03,-7.757133060594851859e-01,0.000000000000000000e+00
1.267000000000000000e+03,-2.631213435843847148e-01,0.000000000000000000e+00
1.268000000000000000e+03,-4.571193418151430765e-01,0.000000000000000000e+00
1.269000000000000000e+03,-9.356596625063103023e-02,0.000000000000000000e+00
1.270000000000000000e+03,-2.563952357095132251e-01,0.000000000000000000e+00
1.271000000000000000e+03,-1.995260228721852380e-01,0.000000000000000000e+00
1.272000000000000000e+03,-2.107599207340394090e-02,0.000000000000000000e+00
1.273000000000000000e+03,2.455934594009921701e-01,0.000000000000000000e+00
1.274000000000000000e+03,4.035630520319406500e-01,0.000000000000000000e+00
1.275000000000000000e+03,5.643825202715075928e-01,0.000000000000000000e+00
1.276000000000000000e+03,7.276119348547489540e-01,0.000000000000000000e+00
1.277000000000000000e+03,1.118640104761842169e+00,0.000000000000000000e+00
1.278000000000000000e+03,1.227072924133434828e+00,0.000000000000000000e+00
1.279000000000000000e+03,8.497767700901581733e-01,0.000000000000000000e+00
1.280000000000000000e+03,9.714314117413121175e-02,0.000000000000000000e+00
1.281000000000000000e+03,-7.205976693094162666e-01,0.000000000000000000e+00
1.282000000000000000e+03,-8.460068553759801935e-01,0.000000000000000000e+00
1.283000000000000000e+03,-1.242003706107545957e+00,0.000000000000000000e+00
1.284000000000000000e+03,-1.133620417731216135e+00,0.000000000000000000e+00
1.285000000000000000e+03,-8.152984944315065929e-01,0.000000000000000000e+00
1.286000000000000000e+03,-7.575804421583437476e-01,0.000000000000000000e+00
1.287000000000000000e+03,-8.558623867131186502e-01,0.000000000000000000e+00
1.288000000000000000e+03,-6.760213287374661206e-01,0.000000000000000000e+00
1.289000000000000000e+03,-6.175342566500170438e-01,0.000000000000000000e+00
1.290000000000000000e+03,-4.099378042029925839e-01,0.000000000000000000e+00
1.291000000000000000e+03,-4.903967769224422679e-01,0.000000000000000000e+00
1.292000000000000000e+03,-3.284914578284071629e-01,0.000000000000000000e+00
1.293000000000000000e+03,-3.130160644399562209e-01,0.000000000000000000e+00
1.294000000000000000e+03,-2.079721748089266020e-01,0.000000000000000000e+00
1.295000000000000000e+03,-3.838628766947999038e-01,0.000000000000000000e+00
1.296000000000000000e+03,-3.169113150303964344e-01,0.000000000000000000e+00
1.297000000000000000e+03,-1.881691727761424238e-01,0.000000000000000000e+00
1.298000000000000000e+03,2.684252605829485355e-02,0.000000000000000000e+00
1.299000000000000000e+03,-1.186234584920595747e-01,0.000000000000000000e+00
1.300000000000000000e+03,-4.002211810513776197e-02,0.000000000000000000e+00
1.301000000000000000e+03,-1.396964924025343446e-01,0.000000000000000000e+00
1.302000000000000000e+03,-5.266950227201438323e-02,0.000000000000000000e+00
1.303000000000000000e+03,1.488644969379850080e-01,0.000000000000000000e+00
1.304000000000000000e+03,2.302252565210428648e-01,0.000000000000000000e+00
1.305000000000000000e+03,1.016879643151361728e-01,0.000000000000000000e+00
1.306000000000000000e+03,4.574253350844895150e-02,0.000000000000000000e+00
1.307000000000000000e+03,5.907828209597030394e-02,0.000000000000000000e+00
1.308000000000000000e+03,4.168044379603554339e-01,0.000000000000000000e+00
1.309000000000000000e+03,2.170365681798614721e-01,0.000000000000000000e+00
1.310000000000000000e+03,7.136011583969332772e-01,0.000000000000000000e+00
1.311000000000000000e+03,4.177600880394067850e-01,0.000000000000000000e+00
1.312000000000000000e+03,7.881968600100290878e-01,0.000000000000000000e+00
1.313000000000000000e+03,5.471950540741760127e-01,0.000000000000000000e+00
1.314000000000000000e+03,3.946081792475694128e-01,0.000000000000000000e+00
1.315000000000000000e+03,-2.325764235673377922e-01,0.000000000000000000e+00
1.316000000000000000e+03,-3.331753783968868093e-02,0.000000000000000000e+00
1.317000000000000000e+03,-2.303637268768136126e-01,0.000000000000000000e+00
1.318000000000000000e+03,2.107956429495509154e-01,0.000000000000000000e+00
1.319000000000000000e+03,-2.941372945748597645e-01,0.000000000000000000e+00
1.320000000000000000e+03,4.126883075368800724e-01,0.000000000000000000e+00
1.321000000000000000e+03,-2.906138507720717468e-01,0.000000000000000000e+00
1.322000000000000000e+03,5.795171563676316140e+00,0.000000000000000000e+00
1.323000000000000000e+03,2.084704561942106515e+00,1.000000000000000000e+00
1.324000000000000000e+03,-2.201441375907298603e+00,0.000000000000000000e+00
1.325000000000000000e+03,-4.307623253497294691e-01,0.000000000000000000e+00
1.326000000000000000e+03,-1.023926129624424641e+00,0.000000000000000000e+00
1.327000000000000000e+03,-4.337366795244577689e-01,0.000000000000000000e+00
1.328000000000000000e+03,-6.478396155822614411e-01,0.000000000000000000e+00
1.329000000000000000e+03,-2.579274088662165121e-01,0.000000000000000000e+00
1.330000000000000000e+03,-4.965462161012584863e-01,0.000000000000000000e+00
1.331000000000000000e+03,-8.639171669837099332e-02,0.000000000000000000e+00
1.332000000000000000e+03,-6.405020071518593983e-02,0.000000000000000000e+00
1.333000000000000000e+03,-5.930353259242467784e-02,0.000000000000000000e+00
1.334000000000000000e+03,2.976056519946515197e-02,0.000000000000000000e+00
1.335000000000000000e+03,3.143823761471877254e-01,0.000000000000000000e+00
1.336000000000000000e+03,4.095067128178579430e-01,0.000000000000000000e+00
1.337000000000000000e+03,9.150799867086548689e-01,0.000000000000000000e+00
1.338000000000000000e+03,8.477086656981895896e-01,0.000000000000000000e+00
1.339000000000000000e+03,1.299694248877798719e+00,0.000000000000000000e+00
1.340000000000000000e+03,9.268518458115667658e-01,0.000000000000000000e+00
1.341000000000000000e+03,8.866321083669095326e-01,0.000000000000000000e+00
1.342000000000000000e+03,-3.320667934111278252e-01,0.000000000000000000e+00
1.343000000000000000e+03,-7.167427559573513740e-01,0.000000000000000000e+00
1.344000000000000000e+03,-1.300616256092912648e+00,0.000000000000000000e+00
1.345000000000000000e+03,-1.033639781355378817e+00,0.000000000000000000e+00
1.346000000000000000e+03,-9.997021931967070563e-01,0.000000000000000000e+00
1.347000000000000000e+03,-1.046324253149921057e+00,0.000000000000000000e+00
1.348000000000000000e+03,-8.427137668783256652e-01,0.000000000000000000e+00
1.349000000000000000e+03,-6.567571845783970463e-01,0.000000000000000000e+00
1.350000000000000000e+03,-8.809948544304192497e-01,0.000000000000000000e+00
1.351000000000000000e+03,-6.122585230717334515e-01,0.000000000000000000e+00
1.352000000000000000e+03,-4.406562074233651427e-01,0.000000000000000000e+00
1.353000000000000000e+03,-3.764198847020062688e-01,0.000000000000000000e+00
1.354000000000000000e+03,-3.257143999704334436e-01,0.000000000000000000e+00
1.355000000000000000e+03,-4.635770579732122476e-01,0.000000000000000000e+00
1.356000000000000000e+03,-3.492438366462189414e-01,0.000000000000000000e+00
1.357000000000000000e+03,-2.528181328632900238e-01,0.000000000000000000e+00
1.358000000000000000e+03,-6.664125987700730835e-02,0.000000000000000000e+00
1.359000000000000000e+03,-2.820238028252718965e-01,0.000000000000000000e+00
1.360000000000000000e+03,-7.064678140296029585e-02,0.000000000000000000e+00
1.361000000000000000e+03,-2.690518622628889633e-01,0.000000000000000000e+00
1.362000000000000000e+03,1.806437115208540389e-01,0.000000000000000000e+00
1.363000000000000000e+03,-1.576596767058331960e-01,0.000000000000000000e+00
1.364000000000000000e+03,1.026315132824245219e-01,0.000000000000000000e+00
1.365000000000000000e+03,-4.461999064122206676e-02,0.000000000000000000e+00
1.366000000000000000e+03,1.049939077267935811e-01,0.000000000000000000e+00
1.367000000000000000e+03,1.155593532084760594e-01,0.000000000000000000e+00
1.368000000000000000e+03,2.795832966304104272e-01,0.000000000000000000e+00
1.369000000000000000e+03,2.619243973101796907e-01,0.000000000000000000e+00
1.370000000000000000e+03,3.408830716048560916e-01,0.000000000000000000e+00
1.371000000000000000e+03,5.500791185664297700e-01,0.000000000000000000e+00
1.372000000000000000e+03,7.633444148045738231e-01,0.000000000000000000e+00
1.373000000000000000e+03,5.155734526510843407e-01,0.000000000000000000e+00
1.374000000000000000e+03,3.685110492951995664e-01,0.000000000000000000e+00
1.375000000000000000e+03,-1.674660268487153103e-01,0.000000000000000000e+00
1.376000000000000000e+03,1.807822985619277900e-01,0.000000000000000000e+00
1.377000000000000000e+03,-2.220138617635579459e-01,0.000000000000000000e+00
1.378000000000000000e+03,1.179228636918716877e-01,0.000000000000000000e+00
1.379000000000000000e+03,-2.513630002279704789e-01,0.000000000000000000e+00
1.380000000000000000e+03,4.892565391862577218e-01,0.000000000000000000e+00
1.381000000000000000e+03,-3.447715399213626131e-01,0.000000000000000000e+00
1.382000000000000000e+03,4.388299513023170562e+00,0.000000000000000000e+00
1.383000000000000000e+03,2.319736126594769576e+00,1.000000000000000000e+00
1.384000000000000000e+03,-2.573308459189968200e+00,0.000000000000000000e+00
1.385000000000000000e+03,-2.980967534495743143e-01,0.000000000000000000e+00
1.386000000000000000e+03,-6.668706738111840338e-01,0.000000000000000000e+00
1.387000000000000000e+03,-6.869927863697181114e-02,0.000000000000000000e+00
1.388000000000000000e+03,-4.545504237960940053e-01,0.000000000000000000e+00
1.389000000000000000e+03,6.677149516660446649e-02,0.000000000000000000e+00
1.390000000000000000e+03,-3.130071225332067830e-01,0.000000000000000000e+00
1.391000000000000000e+03,1.187537012421603644e-01,0.000000000000000000e+00
1.392000000000000000e+03,-1.016203707418231739e-01,0.000000000000000000e+00
1.393000000000000000e+03,2.635666117285588306e-01,0.000000000000000000e+00
1.394000000000000000e+03,2.003454604418868079e-01,0.000000000000000000e+00
1.395000000000000000e+03,2.926678001758979963e-01,0.000000000000000000e+00
1.396000000000000000e+03,5.327116919567306264e-01,0.000000000000000000e+00
1.397000000000000000e+03,8.590599885640674005e-01,0.000000000000000000e+00
1.398000000000000000e+03,8.591751823547157940e-01,0.000000000000000000e+00
1.399000000000000000e+03,1.245292813050327796e+00,0.000000000000000000e+00
1.400000000000000000e+03,1.296878472160482687e+00,0.000000000000000000e+00
1.401000000000000000e+03,4.831177745177977489e-01,0.000000000000000000e+00
1.402000000000000000e+03,-3.672690281758008157e-01,0.000000000000000000e+00
1.403000000000000000e+03,-6.493683110359735888e-01,0.000000000000000000e+00
1.404000000000000000e+03,-1.055581523217851370e+00,0.000000000000000000e+00
1.405000000000000000e+03,-1.072874713131300783e+00,0.000000000000000000e+00
1.406000000000000000e+03,-1.042102730536349275e+00,0.000000000000000000e+00
1.407000000000000000e+03,-9.304102776710125866e-01,0.000000000000000000e+00
1.408000000000000000e+03,-8.778528287994794566e-01,0.000000000000000000e+00
1.409000000000000000e+03,-8.067614276158469044e-01,0.000000000000000000e+00
1.410000000000000000e+03,-6.008685347047358905e-01,0.000000000000000000e+00
1.411000000000000000e+03,-3.914393751593905346e-01,0.000000000000000000e+00
1.412000000000000000e+03,-6.901903756292614434e-01,0.000000000000000000e+00
1.413000000000000000e+03,-3.507348693256485683e-01,0.000000000000000000e+00
1.414000000000000000e+03,-4.358973280418348417e-01,0.000000000000000000e+00
1.415000000000000000e+03,-2.069506378103452005e-01,0.000000000000000000e+00
1.416000000000000000e+03,-4.940747276838331481e-01,0.000000000000000000e+00
1.417000000000000000e+03,-3.758679539730549468e-01,0.000000000000000000e+00
1.418000000000000000e+03,-2.286870766190688964e-01,0.000000000000000000e+00
1.419000000000000000e+03,-6.135667348415224653e-02,0.000000000000000000e+00
1.420000000000000000e+03,-2.723216206851269972e-01,0.000000000000000000e+00
1.421000000000000000e+03,-1.182940771591050183e-01,0.000000000000000000e+00
1.422000000000000000e+03,-1.821443736565187821e-01,0.000000000000000000e+00
1.423000000000000000e+03,5.243367144092996035e-02,0.000000000000000000e+00
1.424000000000000000e+03,-7.733222250552654331e-02,0.000000000000000000e+00
1.425000000000000000e+03,3.952749983556230057e-02,0.000000000000000000e+00
1.426000000000000000e+03,1.267782768052002143e-02,0.000000000000000000e+00
1.427000000000000000e+03,8.387033703948096330e-02,0.000000000000000000e+00
1.428000000000000000e+03,-4.371887068317675124e-02,0.000000000000000000e+00
1.429000000000000000e+03,2.624032048445569809e-01,0.000000000000000000e+00
1.430000000000000000e+03,3.236108413973124986e-01,0.000000000000000000e+00
1.431000000000000000e+03,5.722769829276055376e-01,0.000000000000000000e+00
1.432000000000000000e+03,4.224433968101479753e-01,0.000000000000000000e+00
1.433000000000000000e+03,4.900958371310589201e-01,0.000000000000000000e+00
1.434000000000000000e+03,1.362018857015342699e-01,0.000000000000000000e+00
1.435000000000000000e+03,-1.263650493430409638e-01,0.000000000000000000e+00
1.436000000000000000e+03,-3.267103972516263721e-02,0.000000000000000000e+00
1.437000000000000000e+03,-1.607861315918849565e-01,0.000000000000000000e+00
1.438000000000000000e+03,1.337453689280314051e-01,0.000000000000000000e+00
1.439000000000000000e+03,-1.812261009751661989e-01,0.000000000000000000e+00
1.440000000000000000e+03,-3.823366194394713785e-03,0.000000000000000000e+00
1.441000000000000000e+03,7.250254926213391959e-01,0.000000000000000000e+00
1.442000000000000000e+03,5.283728544360018375e+00,0.000000000000000000e+00
1.443000000000000000e+03,-7.829963777310359196e-01,1.000000000000000000e+00
1.444000000000000000e+03,-1.768377671021661879e+00,0.000000000000000000e+00
1.445000000000000000e+03,-2.418516402245583785e-01,0.000000000000000000e+00
1.446000000000000000e+03,-3.499923574944756033e-01,0.000000000000000000e+00
1.447000000000000000e+03,-3.095354555731051338e-01,0.000000000000000000e+00
1.448000000000000000e+03,-2.606288638252175494e-01,0.000000000000000000e+00
1.449000000000000000e+03,1.905770536493785194e-02,0.000000000000000000e+00
1.450000000000000000e+03,-1.537587182948244591e-01,0.000000000000000000e+00
1.451000000000000000e+03,2.854536724733630626e-01,0.000000000000000000e+00
1.452000000000000000e+03,-2.322407679827517279e-01,0.000000000000000000e+00
1.453000000000000000e+03,3.157501748356538740e-01,0.000000000000000000e+00
1.454000000000000000e+03,8.331090411045773136e-02,0.000000000000000000e+00
1.455000000000000000e+03,5.567434967031752446e-01,0.000000000000000000e+00
1.456000000000000000e+03,4.815606428996417332e-01,0.000000000000000000e+00
1.457000000000000000e+03,9.472191675277954470e-01,0.000000000000000000e+00
1.458000000000000000e+03,1.001106274870776192e+00,0.000000000000000000e+00
1.459000000000000000e+03,1.416213315582663057e+00,0.000000000000000000e+00
1.460000000000000000e+03,8.690683190451427009e-01,0.000000000000000000e+00
1.461000000000000000e+03,3.017497300576668096e-01,0.000000000000000000e+00
1.462000000000000000e+03,-4.126376976453388079e-01,0.000000000000000000e+00
1.463000000000000000e+03,-8.830596934340225745e-01,0.000000000000000000e+00
1.464000000000000000e+03,-8.952819217427508969e-01,0.000000000000000000e+00
1.465000000000000000e+03,-1.175695729804453471e+00,0.000000000000000000e+00
1.466000000000000000e+03,-8.703247002418942335e-01,0.000000000000000000e+00
1.467000000000000000e+03,-8.525756239190571684e-01,0.000000000000000000e+00
1.468000000000000000e+03,-7.148853364254734721e-01,0.000000000000000000e+00
1.469000000000000000e+03,-6.245680988263211386e-01,0.000000000000000000e+00
1.470000000000000000e+03,-6.164881297507047719e-01,0.000000000000000000e+00
1.471000000000000000e+03,-4.568468062790627671e-01,0.000000000000000000e+00
1.472000000000000000e+03,-3.159832312131997667e-01,0.000000000000000000e+00
1.473000000000000000e+03,-3.995584233343057456e-01,0.000000000000000000e+00
1.474000000000000000e+03,-3.824724621331649921e-01,0.000000000000000000e+00
1.475000000000000000e+03,-2.276742900662708513e-01,0.000000000000000000e+00
1.476000000000000000e+03,-2.690881758703345117e-01,0.000000000000000000e+00
1.477000000000000000e+03,-2.152866805396163041e-01,0.000000000000000000e+00
1.478000000000000000e+03,-1.600572456625256879e-01,0.000000000000000000e+00
1.479000000000000000e+03,-1.180033316905503005e-01,0.000000000000000000e+00
1.480000000000000000e+03,-9.330873429394298535e-02,0.000000000000000000e+00
1.481000000000000000e+03,-7.528890076327816872e-02,0.000000000000000000e+00
1.482000000000000000e+03,-3.470977043122446242e-03,0.000000000000000000e+00
1.483000000000000000e+03,-4.273138119450744371e-02,0.000000000000000000e+00
1.484000000000000000e+03,2.245763972691124655e-01,0.000000000000000000e+00
1.485000000000000000e+03,-6.888472891356993422e-02,0.000000000000000000e+00
1.486000000000000000e+03,5.639508511821229170e-02,0.000000000000000000e+00
1.487000000000000000e+03,3.155945536479936586e-01,0.000000000000000000e+00
1.488000000000000000e+03,-1.749837331289210221e-02,0.000000000000000000e+00
1.489000000000000000e+03,3.479462632787673204e-01,0.000000000000000000e+00
1.490000000000000000e+03,3.853007539129961190e-01,0.000000000000000000e+00
1.491000000000000000e+03,3.752524434012839971e-01,0.000000000000000000e+00
1.492000000000000000e+03,7.788156785382387426e-01,0.000000000000000000e+00
1.493000000000000000e+03,4.865000914630381867e-01,0.000000000000000000e+00
1.494000000000000000e+03,4.677967406910690240e-01,0.000000000000000000e+00
1.495000000000000000e+03,2.220887156470490592e-02,0.000000000000000000e+00
1.496000000000000000e+03,-1.127193433160871561e-01,0.000000000000000000e+00
1.497000000000000000e+03,-7.447293991150187586e-02,0.000000000000000000e+00
1.498000000000000000e+03,1.878602258067467792e-02,0.000000000000000000e+00
1.499000000000000000e+03,-2.499016995218936721e-01,0.000000000000000000e+00
1.500000000000000000e+03,2.315400020423696859e-01,0.000000000000000000e+00
1.501000000000000000e+03,-4.166705640316277215e-01,0.000000000000000000e+00
1.502000000000000000e+03,2.476309269769622290e+00,0.000000000000000000e+00
1.503000000000000000e+03,5.071320029096662019e+00,0.000000000000000000e+00
1.504000000000000000e+03,-2.035113452774194087e+00,1.000000000000000000e+00
1.505000000000000000e+03,-7.967413595235445234e-01,0.000000000000000000e+00
1.506000000000000000e+03,-5.973298124455119762e-01,0.000000000000000000e+00
1.507000000000000000e+03,-4.632851723498535024e-01,0.000000000000000000e+00
1.508000000000000000e+03,-5.156132930910104495e-01,0.000000000000000000e+00
1.509000000000000000e+03,-2.948378488741596470e-01,0.000000000000000000e+00
1.510000000000000000e+03,-1.949208561535711870e-01,0.000000000000000000e+00
1.511000000000000000e+03,-2.521921835104106724e-01,0.000000000000000000e+00
1.512000000000000000e+03,-1.580428319397823578e-01,0.000000000000000000e+00
1.513000000000000000e+03,1.274323436906185936e-01,0.000000000000000000e+00
1.514000000000000000e+03,-7.095691057365069443e-02,0.000000000000000000e+00
1.515000000000000000e+03,3.490006465989684004e-01,0.000000000000000000e+00
1.516000000000000000e+03,3.320921411405191037e-01,0.000000000000000000e+00
1.517000000000000000e+03,4.859149973794112953e-01,0.000000000000000000e+00
1.518000000000000000e+03,8.943273653387248112e-01,0.000000000000000000e+00
1.519000000000000000e+03,1.039271229906760574e+00,0.000000000000000000e+00
1.520000000000000000e+03,1.175246121892021156e+00,0.000000000000000000e+00
1.521000000000000000e+03,1.077041333092924269e+00,0.000000000000000000e+00
1.522000000000000000e+03,7.317328539296245361e-03,0.000000000000000000e+00
1.523000000000000000e+03,-5.207786400170478780e-01,0.000000000000000000e+00
1.524000000000000000e+03,-1.025799449544066544e+00,0.000000000000000000e+00
1.525000000000000000e+03,-8.849792332001107376e-01,0.000000000000000000e+00
1.526000000000000000e+03,-8.992420423808454855e-01,0.000000000000000000e+00
1.527000000000000000e+03,-9.800390783037558062e-01,0.000000000000000000e+00
1.528000000000000000e+03,-9.724189751355709621e-01,0.000000000000000000e+00
1.529000000000000000e+03,-4.463908819550826967e-01,0.000000000000000000e+00
1.530000000000000000e+03,-7.011108646692167934e-01,0.000000000000000000e+00
1.531000000000000000e+03,-5.979362911354458854e-01,0.000000000000000000e+00
1.532000000000000000e+03,-5.380026774772622700e-01,0.000000000000000000e+00
1.533000000000000000e+03,-3.983775366153367581e-01,0.000000000000000000e+00
1.534000000000000000e+03,-2.856844524838973443e-01,0.000000000000000000e+00
1.535000000000000000e+03,-3.189666778620210419e-01,0.000000000000000000e+00
1.536000000000000000e+03,-4.710473528278676936e-01,0.000000000000000000e+00
1.537000000000000000e+03,-2.574397265822027658e-01,0.000000000000000000e+00
1.538000000000000000e+03,-1.928625697657989080e-01,0.000000000000000000e+00
1.539000000000000000e+03,-2.381760581919645237e-01,0.000000000000000000e+00
1.540000000000000000e+03,-2.642935185232734296e-01,0.000000000000000000e+00
1.541000000000000000e+03,-2.480643071032292701e-01,0.000000000000000000e+00
1.542000000000000000e+03,3.025168271446301849e-02,0.000000000000000000e+00
1.543000000000000000e+03,4.331805636290209788e-02,0.000000000000000000e+00
1.544000000000000000e+03,-1.542209325639045947e-01,0.000000000000000000e+00
1.545000000000000000e+03,-2.861112345211522245e-02,0.000000000000000000e+00
1.546000000000000000e+03,4.038882705310830462e-02,0.000000000000000000e+00
1.547000000000000000e+03,5.968360919906712247e-02,0.000000000000000000e+00
1.548000000000000000e+03,8.851630594142224917e-02,0.000000000000000000e+00
1.549000000000000000e+03,1.467498250659859393e-01,0.000000000000000000e+00
1.550000000000000000e+03,1.183159218576679576e-03,0.000000000000000000e+00
1.551000000000000000e+03,2.729378396008860230e-01,0.000000000000000000e+00
1.552000000000000000e+03,3.971470033748931705e-01,0.000000000000000000e+00
1.553000000000000000e+03,3.403795145535305489e-01,0.000000000000000000e+00
1.554000000000000000e+03,8.630114030150285442e-01,0.000000000000000000e+00
1.555000000000000000e+03,4.950160616202221031e-01,0.000000000000000000e+00
1.556000000000000000e+03,2.942140519710939039e-01,0.000000000000000000e+00
1.557000000000000000e+03,-1.525261340683546352e-01,0.000000000000000000e+00
1.558000000000000000e+03,-1.058976704814837272e-01,0.000000000000000000e+00
1.559000000000000000e+03,-2.355763556127973557e-01,0.000000000000000000e+00
1.560000000000000000e+03,8.209388946893510230e-02,0.000000000000000000e+00
1.561000000000000000e+03,-3.734014330099477141e-01,0.000000000000000000e+00
1.562000000000000000e+03,3.319057447815033646e-01,0.000000000000000000e+00
1.563000000000000000e+03,-3.383700082004356680e-01,0.000000000000000000e+00
1.564000000000000000e+03,4.769804271880118129e+00,0.000000000000000000e+00
1.565000000000000000e+03,3.221329300408420693e+00,1.000000000000000000e+00
1.566000000000000000e+03,-2.439389338409509111e+00,0.000000000000000000e+00
1.567000000000000000e+03,-2.900167260069681507e-01,0.000000000000000000e+00
1.568000000000000000e+03,-8.796335523828977543e-01,0.000000000000000000e+00
1.569000000000000000e+03,-1.713713277631303822e-01,0.000000000000000000e+00
1.570000000000000000e+03,-8.654813668932191950e-01,0.000000000000000000e+00
1.571000000000000000e+03,-3.413281663884750738e-01,0.000000000000000000e+00
1.572000000000000000e+03,-4.774021133659974714e-01,0.000000000000000000e+00
1.573000000000000000e+03,-1.187345963188707748e-01,0.000000000000000000e+00
1.574000000000000000e+03,-1.527587573672268551e-01,0.000000000000000000e+00
1.575000000000000000e+03,-7.689668069063966549e-02,0.000000000000000000e+00
1.576000000000000000e+03,8.666445858089696572e-03,0.000000000000000000e+00
1.577000000000000000e+03,1.665408336663991018e-01,0.000000000000000000e+00
1.578000000000000000e+03,2.313522500012033523e-01,0.000000000000000000e+00
1.579000000000000000e+03,7.192281851448079077e-01,0.000000000000000000e+00
1.580000000000000000e+03,8.180010239747472767e-01,0.000000000000000000e+00
1.581000000000000000e+03,1.119747329192043006e+00,0.000000000000000000e+00
1.582000000000000000e+03,1.024430864587894341e+00,0.000000000000000000e+00
1.583000000000000000e+03,9.800638693939581758e-01,0.000000000000000000e+00
1.584000000000000000e+03,-2.646583828178357689e-01,0.000000000000000000e+00
1.585000000000000000e+03,-5.365797045854864278e-01,0.000000000000000000e+00
1.586000000000000000e+03,-1.086061993754676269e+00,0.000000000000000000e+00
