timestamp,ecg_measurement,qrs_detected
0.000000000000000000e+00,-3.047032380281363556e-02,0.000000000000000000e+00
1.000000000000000000e+00,-1.131569548989034835e-01,0.000000000000000000e+00
2.000000000000000000e+00,5.721510863391573304e-02,0.000000000000000000e+00
3.000000000000000000e+00,-6.719198963606939912e-02,0.000000000000000000e+00
4.000000000000000000e+00,1.034910067315128884e-01,0.000000000000000000e+00
5.000000000000000000e+00,1.007171157746899054e-01,0.000000000000000000e+00
6.000000000000000000e+00,1.465325759278301443e-01,0.000000000000000000e+00
7.000000000000000000e+00,1.193413851801698178e-01,0.000000000000000000e+00
8.000000000000000000e+00,4.624878498230918789e-01,0.000000000000000000e+00
9.000000000000000000e+00,5.338847267093859150e-01,0.000000000000000000e+00
1.000000000000000000e+01,7.385060616646930143e-01,0.000000000000000000e+00
1.100000000000000000e+01,4.095687849525597168e-01,0.000000000000000000e+00
1.200000000000000000e+01,2.021298152326283792e-01,0.000000000000000000e+00
1.300000000000000000e+01,-1.629842071782287571e-01,0.000000000000000000e+00
1.400000000000000000e+01,2.259804582418442967e-02,0.000000000000000000e+00
1.500000000000000000e+01,-2.268866174024374849e-01,0.000000000000000000e+00
1.600000000000000000e+01,4.898422839267107393e-02,0.000000000000000000e+00
1.700000000000000000e+01,-3.006176892036510617e-01,0.000000000000000000e+00
1.800000000000000000e+01,3.353335899527809527e-01,0.000000000000000000e+00
1.900000000000000000e+01,-3.770950637398483019e-01,0.000000000000000000e+00
2.000000000000000000e+01,5.018041364316981223e+00,0.000000000000000000e+00
2.100000000000000000e+01,2.704174240876301205e+00,1.000000000000000000e+00
2.200000000000000000e+01,-2.232476320707307504e+00,0.000000000000000000e+00
2.300000000000000000e+01,-3.502325960207278155e-01,0.000000000000000000e+00
2.400000000000000000e+01,-9.675967102288848265e-01,0.000000000000000000e+00
2.500000000000000000e+01,-2.555191239261276892e-01,0.000000000000000000e+00
2.600000000000000000e+01,-7.946979362133702596e-01,0.000000000000000000e+00
2.700000000000000000e+01,-2.679455083766167922e-01,0.000000000000000000e+00
2.800000000000000000e+01,-3.524772218503159360e-01,0.000000000000000000e+00
2.900000000000000000e+01,1.127043722046789376e-01,0.000000000000000000e+00
3.000000000000000000e+01,-3.441913923884702409e-01,0.000000000000000000e+00
3.100000000000000000e+01,1.532971302237016650e-02,0.000000000000000000e+00
3.200000000000000000e+01,5.805445547755289093e-02,0.000000000000000000e+00
3.300000000000000000e+01,3.637793502675035762e-01,0.000000000000000000e+00
3.400000000000000000e+01,3.611795882087148191e-01,0.000000000000000000e+00
3.500000000000000000e+01,6.979137488141008427e-01,0.000000000000000000e+00
3.600000000000000000e+01,8.727450614505316562e-01,0.000000000000000000e+00
3.700000000000000000e+01,1.239294274926205253e+00,0.000000000000000000e+00
3.800000000000000000e+01,1.020992692458376760e+00,0.000000000000000000e+00
3.900000000000000000e+01,6.675422938448795085e-01,0.000000000000000000e+00
4.000000000000000000e+01,-4.021672743439574371e-01,0.000000000000000000e+00
4.100000000000000000e+01,-3.696217903608460809e-01,0.000000000000000000e+00
4.200000000000000000e+01,-1.028922682719453752e+00,0.000000000000000000e+00
4.300000000000000000e+01,-1.052839880982790133e+00,0.000000000000000000e+00
4.400000000000000000e+01,-9.853641377798049161e-01,0.000000000000000000e+00
4.500000000000000000e+01,-9.684336719374113667e-01,0.000000000000000000e+00
4.600000000000000000e+01,-7.223612594118842267e-01,0.000000000000000000e+00
4.700000000000000000e+01,-6.321735802428561923e-01,0.000000000000000000e+00
4.800000000000000000e+01,-6.114333682746346810e-01,0.000000000000000000e+00
4.900000000000000000e+01,-4.590330942271134140e-01,0.000000000000000000e+00
5.000000000000000000e+01,-3.684857009362623170e-01,0.000000000000000000e+00
5.100000000000000000e+01,-2.794419146486495364e-01,0.000000000000000000e+00
5.200000000000000000e+01,-3.526893764228227202e-01,0.000000000000000000e+00
5.300000000000000000e+01,-2.291343895904834616e-01,0.000000000000000000e+00
5.400000000000000000e+01,-2.212041079338108729e-01,0.000000000000000000e+00
5.500000000000000000e+01,-1.904180163265297432e-01,0.000000000000000000e+00
5.600000000000000000e+01,-2.190117174832670599e-01,0.000000000000000000e+00
5.700000000000000000e+01,-4.539594564637173396e-02,0.000000000000000000e+00
5.800000000000000000e+01,-2.012943783344289805e-01,0.000000000000000000e+00
5.900000000000000000e+01,-1.819912674420197107e-01,0.000000000000000000e+00
6.000000000000000000e+01,2.192286777538784634e-02,0.000000000000000000e+00
6.100000000000000000e+01,6.846769434413195465e-02,0.000000000000000000e+00
6.200000000000000000e+01,-1.132458901639030874e-01,0.000000000000000000e+00
6.300000000000000000e+01,7.974341185457391179e-02,0.000000000000000000e+00
6.400000000000000000e+01,-5.019194258928117575e-02,0.000000000000000000e+00
6.500000000000000000e+01,1.122534054074041110e-01,0.000000000000000000e+00
6.600000000000000000e+01,2.764926755061060115e-01,0.000000000000000000e+00
6.700000000000000000e+01,7.244640950086615738e-02,0.000000000000000000e+00
6.800000000000000000e+01,7.329012524648317317e-01,0.000000000000000000e+00
6.900000000000000000e+01,3.671291059233376952e-01,0.000000000000000000e+00
7.000000000000000000e+01,7.030642795506473197e-01,0.000000000000000000e+00
7.100000000000000000e+01,4.393191680209690975e-01,0.000000000000000000e+00
7.200000000000000000e+01,2.046457985659515533e-01,0.000000000000000000e+00
7.300000000000000000e+01,-1.808290241589066705e-01,0.000000000000000000e+00
7.400000000000000000e+01,-4.465888492280859629e-02,0.000000000000000000e+00
7.500000000000000000e+01,-2.835324411415804380e-01,0.000000000000000000e+00
7.600000000000000000e+01,4.124044906840782648e-02,0.000000000000000000e+00
7.700000000000000000e+01,-3.189003332438909433e-01,0.000000000000000000e+00
7.800000000000000000e+01,2.754092218061509612e-01,0.000000000000000000e+00
7.900000000000000000e+01,1.395771408438190031e-02,0.000000000000000000e+00
8.000000000000000000e+01,5.820969876493426121e+00,0.000000000000000000e+00
8.100000000000000000e+01,1.469743599474966356e+00,1.000000000000000000e+00
8.200000000000000000e+01,-2.220591656459311114e+00,0.000000000000000000e+00
8.300000000000000000e+01,-3.189902625384781754e-01,0.000000000000000000e+00
8.400000000000000000e+01,-1.035130906411600549e+00,0.000000000000000000e+00
8.500000000000000000e+01,-4.907394271264316488e-01,0.000000000000000000e+00
8.600000000000000000e+01,-6.213838155704444199e-01,0.000000000000000000e+00
8.700000000000000000e+01,-2.694356425207136141e-01,0.000000000000000000e+00
8.800000000000000000e+01,-5.896914599778092514e-01,0.000000000000000000e+00
8.900000000000000000e+01,-4.712663953872194694e-02,0.000000000000000000e+00
9.000000000000000000e+01,-3.595186909909537931e-01,0.000000000000000000e+00
9.100000000000000000e+01,1.282982858993065856e-01,0.000000000000000000e+00
9.200000000000000000e+01,-6.700475920746315484e-02,0.000000000000000000e+00
9.300000000000000000e+01,3.843531947227626366e-01,0.000000000000000000e+00
9.400000000000000000e+01,3.002510856155286567e-01,0.000000000000000000e+00
9.500000000000000000e+01,8.087547489085493702e-01,0.000000000000000000e+00
9.600000000000000000e+01,9.882783031289142928e-01,0.000000000000000000e+00
9.700000000000000000e+01,1.218238250027710246e+00,0.000000000000000000e+00
9.800000000000000000e+01,1.103860117270236696e+00,0.000000000000000000e+00
9.900000000000000000e+01,4.124197206168699892e-01,0.000000000000000000e+00
1.000000000000000000e+02,-4.070189926195497132e-01,0.000000000000000000e+00
1.010000000000000000e+02,-6.412870599493983859e-01,0.000000000000000000e+00
1.020000000000000000e+02,-1.072874261851976430e+00,0.000000000000000000e+00
1.030000000000000000e+02,-1.002012447788039662e+00,0.000000000000000000e+00
1.040000000000000000e+02,-9.499940694606098246e-01,0.000000000000000000e+00
1.050000000000000000e+02,-8.916745425061027852e-01,0.000000000000000000e+00
1.060000000000000000e+02,-7.292093815691369496e-01,0.000000000000000000e+00
1.070000000000000000e+02,-6.781150149857808618e-01,0.000000000000000000e+00
1.080000000000000000e+02,-5.420857901121521882e-01,0.000000000000000000e+00
1.090000000000000000e+02,-5.586523255323710968e-01,0.000000000000000000e+00
1.100000000000000000e+02,-3.194472697530136296e-01,0.000000000000000000e+00
1.110000000000000000e+02,-4.282088981502882308e-01,0.000000000000000000e+00
1.120000000000000000e+02,-2.932373935720889446e-01,0.000000000000000000e+00
1.130000000000000000e+02,-1.948837250818347411e-01,0.000000000000000000e+00
1.140000000000000000e+02,-2.057756352048644710e-01,0.000000000000000000e+00
1.150000000000000000e+02,-3.080615162143512942e-01,0.000000000000000000e+00
1.160000000000000000e+02,-1.512711937611114221e-01,0.000000000000000000e+00
1.170000000000000000e+02,-1.380630301166207441e-01,0.000000000000000000e+00
1.180000000000000000e+02,-8.626703149290680661e-02,0.000000000000000000e+00
1.190000000000000000e+02,-8.558731183713719215e-02,0.000000000000000000e+00
1.200000000000000000e+02,-8.063826471897583836e-02,0.000000000000000000e+00
1.210000000000000000e+02,-3.135875440489201138e-02,0.000000000000000000e+00
1.220000000000000000e+02,3.016397182690943105e-02,0.000000000000000000e+00
1.230000000000000000e+02,1.572258202975224117e-01,0.000000000000000000e+00
1.240000000000000000e+02,3.536853954772697928e-02,0.000000000000000000e+00
1.250000000000000000e+02,2.144839772824444768e-01,0.000000000000000000e+00
1.260000000000000000e+02,2.527998458404770998e-01,0.000000000000000000e+00
1.270000000000000000e+02,5.151871480717947760e-01,0.000000000000000000e+00
1.280000000000000000e+02,6.532066679481325355e-01,0.000000000000000000e+00
1.290000000000000000e+02,4.122842147566255222e-01,0.000000000000000000e+00
1.300000000000000000e+02,4.164395562758315683e-01,0.000000000000000000e+00
1.310000000000000000e+02,1.272539364719119277e-02,0.000000000000000000e+00
1.320000000000000000e+02,-8.870004838923208068e-02,0.000000000000000000e+00
1.330000000000000000e+02,-1.943368513275114950e-01,0.000000000000000000e+00
1.340000000000000000e+02,5.414823992319373752e-02,0.000000000000000000e+00
1.350000000000000000e+02,-2.189718092160509166e-01,0.000000000000000000e+00
1.360000000000000000e+02,3.684362771531703162e-02,0.000000000000000000e+00
1.370000000000000000e+02,-2.342946788319393014e-01,0.000000000000000000e+00
1.380000000000000000e+02,1.833843931386987647e+00,0.000000000000000000e+00
1.390000000000000000e+02,5.496466149329135575e+00,0.000000000000000000e+00
1.400000000000000000e+02,-1.931928691537196263e+00,1.000000000000000000e+00
1.410000000000000000e+02,-1.105538843314990860e+00,0.000000000000000000e+00
1.420000000000000000e+02,-7.061859286222458287e-01,0.000000000000000000e+00
1.430000000000000000e+02,-1.511822511073705189e-01,0.000000000000000000e+00
1.440000000000000000e+02,-4.788414785561793674e-01,0.000000000000000000e+00
1.450000000000000000e+02,-1.298524355258342811e-01,0.000000000000000000e+00
1.460000000000000000e+02,-1.775946533655236304e-01,0.000000000000000000e+00
1.470000000000000000e+02,-1.282042228828868535e-01,0.000000000000000000e+00
1.480000000000000000e+02,-2.927590786415352683e-02,0.000000000000000000e+00
1.490000000000000000e+02,1.599105637763243437e-01,0.000000000000000000e+00
1.500000000000000000e+02,9.782506899521910271e-02,0.000000000000000000e+00
1.510000000000000000e+02,2.376563554865593619e-01,0.000000000000000000e+00
1.520000000000000000e+02,5.604713276609442074e-01,0.000000000000000000e+00
1.530000000000000000e+02,5.974697865781007922e-01,0.000000000000000000e+00
1.540000000000000000e+02,9.012398032044071083e-01,0.000000000000000000e+00
1.550000000000000000e+02,1.332027469535010500e+00,0.000000000000000000e+00
1.560000000000000000e+02,1.267915470189755478e+00,0.000000000000000000e+00
1.570000000000000000e+02,8.966911944241017229e-01,0.000000000000000000e+00
1.580000000000000000e+02,-1.532919084603378834e-01,0.000000000000000000e+00
1.590000000000000000e+02,-5.176365698223018841e-01,0.000000000000000000e+00
1.600000000000000000e+02,-9.833314952510919804e-01,0.000000000000000000e+00
1.610000000000000000e+02,-1.017415877401164348e+00,0.000000000000000000e+00
1.620000000000000000e+02,-9.975632594834911160e-01,0.000000000000000000e+00
1.630000000000000000e+02,-9.952778321284203589e-01,0.000000000000000000e+00
1.640000000000000000e+02,-8.672030844734612831e-01,0.000000000000000000e+00
1.650000000000000000e+02,-8.209292711701888789e-01,0.000000000000000000e+00
1.660000000000000000e+02,-4.969810416981138568e-01,0.000000000000000000e+00
1.670000000000000000e+02,-5.965408416136507297e-01,0.000000000000000000e+00
1.680000000000000000e+02,-4.342276986510884007e-01,0.000000000000000000e+00
1.690000000000000000e+02,-3.245949317006383006e-01,0.000000000000000000e+00
1.700000000000000000e+02,-3.983908140168265222e-01,0.000000000000000000e+00
1.710000000000000000e+02,-2.444235657949958562e-01,0.000000000000000000e+00
1.720000000000000000e+02,-5.132857643690651450e-01,0.000000000000000000e+00
1.730000000000000000e+02,-5.463103566178179743e-02,0.000000000000000000e+00
1.740000000000000000e+02,-4.499513910213167600e-01,0.000000000000000000e+00
1.750000000000000000e+02,-1.069667515611932851e-01,0.000000000000000000e+00
1.760000000000000000e+02,-2.596853031669248413e-01,0.000000000000000000e+00
1.770000000000000000e+02,-4.728168755062147482e-02,0.000000000000000000e+00
1.780000000000000000e+02,-2.278103165234335870e-01,0.000000000000000000e+00
1.790000000000000000e+02,-9.667697100828032825e-03,0.000000000000000000e+00
1.800000000000000000e+02,-1.235439218514772577e-02,0.000000000000000000e+00
1.810000000000000000e+02,8.810747103131652547e-02,0.000000000000000000e+00
1.820000000000000000e+02,-2.087318115631363671e-02,0.000000000000000000e+00
1.830000000000000000e+02,8.575910998835706289e-02,0.000000000000000000e+00
1.840000000000000000e+02,4.972552209908909226e-02,0.000000000000000000e+00
1.850000000000000000e+02,2.502412177174229146e-01,0.000000000000000000e+00
1.860000000000000000e+02,4.244316427443599604e-01,0.000000000000000000e+00
1.870000000000000000e+02,5.559371000199767598e-01,0.000000000000000000e+00
1.880000000000000000e+02,5.064675569608717565e-01,0.000000000000000000e+00
1.890000000000000000e+02,6.605387918413384574e-01,0.000000000000000000e+00
1.900000000000000000e+02,3.356865870768721560e-01,0.000000000000000000e+00
1.910000000000000000e+02,8.077834363096980663e-02,0.000000000000000000e+00
1.920000000000000000e+02,-4.036890772190584314e-02,0.000000000000000000e+00
1.930000000000000000e+02,-1.862096731244467507e-01,0.000000000000000000e+00
1.940000000000000000e+02,-1.264733685799918350e-01,0.000000000000000000e+00
1.950000000000000000e+02,-1.763097525143740296e-01,0.000000000000000000e+00
1.960000000000000000e+02,2.149294828113145484e-01,0.000000000000000000e+00
1.970000000000000000e+02,-1.684669057934936320e-01,0.000000000000000000e+00
1.980000000000000000e+02,2.236764676914315686e+00,0.000000000000000000e+00
1.990000000000000000e+02,5.679860705290614931e+00,0.000000000000000000e+00
2.000000000000000000e+02,-1.750348292377664983e+00,1.000000000000000000e+00
2.010000000000000000e+02,-9.283688189068171059e-01,0.000000000000000000e+00
2.020000000000000000e+02,-7.751695989537881193e-01,0.000000000000000000e+00
2.030000000000000000e+02,-4.276498820664184075e-01,0.000000000000000000e+00
2.040000000000000000e+02,-6.115741412119282128e-01,0.000000000000000000e+00
2.050000000000000000e+02,-2.837817410379500083e-01,0.000000000000000000e+00
2.060000000000000000e+02,-4.156974712527393701e-01,0.000000000000000000e+00
2.070000000000000000e+02,1.776848183283585292e-01,0.000000000000000000e+00
2.080000000000000000e+02,-4.364795282072367888e-01,0.000000000000000000e+00
2.090000000000000000e+02,-2.732749518447952913e-02,0.000000000000000000e+00
2.100000000000000000e+02,5.056539725578210881e-02,0.000000000000000000e+00
2.110000000000000000e+02,2.700283503708698629e-01,0.000000000000000000e+00
2.120000000000000000e+02,3.287883128021610868e-01,0.000000000000000000e+00
2.130000000000000000e+02,6.067520400988014595e-01,0.000000000000000000e+00
2.140000000000000000e+02,6.756848726187130172e-01,0.000000000000000000e+00
2.150000000000000000e+02,1.271151212131858887e+00,0.000000000000000000e+00
2.160000000000000000e+02,9.738805313306655442e-01,0.000000000000000000e+00
2.170000000000000000e+02,1.059020510654886449e+00,0.000000000000000000e+00
2.180000000000000000e+02,4.813151899503007730e-02,0.000000000000000000e+00
2.190000000000000000e+02,-5.634384090732372785e-01,0.000000000000000000e+00
2.200000000000000000e+02,-1.015194109320161742e+00,0.000000000000000000e+00
2.210000000000000000e+02,-8.883987851479436815e-01,0.000000000000000000e+00
2.220000000000000000e+02,-1.124602545874714865e+00,0.000000000000000000e+00
2.230000000000000000e+02,-8.656483949422770774e-01,0.000000000000000000e+00
2.240000000000000000e+02,-8.272987845709504073e-01,0.000000000000000000e+00
2.250000000000000000e+02,-7.194758281714371817e-01,0.000000000000000000e+00
2.260000000000000000e+02,-7.073469227286482974e-01,0.000000000000000000e+00
2.270000000000000000e+02,-4.374436337152053378e-01,0.000000000000000000e+00
2.280000000000000000e+02,-5.681999599305018744e-01,0.000000000000000000e+00
2.290000000000000000e+02,-3.187635297304185489e-01,0.000000000000000000e+00
2.300000000000000000e+02,-3.668591537582216455e-01,0.000000000000000000e+00
2.310000000000000000e+02,-2.244106385243123392e-01,0.000000000000000000e+00
2.320000000000000000e+02,-2.822181655692611035e-01,0.000000000000000000e+00
2.330000000000000000e+02,-2.913651882617169231e-01,0.000000000000000000e+00
2.340000000000000000e+02,-2.415941059110563449e-01,0.000000000000000000e+00
2.350000000000000000e+02,-2.599286044530547679e-01,0.000000000000000000e+00
2.360000000000000000e+02,-1.069724777253188708e-01,0.000000000000000000e+00
2.370000000000000000e+02,-4.585017830017408536e-02,0.000000000000000000e+00
2.380000000000000000e+02,-1.124648410731482473e-01,0.000000000000000000e+00
2.390000000000000000e+02,1.433173063173589362e-02,0.000000000000000000e+00
2.400000000000000000e+02,-3.309156491392647222e-03,0.000000000000000000e+00
2.410000000000000000e+02,1.825076159462523939e-01,0.000000000000000000e+00
2.420000000000000000e+02,-1.368244624924449260e-01,0.000000000000000000e+00
2.430000000000000000e+02,2.501431842979004450e-01,0.000000000000000000e+00
2.440000000000000000e+02,6.186837974571163939e-02,0.000000000000000000e+00
2.450000000000000000e+02,2.094109373717707723e-01,0.000000000000000000e+00
2.460000000000000000e+02,1.561229759919659510e-01,0.000000000000000000e+00
2.470000000000000000e+02,6.916253650374672990e-01,0.000000000000000000e+00
2.480000000000000000e+02,4.246073628135906275e-01,0.000000000000000000e+00
2.490000000000000000e+02,8.237933308068718929e-01,0.000000000000000000e+00
2.500000000000000000e+02,3.865369160777930579e-01,0.000000000000000000e+00
2.510000000000000000e+02,3.224218000933059547e-01,0.000000000000000000e+00
2.520000000000000000e+02,-3.954125719279539819e-01,0.000000000000000000e+00
2.530000000000000000e+02,1.583674359633915618e-01,0.000000000000000000e+00
2.540000000000000000e+02,-3.341276965920195186e-01,0.000000000000000000e+00
2.550000000000000000e+02,6.267117301679631103e-02,0.000000000000000000e+00
2.560000000000000000e+02,-3.902018064881904169e-01,0.000000000000000000e+00
2.570000000000000000e+02,3.267249315365598483e-01,0.000000000000000000e+00
2.580000000000000000e+02,-1.540087814774318553e-01,0.000000000000000000e+00
2.590000000000000000e+02,5.649915020893331530e+00,0.000000000000000000e+00
2.600000000000000000e+02,2.089825635020469807e+00,1.000000000000000000e+00
2.610000000000000000e+02,-2.331737042989756148e+00,0.000000000000000000e+00
2.620000000000000000e+02,-4.289999127699800074e-01,0.000000000000000000e+00
2.630000000000000000e+02,-9.758890035668248419e-01,0.000000000000000000e+00
2.640000000000000000e+02,-4.354208287921862430e-01,0.000000000000000000e+00
2.650000000000000000e+02,-6.746241279253234469e-01,0.000000000000000000e+00
2.660000000000000000e+02,-3.398259144490742290e-01,0.000000000000000000e+00
2.670000000000000000e+02,-5.023131977653316760e-01,0.000000000000000000e+00
2.680000000000000000e+02,-1.102861985564902031e-01,0.000000000000000000e+00
2.690000000000000000e+02,-2.781000031652745008e-01,0.000000000000000000e+00
2.700000000000000000e+02,-6.498392563185687032e-02,0.000000000000000000e+00
2.710000000000000000e+02,8.838984134717774166e-02,0.000000000000000000e+00
2.720000000000000000e+02,1.909994831045455921e-01,0.000000000000000000e+00
2.730000000000000000e+02,5.091692442110196115e-01,0.000000000000000000e+00
2.740000000000000000e+02,6.127009301728345569e-01,0.000000000000000000e+00
2.750000000000000000e+02,8.873927886553325539e-01,0.000000000000000000e+00
2.760000000000000000e+02,1.110839676790197572e+00,0.000000000000000000e+00
2.770000000000000000e+02,1.246305971408742996e+00,0.000000000000000000e+00
2.780000000000000000e+02,5.620609604293903550e-01,0.000000000000000000e+00
2.790000000000000000e+02,-3.466357040093918651e-01,0.000000000000000000e+00
2.800000000000000000e+02,-7.460696190130312599e-01,0.000000000000000000e+00
2.810000000000000000e+02,-1.093454103923287901e+00,0.000000000000000000e+00
2.820000000000000000e+02,-9.745730633710705249e-01,0.000000000000000000e+00
2.830000000000000000e+02,-9.869343234235246065e-01,0.000000000000000000e+00
2.840000000000000000e+02,-7.517174578689873599e-01,0.000000000000000000e+00
2.850000000000000000e+02,-8.936282365671823769e-01,0.000000000000000000e+00
2.860000000000000000e+02,-7.521916810464809311e-01,0.000000000000000000e+00
2.870000000000000000e+02,-5.555111085209237798e-01,0.000000000000000000e+00
2.880000000000000000e+02,-4.745108000866055664e-01,0.000000000000000000e+00
2.890000000000000000e+02,-4.329667955740232888e-01,0.000000000000000000e+00
2.900000000000000000e+02,-4.298979389965785769e-01,0.000000000000000000e+00
2.910000000000000000e+02,-1.796144950944851271e-01,0.000000000000000000e+00
2.920000000000000000e+02,-3.076260599437609100e-01,0.000000000000000000e+00
2.930000000000000000e+02,-2.391376563268773070e-01,0.000000000000000000e+00
2.940000000000000000e+02,-2.085359744623486444e-01,0.000000000000000000e+00
2.950000000000000000e+02,-1.356318315920554685e-01,0.000000000000000000e+00
2.960000000000000000e+02,-2.840727859866000182e-01,0.000000000000000000e+00
2.970000000000000000e+02,-4.431331680573255549e-02,0.000000000000000000e+00
2.980000000000000000e+02,-1.740738668424040569e-01,0.000000000000000000e+00
2.990000000000000000e+02,4.102733961670580048e-02,0.000000000000000000e+00
3.000000000000000000e+02,2.837269739126384999e-02,0.000000000000000000e+00
3.010000000000000000e+02,5.669304141829989430e-02,0.000000000000000000e+00
3.020000000000000000e+02,-6.159605017454330284e-02,0.000000000000000000e+00
3.030000000000000000e+02,2.073732847270644553e-01,0.000000000000000000e+00
3.040000000000000000e+02,-2.302534606445914497e-02,0.000000000000000000e+00
3.050000000000000000e+02,3.224410319787169299e-01,0.000000000000000000e+00
3.060000000000000000e+02,1.698263427643834367e-01,0.000000000000000000e+00
3.070000000000000000e+02,5.039995067365282688e-01,0.000000000000000000e+00
3.080000000000000000e+02,6.134779989544110190e-01,0.000000000000000000e+00
3.090000000000000000e+02,7.291975331992485154e-01,0.000000000000000000e+00
3.100000000000000000e+02,3.461548881851899684e-01,0.000000000000000000e+00
3.110000000000000000e+02,2.926392860124606976e-01,0.000000000000000000e+00
3.120000000000000000e+02,-1.932065751357216754e-01,0.000000000000000000e+00
3.130000000000000000e+02,7.048765270759914381e-02,0.000000000000000000e+00
3.140000000000000000e+02,-3.035019987783822981e-01,0.000000000000000000e+00
3.150000000000000000e+02,1.213292423624855454e-01,0.000000000000000000e+00
3.160000000000000000e+02,-3.834500735725347997e-01,0.000000000000000000e+00
3.170000000000000000e+02,4.890308524268497936e-01,0.000000000000000000e+00
3.180000000000000000e+02,-3.744445842592832863e-01,0.000000000000000000e+00
3.190000000000000000e+02,5.223882615238292004e+00,0.000000000000000000e+00
3.200000000000000000e+02,2.151282594755658639e+00,1.000000000000000000e+00
3.210000000000000000e+02,-2.709733991027510225e+00,0.000000000000000000e+00
3.220000000000000000e+02,-3.195901083263410491e-01,0.000000000000000000e+00
3.230000000000000000e+02,-6.505649312820722674e-01,0.000000000000000000e+00
3.240000000000000000e+02,-2.787256100177467055e-01,0.000000000000000000e+00
3.250000000000000000e+02,-5.354369838172035045e-01,0.000000000000000000e+00
3.260000000000000000e+02,-2.500237963958106824e-01,0.000000000000000000e+00
3.270000000000000000e+02,-3.436366831126072552e-01,0.000000000000000000e+00
3.280000000000000000e+02,1.895174187559913459e-01,0.000000000000000000e+00
3.290000000000000000e+02,-2.532891785331961021e-01,0.000000000000000000e+00
3.300000000000000000e+02,3.531509667531569363e-01,0.000000000000000000e+00
3.310000000000000000e+02,-2.774851640846229608e-02,0.000000000000000000e+00
3.320000000000000000e+02,4.020720838659919694e-01,0.000000000000000000e+00
3.330000000000000000e+02,3.912041238439586954e-01,0.000000000000000000e+00
3.340000000000000000e+02,8.682544198837216509e-01,0.000000000000000000e+00
3.350000000000000000e+02,9.592875732733487926e-01,0.000000000000000000e+00
3.360000000000000000e+02,1.222128441896228157e+00,0.000000000000000000e+00
3.370000000000000000e+02,1.141837641564176220e+00,0.000000000000000000e+00
3.380000000000000000e+02,4.390703900120303538e-01,0.000000000000000000e+00
3.390000000000000000e+02,-1.714959730555674355e-01,0.000000000000000000e+00
3.400000000000000000e+02,-8.386885877001201139e-01,0.000000000000000000e+00
3.410000000000000000e+02,-1.069729067753999008e+00,0.000000000000000000e+00
3.420000000000000000e+02,-1.095204253670119643e+00,0.000000000000000000e+00
3.430000000000000000e+02,-9.978289524828053425e-01,0.000000000000000000e+00
3.440000000000000000e+02,-1.009120616152302086e+00,0.000000000000000000e+00
3.450000000000000000e+02,-8.944358414164658155e-01,0.000000000000000000e+00
3.460000000000000000e+02,-6.099257103370834265e-01,0.000000000000000000e+00
3.470000000000000000e+02,-6.625930985054846456e-01,0.000000000000000000e+00
3.480000000000000000e+02,-5.485627869199777296e-01,0.000000000000000000e+00
3.490000000000000000e+02,-4.864274255865218000e-01,0.000000000000000000e+00
3.500000000000000000e+02,-3.484926181612379992e-01,0.000000000000000000e+00
3.510000000000000000e+02,-3.641910611827735567e-01,0.000000000000000000e+00
3.520000000000000000e+02,-3.424415453123178521e-01,0.000000000000000000e+00
3.530000000000000000e+02,-2.582560963748366523e-01,0.000000000000000000e+00
3.540000000000000000e+02,-3.693715128448770146e-01,0.000000000000000000e+00
3.550000000000000000e+02,-2.413371085558441986e-01,0.000000000000000000e+00
3.560000000000000000e+02,-1.635046120489103694e-01,0.000000000000000000e+00
3.570000000000000000e+02,-7.499778163217396543e-02,0.000000000000000000e+00
3.580000000000000000e+02,-1.986156715106721371e-01,0.000000000000000000e+00
3.590000000000000000e+02,8.856072967931252760e-02,0.000000000000000000e+00
3.600000000000000000e+02,-1.042224758547555807e-01,0.000000000000000000e+00
3.610000000000000000e+02,2.774463296725836886e-02,0.000000000000000000e+00
3.620000000000000000e+02,-3.760716788992032183e-02,0.000000000000000000e+00
3.630000000000000000e+02,1.826744918722432998e-01,0.000000000000000000e+00
3.640000000000000000e+02,1.219397445958688708e-01,0.000000000000000000e+00
3.650000000000000000e+02,1.296570401032455799e-01,0.000000000000000000e+00
3.660000000000000000e+02,2.757018869028877717e-01,0.000000000000000000e+00
3.670000000000000000e+02,4.781799615413440119e-01,0.000000000000000000e+00
3.680000000000000000e+02,5.682191726297036727e-01,0.000000000000000000e+00
3.690000000000000000e+02,7.101092617741109336e-01,0.000000000000000000e+00
3.700000000000000000e+02,5.367308854323682432e-01,0.000000000000000000e+00
3.710000000000000000e+02,2.411550346568315517e-01,0.000000000000000000e+00
3.720000000000000000e+02,-2.392359746786017483e-01,0.000000000000000000e+00
3.730000000000000000e+02,5.365199392220248303e-02,0.000000000000000000e+00
3.740000000000000000e+02,-1.990903361707450081e-01,0.000000000000000000e+00
3.750000000000000000e+02,1.751701762208589253e-01,0.000000000000000000e+00
3.760000000000000000e+02,-3.997456755526286321e-01,0.000000000000000000e+00
3.770000000000000000e+02,3.796864244864593396e-01,0.000000000000000000e+00
3.780000000000000000e+02,-2.179694396132694223e-01,0.000000000000000000e+00
3.790000000000000000e+02,5.452928202458354079e+00,0.000000000000000000e+00
3.800000000000000000e+02,2.341949899004588609e+00,1.000000000000000000e+00
3.810000000000000000e+02,-2.388328750655482668e+00,0.000000000000000000e+00
3.820000000000000000e+02,-2.761604859502387321e-01,0.000000000000000000e+00
3.830000000000000000e+02,-9.374546368053837675e-01,0.000000000000000000e+00
3.840000000000000000e+02,-2.243915547922250564e-01,0.000000000000000000e+00
3.850000000000000000e+02,-8.178260593445862980e-01,0.000000000000000000e+00
3.860000000000000000e+02,-8.017320170158517834e-02,0.000000000000000000e+00
3.870000000000000000e+02,-4.947415302185270702e-01,0.000000000000000000e+00
3.880000000000000000e+02,-1.464081052430510066e-01,0.000000000000000000e+00
3.890000000000000000e+02,-2.114316094026598078e-02,0.000000000000000000e+00
3.900000000000000000e+02,-5.656084513277280512e-02,0.000000000000000000e+00
3.910000000000000000e+02,1.673044440986150294e-01,0.000000000000000000e+00
3.920000000000000000e+02,2.589217935074888399e-01,0.000000000000000000e+00
3.930000000000000000e+02,3.954521610777103624e-01,0.000000000000000000e+00
3.940000000000000000e+02,6.701278784904568520e-01,0.000000000000000000e+00
3.950000000000000000e+02,1.071166695432202554e+00,0.000000000000000000e+00
3.960000000000000000e+02,1.173704661176416808e+00,0.000000000000000000e+00
3.970000000000000000e+02,9.873291368284292657e-01,0.000000000000000000e+00
3.980000000000000000e+02,6.507241342444116672e-01,0.000000000000000000e+00
3.990000000000000000e+02,-4.151757889993916151e-01,0.000000000000000000e+00
4.000000000000000000e+02,-6.221227058942481181e-01,0.000000000000000000e+00
4.010000000000000000e+02,-1.094930894074565009e+00,0.000000000000000000e+00
4.020000000000000000e+02,-8.312767169768953135e-01,0.000000000000000000e+00
4.030000000000000000e+02,-1.047712413222401384e+00,0.000000000000000000e+00
4.040000000000000000e+02,-8.529120364988403979e-01,0.000000000000000000e+00
4.050000000000000000e+02,-8.247958909808665862e-01,0.000000000000000000e+00
4.060000000000000000e+02,-7.013030420328131287e-01,0.000000000000000000e+00
4.070000000000000000e+02,-6.845952699445476686e-01,0.000000000000000000e+00
4.080000000000000000e+02,-4.239904330244103070e-01,0.000000000000000000e+00
4.090000000000000000e+02,-4.975827966945424174e-01,0.000000000000000000e+00
4.100000000000000000e+02,-4.397184342662583956e-01,0.000000000000000000e+00
4.110000000000000000e+02,-1.208765297317807297e-01,0.000000000000000000e+00
4.120000000000000000e+02,-4.245585519060877666e-01,0.000000000000000000e+00
4.130000000000000000e+02,-3.375641137087079247e-01,0.000000000000000000e+00
4.140000000000000000e+02,-2.188239871799718683e-01,0.000000000000000000e+00
4.150000000000000000e+02,-1.844420543484880937e-01,0.000000000000000000e+00
4.160000000000000000e+02,-1.360144197723384685e-01,0.000000000000000000e+00
4.170000000000000000e+02,-2.274657637729753379e-01,0.000000000000000000e+00
4.180000000000000000e+02,-5.883125620715624893e-02,0.000000000000000000e+00
4.190000000000000000e+02,-1.136338741218279880e-01,0.000000000000000000e+00
4.200000000000000000e+02,5.907611495925097628e-02,0.000000000000000000e+00
4.210000000000000000e+02,-1.102672729926268552e-01,0.000000000000000000e+00
4.220000000000000000e+02,9.616148577025072919e-02,0.000000000000000000e+00
4.230000000000000000e+02,1.408631547925085492e-01,0.000000000000000000e+00
4.240000000000000000e+02,8.512281159606338576e-02,0.000000000000000000e+00
4.250000000000000000e+02,1.357001144057186914e-01,0.000000000000000000e+00
4.260000000000000000e+02,1.367896856586495180e-01,0.000000000000000000e+00
4.270000000000000000e+02,5.583953189155186347e-01,0.000000000000000000e+00
4.280000000000000000e+02,5.298027758397565457e-01,0.000000000000000000e+00
4.290000000000000000e+02,6.519723436447485421e-01,0.000000000000000000e+00
4.300000000000000000e+02,7.850192864285144845e-01,0.000000000000000000e+00
4.310000000000000000e+02,2.567127467613842806e-01,0.000000000000000000e+00
4.320000000000000000e+02,1.358352948481173113e-03,0.000000000000000000e+00
4.330000000000000000e+02,-1.516892790542850311e-01,0.000000000000000000e+00
4.340000000000000000e+02,-1.487089380680770845e-01,0.000000000000000000e+00
4.350000000000000000e+02,6.111798858666377121e-02,0.000000000000000000e+00
4.360000000000000000e+02,-2.260532882694489543e-01,0.000000000000000000e+00
4.370000000000000000e+02,2.074571062065302673e-01,0.000000000000000000e+00
4.380000000000000000e+02,-4.808868676801351660e-01,0.000000000000000000e+00
4.390000000000000000e+02,2.594509271857459609e+00,0.000000000000000000e+00
4.400000000000000000e+02,5.544141256280929575e+00,0.000000000000000000e+00
4.410000000000000000e+02,-1.606296105790093298e+00,1.000000000000000000e+00
4.420000000000000000e+02,-1.011233435451637908e+00,0.000000000000000000e+00
4.430000000000000000e+02,-8.122159931879781025e-01,0.000000000000000000e+00
4.440000000000000000e+02,-4.497709802788912858e-01,0.000000000000000000e+00
4.450000000000000000e+02,-7.495179394309737786e-01,0.000000000000000000e+00
4.460000000000000000e+02,-3.456093170446032370e-01,0.000000000000000000e+00
4.470000000000000000e+02,-4.819577094320436350e-01,0.000000000000000000e+00
4.480000000000000000e+02,-1.594980601206404669e-01,0.000000000000000000e+00
4.490000000000000000e+02,-2.645277868315332181e-01,0.000000000000000000e+00
4.500000000000000000e+02,1.335013214538300144e-02,0.000000000000000000e+00
4.510000000000000000e+02,-3.065833972902384102e-02,0.000000000000000000e+00
4.520000000000000000e+02,1.902913477873809933e-01,0.000000000000000000e+00
4.530000000000000000e+02,4.016952773076056249e-01,0.000000000000000000e+00
4.540000000000000000e+02,5.427322208245524138e-01,0.000000000000000000e+00
4.550000000000000000e+02,8.300342936828661866e-01,0.000000000000000000e+00
4.560000000000000000e+02,1.029693086766916066e+00,0.000000000000000000e+00
4.570000000000000000e+02,1.303611849408519152e+00,0.000000000000000000e+00
4.580000000000000000e+02,8.659342919589108067e-01,0.000000000000000000e+00
4.590000000000000000e+02,9.522991022479997125e-02,0.000000000000000000e+00
4.600000000000000000e+02,-4.792537758670090131e-01,0.000000000000000000e+00
4.610000000000000000e+02,-9.960544437666799533e-01,0.000000000000000000e+00
4.620000000000000000e+02,-1.044561201152214736e+00,0.000000000000000000e+00
4.630000000000000000e+02,-1.164499529301145753e+00,0.000000000000000000e+00
4.640000000000000000e+02,-8.009535162112212392e-01,0.000000000000000000e+00
4.650000000000000000e+02,-9.196105872808327808e-01,0.000000000000000000e+00
4.660000000000000000e+02,-7.463156976484266458e-01,0.000000000000000000e+00
4.670000000000000000e+02,-7.501586444776049412e-01,0.000000000000000000e+00
4.680000000000000000e+02,-5.250699043324009718e-01,0.000000000000000000e+00
4.690000000000000000e+02,-6.124394819596984396e-01,0.000000000000000000e+00
4.700000000000000000e+02,-2.952389373562718800e-01,0.000000000000000000e+00
4.710000000000000000e+02,-3.953469001696574558e-01,0.000000000000000000e+00
4.720000000000000000e+02,-3.514714230421144836e-01,0.000000000000000000e+00
4.730000000000000000e+02,-3.493283138735078230e-01,0.000000000000000000e+00
4.740000000000000000e+02,-1.905341217736584436e-01,0.000000000000000000e+00
4.750000000000000000e+02,-2.988883253628739634e-01,0.000000000000000000e+00
4.760000000000000000e+02,-1.571872535119193948e-01,0.000000000000000000e+00
4.770000000000000000e+02,-1.265622630765277923e-01,0.000000000000000000e+00
4.780000000000000000e+02,-1.155062605864076858e-01,0.000000000000000000e+00
4.790000000000000000e+02,-7.570635582222261240e-02,0.000000000000000000e+00
4.800000000000000000e+02,-1.724951304279236444e-02,0.000000000000000000e+00
4.810000000000000000e+02,-2.423812645679995076e-02,0.000000000000000000e+00
4.820000000000000000e+02,2.223879904792830028e-02,0.000000000000000000e+00
4.830000000000000000e+02,5.284643973752178175e-02,0.000000000000000000e+00
4.840000000000000000e+02,1.694618286955806019e-01,0.000000000000000000e+00
4.850000000000000000e+02,-2.193161184576666520e-02,0.000000000000000000e+00
4.860000000000000000e+02,3.576976634281471834e-01,0.000000000000000000e+00
4.870000000000000000e+02,5.228453322821579041e-01,0.000000000000000000e+00
4.880000000000000000e+02,6.610481967776876688e-01,0.000000000000000000e+00
4.890000000000000000e+02,4.607108721478714308e-01,0.000000000000000000e+00
4.900000000000000000e+02,4.772559826593360532e-01,0.000000000000000000e+00
4.910000000000000000e+02,1.267705749339973972e-02,0.000000000000000000e+00
4.920000000000000000e+02,-1.201253703800108097e-01,0.000000000000000000e+00
4.930000000000000000e+02,-1.022727071758029876e-01,0.000000000000000000e+00
4.940000000000000000e+02,1.190534912464770306e-01,0.000000000000000000e+00
4.950000000000000000e+02,-8.203872798861169824e-02,0.000000000000000000e+00
4.960000000000000000e+02,-5.545890151719043426e-02,0.000000000000000000e+00
4.970000000000000000e+02,-6.955680404246371296e-03,0.000000000000000000e+00
4.980000000000000000e+02,8.982475882261640177e-01,0.000000000000000000e+00
4.990000000000000000e+02,5.580712621757125014e+00,0.000000000000000000e+00
5.000000000000000000e+02,-8.789622201151334746e-01,1.000000000000000000e+00
5.010000000000000000e+02,-1.776986939974880109e+00,0.000000000000000000e+00
5.020000000000000000e+02,-2.845794642671987118e-01,0.000000000000000000e+00
5.030000000000000000e+02,-4.489086263233824647e-01,0.000000000000000000e+00
5.040000000000000000e+02,-3.461384615711060597e-01,0.000000000000000000e+00
5.050000000000000000e+02,-1.473397856159038011e-01,0.000000000000000000e+00
5.060000000000000000e+02,-2.655235881999198355e-01,0.000000000000000000e+00
5.070000000000000000e+02,-1.295449578661142520e-01,0.000000000000000000e+00
5.080000000000000000e+02,7.942561382430481098e-02,0.000000000000000000e+00
5.090000000000000000e+02,-8.200270805853668299e-02,0.000000000000000000e+00
5.100000000000000000e+02,2.057735743183826960e-01,0.000000000000000000e+00
5.110000000000000000e+02,1.167164909424492497e-01,0.000000000000000000e+00
5.120000000000000000e+02,5.341956310926246898e-01,0.000000000000000000e+00
5.130000000000000000e+02,6.199549643220977346e-01,0.000000000000000000e+00
5.140000000000000000e+02,8.418000076039440227e-01,0.000000000000000000e+00
5.150000000000000000e+02,1.191345440704390413e+00,0.000000000000000000e+00
5.160000000000000000e+02,1.244189712594179209e+00,0.000000000000000000e+00
5.170000000000000000e+02,1.028927285476873177e+00,0.000000000000000000e+00
5.180000000000000000e+02,1.696739531957920932e-01,0.000000000000000000e+00
5.190000000000000000e+02,-6.009213509310394885e-01,0.000000000000000000e+00
5.200000000000000000e+02,-7.900274678607858148e-01,0.000000000000000000e+00
5.210000000000000000e+02,-1.218737233992592595e+00,0.000000000000000000e+00
5.220000000000000000e+02,-7.725561728450507371e-01,0.000000000000000000e+00
5.230000000000000000e+02,-1.203064184362889089e+00,0.000000000000000000e+00
5.240000000000000000e+02,-7.966095882880381840e-01,0.000000000000000000e+00
5.250000000000000000e+02,-9.521218744164449133e-01,0.000000000000000000e+00
5.260000000000000000e+02,-5.556956801125308987e-01,0.000000000000000000e+00
5.270000000000000000e+02,-6.764435042196207393e-01,0.000000000000000000e+00
5.280000000000000000e+02,-4.769347440912765634e-01,0.000000000000000000e+00
5.290000000000000000e+02,-2.493362715134575525e-01,0.000000000000000000e+00
5.300000000000000000e+02,-2.694547721946620733e-01,0.000000000000000000e+00
5.310000000000000000e+02,-5.104817752146371124e-01,0.000000000000000000e+00
5.320000000000000000e+02,-3.655726494659061743e-01,0.000000000000000000e+00
5.330000000000000000e+02,-3.258650889982592780e-01,0.000000000000000000e+00
5.340000000000000000e+02,-2.097876419499063450e-01,0.000000000000000000e+00
5.350000000000000000e+02,-7.369291069183715737e-02,0.000000000000000000e+00
5.360000000000000000e+02,-1.511450982409182631e-01,0.000000000000000000e+00
5.370000000000000000e+02,-3.150522244794148885e-01,0.000000000000000000e+00
5.380000000000000000e+02,-7.747502738305797609e-02,0.000000000000000000e+00
5.390000000000000000e+02,-1.931300137268140427e-01,0.000000000000000000e+00
5.400000000000000000e+02,2.355437978640669561e-01,0.000000000000000000e+00
5.410000000000000000e+02,-6.709801288170005873e-02,0.000000000000000000e+00
5.420000000000000000e+02,1.602499690221420858e-01,0.000000000000000000e+00
5.430000000000000000e+02,-1.296240137018766503e-01,0.000000000000000000e+00
5.440000000000000000e+02,2.142112417237946043e-01,0.000000000000000000e+00
5.450000000000000000e+02,1.466325078721555930e-01,0.000000000000000000e+00
5.460000000000000000e+02,5.616971913835203667e-01,0.000000000000000000e+00
5.470000000000000000e+02,5.872235348225893770e-01,0.000000000000000000e+00
5.480000000000000000e+02,6.699624955200000898e-01,0.000000000000000000e+00
5.490000000000000000e+02,4.348469506879441004e-01,0.000000000000000000e+00
5.500000000000000000e+02,3.026407170544684333e-01,0.000000000000000000e+00
5.510000000000000000e+02,-2.609517528143645571e-01,0.000000000000000000e+00
5.520000000000000000e+02,6.285459236166550390e-02,0.000000000000000000e+00
5.530000000000000000e+02,-2.068175321856136895e-01,0.000000000000000000e+00
5.540000000000000000e+02,1.192037940567855642e-01,0.000000000000000000e+00
5.550000000000000000e+02,-2.711413314564553589e-01,0.000000000000000000e+00
5.560000000000000000e+02,4.152636187983888005e-01,0.000000000000000000e+00
5.570000000000000000e+02,-3.493688441807107914e-01,0.000000000000000000e+00
5.580000000000000000e+02,5.388682646860076808e+00,0.000000000000000000e+00
5.590000000000000000e+02,2.224191017950188254e+00,1.000000000000000000e+00
5.600000000000000000e+02,-2.282636667688159982e+00,0.000000000000000000e+00
5.610000000000000000e+02,-3.664497879441291905e-01,0.000000000000000000e+00
5.620000000000000000e+02,-9.051858762916723533e-01,0.000000000000000000e+00
5.630000000000000000e+02,-2.775118416100415542e-01,0.000000000000000000e+00
5.640000000000000000e+02,-5.554453359218051167e-01,0.000000000000000000e+00
5.650000000000000000e+02,-3.126300178969732002e-01,0.000000000000000000e+00
5.660000000000000000e+02,-2.827114037230317733e-01,0.000000000000000000e+00
5.670000000000000000e+02,2.703022553049845220e-02,0.000000000000000000e+00
5.680000000000000000e+02,-2.008344623313518262e-01,0.000000000000000000e+00
5.690000000000000000e+02,8.597034469499868770e-02,0.000000000000000000e+00
5.700000000000000000e+02,5.355516008877127948e-02,0.000000000000000000e+00
5.710000000000000000e+02,4.026264136764979851e-01,0.000000000000000000e+00
5.720000000000000000e+02,3.400109494645529584e-01,0.000000000000000000e+00
5.730000000000000000e+02,8.318725836266099849e-01,0.000000000000000000e+00
5.740000000000000000e+02,9.209282451160557548e-01,0.000000000000000000e+00
5.750000000000000000e+02,1.257006626204923316e+00,0.000000000000000000e+00
5.760000000000000000e+02,1.059027726764906641e+00,0.000000000000000000e+00
5.770000000000000000e+02,6.537877988776319427e-01,0.000000000000000000e+00
5.780000000000000000e+02,-3.558604066956181922e-01,0.000000000000000000e+00
5.790000000000000000e+02,-7.457901119831523706e-01,0.000000000000000000e+00
5.800000000000000000e+02,-1.001702260805612310e+00,0.000000000000000000e+00
5.810000000000000000e+02,-9.055697033648231198e-01,0.000000000000000000e+00
5.820000000000000000e+02,-1.028143873931342878e+00,0.000000000000000000e+00
5.830000000000000000e+02,-8.220003651496724517e-01,0.000000000000000000e+00
5.840000000000000000e+02,-8.281448880564589166e-01,0.000000000000000000e+00
5.850000000000000000e+02,-6.509500524470929195e-01,0.000000000000000000e+00
5.860000000000000000e+02,-6.058106982915715255e-01,0.000000000000000000e+00
5.870000000000000000e+02,-5.138516949708116233e-01,0.000000000000000000e+00
5.880000000000000000e+02,-4.456370834380011248e-01,0.000000000000000000e+00
5.890000000000000000e+02,-3.249830244775906984e-01,0.000000000000000000e+00
5.900000000000000000e+02,-2.384858302635364247e-01,0.000000000000000000e+00
5.910000000000000000e+02,-3.272126129981233200e-01,0.000000000000000000e+00
5.920000000000000000e+02,-3.606312101617447641e-01,0.000000000000000000e+00
5.930000000000000000e+02,-1.220246103221501177e-01,0.000000000000000000e+00
5.940000000000000000e+02,-3.975923541470537392e-01,0.000000000000000000e+00
5.950000000000000000e+02,-9.081307289213513823e-02,0.000000000000000000e+00
5.960000000000000000e+02,-2.471193047357168049e-01,0.000000000000000000e+00
5.970000000000000000e+02,-1.015315990335848434e-01,0.000000000000000000e+00
5.980000000000000000e+02,1.497372473478433179e-03,0.000000000000000000e+00
5.990000000000000000e+02,-1.285906475896357593e-01,0.000000000000000000e+00
6.000000000000000000e+02,1.402704002327911405e-02,0.000000000000000000e+00
6.010000000000000000e+02,8.839808714556332547e-02,0.000000000000000000e+00
6.020000000000000000e+02,-2.532136641821829126e-03,0.000000000000000000e+00
6.030000000000000000e+02,7.004373342055500440e-02,0.000000000000000000e+00
6.040000000000000000e+02,2.394519027001002498e-01,0.000000000000000000e+00
6.050000000000000000e+02,2.225790517137375135e-01,0.000000000000000000e+00
6.060000000000000000e+02,5.025754250629891340e-01,0.000000000000000000e+00
6.070000000000000000e+02,5.789556478002886308e-01,0.000000000000000000e+00
6.080000000000000000e+02,7.259822534376180192e-01,0.000000000000000000e+00
6.090000000000000000e+02,3.291528344824235508e-01,0.000000000000000000e+00
6.100000000000000000e+02,1.257346174972187591e-01,0.000000000000000000e+00
6.110000000000000000e+02,-1.397085424948164289e-01,0.000000000000000000e+00
6.120000000000000000e+02,-1.444664789775402247e-01,0.000000000000000000e+00
6.130000000000000000e+02,-1.268217644919422959e-01,0.000000000000000000e+00
6.140000000000000000e+02,-3.428201021472514903e-02,0.000000000000000000e+00
6.150000000000000000e+02,-1.066941676667643168e-01,0.000000000000000000e+00
6.160000000000000000e+02,5.566625383909274555e-02,0.000000000000000000e+00
6.170000000000000000e+02,9.038210566387094858e-01,0.000000000000000000e+00
6.180000000000000000e+02,6.177615600976807286e+00,0.000000000000000000e+00
6.190000000000000000e+02,-7.388971139293976087e-02,1.000000000000000000e+00
6.200000000000000000e+02,-1.793577303935439016e+00,0.000000000000000000e+00
6.210000000000000000e+02,-4.110710865024058691e-01,0.000000000000000000e+00
6.220000000000000000e+02,-7.870774149185347790e-01,0.000000000000000000e+00
6.230000000000000000e+02,-4.255594098381124124e-01,0.000000000000000000e+00
6.240000000000000000e+02,-5.624034503038357613e-01,0.000000000000000000e+00
6.250000000000000000e+02,-3.157117264767003162e-01,0.000000000000000000e+00
6.260000000000000000e+02,-3.588216886518230120e-01,0.000000000000000000e+00
6.270000000000000000e+02,-1.389428072529582670e-01,0.000000000000000000e+00
6.280000000000000000e+02,-2.080495885531231659e-01,0.000000000000000000e+00
6.290000000000000000e+02,1.821548459349298099e-01,0.000000000000000000e+00
6.300000000000000000e+02,2.793749776957884373e-02,0.000000000000000000e+00
6.310000000000000000e+02,2.929974478673018634e-01,0.000000000000000000e+00
6.320000000000000000e+02,4.797299204854437171e-01,0.000000000000000000e+00
6.330000000000000000e+02,7.730631181496804283e-01,0.000000000000000000e+00
6.340000000000000000e+02,1.008148437404045028e+00,0.000000000000000000e+00
6.350000000000000000e+02,1.256247398660103043e+00,0.000000000000000000e+00
6.360000000000000000e+02,8.644714928965366862e-01,0.000000000000000000e+00
6.370000000000000000e+02,3.499736170386689715e-01,0.000000000000000000e+00
6.380000000000000000e+02,-5.618302467116551568e-01,0.000000000000000000e+00
6.390000000000000000e+02,-6.839469893405998313e-01,0.000000000000000000e+00
6.400000000000000000e+02,-1.112935622594924734e+00,0.000000000000000000e+00
6.410000000000000000e+02,-9.590777702103876479e-01,0.000000000000000000e+00
6.420000000000000000e+02,-9.777563674188421983e-01,0.000000000000000000e+00
6.430000000000000000e+02,-7.709614146223481290e-01,0.000000000000000000e+00
6.440000000000000000e+02,-7.714332414929622184e-01,0.000000000000000000e+00
6.450000000000000000e+02,-7.839926396150054266e-01,0.000000000000000000e+00
6.460000000000000000e+02,-4.535356561229086370e-01,0.000000000000000000e+00
6.470000000000000000e+02,-4.509211298945332569e-01,0.000000000000000000e+00
6.480000000000000000e+02,-4.832630081514200371e-01,0.000000000000000000e+00
6.490000000000000000e+02,-2.612891056211835150e-01,0.000000000000000000e+00
6.500000000000000000e+02,-2.744490066277893714e-01,0.000000000000000000e+00
6.510000000000000000e+02,-3.125629146421879390e-01,0.000000000000000000e+00
6.520000000000000000e+02,-3.316697908522680538e-01,0.000000000000000000e+00
6.530000000000000000e+02,-1.379976845160120758e-01,0.000000000000000000e+00
6.540000000000000000e+02,-2.403590702636971832e-01,0.000000000000000000e+00
6.550000000000000000e+02,-7.165740790447852615e-02,0.000000000000000000e+00
6.560000000000000000e+02,-1.615277188448331347e-01,0.000000000000000000e+00
6.570000000000000000e+02,-1.056142632896267114e-01,0.000000000000000000e+00
6.580000000000000000e+02,-7.439640471888082918e-02,0.000000000000000000e+00
6.590000000000000000e+02,3.357914658306441341e-02,0.000000000000000000e+00
6.600000000000000000e+02,7.386323906808774098e-02,0.000000000000000000e+00
6.610000000000000000e+02,1.433476509293536427e-01,0.000000000000000000e+00
6.620000000000000000e+02,3.712162559143714069e-02,0.000000000000000000e+00
6.630000000000000000e+02,1.733510709366556102e-01,0.000000000000000000e+00
6.640000000000000000e+02,1.471451076083301612e-01,0.000000000000000000e+00
6.650000000000000000e+02,5.764925600525002691e-01,0.000000000000000000e+00
6.660000000000000000e+02,5.731081982256285290e-01,0.000000000000000000e+00
6.670000000000000000e+02,9.627140347445275470e-01,0.000000000000000000e+00
6.680000000000000000e+02,3.393785410127828084e-01,0.000000000000000000e+00
6.690000000000000000e+02,4.002608388761469960e-01,0.000000000000000000e+00
6.700000000000000000e+02,-3.272377016418919760e-01,0.000000000000000000e+00
6.710000000000000000e+02,9.454462484050543680e-02,0.000000000000000000e+00
6.720000000000000000e+02,-2.855234968916854355e-01,0.000000000000000000e+00
6.730000000000000000e+02,2.165631622261026887e-02,0.000000000000000000e+00
6.740000000000000000e+02,-3.700582628383118911e-01,0.000000000000000000e+00
6.750000000000000000e+02,5.198417663257156596e-01,0.000000000000000000e+00
6.760000000000000000e+02,-6.905424998334618314e-01,0.000000000000000000e+00
6.770000000000000000e+02,4.500704449398155838e+00,0.000000000000000000e+00
6.780000000000000000e+02,3.234908826433946505e+00,1.000000000000000000e+00
6.790000000000000000e+02,-2.730803808677492395e+00,0.000000000000000000e+00
6.800000000000000000e+02,-3.101739475107084254e-01,0.000000000000000000e+00
6.810000000000000000e+02,-9.695722366366381628e-01,0.000000000000000000e+00
6.820000000000000000e+02,-3.947953193234225444e-01,0.000000000000000000e+00
6.830000000000000000e+02,-5.557642770627603257e-01,0.000000000000000000e+00
6.840000000000000000e+02,-7.202991944892719878e-02,0.000000000000000000e+00
6.850000000000000000e+02,-3.765815950334776563e-01,0.000000000000000000e+00
6.860000000000000000e+02,-1.246469777094858233e-01,0.000000000000000000e+00
6.870000000000000000e+02,-2.191730344221446136e-01,0.000000000000000000e+00
6.880000000000000000e+02,2.694846205171360642e-01,0.000000000000000000e+00
6.890000000000000000e+02,-4.305249061557501339e-02,0.000000000000000000e+00
6.900000000000000000e+02,4.629229464242738956e-01,0.000000000000000000e+00
6.910000000000000000e+02,2.968045595118267155e-01,0.000000000000000000e+00
6.920000000000000000e+02,8.694742572574539752e-01,0.000000000000000000e+00
6.930000000000000000e+02,8.767841285305981724e-01,0.000000000000000000e+00
6.940000000000000000e+02,1.295158250347225204e+00,0.000000000000000000e+00
6.950000000000000000e+02,1.136833914210832130e+00,0.000000000000000000e+00
6.960000000000000000e+02,6.639940781161666195e-01,0.000000000000000000e+00
6.970000000000000000e+02,-3.526943548788242233e-01,0.000000000000000000e+00
6.980000000000000000e+02,-8.575488373005268894e-01,0.000000000000000000e+00
6.990000000000000000e+02,-1.078911866419976384e+00,0.000000000000000000e+00
7.000000000000000000e+02,-8.869357078646943338e-01,0.000000000000000000e+00
7.010000000000000000e+02,-1.067850098801190306e+00,0.000000000000000000e+00
7.020000000000000000e+02,-1.036539194026174782e+00,0.000000000000000000e+00
7.030000000000000000e+02,-8.347791366085408615e-01,0.000000000000000000e+00
7.040000000000000000e+02,-6.633257735208945016e-01,0.000000000000000000e+00
7.050000000000000000e+02,-6.337028207833429461e-01,0.000000000000000000e+00
7.060000000000000000e+02,-5.429418511400538883e-01,0.000000000000000000e+00
7.070000000000000000e+02,-4.625816419372612009e-01,0.000000000000000000e+00
7.080000000000000000e+02,-4.370697720045345069e-01,0.000000000000000000e+00
7.090000000000000000e+02,-3.662691876592512052e-01,0.000000000000000000e+00
7.100000000000000000e+02,-2.366255350319988460e-01,0.000000000000000000e+00
7.110000000000000000e+02,-3.781889395984161517e-01,0.000000000000000000e+00
7.120000000000000000e+02,-1.839593171859209841e-01,0.000000000000000000e+00
7.130000000000000000e+02,-2.390090247884885943e-01,0.000000000000000000e+00
7.140000000000000000e+02,-1.500699608739410884e-01,0.000000000000000000e+00
7.150000000000000000e+02,-2.799194880829974363e-01,0.000000000000000000e+00
7.160000000000000000e+02,3.868246686592743261e-02,0.000000000000000000e+00
7.170000000000000000e+02,-2.685017958407085945e-02,0.000000000000000000e+00
7.180000000000000000e+02,-2.154472310997244608e-02,0.000000000000000000e+00
7.190000000000000000e+02,-8.745160751839035906e-02,0.000000000000000000e+00
7.200000000000000000e+02,1.573043588593895648e-01,0.000000000000000000e+00
7.210000000000000000e+02,1.830993381147381083e-01,0.000000000000000000e+00
7.220000000000000000e+02,1.705968106000235740e-01,0.000000000000000000e+00
7.230000000000000000e+02,3.614165057876879694e-01,0.000000000000000000e+00
7.240000000000000000e+02,6.214314639277886965e-01,0.000000000000000000e+00
7.250000000000000000e+02,6.963702817706304282e-01,0.000000000000000000e+00
7.260000000000000000e+02,4.758016152761374018e-01,0.000000000000000000e+00
7.270000000000000000e+02,2.784104411209348262e-02,0.000000000000000000e+00
7.280000000000000000e+02,-1.496915587830741634e-01,0.000000000000000000e+00
7.290000000000000000e+02,-3.177700007500167904e-03,0.000000000000000000e+00
7.300000000000000000e+02,-1.542179327920094600e-01,0.000000000000000000e+00
7.310000000000000000e+02,-3.414294308231259970e-03,0.000000000000000000e+00
7.320000000000000000e+02,-9.359280893712443317e-02,0.000000000000000000e+00
7.330000000000000000e+02,4.801228224158916869e-02,0.000000000000000000e+00
7.340000000000000000e+02,4.226334366436742540e-01,0.000000000000000000e+00
7.350000000000000000e+02,5.646568717546262661e+00,0.000000000000000000e+00
7.360000000000000000e+02,6.085800245038427425e-01,1.000000000000000000e+00
7.370000000000000000e+02,-2.134183610849673229e+00,0.000000000000000000e+00
7.380000000000000000e+02,-1.902279400275938281e-01,0.000000000000000000e+00
7.390000000000000000e+02,-7.178764769247817368e-01,0.000000000000000000e+00
7.400000000000000000e+02,-5.672252347086268603e-02,0.000000000000000000e+00
7.410000000000000000e+02,-5.214371330900251511e-01,0.000000000000000000e+00
7.420000000000000000e+02,-1.001026640154525638e-01,0.000000000000000000e+00
7.430000000000000000e+02,-2.528384151581976047e-01,0.000000000000000000e+00
7.440000000000000000e+02,4.376636703417544766e-02,0.000000000000000000e+00
7.450000000000000000e+02,-7.975772777758464993e-02,0.000000000000000000e+00
7.460000000000000000e+02,2.822923062840367869e-01,0.000000000000000000e+00
7.470000000000000000e+02,9.425895872072839396e-03,0.000000000000000000e+00
7.480000000000000000e+02,5.849449052392701187e-01,0.000000000000000000e+00
7.490000000000000000e+02,5.350807407085602652e-01,0.000000000000000000e+00
7.500000000000000000e+02,8.516648005123265142e-01,0.000000000000000000e+00
7.510000000000000000e+02,1.037546478969271657e+00,0.000000000000000000e+00
7.520000000000000000e+02,1.342720531664301609e+00,0.000000000000000000e+00
7.530000000000000000e+02,1.072521913711236952e+00,0.000000000000000000e+00
7.540000000000000000e+02,4.060924582192756982e-01,0.000000000000000000e+00
7.550000000000000000e+02,-4.062198297878052422e-01,0.000000000000000000e+00
7.560000000000000000e+02,-7.561280715167875144e-01,0.000000000000000000e+00
7.570000000000000000e+02,-1.112936196161312452e+00,0.000000000000000000e+00
7.580000000000000000e+02,-8.114707462022745510e-01,0.000000000000000000e+00
7.590000000000000000e+02,-1.083264391121028458e+00,0.000000000000000000e+00
7.600000000000000000e+02,-7.913338976538981662e-01,0.000000000000000000e+00
7.610000000000000000e+02,-7.545848133187075257e-01,0.000000000000000000e+00
7.620000000000000000e+02,-6.847235303620621272e-01,0.000000000000000000e+00
7.630000000000000000e+02,-6.701404613185838466e-01,0.000000000000000000e+00
7.640000000000000000e+02,-3.519006606712808405e-01,0.000000000000000000e+00
7.650000000000000000e+02,-3.846855585163995173e-01,0.000000000000000000e+00
7.660000000000000000e+02,-2.796500116937813973e-01,0.000000000000000000e+00
7.670000000000000000e+02,-3.566316732001228451e-01,0.000000000000000000e+00
7.680000000000000000e+02,-1.548533463326189907e-01,0.000000000000000000e+00
7.690000000000000000e+02,-2.845982649625526939e-01,0.000000000000000000e+00
7.700000000000000000e+02,-1.583377886153369274e-01,0.000000000000000000e+00
7.710000000000000000e+02,-3.824239818708978222e-01,0.000000000000000000e+00
7.720000000000000000e+02,1.045717807131969490e-01,0.000000000000000000e+00
7.730000000000000000e+02,-3.619877315004963458e-01,0.000000000000000000e+00
7.740000000000000000e+02,7.612831099526516654e-02,0.000000000000000000e+00
7.750000000000000000e+02,-1.787863019396100372e-01,0.000000000000000000e+00
7.760000000000000000e+02,7.936438542405334362e-02,0.000000000000000000e+00
7.770000000000000000e+02,-2.486136337393645562e-02,0.000000000000000000e+00
7.780000000000000000e+02,9.547661923471426060e-02,0.000000000000000000e+00
7.790000000000000000e+02,-5.222452425369621815e-02,0.000000000000000000e+00
7.800000000000000000e+02,2.568544023204431537e-01,0.000000000000000000e+00
7.810000000000000000e+02,1.526602907641645968e-01,0.000000000000000000e+00
7.820000000000000000e+02,4.401106099669459537e-01,0.000000000000000000e+00
7.830000000000000000e+02,4.928336495689479291e-01,0.000000000000000000e+00
7.840000000000000000e+02,7.244709257909413003e-01,0.000000000000000000e+00
7.850000000000000000e+02,4.460204482497943657e-01,0.000000000000000000e+00
7.860000000000000000e+02,2.284974692569119725e-01,0.000000000000000000e+00
7.870000000000000000e+02,-3.049998121855048150e-01,0.000000000000000000e+00
7.880000000000000000e+02,1.040400577741118493e-01,0.000000000000000000e+00
7.890000000000000000e+02,-5.224827976550713293e-01,0.000000000000000000e+00
7.900000000000000000e+02,1.725950813127297978e-01,0.000000000000000000e+00
7.910000000000000000e+02,-3.794914039284577045e-01,0.000000000000000000e+00
7.920000000000000000e+02,3.708022613227226483e-01,0.000000000000000000e+00
7.930000000000000000e+02,-3.543008541359611852e-01,0.000000000000000000e+00
7.940000000000000000e+02,5.540610447022515928e+00,0.000000000000000000e+00
7.950000000000000000e+02,2.170070155481988117e+00,1.000000000000000000e+00
7.960000000000000000e+02,-2.297578088489812931e+00,0.000000000000000000e+00
7.970000000000000000e+02,-4.048190183796721575e-01,0.000000000000000000e+00
7.980000000000000000e+02,-8.795050166743731968e-01,0.000000000000000000e+00
7.990000000000000000e+02,-4.457082723200407881e-01,0.000000000000000000e+00
8.000000000000000000e+02,-6.293684770605894041e-01,0.000000000000000000e+00
8.010000000000000000e+02,-2.302786403173364138e-01,0.000000000000000000e+00
8.020000000000000000e+02,-3.326470356383901539e-01,0.000000000000000000e+00
8.030000000000000000e+02,-1.234952330627970690e-01,0.000000000000000000e+00
8.040000000000000000e+02,-3.258143841243824612e-01,0.000000000000000000e+00
8.050000000000000000e+02,9.313007126075976971e-02,0.000000000000000000e+00
8.060000000000000000e+02,1.734395764800533007e-02,0.000000000000000000e+00
8.070000000000000000e+02,4.618136091493861839e-01,0.000000000000000000e+00
8.080000000000000000e+02,3.591509995177772363e-01,0.000000000000000000e+00
8.090000000000000000e+02,6.593947303589863251e-01,0.000000000000000000e+00
8.100000000000000000e+02,8.910358385525676272e-01,0.000000000000000000e+00
8.110000000000000000e+02,1.212652356298485223e+00,0.000000000000000000e+00
8.120000000000000000e+02,1.215109701114813756e+00,0.000000000000000000e+00
8.130000000000000000e+02,4.658279913331412336e-01,0.000000000000000000e+00
8.140000000000000000e+02,-3.059231217487192178e-01,0.000000000000000000e+00
8.150000000000000000e+02,-9.452878785777216741e-01,0.000000000000000000e+00
8.160000000000000000e+02,-9.875203248046812154e-01,0.000000000000000000e+00
8.170000000000000000e+02,-1.065446188071209832e+00,0.000000000000000000e+00
8.180000000000000000e+02,-9.231855179057659733e-01,0.000000000000000000e+00
8.190000000000000000e+02,-8.257750245874126982e-01,0.000000000000000000e+00
8.200000000000000000e+02,-7.492925064730218132e-01,0.000000000000000000e+00
8.210000000000000000e+02,-7.872915408044298680e-01,0.000000000000000000e+00
8.220000000000000000e+02,-6.604940663251563926e-01,0.000000000000000000e+00
8.230000000000000000e+02,-5.783572389622083643e-01,0.000000000000000000e+00
8.240000000000000000e+02,-3.817067880040414529e-01,0.000000000000000000e+00
8.250000000000000000e+02,-2.938894626175977409e-01,0.000000000000000000e+00
8.260000000000000000e+02,-3.994773691768747081e-01,0.000000000000000000e+00
8.270000000000000000e+02,-1.867941216531062432e-01,0.000000000000000000e+00
8.280000000000000000e+02,-4.558791825647471874e-01,0.000000000000000000e+00
8.290000000000000000e+02,-1.690549654502629395e-01,0.000000000000000000e+00
8.300000000000000000e+02,-4.761686062537245911e-02,0.000000000000000000e+00
8.310000000000000000e+02,-3.047788346667097414e-01,0.000000000000000000e+00
8.320000000000000000e+02,-1.346391641496694214e-01,0.000000000000000000e+00
8.330000000000000000e+02,-9.232324318554885334e-02,0.000000000000000000e+00
8.340000000000000000e+02,-4.084634773241069272e-02,0.000000000000000000e+00
8.350000000000000000e+02,7.616174279690079985e-02,0.000000000000000000e+00
8.360000000000000000e+02,3.503324307281720923e-02,0.000000000000000000e+00
8.370000000000000000e+02,8.461556895899695341e-02,0.000000000000000000e+00
8.380000000000000000e+02,-3.083528045158404410e-02,0.000000000000000000e+00
8.390000000000000000e+02,1.654499646452869122e-01,0.000000000000000000e+00
8.400000000000000000e+02,4.695308046510086042e-01,0.000000000000000000e+00
8.410000000000000000e+02,4.945682256636513285e-01,0.000000000000000000e+00
8.420000000000000000e+02,7.157348159456009551e-01,0.000000000000000000e+00
8.430000000000000000e+02,6.139538535566267941e-01,0.000000000000000000e+00
8.440000000000000000e+02,3.044162615653654425e-01,0.000000000000000000e+00
8.450000000000000000e+02,-5.493576135475625177e-02,0.000000000000000000e+00
8.460000000000000000e+02,3.269754187721341659e-02,0.000000000000000000e+00
8.470000000000000000e+02,-2.192900467239897733e-01,0.000000000000000000e+00
8.480000000000000000e+02,5.082476538104748615e-02,0.000000000000000000e+00
8.490000000000000000e+02,-2.889893447565655138e-01,0.000000000000000000e+00
8.500000000000000000e+02,1.461320357865164565e-01,0.000000000000000000e+00
8.510000000000000000e+02,-4.357062614926867639e-01,0.000000000000000000e+00
8.520000000000000000e+02,2.046086158588788617e+00,0.000000000000000000e+00
8.530000000000000000e+02,5.832781213950227084e+00,0.000000000000000000e+00
8.540000000000000000e+02,-1.294507586624009221e+00,1.000000000000000000e+00
8.550000000000000000e+02,-1.242059487582737098e+00,0.000000000000000000e+00
8.560000000000000000e+02,-6.810335885503783215e-01,0.000000000000000000e+00
8.570000000000000000e+02,-4.516030111137898650e-01,0.000000000000000000e+00
8.580000000000000000e+02,-5.546430822385711723e-01,0.000000000000000000e+00
8.590000000000000000e+02,-3.126807651398247900e-01,0.000000000000000000e+00
8.600000000000000000e+02,-1.916031774963073420e-01,0.000000000000000000e+00
8.610000000000000000e+02,-2.867272650691921054e-01,0.000000000000000000e+00
8.620000000000000000e+02,-1.577540359948297055e-01,0.000000000000000000e+00
8.630000000000000000e+02,-1.507053924267047762e-01,0.000000000000000000e+00
8.640000000000000000e+02,1.289954843879854984e-01,0.000000000000000000e+00
8.650000000000000000e+02,1.024728815446091651e-01,0.000000000000000000e+00
8.660000000000000000e+02,4.414859788808745966e-01,0.000000000000000000e+00
8.670000000000000000e+02,5.938289317375052834e-01,0.000000000000000000e+00
8.680000000000000000e+02,7.988392962566093214e-01,0.000000000000000000e+00
8.690000000000000000e+02,1.071904701982841601e+00,0.000000000000000000e+00
8.700000000000000000e+02,1.334117873752175054e+00,0.000000000000000000e+00
8.710000000000000000e+02,8.202801254195366543e-01,0.000000000000000000e+00
8.720000000000000000e+02,4.966671208197762089e-02,0.000000000000000000e+00
8.730000000000000000e+02,-6.823008146628549708e-01,0.000000000000000000e+00
8.740000000000000000e+02,-1.082509081319952715e+00,0.000000000000000000e+00
8.750000000000000000e+02,-1.124914979777526858e+00,0.000000000000000000e+00
8.760000000000000000e+02,-1.075377068728397445e+00,0.000000000000000000e+00
8.770000000000000000e+02,-9.682142456745488346e-01,0.000000000000000000e+00
8.780000000000000000e+02,-8.665137008819210340e-01,0.000000000000000000e+00
8.790000000000000000e+02,-9.191893549614360559e-01,0.000000000000000000e+00
8.800000000000000000e+02,-6.477081210215847040e-01,0.000000000000000000e+00
8.810000000000000000e+02,-6.498820487540063473e-01,0.000000000000000000e+00
8.820000000000000000e+02,-3.973190890854737534e-01,0.000000000000000000e+00
8.830000000000000000e+02,-4.502156495915364265e-01,0.000000000000000000e+00
8.840000000000000000e+02,-2.607608726348795702e-01,0.000000000000000000e+00
8.850000000000000000e+02,-4.570361065714161342e-01,0.000000000000000000e+00
8.860000000000000000e+02,-1.751606507138127877e-01,0.000000000000000000e+00
8.870000000000000000e+02,-3.320738151991086684e-01,0.000000000000000000e+00
8.880000000000000000e+02,-9.507771781836424352e-02,0.000000000000000000e+00
8.890000000000000000e+02,-3.926755488309481290e-01,0.000000000000000000e+00
8.900000000000000000e+02,-5.957660250716938916e-02,0.000000000000000000e+00
8.910000000000000000e+02,-1.291189070428941099e-01,0.000000000000000000e+00
8.920000000000000000e+02,-3.142203524499544154e-02,0.000000000000000000e+00
8.930000000000000000e+02,2.059224186949423080e-02,0.000000000000000000e+00
8.940000000000000000e+02,2.942118909897794773e-02,0.000000000000000000e+00
8.950000000000000000e+02,-1.188462374979150880e-02,0.000000000000000000e+00
8.960000000000000000e+02,1.252239112935501775e-01,0.000000000000000000e+00
8.970000000000000000e+02,1.310186364076053045e-01,0.000000000000000000e+00
8.980000000000000000e+02,5.449433124361970915e-01,0.000000000000000000e+00
8.990000000000000000e+02,5.122445764928638123e-01,0.000000000000000000e+00
9.000000000000000000e+02,5.670805043058054773e-01,0.000000000000000000e+00
9.010000000000000000e+02,4.184306711450244687e-01,0.000000000000000000e+00
9.020000000000000000e+02,5.381536538027805738e-01,0.000000000000000000e+00
9.030000000000000000e+02,-1.797687937052377116e-01,0.000000000000000000e+00
9.040000000000000000e+02,1.547619203600134052e-01,0.000000000000000000e+00
9.050000000000000000e+02,-2.344534784438507546e-01,0.000000000000000000e+00
9.060000000000000000e+02,1.063222706347666108e-01,0.000000000000000000e+00
9.070000000000000000e+02,-1.561504464839578998e-01,0.000000000000000000e+00
9.080000000000000000e+02,4.521550099400080125e-01,0.000000000000000000e+00
9.090000000000000000e+02,-2.696725660079651310e-01,0.000000000000000000e+00
9.100000000000000000e+02,4.542207558169451431e+00,0.000000000000000000e+00
9.110000000000000000e+02,1.754431778294714084e+00,1.000000000000000000e+00
9.120000000000000000e+02,-2.565734519495628696e+00,0.000000000000000000e+00
9.130000000000000000e+02,-1.441592647740161555e-02,0.000000000000000000e+00
9.140000000000000000e+02,-5.285611128077717380e-01,0.000000000000000000e+00
9.150000000000000000e+02,-1.017581320017110491e-01,0.000000000000000000e+00
9.160000000000000000e+02,-2.319774928357246357e-01,0.000000000000000000e+00
9.170000000000000000e+02,7.104300107657972319e-02,0.000000000000000000e+00
9.180000000000000000e+02,-1.728541809357118375e-01,0.000000000000000000e+00
9.190000000000000000e+02,1.100715157871497429e-01,0.000000000000000000e+00
9.200000000000000000e+02,-5.002028986791027393e-02,0.000000000000000000e+00
9.210000000000000000e+02,3.724584215371479767e-01,0.000000000000000000e+00
9.220000000000000000e+02,1.861981596463209709e-01,0.000000000000000000e+00
9.230000000000000000e+02,4.325539636012986633e-01,0.000000000000000000e+00
9.240000000000000000e+02,4.886509783202946378e-01,0.000000000000000000e+00
9.250000000000000000e+02,8.946800444071785208e-01,0.000000000000000000e+00
9.260000000000000000e+02,9.819856383650396037e-01,0.000000000000000000e+00
9.270000000000000000e+02,1.405263161149788109e+00,0.000000000000000000e+00
9.280000000000000000e+02,9.327982548883442249e-01,0.000000000000000000e+00
9.290000000000000000e+02,4.797616800678554672e-01,0.000000000000000000e+00
9.300000000000000000e+02,-3.729519022254643712e-01,0.000000000000000000e+00
9.310000000000000000e+02,-9.146981303124067653e-01,0.000000000000000000e+00
9.320000000000000000e+02,-1.111091631680780623e+00,0.000000000000000000e+00
9.330000000000000000e+02,-8.816227672992920095e-01,0.000000000000000000e+00
9.340000000000000000e+02,-9.209458627774922412e-01,0.000000000000000000e+00
9.350000000000000000e+02,-9.309081265766606661e-01,0.000000000000000000e+00
9.360000000000000000e+02,-8.555391620659931196e-01,0.000000000000000000e+00
9.370000000000000000e+02,-7.567846659453904001e-01,0.000000000000000000e+00
9.380000000000000000e+02,-4.690418282757873314e-01,0.000000000000000000e+00
9.390000000000000000e+02,-6.070939337358419730e-01,0.000000000000000000e+00
9.400000000000000000e+02,-3.738093747828427627e-01,0.000000000000000000e+00
9.410000000000000000e+02,-4.783458821640665937e-01,0.000000000000000000e+00
9.420000000000000000e+02,-1.155172336469750399e-01,0.000000000000000000e+00
9.430000000000000000e+02,-4.703225868163891654e-01,0.000000000000000000e+00
9.440000000000000000e+02,-1.999452317134652046e-01,0.000000000000000000e+00
9.450000000000000000e+02,-2.346717899234276317e-01,0.000000000000000000e+00
9.460000000000000000e+02,-2.612593782808748655e-01,0.000000000000000000e+00
9.470000000000000000e+02,-1.343411679503961620e-01,0.000000000000000000e+00
9.480000000000000000e+02,-2.006941330376165178e-01,0.000000000000000000e+00
9.490000000000000000e+02,-2.132626807308258404e-02,0.000000000000000000e+00
9.500000000000000000e+02,-8.772641733791937402e-02,0.000000000000000000e+00
9.510000000000000000e+02,-1.365850922423196001e-01,0.000000000000000000e+00
9.520000000000000000e+02,-3.776437583461235425e-02,0.000000000000000000e+00
9.530000000000000000e+02,8.606072640157327869e-02,0.000000000000000000e+00
9.540000000000000000e+02,3.489050382023293345e-02,0.000000000000000000e+00
9.550000000000000000e+02,1.713880702769315645e-01,0.000000000000000000e+00
9.560000000000000000e+02,5.089552892270357010e-01,0.000000000000000000e+00
9.570000000000000000e+02,3.588776221969711688e-01,0.000000000000000000e+00
9.580000000000000000e+02,5.245450906886819364e-01,0.000000000000000000e+00
9.590000000000000000e+02,3.759131708490788260e-01,0.000000000000000000e+00
9.600000000000000000e+02,-8.917142234374439425e-02,0.000000000000000000e+00
9.610000000000000000e+02,-5.445961293146253830e-03,0.000000000000000000e+00
9.620000000000000000e+02,-1.716159483611722214e-01,0.000000000000000000e+00
9.630000000000000000e+02,-1.744193684577102776e-01,0.000000000000000000e+00
9.640000000000000000e+02,5.777756141026697129e-02,0.000000000000000000e+00
9.650000000000000000e+02,7.592530026653254716e-02,0.000000000000000000e+00
9.660000000000000000e+02,-2.777763478496454996e-01,0.000000000000000000e+00
9.670000000000000000e+02,1.700354704759531321e+00,0.000000000000000000e+00
9.680000000000000000e+02,4.958970845846707221e+00,0.000000000000000000e+00
9.690000000000000000e+02,-1.419417520281398781e+00,1.000000000000000000e+00
9.700000000000000000e+02,-1.190400511554418506e+00,0.000000000000000000e+00
9.710000000000000000e+02,-3.289305231374470284e-01,0.000000000000000000e+00
9.720000000000000000e+02,-4.358521365814337911e-01,0.000000000000000000e+00
9.730000000000000000e+02,-3.793656632094258296e-01,0.000000000000000000e+00
9.740000000000000000e+02,-2.787980527137922659e-01,0.000000000000000000e+00
9.750000000000000000e+02,-1.273077868401616131e-01,0.000000000000000000e+00
9.760000000000000000e+02,-8.605944552287926597e-02,0.000000000000000000e+00
9.770000000000000000e+02,-9.547631659638330937e-02,0.000000000000000000e+00
9.780000000000000000e+02,1.724931981774688872e-01,0.000000000000000000e+00
9.790000000000000000e+02,-1.132862836845435484e-01,0.000000000000000000e+00
9.800000000000000000e+02,4.159381202781344822e-01,0.000000000000000000e+00
9.810000000000000000e+02,3.417280839802323000e-01,0.000000000000000000e+00
9.820000000000000000e+02,6.379346764869234798e-01,0.000000000000000000e+00
9.830000000000000000e+02,8.738466825325431619e-01,0.000000000000000000e+00
9.840000000000000000e+02,1.125393429057919725e+00,0.000000000000000000e+00
9.850000000000000000e+02,1.259448090689944566e+00,0.000000000000000000e+00
9.860000000000000000e+02,7.007424256908301174e-01,0.000000000000000000e+00
9.870000000000000000e+02,1.461883638390349127e-01,0.000000000000000000e+00
9.880000000000000000e+02,-5.998647417128232240e-01,0.000000000000000000e+00
9.890000000000000000e+02,-9.012021428576181270e-01,0.000000000000000000e+00
9.900000000000000000e+02,-1.010135150576101370e+00,0.000000000000000000e+00
9.910000000000000000e+02,-1.016663350561592738e+00,0.000000000000000000e+00
9.920000000000000000e+02,-9.266689498948118553e-01,0.000000000000000000e+00
9.930000000000000000e+02,-7.338985262989508040e-01,0.000000000000000000e+00
9.940000000000000000e+02,-7.452203200505863601e-01,0.000000000000000000e+00
9.950000000000000000e+02,-6.690162597001259037e-01,0.000000000000000000e+00
9.960000000000000000e+02,-4.443381915571232299e-01,0.000000000000000000e+00
9.970000000000000000e+02,-5.443085919936876405e-01,0.000000000000000000e+00
9.980000000000000000e+02,-1.549945546044501909e-01,0.000000000000000000e+00
9.990000000000000000e+02,-3.336882614028089389e-01,0.000000000000000000e+00
1.000000000000000000e+03,-2.014750517439023725e-01,0.000000000000000000e+00
1.001000000000000000e+03,-4.811488367550815770e-01,0.000000000000000000e+00
1.002000000000000000e+03,-3.409324891488166309e-02,0.000000000000000000e+00
1.003000000000000000e+03,-2.637880759327428937e-01,0.000000000000000000e+00
1.004000000000000000e+03,-3.708493612926268279e-02,0.000000000000000000e+00
1.005000000000000000e+03,-1.328695637153487208e-01,0.000000000000000000e+00
1.006000000000000000e+03,-3.623298870652390952e-02,0.000000000000000000e+00
1.007000000000000000e+03,-1.429596916995384270e-01,0.000000000000000000e+00
1.008000000000000000e+03,-6.476681634104312218e-03,0.000000000000000000e+00
1.009000000000000000e+03,-9.109546013304303455e-03,0.000000000000000000e+00
1.010000000000000000e+03,1.287031828190340621e-01,0.000000000000000000e+00
1.011000000000000000e+03,1.305103882221668801e-02,0.000000000000000000e+00
1.012000000000000000e+03,9.787144438313433170e-02,0.000000000000000000e+00
1.013000000000000000e+03,1.294580371625725645e-01,0.000000000000000000e+00
1.014000000000000000e+03,5.262380894915655860e-01,0.000000000000000000e+00
1.015000000000000000e+03,5.411521046539347068e-01,0.000000000000000000e+00
1.016000000000000000e+03,6.042548411711259337e-01,0.000000000000000000e+00
1.017000000000000000e+03,5.846133674779985245e-01,0.000000000000000000e+00
1.018000000000000000e+03,2.110685940922459591e-01,0.000000000000000000e+00
1.019000000000000000e+03,-1.300109168540667659e-01,0.000000000000000000e+00
1.020000000000000000e+03,-3.701866755455196500e-02,0.000000000000000000e+00
1.021000000000000000e+03,-2.863246507937906582e-01,0.000000000000000000e+00
1.022000000000000000e+03,-1.861608466451134675e-02,0.000000000000000000e+00
1.023000000000000000e+03,-2.944632599886572444e-01,0.000000000000000000e+00
1.024000000000000000e+03,4.076229670915089143e-01,0.000000000000000000e+00
1.025000000000000000e+03,-4.393705814181306235e-01,0.000000000000000000e+00
1.026000000000000000e+03,4.829820071907970025e+00,0.000000000000000000e+00
1.027000000000000000e+03,2.754517287271759596e+00,1.000000000000000000e+00
1.028000000000000000e+03,-2.492442424297210746e+00,0.000000000000000000e+00
1.029000000000000000e+03,-2.227917061396726128e-01,0.000000000000000000e+00
1.030000000000000000e+03,-9.551488268387831049e-01,0.000000000000000000e+00
1.031000000000000000e+03,-3.151078625122070709e-01,0.000000000000000000e+00
1.032000000000000000e+03,-8.387678131472703358e-01,0.000000000000000000e+00
1.033000000000000000e+03,-1.612884208385949036e-01,0.000000000000000000e+00
1.034000000000000000e+03,-4.852668015529540413e-01,0.000000000000000000e+00
1.035000000000000000e+03,-7.425306833650038331e-04,0.000000000000000000e+00
1.036000000000000000e+03,-3.064077428214658227e-01,0.000000000000000000e+00
1.037000000000000000e+03,8.423546371818123324e-02,0.000000000000000000e+00
1.038000000000000000e+03,-5.825192777160681512e-02,0.000000000000000000e+00
1.039000000000000000e+03,3.023567744454622730e-01,0.000000000000000000e+00
1.040000000000000000e+03,4.033543876219587432e-01,0.000000000000000000e+00
1.041000000000000000e+03,6.041041873724857236e-01,0.000000000000000000e+00
1.042000000000000000e+03,1.095811717615969183e+00,0.000000000000000000e+00
1.043000000000000000e+03,1.154324947439212101e+00,0.000000000000000000e+00
1.044000000000000000e+03,9.171992320637075702e-01,0.000000000000000000e+00
1.045000000000000000e+03,6.786917456622233447e-01,0.000000000000000000e+00
1.046000000000000000e+03,-4.612891195662391919e-01,0.000000000000000000e+00
1.047000000000000000e+03,-5.982313073179473806e-01,0.000000000000000000e+00
1.048000000000000000e+03,-9.638621442036184872e-01,0.000000000000000000e+00
1.049000000000000000e+03,-1.053784585898060344e+00,0.000000000000000000e+00
1.050000000000000000e+03,-9.250162394971317426e-01,0.000000000000000000e+00
1.051000000000000000e+03,-8.552888149598260048e-01,0.000000000000000000e+00
1.052000000000000000e+03,-7.336805841906992587e-01,0.000000000000000000e+00
1.053000000000000000e+03,-6.878948565104933133e-01,0.000000000000000000e+00
1.054000000000000000e+03,-6.163126780618960465e-01,0.000000000000000000e+00
1.055000000000000000e+03,-3.515858056101321405e-01,0.000000000000000000e+00
1.056000000000000000e+03,-3.982296330493595993e-01,0.000000000000000000e+00
1.057000000000000000e+03,-3.377386466021979894e-01,0.000000000000000000e+00
1.058000000000000000e+03,-3.153112722188231021e-01,0.000000000000000000e+00
1.059000000000000000e+03,-2.111382941678890401e-01,0.000000000000000000e+00
1.060000000000000000e+03,-2.750259139723105206e-01,0.000000000000000000e+00
1.061000000000000000e+03,-1.710363825250793279e-01,0.000000000000000000e+00
1.062000000000000000e+03,-8.462591565767947632e-02,0.000000000000000000e+00
1.063000000000000000e+03,-1.395450017532227360e-01,0.000000000000000000e+00
1.064000000000000000e+03,-2.728856233686588126e-02,0.000000000000000000e+00
1.065000000000000000e+03,-4.963795601458628054e-02,0.000000000000000000e+00
1.066000000000000000e+03,-7.433132675455813958e-03,0.000000000000000000e+00
1.067000000000000000e+03,1.279077223077031977e-01,0.000000000000000000e+00
1.068000000000000000e+03,3.896350025876315487e-02,0.000000000000000000e+00
1.069000000000000000e+03,1.376632466504229546e-01,0.000000000000000000e+00
1.070000000000000000e+03,-5.549094888011184973e-02,0.000000000000000000e+00
1.071000000000000000e+03,2.774748546474513078e-01,0.000000000000000000e+00
1.072000000000000000e+03,1.049851997683897697e-01,0.000000000000000000e+00
1.073000000000000000e+03,5.469054426720700857e-01,0.000000000000000000e+00
1.074000000000000000e+03,4.185370418202415954e-01,0.000000000000000000e+00
1.075000000000000000e+03,9.103331874374683830e-01,0.000000000000000000e+00
1.076000000000000000e+03,3.763266237218581556e-01,0.000000000000000000e+00
1.077000000000000000e+03,4.605335903541150633e-01,0.000000000000000000e+00
1.078000000000000000e+03,-3.088759397734287537e-01,0.000000000000000000e+00
1.079000000000000000e+03,5.706936538035128903e-02,0.000000000000000000e+00
1.080000000000000000e+03,-2.364037080375839261e-01,0.000000000000000000e+00
1.081000000000000000e+03,5.205172640673330631e-02,0.000000000000000000e+00
1.082000000000000000e+03,-3.384004423767742464e-01,0.000000000000000000e+00
1.083000000000000000e+03,4.812135460443193180e-01,0.000000000000000000e+00
1.084000000000000000e+03,-5.547961300170525245e-01,0.000000000000000000e+00
1.085000000000000000e+03,4.304723587916599925e+00,0.000000000000000000e+00
1.086000000000000000e+03,3.890552749546911659e+00,0.000000000000000000e+00
1.087000000000000000e+03,-2.438659077929715480e+00,1.000000000000000000e+00
1.088000000000000000e+03,-4.542075446044416265e-01,0.000000000000000000e+00
1.089000000000000000e+03,-9.088987401235485430e-01,0.000000000000000000e+00
1.090000000000000000e+03,-4.547629026774684391e-01,0.000000000000000000e+00
1.091000000000000000e+03,-5.334025774968017553e-01,0.000000000000000000e+00
1.092000000000000000e+03,-4.296391746246215337e-01,0.000000000000000000e+00
1.093000000000000000e+03,-3.272596260339396546e-01,0.000000000000000000e+00
1.094000000000000000e+03,-2.411925258161982943e-01,0.000000000000000000e+00
1.095000000000000000e+03,-2.800361189212405288e-01,0.000000000000000000e+00
1.096000000000000000e+03,-3.158260196697838113e-03,0.000000000000000000e+00
1.097000000000000000e+03,8.700051670815116267e-02,0.000000000000000000e+00
1.098000000000000000e+03,2.617487161963784059e-01,0.000000000000000000e+00
1.099000000000000000e+03,2.878500874330784942e-01,0.000000000000000000e+00
1.100000000000000000e+03,5.255756622601353012e-01,0.000000000000000000e+00
1.101000000000000000e+03,9.390618530387704332e-01,0.000000000000000000e+00
1.102000000000000000e+03,1.222127431679712162e+00,0.000000000000000000e+00
1.103000000000000000e+03,1.194803820804919203e+00,0.000000000000000000e+00
1.104000000000000000e+03,6.829756210126588511e-01,0.000000000000000000e+00
1.105000000000000000e+03,-3.443582161148365794e-01,0.000000000000000000e+00
1.106000000000000000e+03,-5.768015599064176824e-01,0.000000000000000000e+00
1.107000000000000000e+03,-9.754979597684912962e-01,0.000000000000000000e+00
1.108000000000000000e+03,-1.002032049658124091e+00,0.000000000000000000e+00
1.109000000000000000e+03,-9.977707408364915320e-01,0.000000000000000000e+00
1.110000000000000000e+03,-9.351018790991405538e-01,0.000000000000000000e+00
1.111000000000000000e+03,-7.267389754357144183e-01,0.000000000000000000e+00
1.112000000000000000e+03,-6.321968812216204325e-01,0.000000000000000000e+00
1.113000000000000000e+03,-8.187048837791810474e-01,0.000000000000000000e+00
1.114000000000000000e+03,-2.900419969142004617e-01,0.000000000000000000e+00
1.115000000000000000e+03,-4.007654595781561802e-01,0.000000000000000000e+00
1.116000000000000000e+03,-4.156338879130988540e-01,0.000000000000000000e+00
1.117000000000000000e+03,-4.336870213785204986e-01,0.000000000000000000e+00
1.118000000000000000e+03,-1.003210719832150627e-01,0.000000000000000000e+00
1.119000000000000000e+03,-3.308609107698214924e-01,0.000000000000000000e+00
1.120000000000000000e+03,-3.006311988794840850e-01,0.000000000000000000e+00
1.121000000000000000e+03,-2.205716347784645870e-01,0.000000000000000000e+00
1.122000000000000000e+03,-2.569119487920133449e-01,0.000000000000000000e+00
1.123000000000000000e+03,-3.685094636477489333e-02,0.000000000000000000e+00
1.124000000000000000e+03,-3.168878949582735194e-01,0.000000000000000000e+00
1.125000000000000000e+03,3.452496192416109472e-02,0.000000000000000000e+00
1.126000000000000000e+03,-2.015059670252572488e-02,0.000000000000000000e+00
1.127000000000000000e+03,-8.849596759949866775e-02,0.000000000000000000e+00
1.128000000000000000e+03,4.398752038564523320e-02,0.000000000000000000e+00
1.129000000000000000e+03,5.684312347917138547e-02,0.000000000000000000e+00
1.130000000000000000e+03,7.299079163612487431e-02,0.000000000000000000e+00
1.131000000000000000e+03,1.410038257160701747e-01,0.000000000000000000e+00
1.132000000000000000e+03,2.362867220448912342e-01,0.000000000000000000e+00
1.133000000000000000e+03,3.068619083562640348e-01,0.000000000000000000e+00
1.134000000000000000e+03,5.833337299795910980e-01,0.000000000000000000e+00
1.135000000000000000e+03,4.954246363862863656e-01,0.000000000000000000e+00
1.136000000000000000e+03,7.770979669588079508e-01,0.000000000000000000e+00
1.137000000000000000e+03,2.527447216759836635e-01,0.000000000000000000e+00
1.138000000000000000e+03,1.906624543073228706e-01,0.000000000000000000e+00
1.139000000000000000e+03,-1.957111140063541865e-01,0.000000000000000000e+00
1.140000000000000000e+03,-2.710384561141135351e-02,0.000000000000000000e+00
1.141000000000000000e+03,-2.464124500877202528e-01,0.000000000000000000e+00
1.142000000000000000e+03,-1.111651328697672303e-01,0.000000000000000000e+00
1.143000000000000000e+03,9.461108112552889943e-03,0.000000000000000000e+00
1.144000000000000000e+03,5.870943608471828473e-02,0.000000000000000000e+00
1.145000000000000000e+03,6.404938438136918988e-01,0.000000000000000000e+00
1.146000000000000000e+03,6.195841012789121471e+00,0.000000000000000000e+00
1.147000000000000000e+03,3.963094981978394771e-02,1.000000000000000000e+00
1.148000000000000000e+03,-1.947339061798974980e+00,0.000000000000000000e+00
1.149000000000000000e+03,-3.185102942227369116e-01,0.000000000000000000e+00
1.150000000000000000e+03,-9.519918590729697927e-01,0.000000000000000000e+00
1.151000000000000000e+03,-5.007209960182686936e-01,0.000000000000000000e+00
1.152000000000000000e+03,-4.084791160564755774e-01,0.000000000000000000e+00
1.153000000000000000e+03,-3.728706560865570618e-01,0.000000000000000000e+00
1.154000000000000000e+03,-1.970209056018066840e-01,0.000000000000000000e+00
1.155000000000000000e+03,-1.402040312795379273e-01,0.000000000000000000e+00
1.156000000000000000e+03,-4.407733355690883481e-02,0.000000000000000000e+00
1.157000000000000000e+03,-4.029641925124965995e-02,0.000000000000000000e+00
1.158000000000000000e+03,1.578695346420076751e-01,0.000000000000000000e+00
1.159000000000000000e+03,1.683707753758946768e-01,0.000000000000000000e+00
1.160000000000000000e+03,4.212758195198461619e-01,0.000000000000000000e+00
1.161000000000000000e+03,8.268954616976234018e-01,0.000000000000000000e+00
1.162000000000000000e+03,9.370009229142283180e-01,0.000000000000000000e+00
1.163000000000000000e+03,1.194613405860776689e+00,0.000000000000000000e+00
1.164000000000000000e+03,1.062612883031289090e+00,0.000000000000000000e+00
1.165000000000000000e+03,3.115849006705250779e-01,0.000000000000000000e+00
1.166000000000000000e+03,-4.827724949097363383e-01,0.000000000000000000e+00
1.167000000000000000e+03,-7.755648388529742254e-01,0.000000000000000000e+00
1.168000000000000000e+03,-1.071271639669006737e+00,0.000000000000000000e+00
1.169000000000000000e+03,-1.074580026185929293e+00,0.000000000000000000e+00
1.170000000000000000e+03,-9.128619762810101790e-01,0.000000000000000000e+00
1.171000000000000000e+03,-8.893409474031201967e-01,0.000000000000000000e+00
1.172000000000000000e+03,-7.962899866498578394e-01,0.000000000000000000e+00
1.173000000000000000e+03,-5.212722057401695253e-01,0.000000000000000000e+00
1.174000000000000000e+03,-5.173317521116916895e-01,0.000000000000000000e+00
1.175000000000000000e+03,-5.047436389278564528e-01,0.000000000000000000e+00
1.176000000000000000e+03,-4.186098284651169066e-01,0.000000000000000000e+00
1.177000000000000000e+03,-4.080407547238769361e-02,0.000000000000000000e+00
1.178000000000000000e+03,-5.036251538411643525e-01,0.000000000000000000e+00
1.179000000000000000e+03,-1.626893594698052559e-01,0.000000000000000000e+00
1.180000000000000000e+03,-1.433434699868349482e-01,0.000000000000000000e+00
1.181000000000000000e+03,-1.013128745001767583e-01,0.000000000000000000e+00
1.182000000000000000e+03,-2.385139334379202669e-01,0.000000000000000000e+00
1.183000000000000000e+03,-1.514436283983496556e-01,0.000000000000000000e+00
1.184000000000000000e+03,-6.735316799540273791e-02,0.000000000000000000e+00
1.185000000000000000e+03,-5.567925644816768688e-02,0.000000000000000000e+00
1.186000000000000000e+03,1.188437703088408154e-02,0.000000000000000000e+00
1.187000000000000000e+03,1.354028944746511753e-01,0.000000000000000000e+00
1.188000000000000000e+03,6.738022843241518907e-03,0.000000000000000000e+00
1.189000000000000000e+03,1.680879592987588600e-01,0.000000000000000000e+00
1.190000000000000000e+03,-9.855262006215782800e-02,0.000000000000000000e+00
1.191000000000000000e+03,3.173018812300686387e-01,0.000000000000000000e+00
1.192000000000000000e+03,3.092589503547309160e-02,0.000000000000000000e+00
1.193000000000000000e+03,2.647736879960352896e-01,0.000000000000000000e+00
1.194000000000000000e+03,1.593688416705320299e-01,0.000000000000000000e+00
1.195000000000000000e+03,6.311180766492227034e-01,0.000000000000000000e+00
1.196000000000000000e+03,5.576263925450950509e-01,0.000000000000000000e+00
1.197000000000000000e+03,6.427174071766721397e-01,0.000000000000000000e+00
1.198000000000000000e+03,4.899763771503536924e-01,0.000000000000000000e+00
1.199000000000000000e+03,6.324922223072944327e-02,0.000000000000000000e+00
1.200000000000000000e+03,-2.556252264602846269e-01,0.000000000000000000e+00
1.201000000000000000e+03,-5.723870602257958434e-02,0.000000000000000000e+00
1.202000000000000000e+03,-2.107742540660135222e-01,0.000000000000000000e+00
1.203000000000000000e+03,-2.116152478577167789e-02,0.000000000000000000e+00
1.204000000000000000e+03,-3.639409379827300284e-01,0.000000000000000000e+00
1.205000000000000000e+03,3.150385249839229157e-02,0.000000000000000000e+00
1.206000000000000000e+03,1.951519202784769980e-01,0.000000000000000000e+00
1.207000000000000000e+03,5.810587113575962803e+00,0.000000000000000000e+00
1.208000000000000000e+03,1.060000227391928451e+00,1.000000000000000000e+00
1.209000000000000000e+03,-2.272330174492124488e+00,0.000000000000000000e+00
1.210000000000000000e+03,-5.070699973583082665e-01,0.000000000000000000e+00
1.211000000000000000e+03,-9.594928714757881005e-01,0.000000000000000000e+00
1.212000000000000000e+03,-2.110570827950404571e-01,0.000000000000000000e+00
1.213000000000000000e+03,-9.030990897687790619e-01,0.000000000000000000e+00
1.214000000000000000e+03,-1.550837815107871664e-01,0.000000000000000000e+00
1.215000000000000000e+03,-4.675455604405728272e-01,0.000000000000000000e+00
1.216000000000000000e+03,-1.495012578457408925e-01,0.000000000000000000e+00
1.217000000000000000e+03,-3.158985078842690974e-01,0.000000000000000000e+00
1.218000000000000000e+03,9.978308118479158051e-02,0.000000000000000000e+00
1.219000000000000000e+03,8.922995046574205835e-02,0.000000000000000000e+00
1.220000000000000000e+03,2.395709325953158386e-01,0.000000000000000000e+00
1.221000000000000000e+03,2.821418091141273954e-01,0.000000000000000000e+00
1.222000000000000000e+03,8.942351380580604303e-01,0.000000000000000000e+00
1.223000000000000000e+03,8.168795237437461720e-01,0.000000000000000000e+00
1.224000000000000000e+03,1.299996941673285500e+00,0.000000000000000000e+00
1.225000000000000000e+03,1.010199293985917457e+00,0.000000000000000000e+00
1.226000000000000000e+03,5.703443732525468324e-01,0.000000000000000000e+00
1.227000000000000000e+03,-4.739232203140434918e-01,0.000000000000000000e+00
1.228000000000000000e+03,-7.614080493536135030e-01,0.000000000000000000e+00
1.229000000000000000e+03,-1.076127659006097748e+00,0.000000000000000000e+00
1.230000000000000000e+03,-8.124217962016648809e-01,0.000000000000000000e+00
1.231000000000000000e+03,-1.040563541048148188e+00,0.000000000000000000e+00
1.232000000000000000e+03,-7.473052933023975886e-01,0.000000000000000000e+00
1.233000000000000000e+03,-8.294126447747589559e-01,0.000000000000000000e+00
1.234000000000000000e+03,-6.039238850345971521e-01,0.000000000000000000e+00
1.235000000000000000e+03,-5.979349467697306908e-01,0.000000000000000000e+00
1.236000000000000000e+03,-5.234560058810574512e-01,0.000000000000000000e+00
1.237000000000000000e+03,-4.316668540821911315e-01,0.000000000000000000e+00
1.238000000000000000e+03,-2.622774321771816908e-01,0.000000000000000000e+00
1.239000000000000000e+03,-2.294790515623807980e-01,0.000000000000000000e+00
1.240000000000000000e+03,-1.467248484706807354e-01,0.000000000000000000e+00
1.241000000000000000e+03,-4.067715284915986995e-01,0.000000000000000000e+00
1.242000000000000000e+03,-1.452251672446899511e-01,0.000000000000000000e+00
1.243000000000000000e+03,-7.477649421101155436e-02,0.000000000000000000e+00
1.244000000000000000e+03,-9.463718400385653972e-04,0.000000000000000000e+00
1.245000000000000000e+03,-2.706245199112924382e-01,0.000000000000000000e+00
1.246000000000000000e+03,1.193768332266899324e-01,0.000000000000000000e+00
1.247000000000000000e+03,5.627733897598100055e-02,0.000000000000000000e+00
1.248000000000000000e+03,5.023463672251129997e-02,0.000000000000000000e+00
1.249000000000000000e+03,1.909975592104365960e-01,0.000000000000000000e+00
1.250000000000000000e+03,-2.033590676228341776e-02,0.000000000000000000e+00
1.251000000000000000e+03,2.698329312475045705e-01,0.000000000000000000e+00
1.252000000000000000e+03,6.095966821753571194e-04,0.000000000000000000e+00
1.253000000000000000e+03,3.819465962345425236e-01,0.000000000000000000e+00
1.254000000000000000e+03,4.347723786700130599e-01,0.000000000000000000e+00
1.255000000000000000e+03,6.039166682171616118e-01,0.000000000000000000e+00
1.256000000000000000e+03,5.241369582497105162e-01,0.000000000000000000e+00
1.257000000000000000e+03,7.262972629394475188e-01,0.000000000000000000e+00
1.258000000000000000e+03,4.025160251025237113e-01,0.000000000000000000e+00
1.259000000000000000e+03,1.171455932887566359e-01,0.000000000000000000e+00
1.260000000000000000e+03,-4.386283572939143199e-02,0.000000000000000000e+00
1.261000000000000000e+03,-1.036949940021403560e-01,0.000000000000000000e+00
1.262000000000000000e+03,-3.562942704363064594e-02,0.000000000000000000e+00
1.263000000000000000e+03,-1.292502043426295988e-01,0.000000000000000000e+00
1.264000000000000000e+03,1.008294947190439550e-01,0.000000000000000000e+00
1.265000000000000000e+03,-1.706461989576133487e-01,0.000000000000000000e+00
1.266000000000000000e+03,1.538381519463424274e+00,0.000000000000000000e+00
1.267000000000000000e+03,5.299962675566428416e+00,0.000000000000000000e+00
1.268000000000000000e+03,-1.611376133292001578e+00,1.000000000000000000e+00
1.269000000000000000e+03,-1.417036429441859591e+00,0.000000000000000000e+00
1.270000000000000000e+03,-3.517847530338346629e-01,0.000000000000000000e+00
1.271000000000000000e+03,-2.760777579809277626e-01,0.000000000000000000e+00
1.272000000000000000e+03,-2.524738606434144272e-01,0.000000000000000000e+00
1.273000000000000000e+03,-9.827486143401635565e-02,0.000000000000000000e+00
1.274000000000000000e+03,-1.902725527753227897e-01,0.000000000000000000e+00
1.275000000000000000e+03,1.319180603898141568e-01,0.000000000000000000e+00
1.276000000000000000e+03,-1.354879251458308564e-01,0.000000000000000000e+00
1.277000000000000000e+03,3.053950464303099577e-01,0.000000000000000000e+00
1.278000000000000000e+03,2.011771317454318433e-02,0.000000000000000000e+00
1.279000000000000000e+03,2.851542034044222129e-01,0.000000000000000000e+00
1.280000000000000000e+03,5.910237173708214886e-01,0.000000000000000000e+00
1.281000000000000000e+03,6.139114117885621225e-01,0.000000000000000000e+00
1.282000000000000000e+03,7.608179845171358924e-01,0.000000000000000000e+00
1.283000000000000000e+03,1.124311122515780026e+00,0.000000000000000000e+00
1.284000000000000000e+03,1.185621753407380075e+00,0.000000000000000000e+00
1.285000000000000000e+03,6.759137785424796929e-01,0.000000000000000000e+00
1.286000000000000000e+03,-6.794826303356543695e-02,0.000000000000000000e+00
1.287000000000000000e+03,-6.076513397989660170e-01,0.000000000000000000e+00
1.288000000000000000e+03,-1.012629049178161766e+00,0.000000000000000000e+00
1.289000000000000000e+03,-1.191883450910588893e+00,0.000000000000000000e+00
1.290000000000000000e+03,-9.963216424955101402e-01,0.000000000000000000e+00
1.291000000000000000e+03,-1.105378665086023560e+00,0.000000000000000000e+00
1.292000000000000000e+03,-7.679717186859588152e-01,0.000000000000000000e+00
1.293000000000000000e+03,-9.041417200387096287e-01,0.000000000000000000e+00
1.294000000000000000e+03,-6.188837549167920393e-01,0.000000000000000000e+00
1.295000000000000000e+03,-5.655152649952581712e-01,0.000000000000000000e+00
1.296000000000000000e+03,-6.054473393818531335e-01,0.000000000000000000e+00
1.297000000000000000e+03,-4.832920671531278356e-01,0.000000000000000000e+00
1.298000000000000000e+03,-3.367064980168384403e-01,0.000000000000000000e+00
1.299000000000000000e+03,-4.833902761284665228e-01,0.000000000000000000e+00
1.300000000000000000e+03,-4.257266974775925084e-01,0.000000000000000000e+00
1.301000000000000000e+03,-3.074792000147717475e-01,0.000000000000000000e+00
1.302000000000000000e+03,-2.884879590065455024e-01,0.000000000000000000e+00
1.303000000000000000e+03,-3.260898878029269143e-01,0.000000000000000000e+00
1.304000000000000000e+03,-3.106119939091482162e-03,0.000000000000000000e+00
1.305000000000000000e+03,-3.508294992933719825e-01,0.000000000000000000e+00
1.306000000000000000e+03,-2.112838150182711205e-01,0.000000000000000000e+00
1.307000000000000000e+03,4.277000574957911389e-02,0.000000000000000000e+00
1.308000000000000000e+03,-7.830596310916726477e-02,0.000000000000000000e+00
1.309000000000000000e+03,2.644498161559315566e-02,0.000000000000000000e+00
1.310000000000000000e+03,7.716461635266945451e-02,0.000000000000000000e+00
1.311000000000000000e+03,1.864960298964782881e-01,0.000000000000000000e+00
1.312000000000000000e+03,1.311619042596111340e-01,0.000000000000000000e+00
1.313000000000000000e+03,4.025022183989545033e-01,0.000000000000000000e+00
1.314000000000000000e+03,4.347543086884542163e-01,0.000000000000000000e+00
1.315000000000000000e+03,3.776849589596998347e-01,0.000000000000000000e+00
1.316000000000000000e+03,5.441364786600597081e-02,0.000000000000000000e+00
1.317000000000000000e+03,1.539447171358442612e-01,0.000000000000000000e+00
1.318000000000000000e+03,-2.791571816459808009e-01,0.000000000000000000e+00
1.319000000000000000e+03,1.577326091214710790e-01,0.000000000000000000e+00
1.320000000000000000e+03,-5.895911396449312475e-02,0.000000000000000000e+00
1.321000000000000000e+03,2.059752483729138106e-01,0.000000000000000000e+00
1.322000000000000000e+03,-2.257385887735890440e-01,0.000000000000000000e+00
1.323000000000000000e+03,1.941231881818601845e+00,0.000000000000000000e+00
1.324000000000000000e+03,2.643217905677228252e+00,0.000000000000000000e+00
1.325000000000000000e+03,-2.032276884501609260e+00,1.000000000000000000e+00
1.326000000000000000e+03,-4.588632749902934460e-01,0.000000000000000000e+00
1.327000000000000000e+03,-2.002240484467739112e-01,0.000000000000000000e+00
1.328000000000000000e+03,1.037881659587785166e-01,0.000000000000000000e+00
1.329000000000000000e+03,-6.395251815996558231e-02,0.000000000000000000e+00
1.330000000000000000e+03,3.695230460486251256e-01,0.000000000000000000e+00
1.331000000000000000e+03,-4.228431419682295023e-02,0.000000000000000000e+00
1.332000000000000000e+03,1.905652163300554369e-01,0.000000000000000000e+00
1.333000000000000000e+03,2.818303841613185590e-01,0.000000000000000000e+00
1.334000000000000000e+03,2.363797603754549670e-01,0.000000000000000000e+00
1.335000000000000000e+03,2.663641420353826672e-01,0.000000000000000000e+00
1.336000000000000000e+03,4.315714891658916641e-01,0.000000000000000000e+00
1.337000000000000000e+03,5.571288287377980097e-01,0.000000000000000000e+00
1.338000000000000000e+03,8.095526291526738971e-01,0.000000000000000000e+00
1.339000000000000000e+03,7.034193518889815255e-01,0.000000000000000000e+00
1.340000000000000000e+03,1.128307959918700698e+00,0.000000000000000000e+00
1.341000000000000000e+03,7.473804672755930412e-01,0.000000000000000000e+00
1.342000000000000000e+03,4.172789989594525850e-01,0.000000000000000000e+00
1.343000000000000000e+03,-4.667727047961792719e-01,0.000000000000000000e+00
1.344000000000000000e+03,-9.113985397790164145e-01,0.000000000000000000e+00
1.345000000000000000e+03,-6.185227141584261901e-01,0.000000000000000000e+00
1.346000000000000000e+03,-1.003128881696401242e+00,0.000000000000000000e+00
1.347000000000000000e+03,-9.969266117369577351e-01,0.000000000000000000e+00
1.348000000000000000e+03,-7.175777522284645382e-01,0.000000000000000000e+00
1.349000000000000000e+03,-7.617424304210421715e-01,0.000000000000000000e+00
1.350000000000000000e+03,-4.684205723271515631e-01,0.000000000000000000e+00
1.351000000000000000e+03,-8.027987178224557097e-01,0.000000000000000000e+00
1.352000000000000000e+03,-3.028588695626540095e-01,0.000000000000000000e+00
1.353000000000000000e+03,-2.946889278531312772e-01,0.000000000000000000e+00
1.354000000000000000e+03,-2.195700205025782059e-01,0.000000000000000000e+00
1.355000000000000000e+03,-2.451478553179077535e-01,0.000000000000000000e+00
1.356000000000000000e+03,-2.816380927552399882e-01,0.000000000000000000e+00
1.357000000000000000e+03,-3.414666621006404723e-01,0.000000000000000000e+00
1.358000000000000000e+03,-3.598861112430107312e-01,0.000000000000000000e+00
1.359000000000000000e+03,1.562087231425657308e-01,0.000000000000000000e+00
1.360000000000000000e+03,-3.494126813480423199e-01,0.000000000000000000e+00
1.361000000000000000e+03,-1.158690634363803845e-01,0.000000000000000000e+00
1.362000000000000000e+03,-1.464794715247380863e-01,0.000000000000000000e+00
1.363000000000000000e+03,1.126587031147389534e-01,0.000000000000000000e+00
1.364000000000000000e+03,-7.347529398522147093e-02,0.000000000000000000e+00
1.365000000000000000e+03,-7.006919261926181086e-02,0.000000000000000000e+00
1.366000000000000000e+03,9.779684964569897165e-02,0.000000000000000000e+00
1.367000000000000000e+03,1.764169882397838007e-01,0.000000000000000000e+00
1.368000000000000000e+03,2.447189941554153148e-01,0.000000000000000000e+00
1.369000000000000000e+03,5.037622626777814583e-01,0.000000000000000000e+00
1.370000000000000000e+03,3.398730966774934359e-01,0.000000000000000000e+00
1.371000000000000000e+03,2.428844244520743101e-01,0.000000000000000000e+00
1.372000000000000000e+03,-1.534472209652352481e-01,0.000000000000000000e+00
1.373000000000000000e+03,2.954996820619380446e-02,0.000000000000000000e+00
1.374000000000000000e+03,-2.074768534392050778e-01,0.000000000000000000e+00
1.375000000000000000e+03,1.325164896349812216e-01,0.000000000000000000e+00
1.376000000000000000e+03,-1.518285231218703402e-01,0.000000000000000000e+00
1.377000000000000000e+03,4.653416474172329953e-01,0.000000000000000000e+00
1.378000000000000000e+03,6.670278142718029379e-02,0.000000000000000000e+00
1.379000000000000000e+03,3.396225710393980357e+00,0.000000000000000000e+00
1.380000000000000000e+03,-6.002128528531194274e-01,1.000000000000000000e+00
1.381000000000000000e+03,-1.611715550156385568e+00,0.000000000000000000e+00
1.382000000000000000e+03,1.151165164649110284e-01,0.000000000000000000e+00
1.383000000000000000e+03,-3.795893796213282156e-01,0.000000000000000000e+00
1.384000000000000000e+03,2.103707635841993995e-01,0.000000000000000000e+00
1.385000000000000000e+03,-4.854978613866157283e-02,0.000000000000000000e+00
1.386000000000000000e+03,6.667434698318205899e-02,0.000000000000000000e+00
1.387000000000000000e+03,2.017023474009262685e-01,0.000000000000000000e+00
1.388000000000000000e+03,1.739289734473676574e-01,0.000000000000000000e+00
1.389000000000000000e+03,1.662799107869198101e-01,0.000000000000000000e+00
1.390000000000000000e+03,4.165643560177348381e-01,0.000000000000000000e+00
1.391000000000000000e+03,5.481083711688589100e-02,0.000000000000000000e+00
1.392000000000000000e+03,7.239401122449228287e-01,0.000000000000000000e+00
1.393000000000000000e+03,6.544580470789476134e-01,0.000000000000000000e+00
1.394000000000000000e+03,9.044599027348245723e-01,0.000000000000000000e+00
1.395000000000000000e+03,1.100762593047480475e+00,0.000000000000000000e+00
1.396000000000000000e+03,1.035027659671466260e+00,0.000000000000000000e+00
1.397000000000000000e+03,8.538808051104025409e-01,0.000000000000000000e+00
1.398000000000000000e+03,1.439993675091116032e-01,0.000000000000000000e+00
1.399000000000000000e+03,-4.002994244482681041e-01,0.000000000000000000e+00
1.400000000000000000e+03,-6.380782527612423038e-01,0.000000000000000000e+00
1.401000000000000000e+03,-9.392552194009492483e-01,0.000000000000000000e+00
1.402000000000000000e+03,-8.788564942119760914e-01,0.000000000000000000e+00
1.403000000000000000e+03,-7.727753279117353102e-01,0.000000000000000000e+00
1.404000000000000000e+03,-4.815021199931457385e-01,0.000000000000000000e+00
1.405000000000000000e+03,-5.765989007933326471e-01,0.000000000000000000e+00
1.406000000000000000e+03,-6.766086617127319291e-01,0.000000000000000000e+00
1.407000000000000000e+03,-2.562792641376787639e-01,0.000000000000000000e+00
1.408000000000000000e+03,-2.803424532709789530e-01,0.000000000000000000e+00
1.409000000000000000e+03,-3.761287642918124674e-01,0.000000000000000000e+00
1.410000000000000000e+03,-3.452416921464274702e-01,0.000000000000000000e+00
1.411000000000000000e+03,-3.438003530909034544e-01,0.000000000000000000e+00
1.412000000000000000e+03,-1.784395220828574047e-01,0.000000000000000000e+00
1.413000000000000000e+03,-2.503660004098682279e-01,0.000000000000000000e+00
1.414000000000000000e+03,-4.359465679167871810e-02,0.000000000000000000e+00
1.415000000000000000e+03,-4.668772876767750546e-01,0.000000000000000000e+00
1.416000000000000000e+03,2.663852261011923767e-02,0.000000000000000000e+00
1.417000000000000000e+03,-1.887116816968133215e-01,0.000000000000000000e+00
1.418000000000000000e+03,3.165194366505902357e-02,0.000000000000000000e+00
1.419000000000000000e+03,-1.075857266791922923e-01,0.000000000000000000e+00
1.420000000000000000e+03,-6.039950655101709864e-02,0.000000000000000000e+00
1.421000000000000000e+03,1.255252618003984133e-01,0.000000000000000000e+00
1.422000000000000000e+03,-1.443336312786361320e-02,0.000000000000000000e+00
1.423000000000000000e+03,-2.477413815455130341e-02,0.000000000000000000e+00
1.424000000000000000e+03,2.109780491464465502e-01,0.000000000000000000e+00
1.425000000000000000e+03,4.518630363647646586e-01,0.000000000000000000e+00
1.426000000000000000e+03,6.397592693606162229e-01,0.000000000000000000e+00
1.427000000000000000e+03,2.581671100154956378e-01,0.000000000000000000e+00
1.428000000000000000e+03,2.846953001907199243e-01,0.000000000000000000e+00
1.429000000000000000e+03,-3.286389612249410730e-01,0.000000000000000000e+00
1.430000000000000000e+03,2.205530025948613804e-01,0.000000000000000000e+00
1.431000000000000000e+03,-3.040036581874904220e-01,0.000000000000000000e+00
1.432000000000000000e+03,1.606812105857900741e-01,0.000000000000000000e+00
1.433000000000000000e+03,-1.863487909115367214e-01,0.000000000000000000e+00
1.434000000000000000e+03,1.250224773963225511e-01,0.000000000000000000e+00
1.435000000000000000e+03,-1.998880428647997753e-02,0.000000000000000000e+00
1.436000000000000000e+03,4.144399501919780349e+00,0.000000000000000000e+00
1.437000000000000000e+03,6.306467397420567611e-01,1.000000000000000000e+00
1.438000000000000000e+03,-2.278569752024402373e+00,0.000000000000000000e+00
1.439000000000000000e+03,-3.951068257241663328e-02,0.000000000000000000e+00
1.440000000000000000e+03,-5.486685581882941865e-01,0.000000000000000000e+00
1.441000000000000000e+03,9.993172085309878772e-03,0.000000000000000000e+00
1.442000000000000000e+03,-3.478665929117290556e-01,0.000000000000000000e+00
1.443000000000000000e+03,1.231444024260276576e-01,0.000000000000000000e+00
1.444000000000000000e+03,-1.532436404194832125e-01,0.000000000000000000e+00
1.445000000000000000e+03,1.368075629810746874e-01,0.000000000000000000e+00
1.446000000000000000e+03,8.281750340273835720e-02,0.000000000000000000e+00
1.447000000000000000e+03,1.818359471204900601e-01,0.000000000000000000e+00
1.448000000000000000e+03,2.835105811217014105e-01,0.000000000000000000e+00
1.449000000000000000e+03,3.624723202758694529e-01,0.000000000000000000e+00
1.450000000000000000e+03,5.274450494865070560e-01,0.000000000000000000e+00
1.451000000000000000e+03,7.957771926436185694e-01,0.000000000000000000e+00
1.452000000000000000e+03,9.725627933293078398e-01,0.000000000000000000e+00
1.453000000000000000e+03,1.096555101549428368e+00,0.000000000000000000e+00
1.454000000000000000e+03,9.503300987670345590e-01,0.000000000000000000e+00
1.455000000000000000e+03,2.284667796149540964e-01,0.000000000000000000e+00
1.456000000000000000e+03,-2.325984262991873663e-01,0.000000000000000000e+00
1.457000000000000000e+03,-7.308822876367950805e-01,0.000000000000000000e+00
1.458000000000000000e+03,-9.533622595050917914e-01,0.000000000000000000e+00
1.459000000000000000e+03,-8.216287451009840481e-01,0.000000000000000000e+00
1.460000000000000000e+03,-9.538832526696279235e-01,0.000000000000000000e+00
1.461000000000000000e+03,-7.825274163560950180e-01,0.000000000000000000e+00
1.462000000000000000e+03,-8.026691218345749501e-01,0.000000000000000000e+00
1.463000000000000000e+03,-5.808229973155680792e-01,0.000000000000000000e+00
1.464000000000000000e+03,-5.077027772400766192e-01,0.000000000000000000e+00
1.465000000000000000e+03,-4.793224702192642184e-01,0.000000000000000000e+00
1.466000000000000000e+03,-5.825109928118727964e-01,0.000000000000000000e+00
1.467000000000000000e+03,-2.261725816102069520e-01,0.000000000000000000e+00
1.468000000000000000e+03,-5.015945907577233909e-01,0.000000000000000000e+00
1.469000000000000000e+03,-1.917690911665569098e-01,0.000000000000000000e+00
1.470000000000000000e+03,-4.946962195170955812e-01,0.000000000000000000e+00
1.471000000000000000e+03,-1.101790963866474404e-01,0.000000000000000000e+00
1.472000000000000000e+03,-2.619977860225682909e-01,0.000000000000000000e+00
1.473000000000000000e+03,-2.685673247156642462e-01,0.000000000000000000e+00
1.474000000000000000e+03,-3.140903509535589166e-01,0.000000000000000000e+00
1.475000000000000000e+03,-1.465616491541085753e-01,0.000000000000000000e+00
1.476000000000000000e+03,2.289338179878565652e-02,0.000000000000000000e+00
1.477000000000000000e+03,5.246637140140100047e-02,0.000000000000000000e+00
1.478000000000000000e+03,-2.704457134420687470e-01,0.000000000000000000e+00
1.479000000000000000e+03,4.305012063285799939e-02,0.000000000000000000e+00
1.480000000000000000e+03,1.718664335421403178e-01,0.000000000000000000e+00
1.481000000000000000e+03,7.060617016227721532e-02,0.000000000000000000e+00
1.482000000000000000e+03,4.222292904955159965e-01,0.000000000000000000e+00
1.483000000000000000e+03,5.015922422226766209e-01,0.000000000000000000e+00
1.484000000000000000e+03,4.955590245705079333e-01,0.000000000000000000e+00
1.485000000000000000e+03,4.801865551905791785e-01,0.000000000000000000e+00
1.486000000000000000e+03,-2.425087340739339181e-01,0.000000000000000000e+00
1.487000000000000000e+03,-1.396630314035163765e-02,0.000000000000000000e+00
1.488000000000000000e+03,-3.124173229445905142e-01,0.000000000000000000e+00
1.489000000000000000e+03,8.144302022704409671e-02,0.000000000000000000e+00
1.490000000000000000e+03,-3.186284435053176600e-01,0.000000000000000000e+00
1.491000000000000000e+03,2.224900808238049754e-01,0.000000000000000000e+00
1.492000000000000000e+03,-3.844756146418761289e-01,0.000000000000000000e+00
1.493000000000000000e+03,2.738435352698684877e+00,0.000000000000000000e+00
1.494000000000000000e+03,4.168878180843157644e+00,0.000000000000000000e+00
1.495000000000000000e+03,-2.554909173141352241e+00,1.000000000000000000e+00
1.496000000000000000e+03,-5.143089874739824596e-01,0.000000000000000000e+00
1.497000000000000000e+03,-6.622274161831530614e-01,0.000000000000000000e+00
1.498000000000000000e+03,-1.984111687319248252e-01,0.000000000000000000e+00
1.499000000000000000e+03,-2.491303846981990366e-01,0.000000000000000000e+00
1.500000000000000000e+03,-2.720975975541639058e-01,0.000000000000000000e+00
1.501000000000000000e+03,-1.773663167465924229e-01,0.000000000000000000e+00
1.502000000000000000e+03,1.403468279352357295e-01,0.000000000000000000e+00
1.503000000000000000e+03,-8.921901318386424307e-02,0.000000000000000000e+00
1.504000000000000000e+03,-1.085030820807884183e-02,0.000000000000000000e+00
1.505000000000000000e+03,2.278445164040052151e-01,0.000000000000000000e+00
1.506000000000000000e+03,3.403768362675361758e-01,0.000000000000000000e+00
1.507000000000000000e+03,4.205880663105455719e-01,0.000000000000000000e+00
1.508000000000000000e+03,5.838938999750659109e-01,0.000000000000000000e+00
1.509000000000000000e+03,8.253435008118095162e-01,0.000000000000000000e+00
1.510000000000000000e+03,1.172224706153635276e+00,0.000000000000000000e+00
1.511000000000000000e+03,1.184992505020158182e+00,0.000000000000000000e+00
1.512000000000000000e+03,7.055376698633056831e-01,0.000000000000000000e+00
1.513000000000000000e+03,-7.970271372716054847e-02,0.000000000000000000e+00
1.514000000000000000e+03,-4.864353109642533535e-01,0.000000000000000000e+00
1.515000000000000000e+03,-7.933534299023806691e-01,0.000000000000000000e+00
1.516000000000000000e+03,-9.839256517010169789e-01,0.000000000000000000e+00
1.517000000000000000e+03,-8.361649641753577944e-01,0.000000000000000000e+00
1.518000000000000000e+03,-8.558167850208183713e-01,0.000000000000000000e+00
1.519000000000000000e+03,-6.303396447132881830e-01,0.000000000000000000e+00
1.520000000000000000e+03,-6.852855682811322957e-01,0.000000000000000000e+00
1.521000000000000000e+03,-5.560377552521402755e-01,0.000000000000000000e+00
1.522000000000000000e+03,-4.539182727055459665e-01,0.000000000000000000e+00
1.523000000000000000e+03,-4.275090918153229835e-01,0.000000000000000000e+00
1.524000000000000000e+03,-4.412631044166767658e-01,0.000000000000000000e+00
1.525000000000000000e+03,-2.769987968374976184e-01,0.000000000000000000e+00
1.526000000000000000e+03,-2.168540583141589650e-01,0.000000000000000000e+00
1.527000000000000000e+03,-4.011280150845041859e-01,0.000000000000000000e+00
1.528000000000000000e+03,-2.356103378908077084e-01,0.000000000000000000e+00
1.529000000000000000e+03,-2.239787142691935518e-01,0.000000000000000000e+00
1.530000000000000000e+03,-1.334340126942945293e-01,0.000000000000000000e+00
1.531000000000000000e+03,-1.917416060573580161e-01,0.000000000000000000e+00
1.532000000000000000e+03,-9.744550910753126127e-02,0.000000000000000000e+00
1.533000000000000000e+03,8.373227684328808651e-02,0.000000000000000000e+00
1.534000000000000000e+03,-7.335180142116412561e-02,0.000000000000000000e+00
1.535000000000000000e+03,-1.514659355101201713e-02,0.000000000000000000e+00
1.536000000000000000e+03,-2.493445183251772820e-02,0.000000000000000000e+00
1.537000000000000000e+03,2.641504699752660404e-02,0.000000000000000000e+00
1.538000000000000000e+03,3.767798350435344612e-01,0.000000000000000000e+00
1.539000000000000000e+03,3.221780505983810605e-01,0.000000000000000000e+00
1.540000000000000000e+03,4.967220461196852899e-01,0.000000000000000000e+00
1.541000000000000000e+03,6.554755943393634210e-01,0.000000000000000000e+00
1.542000000000000000e+03,5.183927012097842013e-01,0.000000000000000000e+00
1.543000000000000000e+03,2.314510953528315929e-01,0.000000000000000000e+00
1.544000000000000000e+03,2.240576416297814302e-02,0.000000000000000000e+00
1.545000000000000000e+03,-1.148176020948359910e-01,0.000000000000000000e+00
1.546000000000000000e+03,-1.278833947885260058e-01,0.000000000000000000e+00
1.547000000000000000e+03,1.635531855802946355e-02,0.000000000000000000e+00
1.548000000000000000e+03,-1.358292235018341565e-01,0.000000000000000000e+00
1.549000000000000000e+03,1.103334484375221615e-02,0.000000000000000000e+00
1.550000000000000000e+03,2.259342406193539377e-01,0.000000000000000000e+00
1.551000000000000000e+03,5.341309674267234797e+00,0.000000000000000000e+00
1.552000000000000000e+03,1.045491866319072871e+00,1.000000000000000000e+00
1.553000000000000000e+03,-2.210188568842454959e+00,0.000000000000000000e+00
1.554000000000000000e+03,-1.934368536843156239e-01,0.000000000000000000e+00
1.555000000000000000e+03,-8.647766185864835808e-01,0.000000000000000000e+00
1.556000000000000000e+03,-3.088696205620078752e-02,0.000000000000000000e+00
1.557000000000000000e+03,-7.342909897247276163e-01,0.000000000000000000e+00
1.558000000000000000e+03,-1.085389343356771806e-02,0.000000000000000000e+00
1.559000000000000000e+03,-4.862220152618405566e-01,0.000000000000000000e+00
1.560000000000000000e+03,6.992523583635865125e-02,0.000000000000000000e+00
1.561000000000000000e+03,-2.341047040386622785e-02,0.000000000000000000e+00
1.562000000000000000e+03,1.762088610262831367e-01,0.000000000000000000e+00
1.563000000000000000e+03,-8.120179240962040190e-02,0.000000000000000000e+00
1.564000000000000000e+03,3.986211846801702707e-01,0.000000000000000000e+00
1.565000000000000000e+03,4.093369309307055559e-01,0.000000000000000000e+00
1.566000000000000000e+03,9.487277374728586565e-01,0.000000000000000000e+00
1.567000000000000000e+03,7.973632774183672112e-01,0.000000000000000000e+00
1.568000000000000000e+03,1.245063204638852339e+00,0.000000000000000000e+00
1.569000000000000000e+03,8.532897546174149639e-01,0.000000000000000000e+00
1.570000000000000000e+03,4.922553849162502604e-01,0.000000000000000000e+00
1.571000000000000000e+03,-4.304892322699344631e-01,0.000000000000000000e+00
1.572000000000000000e+03,-5.179526869706655434e-01,0.000000000000000000e+00
1.573000000000000000e+03,-9.409887444644855492e-01,0.000000000000000000e+00
1.574000000000000000e+03,-8.859025296859331933e-01,0.000000000000000000e+00
1.575000000000000000e+03,-1.017213848298750944e+00,0.000000000000000000e+00
1.576000000000000000e+03,-7.188253743585971689e-01,0.000000000000000000e+00
1.577000000000000000e+03,-7.469348471960397529e-01,0.000000000000000000e+00
1.578000000000000000e+03,-4.700754378149269441e-01,0.000000000000000000e+00
1.579000000000000000e+03,-6.085206818787748384e-01,0.000000000000000000e+00
1.580000000000000000e+03,-4.375355960644876085e-01,0.000000000000000000e+00
1.581000000000000000e+03,-4.795959645873813515e-01,0.000000000000000000e+00
1.582000000000000000e+03,-2.148335799183348216e-01,0.000000000000000000e+00
1.583000000000000000e+03,-4.452798941435722191e-01,0.000000000000000000e+00
1.584000000000000000e+03,-2.127413039419883134e-01,0.000000000000000000e+00
1.585000000000000000e+03,-4.268294689758919680e-01,0.000000000000000000e+00
