timestamp,ecg_measurement,qrs_detected
0.000000000000000000e+00,7.713027235108947666e-02,0.000000000000000000e+00
1.000000000000000000e+00,1.737839552782478869e-01,0.000000000000000000e+00
2.000000000000000000e+00,4.986053282054713764e-01,0.000000000000000000e+00
3.000000000000000000e+00,2.929689458224026821e-01,0.000000000000000000e+00
4.000000000000000000e+00,4.683722341510144216e-01,0.000000000000000000e+00
5.000000000000000000e+00,3.644800736017193010e-01,0.000000000000000000e+00
6.000000000000000000e+00,2.251572756005117693e-01,0.000000000000000000e+00
7.000000000000000000e+00,-1.480844824977894103e-01,0.000000000000000000e+00
8.000000000000000000e+00,2.142955113603866035e-01,0.000000000000000000e+00
9.000000000000000000e+00,-9.905851535139319208e-02,0.000000000000000000e+00
1.000000000000000000e+01,2.125354959180628667e-01,0.000000000000000000e+00
1.100000000000000000e+01,8.169562254686522917e-02,0.000000000000000000e+00
1.200000000000000000e+01,4.424054905033610652e+00,0.000000000000000000e+00
1.300000000000000000e+01,4.361589677307799562e+00,0.000000000000000000e+00
1.400000000000000000e+01,-1.243006330978903451e+00,1.000000000000000000e+00
1.500000000000000000e+01,-9.482806757831208078e-01,0.000000000000000000e+00
1.600000000000000000e+01,-1.309044928675253905e+00,0.000000000000000000e+00
1.700000000000000000e+01,-9.840899279589185866e-01,0.000000000000000000e+00
1.800000000000000000e+01,-9.958828058105548831e-01,0.000000000000000000e+00
1.900000000000000000e+01,-7.286000943314591138e-01,0.000000000000000000e+00
2.000000000000000000e+01,-6.035532034673765089e-01,0.000000000000000000e+00
2.100000000000000000e+01,-3.871893101801012205e-01,0.000000000000000000e+00
2.200000000000000000e+01,-5.497274945646767330e-01,0.000000000000000000e+00
2.300000000000000000e+01,-1.034484803169034017e-01,0.000000000000000000e+00
2.400000000000000000e+01,-1.306600909598444604e-01,0.000000000000000000e+00
2.500000000000000000e+01,2.791301168832209800e-01,0.000000000000000000e+00
2.600000000000000000e+01,3.011088341389669965e-01,0.000000000000000000e+00
2.700000000000000000e+01,4.223197145569101418e-01,0.000000000000000000e+00
2.800000000000000000e+01,1.364320354333732610e-01,0.000000000000000000e+00
2.900000000000000000e+01,1.334691261655374939e-01,0.000000000000000000e+00
3.000000000000000000e+01,-2.304405290842595211e-01,0.000000000000000000e+00
3.100000000000000000e+01,-3.572850030450090975e-01,0.000000000000000000e+00
3.200000000000000000e+01,-6.438317563694594403e-01,0.000000000000000000e+00
3.300000000000000000e+01,-4.734166680343795397e-01,0.000000000000000000e+00
3.400000000000000000e+01,-7.491167503460799404e-01,0.000000000000000000e+00
3.500000000000000000e+01,-5.979062839608351165e-01,0.000000000000000000e+00
3.600000000000000000e+01,-5.059541448590707535e-01,0.000000000000000000e+00
3.700000000000000000e+01,-4.095200708303861070e-01,0.000000000000000000e+00
3.800000000000000000e+01,-3.729229938817537060e-01,0.000000000000000000e+00
3.900000000000000000e+01,-1.992527651334916050e-01,0.000000000000000000e+00
4.000000000000000000e+01,-2.200184271880783748e-01,0.000000000000000000e+00
4.100000000000000000e+01,-1.871719725721874283e-01,0.000000000000000000e+00
4.200000000000000000e+01,-9.213900058025521755e-02,0.000000000000000000e+00
4.300000000000000000e+01,-4.985220746651571749e-02,0.000000000000000000e+00
4.400000000000000000e+01,-7.041407245841123375e-02,0.000000000000000000e+00
4.500000000000000000e+01,-1.015289949328271879e-01,0.000000000000000000e+00
4.600000000000000000e+01,-6.278865143280175365e-02,0.000000000000000000e+00
4.700000000000000000e+01,2.488915997007295350e-02,0.000000000000000000e+00
4.800000000000000000e+01,-5.982224868560383907e-02,0.000000000000000000e+00
4.900000000000000000e+01,1.312655315065422157e-01,0.000000000000000000e+00
5.000000000000000000e+01,3.315826290455434200e-02,0.000000000000000000e+00
5.100000000000000000e+01,8.729447053276637170e-02,0.000000000000000000e+00
5.200000000000000000e+01,-6.803726134011296722e-02,0.000000000000000000e+00
5.300000000000000000e+01,8.245191301971031839e-02,0.000000000000000000e+00
5.400000000000000000e+01,2.414492700275581993e-01,0.000000000000000000e+00
5.500000000000000000e+01,3.475590895536585512e-01,0.000000000000000000e+00
5.600000000000000000e+01,3.916658159649702986e-01,0.000000000000000000e+00
5.700000000000000000e+01,3.522913099350636901e-01,0.000000000000000000e+00
5.800000000000000000e+01,3.536356970570445624e-01,0.000000000000000000e+00
5.900000000000000000e+01,3.328968520286744726e-01,0.000000000000000000e+00
6.000000000000000000e+01,9.847387624607005507e-02,0.000000000000000000e+00
6.100000000000000000e+01,6.878431991699905657e-02,0.000000000000000000e+00
6.200000000000000000e+01,-6.693731535831082269e-03,0.000000000000000000e+00
6.300000000000000000e+01,-9.365930041241692094e-03,0.000000000000000000e+00
6.400000000000000000e+01,-1.778278753177096189e-02,0.000000000000000000e+00
6.500000000000000000e+01,1.906238773620877680e+00,0.000000000000000000e+00
6.600000000000000000e+01,6.404954781477814940e+00,0.000000000000000000e+00
6.700000000000000000e+01,1.232458830227902258e+00,1.000000000000000000e+00
6.800000000000000000e+01,-1.448100983178376877e+00,0.000000000000000000e+00
6.900000000000000000e+01,-1.080280362712991549e+00,0.000000000000000000e+00
7.000000000000000000e+01,-1.187523848080111133e+00,0.000000000000000000e+00
7.100000000000000000e+01,-1.068330847731327360e+00,0.000000000000000000e+00
7.200000000000000000e+01,-9.730267701366253075e-01,0.000000000000000000e+00
7.300000000000000000e+01,-7.029813697171302111e-01,0.000000000000000000e+00
7.400000000000000000e+01,-6.880372238713730049e-01,0.000000000000000000e+00
7.500000000000000000e+01,-4.736471833119128561e-01,0.000000000000000000e+00
7.600000000000000000e+01,-2.910741335334873781e-01,0.000000000000000000e+00
7.700000000000000000e+01,-2.289694498942569378e-01,0.000000000000000000e+00
7.800000000000000000e+01,6.885901304986347116e-02,0.000000000000000000e+00
7.900000000000000000e+01,1.397228226616671343e-01,0.000000000000000000e+00
8.000000000000000000e+01,3.219100528866249977e-01,0.000000000000000000e+00
8.100000000000000000e+01,3.503800223790745627e-01,0.000000000000000000e+00
8.200000000000000000e+01,1.716901983335650250e-01,0.000000000000000000e+00
8.300000000000000000e+01,2.026010168871167361e-02,0.000000000000000000e+00
8.400000000000000000e+01,-2.932464131246835248e-01,0.000000000000000000e+00
8.500000000000000000e+01,-5.638556139084373031e-01,0.000000000000000000e+00
8.600000000000000000e+01,-7.753001376510112452e-01,0.000000000000000000e+00
8.700000000000000000e+01,-6.585453881461846848e-01,0.000000000000000000e+00
8.800000000000000000e+01,-6.112562914404855441e-01,0.000000000000000000e+00
8.900000000000000000e+01,-4.929692572536740203e-01,0.000000000000000000e+00
9.000000000000000000e+01,-4.309974663708081022e-01,0.000000000000000000e+00
9.100000000000000000e+01,-4.801962702577018960e-01,0.000000000000000000e+00
9.200000000000000000e+01,-3.030278610350030100e-01,0.000000000000000000e+00
9.300000000000000000e+01,-2.233862912254894473e-01,0.000000000000000000e+00
9.400000000000000000e+01,-2.248657221382265592e-01,0.000000000000000000e+00
9.500000000000000000e+01,1.910444855106276281e-04,0.000000000000000000e+00
9.600000000000000000e+01,-5.463107703287154587e-02,0.000000000000000000e+00
9.700000000000000000e+01,-6.455682550320893109e-02,0.000000000000000000e+00
9.800000000000000000e+01,-7.388004986880536418e-02,0.000000000000000000e+00
9.900000000000000000e+01,-6.050980995146413438e-02,0.000000000000000000e+00
1.000000000000000000e+02,-6.599855740032879725e-02,0.000000000000000000e+00
1.010000000000000000e+02,-1.920816635794914649e-03,0.000000000000000000e+00
1.020000000000000000e+02,-1.065658189985498328e-01,0.000000000000000000e+00
1.030000000000000000e+02,1.267343084366917283e-01,0.000000000000000000e+00
1.040000000000000000e+02,1.196850192280107528e-01,0.000000000000000000e+00
1.050000000000000000e+02,-3.403776910336066969e-02,0.000000000000000000e+00
1.060000000000000000e+02,9.402133023990484617e-02,0.000000000000000000e+00
1.070000000000000000e+02,1.674729304417172937e-01,0.000000000000000000e+00
1.080000000000000000e+02,1.509018456458972313e-01,0.000000000000000000e+00
1.090000000000000000e+02,2.469006073304768067e-01,0.000000000000000000e+00
1.100000000000000000e+02,4.153285608850612598e-01,0.000000000000000000e+00
1.110000000000000000e+02,2.476077931816976219e-01,0.000000000000000000e+00
1.120000000000000000e+02,5.441013067019333516e-01,0.000000000000000000e+00
1.130000000000000000e+02,3.629851288985229130e-01,0.000000000000000000e+00
1.140000000000000000e+02,2.745797022098944717e-01,0.000000000000000000e+00
1.150000000000000000e+02,-8.406853111998159600e-02,0.000000000000000000e+00
1.160000000000000000e+02,1.133384829602179095e-01,0.000000000000000000e+00
1.170000000000000000e+02,-8.230372522031602356e-02,0.000000000000000000e+00
1.180000000000000000e+02,2.288322714441828887e-01,0.000000000000000000e+00
1.190000000000000000e+02,-1.706074919437984283e-01,0.000000000000000000e+00
1.200000000000000000e+02,4.026186839944227991e+00,0.000000000000000000e+00
1.210000000000000000e+02,5.561062952387482383e+00,0.000000000000000000e+00
1.220000000000000000e+02,-8.240288743625767687e-01,1.000000000000000000e+00
1.230000000000000000e+02,-1.087605958617341440e+00,0.000000000000000000e+00
1.240000000000000000e+02,-1.200834147986625133e+00,0.000000000000000000e+00
1.250000000000000000e+02,-1.075985007806384397e+00,0.000000000000000000e+00
1.260000000000000000e+02,-9.928970538122769973e-01,0.000000000000000000e+00
1.270000000000000000e+02,-6.657064431990621367e-01,0.000000000000000000e+00
1.280000000000000000e+02,-9.524687498898427584e-01,0.000000000000000000e+00
1.290000000000000000e+02,-4.000618166474144144e-01,0.000000000000000000e+00
1.300000000000000000e+02,-4.176216550136179206e-01,0.000000000000000000e+00
1.310000000000000000e+02,-1.776483609484336978e-01,0.000000000000000000e+00
1.320000000000000000e+02,-1.342041817290472346e-02,0.000000000000000000e+00
1.330000000000000000e+02,1.390060330181934201e-01,0.000000000000000000e+00
1.340000000000000000e+02,1.844444121498705347e-01,0.000000000000000000e+00
1.350000000000000000e+02,3.667117845516894570e-01,0.000000000000000000e+00
1.360000000000000000e+02,3.085996652073959012e-01,0.000000000000000000e+00
1.370000000000000000e+02,2.755819951472568419e-01,0.000000000000000000e+00
1.380000000000000000e+02,-2.223666561457774971e-01,0.000000000000000000e+00
1.390000000000000000e+02,-2.647125805666821763e-01,0.000000000000000000e+00
1.400000000000000000e+02,-7.399869299873064188e-01,0.000000000000000000e+00
1.410000000000000000e+02,-6.557766044169972552e-01,0.000000000000000000e+00
1.420000000000000000e+02,-5.779727745912206505e-01,0.000000000000000000e+00
1.430000000000000000e+02,-6.694880397719287224e-01,0.000000000000000000e+00
1.440000000000000000e+02,-6.728098111263275394e-01,0.000000000000000000e+00
1.450000000000000000e+02,-4.301287283240614601e-01,0.000000000000000000e+00
1.460000000000000000e+02,-4.016477561776611860e-01,0.000000000000000000e+00
1.470000000000000000e+02,-3.193160781022347239e-01,0.000000000000000000e+00
1.480000000000000000e+02,-2.154773413138894311e-01,0.000000000000000000e+00
1.490000000000000000e+02,-2.498822707925908160e-01,0.000000000000000000e+00
1.500000000000000000e+02,-1.562110377837225006e-01,0.000000000000000000e+00
1.510000000000000000e+02,-8.953458258581127593e-02,0.000000000000000000e+00
1.520000000000000000e+02,-5.934708647898873785e-02,0.000000000000000000e+00
1.530000000000000000e+02,-1.187655230978306026e-01,0.000000000000000000e+00
1.540000000000000000e+02,-1.412108351568059639e-01,0.000000000000000000e+00
1.550000000000000000e+02,3.352491697827131127e-03,0.000000000000000000e+00
1.560000000000000000e+02,-1.777572020495508109e-01,0.000000000000000000e+00
1.570000000000000000e+02,8.889385102250255133e-02,0.000000000000000000e+00
1.580000000000000000e+02,-1.460978041169891384e-01,0.000000000000000000e+00
1.590000000000000000e+02,1.906383244256874832e-02,0.000000000000000000e+00
1.600000000000000000e+02,1.219097716330524717e-01,0.000000000000000000e+00
1.610000000000000000e+02,2.887391175615351344e-02,0.000000000000000000e+00
1.620000000000000000e+02,7.940054613778209369e-02,0.000000000000000000e+00
1.630000000000000000e+02,1.698793017119147875e-01,0.000000000000000000e+00
1.640000000000000000e+02,4.260341013434971180e-01,0.000000000000000000e+00
1.650000000000000000e+02,2.935842008339852316e-01,0.000000000000000000e+00
1.660000000000000000e+02,5.897356854659785430e-01,0.000000000000000000e+00
1.670000000000000000e+02,3.421384598905201080e-01,0.000000000000000000e+00
1.680000000000000000e+02,3.261158062545412295e-01,0.000000000000000000e+00
1.690000000000000000e+02,-7.414764787556940573e-02,0.000000000000000000e+00
1.700000000000000000e+02,1.209427082874872939e-01,0.000000000000000000e+00
1.710000000000000000e+02,3.215291322292269938e-02,0.000000000000000000e+00
1.720000000000000000e+02,1.299355089191495394e-01,0.000000000000000000e+00
1.730000000000000000e+02,1.969034227265568093e-01,0.000000000000000000e+00
1.740000000000000000e+02,3.814958155190005140e+00,0.000000000000000000e+00
1.750000000000000000e+02,4.544911497132924971e+00,0.000000000000000000e+00
1.760000000000000000e+02,-1.145451970261242458e+00,1.000000000000000000e+00
1.770000000000000000e+02,-1.064071698723902726e+00,0.000000000000000000e+00
1.780000000000000000e+02,-1.077902967142843282e+00,0.000000000000000000e+00
1.790000000000000000e+02,-7.163615749251114329e-01,0.000000000000000000e+00
1.800000000000000000e+02,-8.471265059105210771e-01,0.000000000000000000e+00
1.810000000000000000e+02,-4.979607393745260069e-01,0.000000000000000000e+00
1.820000000000000000e+02,-4.300994524257991669e-01,0.000000000000000000e+00
1.830000000000000000e+02,-3.398816661657819704e-01,0.000000000000000000e+00
1.840000000000000000e+02,-4.058542140666049347e-01,0.000000000000000000e+00
1.850000000000000000e+02,-8.729906106135594535e-02,0.000000000000000000e+00
1.860000000000000000e+02,5.855146494873392227e-02,0.000000000000000000e+00
1.870000000000000000e+02,3.349010569074748478e-01,0.000000000000000000e+00
1.880000000000000000e+02,1.627903476302487995e-01,0.000000000000000000e+00
1.890000000000000000e+02,6.485529573152348792e-01,0.000000000000000000e+00
1.900000000000000000e+02,2.990718446301022237e-01,0.000000000000000000e+00
1.910000000000000000e+02,2.458086311540480240e-01,0.000000000000000000e+00
1.920000000000000000e+02,5.100970350342720616e-02,0.000000000000000000e+00
1.930000000000000000e+02,-3.221175859435433941e-01,0.000000000000000000e+00
1.940000000000000000e+02,-5.432964292320003885e-01,0.000000000000000000e+00
1.950000000000000000e+02,-6.447256982319645724e-01,0.000000000000000000e+00
1.960000000000000000e+02,-7.277334305595164476e-01,0.000000000000000000e+00
1.970000000000000000e+02,-4.020444325984025569e-01,0.000000000000000000e+00
1.980000000000000000e+02,-5.465872435691443432e-01,0.000000000000000000e+00
1.990000000000000000e+02,-4.628130550428550261e-01,0.000000000000000000e+00
2.000000000000000000e+02,-4.046963487784782099e-01,0.000000000000000000e+00
2.010000000000000000e+02,-1.449409099245592136e-01,0.000000000000000000e+00
2.020000000000000000e+02,-3.052483318050076555e-01,0.000000000000000000e+00
2.030000000000000000e+02,-5.336438390213657512e-02,0.000000000000000000e+00
2.040000000000000000e+02,-2.155166527281510980e-01,0.000000000000000000e+00
2.050000000000000000e+02,-2.027569183023543720e-01,0.000000000000000000e+00
2.060000000000000000e+02,-1.959892242910215576e-01,0.000000000000000000e+00
2.070000000000000000e+02,1.079822737564189727e-01,0.000000000000000000e+00
2.080000000000000000e+02,-2.365623589116986059e-01,0.000000000000000000e+00
2.090000000000000000e+02,-6.764544510864982374e-02,0.000000000000000000e+00
2.100000000000000000e+02,-7.645871596598470543e-03,0.000000000000000000e+00
2.110000000000000000e+02,-4.351593315984704502e-02,0.000000000000000000e+00
2.120000000000000000e+02,-6.897829096284531503e-02,0.000000000000000000e+00
2.130000000000000000e+02,8.384388296027002474e-02,0.000000000000000000e+00
2.140000000000000000e+02,2.782750721593713408e-02,0.000000000000000000e+00
2.150000000000000000e+02,-4.487173863620245204e-05,0.000000000000000000e+00
2.160000000000000000e+02,1.607206009429973381e-01,0.000000000000000000e+00
2.170000000000000000e+02,2.768913974382506415e-01,0.000000000000000000e+00
2.180000000000000000e+02,2.211066311469015999e-01,0.000000000000000000e+00
2.190000000000000000e+02,3.626088062058893113e-01,0.000000000000000000e+00
2.200000000000000000e+02,1.505454280072406059e-01,0.000000000000000000e+00
2.210000000000000000e+02,9.964495930400107948e-02,0.000000000000000000e+00
2.220000000000000000e+02,-1.125758826390170220e-01,0.000000000000000000e+00
2.230000000000000000e+02,-3.351959163807984726e-02,0.000000000000000000e+00
2.240000000000000000e+02,-1.231250787886402492e-01,0.000000000000000000e+00
2.250000000000000000e+02,2.285317263646020891e-02,0.000000000000000000e+00
2.260000000000000000e+02,1.339181543901104110e+00,0.000000000000000000e+00
2.270000000000000000e+02,5.745222862943566433e+00,0.000000000000000000e+00
2.280000000000000000e+02,1.750790153909597802e+00,1.000000000000000000e+00
2.290000000000000000e+02,-1.507421393550594901e+00,0.000000000000000000e+00
2.300000000000000000e+02,-8.852563393928687407e-01,0.000000000000000000e+00
2.310000000000000000e+02,-1.168281986339889222e+00,0.000000000000000000e+00
2.320000000000000000e+02,-7.371922292811700084e-01,0.000000000000000000e+00
2.330000000000000000e+02,-9.041770255378605015e-01,0.000000000000000000e+00
2.340000000000000000e+02,-5.190657897011399236e-01,0.000000000000000000e+00
2.350000000000000000e+02,-6.049984568119584072e-01,0.000000000000000000e+00
2.360000000000000000e+02,-2.358983099499141201e-01,0.000000000000000000e+00
2.370000000000000000e+02,-2.916150065849819062e-01,0.000000000000000000e+00
2.380000000000000000e+02,-5.783750563292847091e-02,0.000000000000000000e+00
2.390000000000000000e+02,1.173436853837656405e-02,0.000000000000000000e+00
2.400000000000000000e+02,4.170872173340528510e-01,0.000000000000000000e+00
2.410000000000000000e+02,3.889507201795411317e-01,0.000000000000000000e+00
2.420000000000000000e+02,4.707581995084980098e-01,0.000000000000000000e+00
2.430000000000000000e+02,2.237491146569901002e-01,0.000000000000000000e+00
2.440000000000000000e+02,8.591816030671968474e-02,0.000000000000000000e+00
2.450000000000000000e+02,-2.610585148286644341e-01,0.000000000000000000e+00
2.460000000000000000e+02,-4.567895356037207644e-01,0.000000000000000000e+00
2.470000000000000000e+02,-5.344586328150316978e-01,0.000000000000000000e+00
2.480000000000000000e+02,-6.906591777537131049e-01,0.000000000000000000e+00
2.490000000000000000e+02,-6.038520609614830281e-01,0.000000000000000000e+00
2.500000000000000000e+02,-4.656375527007959869e-01,0.000000000000000000e+00
2.510000000000000000e+02,-4.568878515109972005e-01,0.000000000000000000e+00
2.520000000000000000e+02,-3.041714713651730295e-01,0.000000000000000000e+00
2.530000000000000000e+02,-3.142143872235858004e-01,0.000000000000000000e+00
2.540000000000000000e+02,-1.566947832394090523e-01,0.000000000000000000e+00
2.550000000000000000e+02,-2.169330464136362269e-01,0.000000000000000000e+00
2.560000000000000000e+02,-1.131043500087565261e-02,0.000000000000000000e+00
2.570000000000000000e+02,-2.901162514137761543e-03,0.000000000000000000e+00
2.580000000000000000e+02,-1.011233109930007729e-01,0.000000000000000000e+00
2.590000000000000000e+02,9.613350941350821185e-04,0.000000000000000000e+00
2.600000000000000000e+02,-5.142444960313696106e-02,0.000000000000000000e+00
2.610000000000000000e+02,6.713897984845758338e-02,0.000000000000000000e+00
2.620000000000000000e+02,-5.806305930588502584e-02,0.000000000000000000e+00
2.630000000000000000e+02,-1.267706996339416914e-02,0.000000000000000000e+00
2.640000000000000000e+02,1.098256046196041252e-01,0.000000000000000000e+00
2.650000000000000000e+02,2.480237381950009187e-02,0.000000000000000000e+00
2.660000000000000000e+02,1.672432044010937480e-01,0.000000000000000000e+00
2.670000000000000000e+02,7.195195594632156078e-02,0.000000000000000000e+00
2.680000000000000000e+02,1.713404545566168113e-01,0.000000000000000000e+00
2.690000000000000000e+02,3.123441848558436776e-02,0.000000000000000000e+00
2.700000000000000000e+02,4.048502880025917627e-01,0.000000000000000000e+00
2.710000000000000000e+02,3.703097550676372474e-01,0.000000000000000000e+00
2.720000000000000000e+02,3.913142957541935751e-01,0.000000000000000000e+00
2.730000000000000000e+02,4.206200747452323307e-01,0.000000000000000000e+00
2.740000000000000000e+02,2.353252919286294986e-01,0.000000000000000000e+00
2.750000000000000000e+02,-2.636140403065790824e-02,0.000000000000000000e+00
2.760000000000000000e+02,8.671523705844784088e-03,0.000000000000000000e+00
2.770000000000000000e+02,-1.574052898739720652e-01,0.000000000000000000e+00
2.780000000000000000e+02,8.491241228604883007e-02,0.000000000000000000e+00
2.790000000000000000e+02,1.108157673730084287e-02,0.000000000000000000e+00
2.800000000000000000e+02,2.765893943421573020e+00,0.000000000000000000e+00
2.810000000000000000e+02,6.107045594532332977e+00,0.000000000000000000e+00
2.820000000000000000e+02,2.216729882472745772e-01,1.000000000000000000e+00
2.830000000000000000e+02,-1.305067903887740632e+00,0.000000000000000000e+00
2.840000000000000000e+02,-1.132063161935148221e+00,0.000000000000000000e+00
2.850000000000000000e+02,-1.043061274017418549e+00,0.000000000000000000e+00
2.860000000000000000e+02,-9.444899885624125080e-01,0.000000000000000000e+00
2.870000000000000000e+02,-9.113635108141404650e-01,0.000000000000000000e+00
2.880000000000000000e+02,-8.176966685996832629e-01,0.000000000000000000e+00
2.890000000000000000e+02,-6.082749257746845606e-01,0.000000000000000000e+00
2.900000000000000000e+02,-4.120163651723486309e-01,0.000000000000000000e+00
2.910000000000000000e+02,-3.241624445858677372e-01,0.000000000000000000e+00
2.920000000000000000e+02,8.374564996926816413e-03,0.000000000000000000e+00
2.930000000000000000e+02,5.001988721400461163e-02,0.000000000000000000e+00
2.940000000000000000e+02,2.861070109117074822e-01,0.000000000000000000e+00
2.950000000000000000e+02,3.779992356682717047e-01,0.000000000000000000e+00
2.960000000000000000e+02,3.702328044214083236e-01,0.000000000000000000e+00
2.970000000000000000e+02,2.493140646755669931e-01,0.000000000000000000e+00
2.980000000000000000e+02,-1.009470629593283916e-02,0.000000000000000000e+00
2.990000000000000000e+02,-3.730243995253050837e-01,0.000000000000000000e+00
3.000000000000000000e+02,-4.740125930026027889e-01,0.000000000000000000e+00
3.010000000000000000e+02,-6.198673095947166978e-01,0.000000000000000000e+00
3.020000000000000000e+02,-7.265954774033811514e-01,0.000000000000000000e+00
3.030000000000000000e+02,-5.884828561037597217e-01,0.000000000000000000e+00
3.040000000000000000e+02,-5.353293825548635088e-01,0.000000000000000000e+00
3.050000000000000000e+02,-5.527658530368459999e-01,0.000000000000000000e+00
3.060000000000000000e+02,-3.028613249281734143e-01,0.000000000000000000e+00
3.070000000000000000e+02,-3.342828288070946452e-01,0.000000000000000000e+00
3.080000000000000000e+02,-2.674948344962935765e-01,0.000000000000000000e+00
3.090000000000000000e+02,-1.831867210371917465e-01,0.000000000000000000e+00
3.100000000000000000e+02,-1.481306735981142431e-01,0.000000000000000000e+00
3.110000000000000000e+02,-5.886911963704621886e-02,0.000000000000000000e+00
3.120000000000000000e+02,-1.295629782795725271e-01,0.000000000000000000e+00
3.130000000000000000e+02,-6.598203043158799852e-02,0.000000000000000000e+00
3.140000000000000000e+02,-3.764958617655441570e-02,0.000000000000000000e+00
3.150000000000000000e+02,-5.991638219903137191e-02,0.000000000000000000e+00
3.160000000000000000e+02,5.568602621699680205e-02,0.000000000000000000e+00
3.170000000000000000e+02,1.203867815060140692e-02,0.000000000000000000e+00
3.180000000000000000e+02,3.762746595990467454e-03,0.000000000000000000e+00
3.190000000000000000e+02,5.795073426360794477e-02,0.000000000000000000e+00
3.200000000000000000e+02,2.046640418482959800e-01,0.000000000000000000e+00
3.210000000000000000e+02,1.471966483505086631e-01,0.000000000000000000e+00
3.220000000000000000e+02,1.721140330841830768e-01,0.000000000000000000e+00
3.230000000000000000e+02,7.902329763939597296e-02,0.000000000000000000e+00
3.240000000000000000e+02,1.780578537280894658e-01,0.000000000000000000e+00
3.250000000000000000e+02,4.066279385789377532e-01,0.000000000000000000e+00
3.260000000000000000e+02,4.225441917577765771e-01,0.000000000000000000e+00
3.270000000000000000e+02,3.655138177111606490e-01,0.000000000000000000e+00
3.280000000000000000e+02,5.498533212709724172e-01,0.000000000000000000e+00
3.290000000000000000e+02,3.104957278036538648e-01,0.000000000000000000e+00
3.300000000000000000e+02,2.440965804588582644e-01,0.000000000000000000e+00
3.310000000000000000e+02,4.009827672534176449e-03,0.000000000000000000e+00
3.320000000000000000e+02,1.084597964522421715e-01,0.000000000000000000e+00
3.330000000000000000e+02,-1.152388128880083296e-01,0.000000000000000000e+00
3.340000000000000000e+02,1.710905639798441513e-01,0.000000000000000000e+00
3.350000000000000000e+02,1.105669660852813374e+00,0.000000000000000000e+00
3.360000000000000000e+02,6.320050154642404827e+00,0.000000000000000000e+00
3.370000000000000000e+02,2.294543154042991695e+00,1.000000000000000000e+00
3.380000000000000000e+02,-1.462456506032503212e+00,0.000000000000000000e+00
3.390000000000000000e+02,-9.366008867308232011e-01,0.000000000000000000e+00
3.400000000000000000e+02,-1.323043582140364105e+00,0.000000000000000000e+00
3.410000000000000000e+02,-9.458984015587857952e-01,0.000000000000000000e+00
3.420000000000000000e+02,-9.437142330350909436e-01,0.000000000000000000e+00
3.430000000000000000e+02,-8.267275611801829793e-01,0.000000000000000000e+00
3.440000000000000000e+02,-6.893081256925501776e-01,0.000000000000000000e+00
3.450000000000000000e+02,-5.151542396777107902e-01,0.000000000000000000e+00
3.460000000000000000e+02,-3.835880430726810175e-01,0.000000000000000000e+00
3.470000000000000000e+02,-2.416902635084086925e-01,0.000000000000000000e+00
3.480000000000000000e+02,-8.602494558874790309e-02,0.000000000000000000e+00
3.490000000000000000e+02,2.490796685772842245e-01,0.000000000000000000e+00
3.500000000000000000e+02,3.228874310078198029e-01,0.000000000000000000e+00
3.510000000000000000e+02,3.178641470644638090e-01,0.000000000000000000e+00
3.520000000000000000e+02,2.164310504944821079e-01,0.000000000000000000e+00
3.530000000000000000e+02,2.709154074989395672e-02,0.000000000000000000e+00
3.540000000000000000e+02,-4.214839341739683998e-01,0.000000000000000000e+00
3.550000000000000000e+02,-5.261240305731955669e-01,0.000000000000000000e+00
3.560000000000000000e+02,-6.002968478132753027e-01,0.000000000000000000e+00
3.570000000000000000e+02,-6.692385109156626655e-01,0.000000000000000000e+00
3.580000000000000000e+02,-7.376710034682243400e-01,0.000000000000000000e+00
3.590000000000000000e+02,-6.991495870165234106e-01,0.000000000000000000e+00
3.600000000000000000e+02,-5.925091564882583040e-01,0.000000000000000000e+00
3.610000000000000000e+02,-3.952631276330433874e-01,0.000000000000000000e+00
3.620000000000000000e+02,-3.343058980371657607e-01,0.000000000000000000e+00
3.630000000000000000e+02,-3.826143736767120274e-01,0.000000000000000000e+00
3.640000000000000000e+02,-2.887578183184650871e-01,0.000000000000000000e+00
3.650000000000000000e+02,-1.295017681661368714e-01,0.000000000000000000e+00
3.660000000000000000e+02,-1.778313368533649130e-01,0.000000000000000000e+00
3.670000000000000000e+02,-3.453346950785336766e-02,0.000000000000000000e+00
3.680000000000000000e+02,-1.734906573991484291e-01,0.000000000000000000e+00
3.690000000000000000e+02,-4.421276052158754077e-02,0.000000000000000000e+00
3.700000000000000000e+02,-8.019919888700849375e-02,0.000000000000000000e+00
3.710000000000000000e+02,-3.152070026664691160e-02,0.000000000000000000e+00
3.720000000000000000e+02,-1.242259647513990900e-01,0.000000000000000000e+00
3.730000000000000000e+02,4.329841697298377617e-02,0.000000000000000000e+00
3.740000000000000000e+02,-1.197389360752212483e-03,0.000000000000000000e+00
3.750000000000000000e+02,1.745117089635049301e-01,0.000000000000000000e+00
3.760000000000000000e+02,1.040889141877462537e-01,0.000000000000000000e+00
3.770000000000000000e+02,8.711770457542067359e-02,0.000000000000000000e+00
3.780000000000000000e+02,1.378894776875814743e-01,0.000000000000000000e+00
3.790000000000000000e+02,2.504140326266037220e-01,0.000000000000000000e+00
3.800000000000000000e+02,3.210844243371370199e-01,0.000000000000000000e+00
3.810000000000000000e+02,4.027428341156987224e-01,0.000000000000000000e+00
3.820000000000000000e+02,4.287672376924235862e-01,0.000000000000000000e+00
3.830000000000000000e+02,3.323431071080453769e-01,0.000000000000000000e+00
3.840000000000000000e+02,2.378539279928677252e-01,0.000000000000000000e+00
3.850000000000000000e+02,-1.393982343892709863e-01,0.000000000000000000e+00
3.860000000000000000e+02,9.741965866331062096e-02,0.000000000000000000e+00
3.870000000000000000e+02,3.084936810221812833e-02,0.000000000000000000e+00
3.880000000000000000e+02,9.839997493814159335e-02,0.000000000000000000e+00
3.890000000000000000e+02,6.712093903454819932e-01,0.000000000000000000e+00
3.900000000000000000e+02,5.243226379756602107e+00,0.000000000000000000e+00
3.910000000000000000e+02,2.602302204326257584e+00,1.000000000000000000e+00
3.920000000000000000e+02,-1.862810076600909692e+00,0.000000000000000000e+00
3.930000000000000000e+02,-7.602178969291703003e-01,0.000000000000000000e+00
3.940000000000000000e+02,-1.153736131460544101e+00,0.000000000000000000e+00
3.950000000000000000e+02,-6.407442884158717211e-01,0.000000000000000000e+00
3.960000000000000000e+02,-8.396902822579718206e-01,0.000000000000000000e+00
3.970000000000000000e+02,-4.480830273794719210e-01,0.000000000000000000e+00
3.980000000000000000e+02,-5.523582925641823405e-01,0.000000000000000000e+00
3.990000000000000000e+02,-3.060726983661516964e-01,0.000000000000000000e+00
4.000000000000000000e+02,-2.389883239499369649e-01,0.000000000000000000e+00
4.010000000000000000e+02,-7.344290850374662026e-03,0.000000000000000000e+00
4.020000000000000000e+02,-1.395262877871531262e-02,0.000000000000000000e+00
4.030000000000000000e+02,3.686704843076192284e-01,0.000000000000000000e+00
4.040000000000000000e+02,2.512231970760762101e-01,0.000000000000000000e+00
4.050000000000000000e+02,4.567656983765551737e-01,0.000000000000000000e+00
4.060000000000000000e+02,1.914444160074331158e-01,0.000000000000000000e+00
4.070000000000000000e+02,1.691585521782344725e-01,0.000000000000000000e+00
4.080000000000000000e+02,-1.402705557434257844e-01,0.000000000000000000e+00
4.090000000000000000e+02,-3.610117219191730231e-01,0.000000000000000000e+00
4.100000000000000000e+02,-5.406301644467131906e-01,0.000000000000000000e+00
4.110000000000000000e+02,-6.431364041256288910e-01,0.000000000000000000e+00
4.120000000000000000e+02,-6.603167547132978710e-01,0.000000000000000000e+00
4.130000000000000000e+02,-5.122664246877486338e-01,0.000000000000000000e+00
4.140000000000000000e+02,-5.809064999255052486e-01,0.000000000000000000e+00
4.150000000000000000e+02,-2.660014553794442516e-01,0.000000000000000000e+00
4.160000000000000000e+02,-3.785942117404981766e-01,0.000000000000000000e+00
4.170000000000000000e+02,-2.140224170361713918e-01,0.000000000000000000e+00
4.180000000000000000e+02,-2.419005578066188988e-01,0.000000000000000000e+00
4.190000000000000000e+02,-9.227784772610797548e-02,0.000000000000000000e+00
4.200000000000000000e+02,-2.133031173726658569e-01,0.000000000000000000e+00
4.210000000000000000e+02,-8.765760745430767331e-02,0.000000000000000000e+00
4.220000000000000000e+02,-1.677593100473021848e-01,0.000000000000000000e+00
4.230000000000000000e+02,-1.837414347143683513e-01,0.000000000000000000e+00
4.240000000000000000e+02,5.720971875644065285e-02,0.000000000000000000e+00
4.250000000000000000e+02,-5.030182194072949781e-02,0.000000000000000000e+00
4.260000000000000000e+02,-3.495180713810986523e-03,0.000000000000000000e+00
4.270000000000000000e+02,3.043856404303551394e-02,0.000000000000000000e+00
4.280000000000000000e+02,5.223072513992404325e-02,0.000000000000000000e+00
4.290000000000000000e+02,1.493332269123917866e-01,0.000000000000000000e+00
4.300000000000000000e+02,-2.335889820842455486e-02,0.000000000000000000e+00
4.310000000000000000e+02,1.455513034670315453e-01,0.000000000000000000e+00
4.320000000000000000e+02,1.989827743471303256e-01,0.000000000000000000e+00
4.330000000000000000e+02,2.915749059642204766e-01,0.000000000000000000e+00
4.340000000000000000e+02,2.678537892719365376e-01,0.000000000000000000e+00
4.350000000000000000e+02,5.296632660658516789e-01,0.000000000000000000e+00
4.360000000000000000e+02,3.399759236719105959e-01,0.000000000000000000e+00
4.370000000000000000e+02,-7.740055265351691860e-02,0.000000000000000000e+00
4.380000000000000000e+02,-5.911015962715850808e-02,0.000000000000000000e+00
4.390000000000000000e+02,-4.485715988538972396e-03,0.000000000000000000e+00
4.400000000000000000e+02,-1.189258682930653330e-02,0.000000000000000000e+00
4.410000000000000000e+02,-3.350818251017975702e-02,0.000000000000000000e+00
4.420000000000000000e+02,2.286562340549265659e+00,0.000000000000000000e+00
4.430000000000000000e+02,5.520685789120442166e+00,0.000000000000000000e+00
4.440000000000000000e+02,2.274833168454233612e-01,1.000000000000000000e+00
4.450000000000000000e+02,-1.478070264966864666e+00,0.000000000000000000e+00
4.460000000000000000e+02,-9.586878120744911635e-01,0.000000000000000000e+00
4.470000000000000000e+02,-9.698830191971363757e-01,0.000000000000000000e+00
4.480000000000000000e+02,-8.137133928274855599e-01,0.000000000000000000e+00
4.490000000000000000e+02,-7.850841759899628292e-01,0.000000000000000000e+00
4.500000000000000000e+02,-6.217233713848071552e-01,0.000000000000000000e+00
4.510000000000000000e+02,-4.905226003263574719e-01,0.000000000000000000e+00
4.520000000000000000e+02,-2.920981816648792195e-01,0.000000000000000000e+00
4.530000000000000000e+02,-1.595574132511427823e-01,0.000000000000000000e+00
4.540000000000000000e+02,-4.415326099295329570e-02,0.000000000000000000e+00
4.550000000000000000e+02,8.864582253300389014e-02,0.000000000000000000e+00
4.560000000000000000e+02,4.225843109516637108e-01,0.000000000000000000e+00
4.570000000000000000e+02,4.185349683381310859e-01,0.000000000000000000e+00
4.580000000000000000e+02,4.939534428341020300e-01,0.000000000000000000e+00
4.590000000000000000e+02,1.909198455406637129e-01,0.000000000000000000e+00
4.600000000000000000e+02,1.755869731646804155e-01,0.000000000000000000e+00
4.610000000000000000e+02,-2.403961114585874970e-01,0.000000000000000000e+00
4.620000000000000000e+02,-4.667552396898758671e-01,0.000000000000000000e+00
4.630000000000000000e+02,-5.862721118426931222e-01,0.000000000000000000e+00
4.640000000000000000e+02,-5.647780132405911813e-01,0.000000000000000000e+00
4.650000000000000000e+02,-4.880040305873094009e-01,0.000000000000000000e+00
4.660000000000000000e+02,-3.534615598234916445e-01,0.000000000000000000e+00
4.670000000000000000e+02,-4.182545879736039862e-01,0.000000000000000000e+00
4.680000000000000000e+02,-2.275927001236959235e-01,0.000000000000000000e+00
4.690000000000000000e+02,-1.748806180769670870e-01,0.000000000000000000e+00
4.700000000000000000e+02,-1.662863528601510321e-01,0.000000000000000000e+00
4.710000000000000000e+02,-9.054110740372373067e-02,0.000000000000000000e+00
4.720000000000000000e+02,2.223294023574210951e-02,0.000000000000000000e+00
4.730000000000000000e+02,-6.144725305758532569e-02,0.000000000000000000e+00
4.740000000000000000e+02,-2.175971927169745024e-01,0.000000000000000000e+00
4.750000000000000000e+02,3.251270960033480996e-04,0.000000000000000000e+00
4.760000000000000000e+02,-5.327688007211620752e-02,0.000000000000000000e+00
4.770000000000000000e+02,9.433865972533524158e-02,0.000000000000000000e+00
4.780000000000000000e+02,2.132083677181048978e-02,0.000000000000000000e+00
4.790000000000000000e+02,1.038590327045054058e-02,0.000000000000000000e+00
4.800000000000000000e+02,5.466680424677767408e-02,0.000000000000000000e+00
4.810000000000000000e+02,4.111101962171547636e-02,0.000000000000000000e+00
4.820000000000000000e+02,9.675814817342812124e-02,0.000000000000000000e+00
4.830000000000000000e+02,1.332432080680609199e-01,0.000000000000000000e+00
4.840000000000000000e+02,1.838945576875910537e-01,0.000000000000000000e+00
4.850000000000000000e+02,2.204897480398560206e-01,0.000000000000000000e+00
4.860000000000000000e+02,3.060576658687992890e-01,0.000000000000000000e+00
4.870000000000000000e+02,3.346006615459684030e-01,0.000000000000000000e+00
4.880000000000000000e+02,4.227338295138883817e-01,0.000000000000000000e+00
4.890000000000000000e+02,3.994714407627821262e-01,0.000000000000000000e+00
4.900000000000000000e+02,1.330774425045072595e-01,0.000000000000000000e+00
4.910000000000000000e+02,-1.279029941840116036e-01,0.000000000000000000e+00
4.920000000000000000e+02,2.354670782127466291e-02,0.000000000000000000e+00
4.930000000000000000e+02,-1.678014206051720580e-01,0.000000000000000000e+00
4.940000000000000000e+02,6.085762210288282736e-02,0.000000000000000000e+00
4.950000000000000000e+02,7.563059510697449639e-01,0.000000000000000000e+00
4.960000000000000000e+02,5.644000649403931646e+00,0.000000000000000000e+00
4.970000000000000000e+02,2.972238469227207247e+00,1.000000000000000000e+00
4.980000000000000000e+02,-1.445228583813988887e+00,0.000000000000000000e+00
4.990000000000000000e+02,-9.107681558187634696e-01,0.000000000000000000e+00
5.000000000000000000e+02,-1.412020053548965759e+00,0.000000000000000000e+00
5.010000000000000000e+02,-8.850660100797345109e-01,0.000000000000000000e+00
5.020000000000000000e+02,-1.052508137211599859e+00,0.000000000000000000e+00
5.030000000000000000e+02,-6.891554753034050407e-01,0.000000000000000000e+00
5.040000000000000000e+02,-7.185917955574930849e-01,0.000000000000000000e+00
5.050000000000000000e+02,-4.100300694163838688e-01,0.000000000000000000e+00
5.060000000000000000e+02,-4.885288742230657899e-01,0.000000000000000000e+00
5.070000000000000000e+02,-7.613423398398999620e-02,0.000000000000000000e+00
5.080000000000000000e+02,-1.114236355137536993e-01,0.000000000000000000e+00
5.090000000000000000e+02,2.387869157144919818e-01,0.000000000000000000e+00
5.100000000000000000e+02,3.442901582748887912e-01,0.000000000000000000e+00
5.110000000000000000e+02,3.659555387961329065e-01,0.000000000000000000e+00
5.120000000000000000e+02,2.014818340121913576e-01,0.000000000000000000e+00
5.130000000000000000e+02,1.395314545709985532e-01,0.000000000000000000e+00
5.140000000000000000e+02,-1.945275056785135404e-01,0.000000000000000000e+00
5.150000000000000000e+02,-5.179129929848096392e-01,0.000000000000000000e+00
5.160000000000000000e+02,-7.095431974537943498e-01,0.000000000000000000e+00
5.170000000000000000e+02,-5.453216820975345103e-01,0.000000000000000000e+00
5.180000000000000000e+02,-4.613107136478678538e-01,0.000000000000000000e+00
5.190000000000000000e+02,-4.827388138615030799e-01,0.000000000000000000e+00
5.200000000000000000e+02,-6.078023777216376988e-01,0.000000000000000000e+00
5.210000000000000000e+02,-4.755826168299656098e-01,0.000000000000000000e+00
5.220000000000000000e+02,-3.206918525658542518e-01,0.000000000000000000e+00
5.230000000000000000e+02,-2.618213690725051945e-01,0.000000000000000000e+00
5.240000000000000000e+02,-1.805975955861192361e-01,0.000000000000000000e+00
5.250000000000000000e+02,-8.460485427389452529e-02,0.000000000000000000e+00
5.260000000000000000e+02,-2.186462696946768203e-01,0.000000000000000000e+00
5.270000000000000000e+02,-5.699046635886788337e-02,0.000000000000000000e+00
5.280000000000000000e+02,-1.296364408536687107e-01,0.000000000000000000e+00
5.290000000000000000e+02,7.102891168550154455e-02,0.000000000000000000e+00
5.300000000000000000e+02,-3.393529701157559780e-02,0.000000000000000000e+00
5.310000000000000000e+02,-3.044701518080672117e-02,0.000000000000000000e+00
5.320000000000000000e+02,7.530290192380396930e-02,0.000000000000000000e+00
5.330000000000000000e+02,1.423613514247981104e-01,0.000000000000000000e+00
5.340000000000000000e+02,-8.705737556114050146e-02,0.000000000000000000e+00
5.350000000000000000e+02,1.958950081050690462e-01,0.000000000000000000e+00
5.360000000000000000e+02,1.310160040752401389e-01,0.000000000000000000e+00
5.370000000000000000e+02,1.368150182177261531e-01,0.000000000000000000e+00
5.380000000000000000e+02,1.529151089157425036e-01,0.000000000000000000e+00
5.390000000000000000e+02,4.017637387180440500e-01,0.000000000000000000e+00
5.400000000000000000e+02,2.550370388675296529e-01,0.000000000000000000e+00
5.410000000000000000e+02,5.190457531260160851e-01,0.000000000000000000e+00
5.420000000000000000e+02,4.258341409490213891e-01,0.000000000000000000e+00
5.430000000000000000e+02,3.893938945238323290e-01,0.000000000000000000e+00
5.440000000000000000e+02,-1.004542023363122066e-01,0.000000000000000000e+00
5.450000000000000000e+02,7.860982741639216398e-02,0.000000000000000000e+00
5.460000000000000000e+02,-9.782965569189862320e-02,0.000000000000000000e+00
5.470000000000000000e+02,7.711565274169843165e-02,0.000000000000000000e+00
5.480000000000000000e+02,-7.953563998983078850e-03,0.000000000000000000e+00
5.490000000000000000e+02,2.446047548875716959e+00,0.000000000000000000e+00
5.500000000000000000e+02,6.153568167435153669e+00,0.000000000000000000e+00
5.510000000000000000e+02,6.717887009981643454e-01,1.000000000000000000e+00
5.520000000000000000e+02,-1.361533883312588511e+00,0.000000000000000000e+00
5.530000000000000000e+02,-1.140933666921630563e+00,0.000000000000000000e+00
5.540000000000000000e+02,-1.258694733815608702e+00,0.000000000000000000e+00
5.550000000000000000e+02,-1.095475672218461316e+00,0.000000000000000000e+00
5.560000000000000000e+02,-9.285659584638801256e-01,0.000000000000000000e+00
5.570000000000000000e+02,-7.250217032988733878e-01,0.000000000000000000e+00
5.580000000000000000e+02,-7.113085416564244312e-01,0.000000000000000000e+00
5.590000000000000000e+02,-5.300998166604323769e-01,0.000000000000000000e+00
5.600000000000000000e+02,-4.696859333822985816e-01,0.000000000000000000e+00
5.610000000000000000e+02,-1.849573094080212421e-01,0.000000000000000000e+00
5.620000000000000000e+02,-3.175717196548462351e-02,0.000000000000000000e+00
5.630000000000000000e+02,3.235237563305413677e-01,0.000000000000000000e+00
5.640000000000000000e+02,3.080839562656258468e-01,0.000000000000000000e+00
5.650000000000000000e+02,3.279075745889621363e-01,0.000000000000000000e+00
5.660000000000000000e+02,1.341178966059944633e-01,0.000000000000000000e+00
5.670000000000000000e+02,-1.530851684066423801e-01,0.000000000000000000e+00
5.680000000000000000e+02,-3.378327772345424695e-01,0.000000000000000000e+00
5.690000000000000000e+02,-4.926379547113314827e-01,0.000000000000000000e+00
5.700000000000000000e+02,-8.154150059591127597e-01,0.000000000000000000e+00
5.710000000000000000e+02,-6.750376403955544724e-01,0.000000000000000000e+00
5.720000000000000000e+02,-7.256807341833898528e-01,0.000000000000000000e+00
5.730000000000000000e+02,-6.341926271987493591e-01,0.000000000000000000e+00
5.740000000000000000e+02,-4.278266838092205093e-01,0.000000000000000000e+00
5.750000000000000000e+02,-4.776832496048010190e-01,0.000000000000000000e+00
5.760000000000000000e+02,-3.782647637322167355e-01,0.000000000000000000e+00
5.770000000000000000e+02,-2.701201995312985660e-01,0.000000000000000000e+00
5.780000000000000000e+02,-3.272408935183293011e-01,0.000000000000000000e+00
5.790000000000000000e+02,-6.935142013673993577e-02,0.000000000000000000e+00
5.800000000000000000e+02,-2.266274117194152227e-01,0.000000000000000000e+00
5.810000000000000000e+02,-3.956728236232108509e-02,0.000000000000000000e+00
5.820000000000000000e+02,-1.286561462731100336e-01,0.000000000000000000e+00
5.830000000000000000e+02,-1.267598164788479864e-01,0.000000000000000000e+00
5.840000000000000000e+02,-7.003077818331334900e-03,0.000000000000000000e+00
5.850000000000000000e+02,-1.159672987755759749e-01,0.000000000000000000e+00
5.860000000000000000e+02,2.286652464495744080e-02,0.000000000000000000e+00
5.870000000000000000e+02,7.405797744347517031e-02,0.000000000000000000e+00
5.880000000000000000e+02,6.192536545357157918e-02,0.000000000000000000e+00
5.890000000000000000e+02,1.912189016407154357e-02,0.000000000000000000e+00
5.900000000000000000e+02,1.431350783446272701e-01,0.000000000000000000e+00
5.910000000000000000e+02,1.902198467397195336e-01,0.000000000000000000e+00
5.920000000000000000e+02,4.555813539384739874e-01,0.000000000000000000e+00
5.930000000000000000e+02,3.779877615098042321e-01,0.000000000000000000e+00
5.940000000000000000e+02,4.367380685490953041e-01,0.000000000000000000e+00
5.950000000000000000e+02,3.528088987733287163e-01,0.000000000000000000e+00
5.960000000000000000e+02,3.056267351425842604e-01,0.000000000000000000e+00
5.970000000000000000e+02,-1.059409339165853087e-02,0.000000000000000000e+00
5.980000000000000000e+02,1.026844819072434412e-01,0.000000000000000000e+00
5.990000000000000000e+02,-1.763506335016093093e-02,0.000000000000000000e+00
6.000000000000000000e+02,1.411754651905720859e-01,0.000000000000000000e+00
6.010000000000000000e+02,-3.805121612563745759e-02,0.000000000000000000e+00
6.020000000000000000e+02,2.968708329405274515e+00,0.000000000000000000e+00
6.030000000000000000e+02,5.795270447994083085e+00,0.000000000000000000e+00
6.040000000000000000e+02,-4.490596886013003552e-01,1.000000000000000000e+00
6.050000000000000000e+02,-1.151289212513885163e+00,0.000000000000000000e+00
6.060000000000000000e+02,-9.948264001147291147e-01,0.000000000000000000e+00
6.070000000000000000e+02,-9.604464779032788613e-01,0.000000000000000000e+00
6.080000000000000000e+02,-8.911379849391455332e-01,0.000000000000000000e+00
6.090000000000000000e+02,-7.528291066988409552e-01,0.000000000000000000e+00
6.100000000000000000e+02,-6.930146540501076480e-01,0.000000000000000000e+00
6.110000000000000000e+02,-3.851761884240613720e-01,0.000000000000000000e+00
6.120000000000000000e+02,-3.370015996944236703e-01,0.000000000000000000e+00
6.130000000000000000e+02,-1.297297116475610579e-01,0.000000000000000000e+00
6.140000000000000000e+02,1.057150300347620316e-02,0.000000000000000000e+00
6.150000000000000000e+02,1.647086047638370576e-01,0.000000000000000000e+00
6.160000000000000000e+02,3.179718482342256958e-01,0.000000000000000000e+00
6.170000000000000000e+02,4.977314485777066810e-01,0.000000000000000000e+00
6.180000000000000000e+02,3.405698539041613349e-01,0.000000000000000000e+00
6.190000000000000000e+02,2.474864681354286555e-01,0.000000000000000000e+00
6.200000000000000000e+02,-1.784348115601734272e-02,0.000000000000000000e+00
6.210000000000000000e+02,-2.110606428308411109e-01,0.000000000000000000e+00
6.220000000000000000e+02,-5.498368075663745413e-01,0.000000000000000000e+00
6.230000000000000000e+02,-6.254033880991106686e-01,0.000000000000000000e+00
6.240000000000000000e+02,-5.236006934409919156e-01,0.000000000000000000e+00
6.250000000000000000e+02,-6.256707821607543352e-01,0.000000000000000000e+00
6.260000000000000000e+02,-5.022111913835404229e-01,0.000000000000000000e+00
6.270000000000000000e+02,-4.071230501725107143e-01,0.000000000000000000e+00
6.280000000000000000e+02,-3.069291796030456099e-01,0.000000000000000000e+00
6.290000000000000000e+02,-3.391423577165207925e-01,0.000000000000000000e+00
6.300000000000000000e+02,-1.660880494215355996e-01,0.000000000000000000e+00
6.310000000000000000e+02,-1.438283058180399657e-02,0.000000000000000000e+00
6.320000000000000000e+02,-1.281598962203045755e-01,0.000000000000000000e+00
6.330000000000000000e+02,-1.039069564266044063e-02,0.000000000000000000e+00
6.340000000000000000e+02,-2.236178677475047782e-01,0.000000000000000000e+00
6.350000000000000000e+02,-8.334105090166617213e-02,0.000000000000000000e+00
6.360000000000000000e+02,-2.017762995857491914e-01,0.000000000000000000e+00
6.370000000000000000e+02,2.471599744506473850e-02,0.000000000000000000e+00
6.380000000000000000e+02,-7.421379814296270860e-02,0.000000000000000000e+00
6.390000000000000000e+02,-1.615490597858052629e-02,0.000000000000000000e+00
6.400000000000000000e+02,1.472951669254507837e-02,0.000000000000000000e+00
6.410000000000000000e+02,3.799251023686897599e-02,0.000000000000000000e+00
6.420000000000000000e+02,2.301054008411877738e-02,0.000000000000000000e+00
6.430000000000000000e+02,2.407807039866809995e-01,0.000000000000000000e+00
6.440000000000000000e+02,1.791137401962840103e-01,0.000000000000000000e+00
6.450000000000000000e+02,3.495564516806904942e-01,0.000000000000000000e+00
6.460000000000000000e+02,3.930275582314332050e-01,0.000000000000000000e+00
6.470000000000000000e+02,4.176767838105768793e-01,0.000000000000000000e+00
6.480000000000000000e+02,4.745961543279331729e-01,0.000000000000000000e+00
6.490000000000000000e+02,3.858260475449115101e-01,0.000000000000000000e+00
6.500000000000000000e+02,3.580882075896642952e-02,0.000000000000000000e+00
6.510000000000000000e+02,1.319222375481345910e-01,0.000000000000000000e+00
6.520000000000000000e+02,5.641750935827300611e-02,0.000000000000000000e+00
6.530000000000000000e+02,9.972861771563605593e-02,0.000000000000000000e+00
6.540000000000000000e+02,5.724693844701376870e-03,0.000000000000000000e+00
6.550000000000000000e+02,2.175450225952202388e+00,0.000000000000000000e+00
6.560000000000000000e+02,6.456425300990478178e+00,0.000000000000000000e+00
6.570000000000000000e+02,1.203287043198554507e+00,1.000000000000000000e+00
6.580000000000000000e+02,-1.398373246743178422e+00,0.000000000000000000e+00
6.590000000000000000e+02,-1.004264756888011201e+00,0.000000000000000000e+00
6.600000000000000000e+02,-1.199105126070443950e+00,0.000000000000000000e+00
6.610000000000000000e+02,-8.708475430122784022e-01,0.000000000000000000e+00
6.620000000000000000e+02,-8.512116302229179032e-01,0.000000000000000000e+00
6.630000000000000000e+02,-5.845307688219147924e-01,0.000000000000000000e+00
6.640000000000000000e+02,-6.667334434244179819e-01,0.000000000000000000e+00
6.650000000000000000e+02,-2.908195299785434895e-01,0.000000000000000000e+00
6.660000000000000000e+02,-3.591669923651380492e-01,0.000000000000000000e+00
6.670000000000000000e+02,-3.042953627052603915e-02,0.000000000000000000e+00
6.680000000000000000e+02,1.093380113239555418e-01,0.000000000000000000e+00
6.690000000000000000e+02,3.826058159710087336e-01,0.000000000000000000e+00
6.700000000000000000e+02,3.151859488210367877e-01,0.000000000000000000e+00
6.710000000000000000e+02,4.542285108897355927e-01,0.000000000000000000e+00
6.720000000000000000e+02,2.279307980796584365e-01,0.000000000000000000e+00
6.730000000000000000e+02,1.106226904033479896e-01,0.000000000000000000e+00
6.740000000000000000e+02,-2.700658169302477263e-01,0.000000000000000000e+00
6.750000000000000000e+02,-5.789763836717620737e-01,0.000000000000000000e+00
6.760000000000000000e+02,-5.984720083857028028e-01,0.000000000000000000e+00
6.770000000000000000e+02,-6.218389890416797794e-01,0.000000000000000000e+00
6.780000000000000000e+02,-8.021093764317972497e-01,0.000000000000000000e+00
6.790000000000000000e+02,-5.112185978352422611e-01,0.000000000000000000e+00
6.800000000000000000e+02,-4.549442258917480442e-01,0.000000000000000000e+00
6.810000000000000000e+02,-2.938563926328888742e-01,0.000000000000000000e+00
6.820000000000000000e+02,-4.947984127420502198e-01,0.000000000000000000e+00
6.830000000000000000e+02,-1.601376758845564907e-01,0.000000000000000000e+00
6.840000000000000000e+02,-2.310281591797742340e-01,0.000000000000000000e+00
6.850000000000000000e+02,-9.351597791003542215e-02,0.000000000000000000e+00
6.860000000000000000e+02,-1.222774896938164657e-01,0.000000000000000000e+00
6.870000000000000000e+02,-3.340357137990413589e-02,0.000000000000000000e+00
6.880000000000000000e+02,-1.685696779240660192e-01,0.000000000000000000e+00
6.890000000000000000e+02,-9.465851369859540343e-02,0.000000000000000000e+00
6.900000000000000000e+02,-1.292804086641773098e-01,0.000000000000000000e+00
6.910000000000000000e+02,1.945780997438171719e-02,0.000000000000000000e+00
6.920000000000000000e+02,-4.820735286839771677e-02,0.000000000000000000e+00
6.930000000000000000e+02,-6.765044991669201535e-02,0.000000000000000000e+00
6.940000000000000000e+02,1.595482891388992977e-02,0.000000000000000000e+00
6.950000000000000000e+02,-2.118862230991124668e-02,0.000000000000000000e+00
6.960000000000000000e+02,4.266892904670544634e-02,0.000000000000000000e+00
6.970000000000000000e+02,1.933692831749905805e-01,0.000000000000000000e+00
6.980000000000000000e+02,-2.645224637068267770e-02,0.000000000000000000e+00
6.990000000000000000e+02,3.590955617489241525e-01,0.000000000000000000e+00
7.000000000000000000e+02,2.608259418752345016e-01,0.000000000000000000e+00
7.010000000000000000e+02,4.766301536175364117e-01,0.000000000000000000e+00
7.020000000000000000e+02,2.843103238939109212e-01,0.000000000000000000e+00
7.030000000000000000e+02,1.709269893253143879e-01,0.000000000000000000e+00
7.040000000000000000e+02,-2.945215701798342134e-01,0.000000000000000000e+00
7.050000000000000000e+02,7.855454883909507302e-02,0.000000000000000000e+00
7.060000000000000000e+02,-2.343423686752069135e-01,0.000000000000000000e+00
7.070000000000000000e+02,2.225274155001050191e-01,0.000000000000000000e+00
7.080000000000000000e+02,4.452126380009588380e-01,0.000000000000000000e+00
7.090000000000000000e+02,5.524707424931909472e+00,0.000000000000000000e+00
7.100000000000000000e+02,2.748992484145788229e+00,1.000000000000000000e+00
7.110000000000000000e+02,-1.631073212470093514e+00,0.000000000000000000e+00
7.120000000000000000e+02,-8.572398191169828818e-01,0.000000000000000000e+00
7.130000000000000000e+02,-1.273854405677834034e+00,0.000000000000000000e+00
7.140000000000000000e+02,-8.558007906970058754e-01,0.000000000000000000e+00
7.150000000000000000e+02,-7.920139171076564510e-01,0.000000000000000000e+00
7.160000000000000000e+02,-5.782020026177339123e-01,0.000000000000000000e+00
7.170000000000000000e+02,-5.933458953604187069e-01,0.000000000000000000e+00
7.180000000000000000e+02,-3.886404908778357536e-01,0.000000000000000000e+00
7.190000000000000000e+02,-3.917573028511412425e-01,0.000000000000000000e+00
7.200000000000000000e+02,-6.328550735405169547e-02,0.000000000000000000e+00
7.210000000000000000e+02,5.729898768927799840e-02,0.000000000000000000e+00
7.220000000000000000e+02,2.606018048064160930e-01,0.000000000000000000e+00
7.230000000000000000e+02,2.861544541804558750e-01,0.000000000000000000e+00
7.240000000000000000e+02,4.236310641093962159e-01,0.000000000000000000e+00
7.250000000000000000e+02,3.041894047114628852e-01,0.000000000000000000e+00
7.260000000000000000e+02,9.375042562265500923e-02,0.000000000000000000e+00
7.270000000000000000e+02,-1.312025939914972794e-01,0.000000000000000000e+00
7.280000000000000000e+02,-4.431669727415873949e-01,0.000000000000000000e+00
7.290000000000000000e+02,-6.427867221809445697e-01,0.000000000000000000e+00
7.300000000000000000e+02,-6.981530205957585666e-01,0.000000000000000000e+00
7.310000000000000000e+02,-5.852570805033678880e-01,0.000000000000000000e+00
7.320000000000000000e+02,-7.034640308086247407e-01,0.000000000000000000e+00
7.330000000000000000e+02,-3.907501539489548481e-01,0.000000000000000000e+00
7.340000000000000000e+02,-4.370986434094569772e-01,0.000000000000000000e+00
7.350000000000000000e+02,-2.479785648772842854e-01,0.000000000000000000e+00
7.360000000000000000e+02,-2.862737832678735050e-01,0.000000000000000000e+00
7.370000000000000000e+02,-2.148686968160512800e-01,0.000000000000000000e+00
7.380000000000000000e+02,-2.825814323012029727e-01,0.000000000000000000e+00
7.390000000000000000e+02,-2.355684015975922918e-01,0.000000000000000000e+00
7.400000000000000000e+02,-9.277612296874471198e-02,0.000000000000000000e+00
7.410000000000000000e+02,-1.699731085155556931e-01,0.000000000000000000e+00
7.420000000000000000e+02,-1.555470824007659236e-01,0.000000000000000000e+00
7.430000000000000000e+02,-1.316363267129983805e-01,0.000000000000000000e+00
7.440000000000000000e+02,-6.500371309607411163e-02,0.000000000000000000e+00
7.450000000000000000e+02,-3.129747351961452602e-03,0.000000000000000000e+00
7.460000000000000000e+02,-5.068294994251543173e-02,0.000000000000000000e+00
7.470000000000000000e+02,-1.171183089680819314e-02,0.000000000000000000e+00
7.480000000000000000e+02,-4.377807163128171614e-03,0.000000000000000000e+00
7.490000000000000000e+02,1.833380843231348645e-01,0.000000000000000000e+00
7.500000000000000000e+02,1.655815057554816394e-01,0.000000000000000000e+00
7.510000000000000000e+02,2.349696923410966587e-01,0.000000000000000000e+00
7.520000000000000000e+02,2.396025967392448330e-01,0.000000000000000000e+00
7.530000000000000000e+02,4.561036282294603783e-01,0.000000000000000000e+00
7.540000000000000000e+02,3.392683034769338746e-01,0.000000000000000000e+00
7.550000000000000000e+02,3.629866994336548025e-01,0.000000000000000000e+00
7.560000000000000000e+02,-1.672480458560184902e-01,0.000000000000000000e+00
7.570000000000000000e+02,1.123356502710113197e-01,0.000000000000000000e+00
7.580000000000000000e+02,-7.925310451023519220e-02,0.000000000000000000e+00
7.590000000000000000e+02,1.757043322896695847e-01,0.000000000000000000e+00
7.600000000000000000e+02,6.593914107928483537e-01,0.000000000000000000e+00
7.610000000000000000e+02,5.066767844096673912e+00,0.000000000000000000e+00
7.620000000000000000e+02,2.981759522967402987e+00,1.000000000000000000e+00
7.630000000000000000e+02,-1.711957887273408696e+00,0.000000000000000000e+00
7.640000000000000000e+02,-7.223788565742758072e-01,0.000000000000000000e+00
7.650000000000000000e+02,-1.103909816119086340e+00,0.000000000000000000e+00
7.660000000000000000e+02,-6.031284927443857358e-01,0.000000000000000000e+00
7.670000000000000000e+02,-6.603665805538642131e-01,0.000000000000000000e+00
7.680000000000000000e+02,-4.582836375094922476e-01,0.000000000000000000e+00
7.690000000000000000e+02,-4.572094466871657326e-01,0.000000000000000000e+00
7.700000000000000000e+02,-2.466476252881494580e-01,0.000000000000000000e+00
7.710000000000000000e+02,-2.810431131936093618e-01,0.000000000000000000e+00
7.720000000000000000e+02,5.348815067996545020e-02,0.000000000000000000e+00
7.730000000000000000e+02,1.830385449401498998e-01,0.000000000000000000e+00
7.740000000000000000e+02,1.712912594580839609e-01,0.000000000000000000e+00
7.750000000000000000e+02,4.112497569248410034e-01,0.000000000000000000e+00
7.760000000000000000e+02,4.832013742991797534e-01,0.000000000000000000e+00
7.770000000000000000e+02,3.871916902824195095e-01,0.000000000000000000e+00
7.780000000000000000e+02,2.422474436245635743e-01,0.000000000000000000e+00
7.790000000000000000e+02,-6.963657502919812226e-02,0.000000000000000000e+00
7.800000000000000000e+02,-3.117425563662698518e-01,0.000000000000000000e+00
7.810000000000000000e+02,-5.079242474893670423e-01,0.000000000000000000e+00
7.820000000000000000e+02,-6.652841095351783585e-01,0.000000000000000000e+00
7.830000000000000000e+02,-5.557721125763712688e-01,0.000000000000000000e+00
7.840000000000000000e+02,-4.876259504940451128e-01,0.000000000000000000e+00
7.850000000000000000e+02,-4.239928267946479479e-01,0.000000000000000000e+00
7.860000000000000000e+02,-3.600474328078520636e-01,0.000000000000000000e+00
7.870000000000000000e+02,-3.336429518135804462e-01,0.000000000000000000e+00
7.880000000000000000e+02,-1.770547065310507373e-01,0.000000000000000000e+00
7.890000000000000000e+02,-1.088495612363448301e-01,0.000000000000000000e+00
7.900000000000000000e+02,-1.342508336511815670e-01,0.000000000000000000e+00
7.910000000000000000e+02,-6.118534982339591394e-02,0.000000000000000000e+00
7.920000000000000000e+02,-2.057948844581961589e-01,0.000000000000000000e+00
7.930000000000000000e+02,-1.482501505733653802e-01,0.000000000000000000e+00
7.940000000000000000e+02,-3.190134596728209926e-02,0.000000000000000000e+00
7.950000000000000000e+02,-4.707136411663735004e-02,0.000000000000000000e+00
7.960000000000000000e+02,-7.240684766263319125e-03,0.000000000000000000e+00
7.970000000000000000e+02,-1.902405895746871883e-02,0.000000000000000000e+00
7.980000000000000000e+02,-7.082206745024370587e-02,0.000000000000000000e+00
7.990000000000000000e+02,-1.129419092882690823e-01,0.000000000000000000e+00
8.000000000000000000e+02,1.643664947137434551e-01,0.000000000000000000e+00
8.010000000000000000e+02,9.380832708547394427e-02,0.000000000000000000e+00
8.020000000000000000e+02,2.589792211179984260e-01,0.000000000000000000e+00
8.030000000000000000e+02,2.505340132873701275e-01,0.000000000000000000e+00
8.040000000000000000e+02,4.009383172984137267e-01,0.000000000000000000e+00
8.050000000000000000e+02,2.935010950079350867e-01,0.000000000000000000e+00
8.060000000000000000e+02,3.782749558432288994e-01,0.000000000000000000e+00
8.070000000000000000e+02,7.522367201568085082e-02,0.000000000000000000e+00
8.080000000000000000e+02,-2.193414065039072866e-02,0.000000000000000000e+00
8.090000000000000000e+02,-1.118131941652131117e-01,0.000000000000000000e+00
8.100000000000000000e+02,4.314343169834517974e-03,0.000000000000000000e+00
8.110000000000000000e+02,-6.829851157009035612e-02,0.000000000000000000e+00
8.120000000000000000e+02,2.076980783802222064e+00,0.000000000000000000e+00
8.130000000000000000e+02,6.110953700846949666e+00,0.000000000000000000e+00
8.140000000000000000e+02,9.142959101605285799e-01,1.000000000000000000e+00
8.150000000000000000e+02,-1.538420713885060520e+00,0.000000000000000000e+00
8.160000000000000000e+02,-1.109612986119891342e+00,0.000000000000000000e+00
8.170000000000000000e+02,-1.166381188050260143e+00,0.000000000000000000e+00
8.180000000000000000e+02,-9.874439703583830497e-01,0.000000000000000000e+00
8.190000000000000000e+02,-8.691133453827433186e-01,0.000000000000000000e+00
8.200000000000000000e+02,-7.267811908484616001e-01,0.000000000000000000e+00
8.210000000000000000e+02,-6.830824608773116147e-01,0.000000000000000000e+00
8.220000000000000000e+02,-4.640727234873577856e-01,0.000000000000000000e+00
8.230000000000000000e+02,-2.954733848526003848e-01,0.000000000000000000e+00
8.240000000000000000e+02,-1.002854116058771033e-01,0.000000000000000000e+00
8.250000000000000000e+02,3.391320752871628680e-02,0.000000000000000000e+00
8.260000000000000000e+02,1.552631264946952305e-01,0.000000000000000000e+00
8.270000000000000000e+02,4.386380192670365497e-01,0.000000000000000000e+00
8.280000000000000000e+02,3.094639008998799068e-01,0.000000000000000000e+00
8.290000000000000000e+02,1.759960486478102104e-01,0.000000000000000000e+00
8.300000000000000000e+02,3.471362257668764162e-02,0.000000000000000000e+00
8.310000000000000000e+02,-2.327513686689919592e-01,0.000000000000000000e+00
8.320000000000000000e+02,-5.297349555930889187e-01,0.000000000000000000e+00
8.330000000000000000e+02,-7.402298606498342037e-01,0.000000000000000000e+00
8.340000000000000000e+02,-5.942762672349825026e-01,0.000000000000000000e+00
8.350000000000000000e+02,-5.275049289956699194e-01,0.000000000000000000e+00
8.360000000000000000e+02,-5.068332399384608555e-01,0.000000000000000000e+00
8.370000000000000000e+02,-4.533349697149427482e-01,0.000000000000000000e+00
8.380000000000000000e+02,-3.541067552777892313e-01,0.000000000000000000e+00
8.390000000000000000e+02,-3.471384920074482294e-01,0.000000000000000000e+00
8.400000000000000000e+02,-2.600658165243638908e-01,0.000000000000000000e+00
8.410000000000000000e+02,-1.416854277445777077e-01,0.000000000000000000e+00
8.420000000000000000e+02,-6.691508583876028260e-02,0.000000000000000000e+00
8.430000000000000000e+02,-1.060023528144740379e-01,0.000000000000000000e+00
8.440000000000000000e+02,-4.431017092107480959e-02,0.000000000000000000e+00
8.450000000000000000e+02,-1.119972869969127899e-01,0.000000000000000000e+00
8.460000000000000000e+02,-3.288788475708489395e-02,0.000000000000000000e+00
8.470000000000000000e+02,-4.506665497020490713e-02,0.000000000000000000e+00
8.480000000000000000e+02,1.019279247293468638e-01,0.000000000000000000e+00
8.490000000000000000e+02,9.583296633538488860e-03,0.000000000000000000e+00
8.500000000000000000e+02,6.660073804265485668e-03,0.000000000000000000e+00
8.510000000000000000e+02,7.754768069669575048e-02,0.000000000000000000e+00
8.520000000000000000e+02,1.382450950211941143e-01,0.000000000000000000e+00
8.530000000000000000e+02,9.827319280680561764e-02,0.000000000000000000e+00
8.540000000000000000e+02,1.786825065048457395e-01,0.000000000000000000e+00
8.550000000000000000e+02,1.636174924529635311e-01,0.000000000000000000e+00
8.560000000000000000e+02,3.954597706677021041e-01,0.000000000000000000e+00
8.570000000000000000e+02,4.008152759033713486e-01,0.000000000000000000e+00
8.580000000000000000e+02,5.054090503068469076e-01,0.000000000000000000e+00
8.590000000000000000e+02,3.058965636036508062e-01,0.000000000000000000e+00
8.600000000000000000e+02,6.799056882527668155e-02,0.000000000000000000e+00
8.610000000000000000e+02,-8.483830338964215567e-02,0.000000000000000000e+00
8.620000000000000000e+02,9.197251515313199788e-02,0.000000000000000000e+00
8.630000000000000000e+02,-8.548703030746197806e-02,0.000000000000000000e+00
8.640000000000000000e+02,1.374496641344361558e-01,0.000000000000000000e+00
8.650000000000000000e+02,1.413053733241532051e+00,0.000000000000000000e+00
8.660000000000000000e+02,6.528344400144640680e+00,0.000000000000000000e+00
8.670000000000000000e+02,1.801900883011479770e+00,1.000000000000000000e+00
8.680000000000000000e+02,-1.354323494912959669e+00,0.000000000000000000e+00
8.690000000000000000e+02,-9.911147370524079347e-01,0.000000000000000000e+00
8.700000000000000000e+02,-1.218021855303215828e+00,0.000000000000000000e+00
8.710000000000000000e+02,-9.446309188610311214e-01,0.000000000000000000e+00
8.720000000000000000e+02,-9.702489234571011201e-01,0.000000000000000000e+00
8.730000000000000000e+02,-6.053219303259648187e-01,0.000000000000000000e+00
8.740000000000000000e+02,-7.722591643914965553e-01,0.000000000000000000e+00
8.750000000000000000e+02,-4.178274936516223614e-01,0.000000000000000000e+00
8.760000000000000000e+02,-4.765130120337670583e-01,0.000000000000000000e+00
8.770000000000000000e+02,-7.106222932674065296e-02,0.000000000000000000e+00
8.780000000000000000e+02,-7.124030100259794163e-02,0.000000000000000000e+00
8.790000000000000000e+02,2.974944865067766231e-01,0.000000000000000000e+00
8.800000000000000000e+02,2.945202871817680368e-01,0.000000000000000000e+00
8.810000000000000000e+02,4.225588789905963538e-01,0.000000000000000000e+00
8.820000000000000000e+02,1.775899542690155819e-01,0.000000000000000000e+00
8.830000000000000000e+02,8.066419157745831348e-02,0.000000000000000000e+00
8.840000000000000000e+02,-2.514820959198306172e-01,0.000000000000000000e+00
8.850000000000000000e+02,-4.611155817200196516e-01,0.000000000000000000e+00
8.860000000000000000e+02,-6.843593002426339167e-01,0.000000000000000000e+00
8.870000000000000000e+02,-4.542469058177794339e-01,0.000000000000000000e+00
8.880000000000000000e+02,-6.793802533926256437e-01,0.000000000000000000e+00
8.890000000000000000e+02,-4.488386485239256873e-01,0.000000000000000000e+00
8.900000000000000000e+02,-4.503690223280562011e-01,0.000000000000000000e+00
8.910000000000000000e+02,-3.962832584323442986e-01,0.000000000000000000e+00
8.920000000000000000e+02,-4.332264584290947962e-01,0.000000000000000000e+00
8.930000000000000000e+02,-9.053394105731719932e-02,0.000000000000000000e+00
8.940000000000000000e+02,-2.012773819414332144e-01,0.000000000000000000e+00
8.950000000000000000e+02,-1.608606873149562577e-01,0.000000000000000000e+00
8.960000000000000000e+02,-1.731689570040801651e-01,0.000000000000000000e+00
8.970000000000000000e+02,2.969682240353585176e-02,0.000000000000000000e+00
8.980000000000000000e+02,-1.694574173631225311e-01,0.000000000000000000e+00
8.990000000000000000e+02,1.542354971862914571e-02,0.000000000000000000e+00
9.000000000000000000e+02,-1.189889055616930730e-01,0.000000000000000000e+00
9.010000000000000000e+02,-8.973586328053832772e-03,0.000000000000000000e+00
9.020000000000000000e+02,8.466557228326211659e-02,0.000000000000000000e+00
9.030000000000000000e+02,1.176691306414472254e-01,0.000000000000000000e+00
9.040000000000000000e+02,1.950480965083980275e-03,0.000000000000000000e+00
9.050000000000000000e+02,5.402271350252396687e-02,0.000000000000000000e+00
9.060000000000000000e+02,1.326348256415503524e-02,0.000000000000000000e+00
9.070000000000000000e+02,1.455680952031848385e-01,0.000000000000000000e+00
9.080000000000000000e+02,2.204517631598304495e-01,0.000000000000000000e+00
9.090000000000000000e+02,4.913568460915760938e-01,0.000000000000000000e+00
9.100000000000000000e+02,2.901525740350504590e-01,0.000000000000000000e+00
9.110000000000000000e+02,3.724379282863963803e-01,0.000000000000000000e+00
9.120000000000000000e+02,2.412786470892695212e-01,0.000000000000000000e+00
9.130000000000000000e+02,3.226035965855440502e-01,0.000000000000000000e+00
9.140000000000000000e+02,-2.017956479092113953e-01,0.000000000000000000e+00
9.150000000000000000e+02,2.861285891685108607e-01,0.000000000000000000e+00
9.160000000000000000e+02,-2.611702403749807666e-01,0.000000000000000000e+00
9.170000000000000000e+02,1.053226123107690038e-01,0.000000000000000000e+00
9.180000000000000000e+02,3.727610356742402375e-01,0.000000000000000000e+00
9.190000000000000000e+02,5.492152074179080579e+00,0.000000000000000000e+00
9.200000000000000000e+02,3.473795116216352508e+00,1.000000000000000000e+00
9.210000000000000000e+02,-1.449757663113005135e+00,0.000000000000000000e+00
9.220000000000000000e+02,-1.036068942401855875e+00,0.000000000000000000e+00
9.230000000000000000e+02,-1.309195633991029339e+00,0.000000000000000000e+00
9.240000000000000000e+02,-8.186462882541079011e-01,0.000000000000000000e+00
9.250000000000000000e+02,-1.053725301662371772e+00,0.000000000000000000e+00
9.260000000000000000e+02,-7.118901320258917975e-01,0.000000000000000000e+00
9.270000000000000000e+02,-6.249069855595297263e-01,0.000000000000000000e+00
9.280000000000000000e+02,-4.593751047014288935e-01,0.000000000000000000e+00
9.290000000000000000e+02,-3.525910455291271783e-01,0.000000000000000000e+00
9.300000000000000000e+02,-1.797021021895178206e-01,0.000000000000000000e+00
9.310000000000000000e+02,4.310214159593532546e-02,0.000000000000000000e+00
9.320000000000000000e+02,2.194086617526415650e-01,0.000000000000000000e+00
9.330000000000000000e+02,4.128405060974625340e-01,0.000000000000000000e+00
9.340000000000000000e+02,2.016384467346632736e-01,0.000000000000000000e+00
9.350000000000000000e+02,3.028596563888069082e-01,0.000000000000000000e+00
9.360000000000000000e+02,2.002042729704408275e-01,0.000000000000000000e+00
9.370000000000000000e+02,-1.879265095017390863e-01,0.000000000000000000e+00
9.380000000000000000e+02,-4.210968606236223932e-01,0.000000000000000000e+00
9.390000000000000000e+02,-6.049786923753524004e-01,0.000000000000000000e+00
9.400000000000000000e+02,-6.684920757717165429e-01,0.000000000000000000e+00
9.410000000000000000e+02,-5.908981968808966201e-01,0.000000000000000000e+00
9.420000000000000000e+02,-6.417578473228557900e-01,0.000000000000000000e+00
9.430000000000000000e+02,-3.857160791118990351e-01,0.000000000000000000e+00
9.440000000000000000e+02,-5.285408019296963245e-01,0.000000000000000000e+00
9.450000000000000000e+02,-3.085499222959403043e-01,0.000000000000000000e+00
9.460000000000000000e+02,-2.158390443126253222e-01,0.000000000000000000e+00
9.470000000000000000e+02,-2.106540854768011728e-01,0.000000000000000000e+00
9.480000000000000000e+02,-8.575879920849747984e-02,0.000000000000000000e+00
9.490000000000000000e+02,3.482317894050638435e-02,0.000000000000000000e+00
9.500000000000000000e+02,-2.535162899798882319e-01,0.000000000000000000e+00
9.510000000000000000e+02,-1.148206480670158486e-01,0.000000000000000000e+00
9.520000000000000000e+02,2.084701950114587615e-02,0.000000000000000000e+00
9.530000000000000000e+02,-1.075819257776919752e-01,0.000000000000000000e+00
9.540000000000000000e+02,-4.146707411921233405e-02,0.000000000000000000e+00
9.550000000000000000e+02,9.240542990822660230e-02,0.000000000000000000e+00
9.560000000000000000e+02,3.407580493507494858e-04,0.000000000000000000e+00
9.570000000000000000e+02,1.349429450724903001e-01,0.000000000000000000e+00
9.580000000000000000e+02,-7.771519982831585384e-03,0.000000000000000000e+00
9.590000000000000000e+02,2.883456111187436555e-02,0.000000000000000000e+00
9.600000000000000000e+02,2.033465796948582816e-01,0.000000000000000000e+00
9.610000000000000000e+02,3.296378866653130180e-01,0.000000000000000000e+00
9.620000000000000000e+02,2.098684944663324337e-01,0.000000000000000000e+00
9.630000000000000000e+02,4.911373744590882273e-01,0.000000000000000000e+00
9.640000000000000000e+02,2.563317771377218168e-01,0.000000000000000000e+00
9.650000000000000000e+02,2.750580105966053401e-01,0.000000000000000000e+00
9.660000000000000000e+02,-1.270359995681960563e-01,0.000000000000000000e+00
9.670000000000000000e+02,6.786014546942936709e-02,0.000000000000000000e+00
9.680000000000000000e+02,-1.520181159865814369e-01,0.000000000000000000e+00
9.690000000000000000e+02,2.312386957088183315e-01,0.000000000000000000e+00
9.700000000000000000e+02,-1.993931632909643620e-02,0.000000000000000000e+00
9.710000000000000000e+02,3.634652408992460337e+00,0.000000000000000000e+00
9.720000000000000000e+02,4.692335090334993630e+00,0.000000000000000000e+00
9.730000000000000000e+02,-1.218545596646163576e+00,1.000000000000000000e+00
9.740000000000000000e+02,-1.119559411332275323e+00,0.000000000000000000e+00
9.750000000000000000e+02,-1.006818127825116038e+00,0.000000000000000000e+00
9.760000000000000000e+02,-7.393879621245532663e-01,0.000000000000000000e+00
9.770000000000000000e+02,-8.653699427324715865e-01,0.000000000000000000e+00
9.780000000000000000e+02,-5.114044841791649532e-01,0.000000000000000000e+00
9.790000000000000000e+02,-5.764138106856798727e-01,0.000000000000000000e+00
9.800000000000000000e+02,-2.920293095528067040e-01,0.000000000000000000e+00
9.810000000000000000e+02,-3.779751803425639989e-01,0.000000000000000000e+00
9.820000000000000000e+02,5.048797616532453396e-03,0.000000000000000000e+00
9.830000000000000000e+02,-7.808103068109693498e-03,0.000000000000000000e+00
9.840000000000000000e+02,1.906519658753511592e-01,0.000000000000000000e+00
9.850000000000000000e+02,4.107707475815554066e-01,0.000000000000000000e+00
9.860000000000000000e+02,4.349471182333857766e-01,0.000000000000000000e+00
9.870000000000000000e+02,3.198122972233820027e-01,0.000000000000000000e+00
9.880000000000000000e+02,3.492600080875267743e-01,0.000000000000000000e+00
9.890000000000000000e+02,6.662131372328110313e-02,0.000000000000000000e+00
9.900000000000000000e+02,-4.032230000720103957e-01,0.000000000000000000e+00
9.910000000000000000e+02,-5.076754407111232492e-01,0.000000000000000000e+00
9.920000000000000000e+02,-5.680060012544366765e-01,0.000000000000000000e+00
9.930000000000000000e+02,-5.958811793147062996e-01,0.000000000000000000e+00
9.940000000000000000e+02,-5.533111766550992128e-01,0.000000000000000000e+00
9.950000000000000000e+02,-4.865934848413144276e-01,0.000000000000000000e+00
9.960000000000000000e+02,-4.683834263983053248e-01,0.000000000000000000e+00
9.970000000000000000e+02,-3.709839504320026071e-01,0.000000000000000000e+00
9.980000000000000000e+02,-2.311428192503390266e-01,0.000000000000000000e+00
9.990000000000000000e+02,-2.780736158138156222e-01,0.000000000000000000e+00
1.000000000000000000e+03,-1.479489119072579240e-01,0.000000000000000000e+00
1.001000000000000000e+03,-3.875435886761581517e-02,0.000000000000000000e+00
1.002000000000000000e+03,-1.067558056711429976e-01,0.000000000000000000e+00
1.003000000000000000e+03,-9.043691020964643446e-02,0.000000000000000000e+00
1.004000000000000000e+03,-1.201158010934050696e-01,0.000000000000000000e+00
1.005000000000000000e+03,-9.183000713504070600e-02,0.000000000000000000e+00
1.006000000000000000e+03,-1.391729565894427034e-01,0.000000000000000000e+00
1.007000000000000000e+03,-2.094360983691215261e-03,0.000000000000000000e+00
1.008000000000000000e+03,-2.777167243509777450e-02,0.000000000000000000e+00
1.009000000000000000e+03,1.053415568797898549e-01,0.000000000000000000e+00
1.010000000000000000e+03,-5.119402124618758348e-02,0.000000000000000000e+00
1.011000000000000000e+03,1.947775020806934501e-02,0.000000000000000000e+00
1.012000000000000000e+03,1.232172360238959763e-01,0.000000000000000000e+00
1.013000000000000000e+03,3.624338422096429757e-01,0.000000000000000000e+00
1.014000000000000000e+03,2.242659752935558248e-01,0.000000000000000000e+00
1.015000000000000000e+03,4.968086558701827471e-01,0.000000000000000000e+00
1.016000000000000000e+03,2.388781562292105476e-01,0.000000000000000000e+00
1.017000000000000000e+03,2.381859913397219308e-01,0.000000000000000000e+00
1.018000000000000000e+03,-1.995007091216099704e-01,0.000000000000000000e+00
1.019000000000000000e+03,1.810100723617500962e-01,0.000000000000000000e+00
1.020000000000000000e+03,-8.402246356083170609e-02,0.000000000000000000e+00
1.021000000000000000e+03,2.845053235254731416e-01,0.000000000000000000e+00
1.022000000000000000e+03,3.453498281514594259e-01,0.000000000000000000e+00
1.023000000000000000e+03,5.103852099092799577e+00,0.000000000000000000e+00
1.024000000000000000e+03,3.612164148853385548e+00,1.000000000000000000e+00
1.025000000000000000e+03,-1.481975625033398192e+00,0.000000000000000000e+00
1.026000000000000000e+03,-8.913454750581499830e-01,0.000000000000000000e+00
1.027000000000000000e+03,-1.198635071191896939e+00,0.000000000000000000e+00
1.028000000000000000e+03,-7.747159839993346120e-01,0.000000000000000000e+00
1.029000000000000000e+03,-8.998913873250111717e-01,0.000000000000000000e+00
1.030000000000000000e+03,-4.917240158497724889e-01,0.000000000000000000e+00
1.031000000000000000e+03,-6.776477230167734511e-01,0.000000000000000000e+00
1.032000000000000000e+03,-3.646329279260277501e-01,0.000000000000000000e+00
1.033000000000000000e+03,-2.319432968579010490e-01,0.000000000000000000e+00
1.034000000000000000e+03,-4.660278423002470888e-02,0.000000000000000000e+00
1.035000000000000000e+03,3.659881509484463891e-02,0.000000000000000000e+00
1.036000000000000000e+03,2.965843800150932963e-01,0.000000000000000000e+00
1.037000000000000000e+03,3.601113046037386911e-01,0.000000000000000000e+00
1.038000000000000000e+03,4.711606561207749011e-01,0.000000000000000000e+00
1.039000000000000000e+03,3.153249635576957366e-01,0.000000000000000000e+00
1.040000000000000000e+03,1.508767964173027831e-01,0.000000000000000000e+00
1.041000000000000000e+03,-1.612695324753456450e-01,0.000000000000000000e+00
1.042000000000000000e+03,-4.787727175066729957e-01,0.000000000000000000e+00
1.043000000000000000e+03,-6.200756382818396473e-01,0.000000000000000000e+00
1.044000000000000000e+03,-5.065567962302889304e-01,0.000000000000000000e+00
1.045000000000000000e+03,-6.278600002466735441e-01,0.000000000000000000e+00
1.046000000000000000e+03,-5.599008544237005225e-01,0.000000000000000000e+00
1.047000000000000000e+03,-6.230757137521312217e-01,0.000000000000000000e+00
1.048000000000000000e+03,-3.411892518297789945e-01,0.000000000000000000e+00
1.049000000000000000e+03,-4.758473178329513664e-01,0.000000000000000000e+00
1.050000000000000000e+03,-1.341673062147871465e-01,0.000000000000000000e+00
1.051000000000000000e+03,-2.023775625241472087e-01,0.000000000000000000e+00
1.052000000000000000e+03,-2.376450421462375229e-01,0.000000000000000000e+00
1.053000000000000000e+03,-5.158925857395789405e-02,0.000000000000000000e+00
1.054000000000000000e+03,-7.349090030392101125e-02,0.000000000000000000e+00
1.055000000000000000e+03,-1.281939567639104605e-01,0.000000000000000000e+00
1.056000000000000000e+03,-4.312077476372193352e-02,0.000000000000000000e+00
1.057000000000000000e+03,-1.802822498232717896e-01,0.000000000000000000e+00
1.058000000000000000e+03,-1.103412176772354675e-01,0.000000000000000000e+00
1.059000000000000000e+03,1.114237351705415872e-02,0.000000000000000000e+00
1.060000000000000000e+03,-3.365778147309255591e-02,0.000000000000000000e+00
1.061000000000000000e+03,9.125311820994276568e-02,0.000000000000000000e+00
1.062000000000000000e+03,9.807865877279459133e-02,0.000000000000000000e+00
1.063000000000000000e+03,2.908158928845467478e-02,0.000000000000000000e+00
1.064000000000000000e+03,1.769999498087073686e-01,0.000000000000000000e+00
1.065000000000000000e+03,3.000889483625868159e-01,0.000000000000000000e+00
1.066000000000000000e+03,3.111913811904158944e-01,0.000000000000000000e+00
1.067000000000000000e+03,4.180591692092089917e-01,0.000000000000000000e+00
1.068000000000000000e+03,3.075205655545930061e-01,0.000000000000000000e+00
1.069000000000000000e+03,2.745345950828522175e-01,0.000000000000000000e+00
1.070000000000000000e+03,-4.562131928314454993e-02,0.000000000000000000e+00
1.071000000000000000e+03,1.163683809557656545e-01,0.000000000000000000e+00
1.072000000000000000e+03,-1.343422173888461912e-01,0.000000000000000000e+00
1.073000000000000000e+03,1.835667094388946929e-01,0.000000000000000000e+00
1.074000000000000000e+03,1.242528219247313048e-01,0.000000000000000000e+00
1.075000000000000000e+03,4.515981648199453247e+00,0.000000000000000000e+00
1.076000000000000000e+03,4.995400632429483956e+00,0.000000000000000000e+00
1.077000000000000000e+03,-1.023318613162903068e+00,1.000000000000000000e+00
1.078000000000000000e+03,-9.606276602242392881e-01,0.000000000000000000e+00
1.079000000000000000e+03,-1.398822293515239679e+00,0.000000000000000000e+00
1.080000000000000000e+03,-1.027264467415426541e+00,0.000000000000000000e+00
1.081000000000000000e+03,-9.124207239073087727e-01,0.000000000000000000e+00
1.082000000000000000e+03,-6.553740597899235798e-01,0.000000000000000000e+00
1.083000000000000000e+03,-7.451470027605369140e-01,0.000000000000000000e+00
1.084000000000000000e+03,-4.589849968282530002e-01,0.000000000000000000e+00
1.085000000000000000e+03,-4.746097062160793967e-01,0.000000000000000000e+00
1.086000000000000000e+03,-1.723063254240755071e-01,0.000000000000000000e+00
1.087000000000000000e+03,-1.619764941043227435e-01,0.000000000000000000e+00
1.088000000000000000e+03,2.627861907030911715e-01,0.000000000000000000e+00
1.089000000000000000e+03,3.243662600560264786e-01,0.000000000000000000e+00
1.090000000000000000e+03,3.506762859994297377e-01,0.000000000000000000e+00
1.091000000000000000e+03,2.487252962120214128e-01,0.000000000000000000e+00
1.092000000000000000e+03,1.028136694579988991e-01,0.000000000000000000e+00
1.093000000000000000e+03,-2.517543591178387219e-01,0.000000000000000000e+00
1.094000000000000000e+03,-3.601257727089905436e-01,0.000000000000000000e+00
1.095000000000000000e+03,-6.617194804778526729e-01,0.000000000000000000e+00
1.096000000000000000e+03,-6.378148219577370881e-01,0.000000000000000000e+00
1.097000000000000000e+03,-6.178899796700697555e-01,0.000000000000000000e+00
1.098000000000000000e+03,-6.230045606638563438e-01,0.000000000000000000e+00
1.099000000000000000e+03,-5.630163387914063344e-01,0.000000000000000000e+00
1.100000000000000000e+03,-3.684478607565638830e-01,0.000000000000000000e+00
1.101000000000000000e+03,-3.174771065137699244e-01,0.000000000000000000e+00
1.102000000000000000e+03,-2.177876055851555026e-01,0.000000000000000000e+00
1.103000000000000000e+03,-1.966689796348818353e-01,0.000000000000000000e+00
1.104000000000000000e+03,-8.584222888640108406e-02,0.000000000000000000e+00
1.105000000000000000e+03,-9.916248296525276285e-02,0.000000000000000000e+00
1.106000000000000000e+03,3.552786044900144158e-02,0.000000000000000000e+00
1.107000000000000000e+03,-4.195427969287177788e-02,0.000000000000000000e+00
1.108000000000000000e+03,-7.824960819091304753e-02,0.000000000000000000e+00
1.109000000000000000e+03,-8.295536031431895163e-02,0.000000000000000000e+00
1.110000000000000000e+03,1.069025098374177946e-01,0.000000000000000000e+00
1.111000000000000000e+03,7.972155501844506442e-02,0.000000000000000000e+00
1.112000000000000000e+03,1.502863905472238970e-01,0.000000000000000000e+00
1.113000000000000000e+03,1.432061464277203378e-01,0.000000000000000000e+00
1.114000000000000000e+03,7.614539463144280595e-02,0.000000000000000000e+00
1.115000000000000000e+03,2.731011213155388681e-02,0.000000000000000000e+00
1.116000000000000000e+03,2.284618618903794529e-01,0.000000000000000000e+00
1.117000000000000000e+03,1.470332065809690503e-01,0.000000000000000000e+00
1.118000000000000000e+03,2.553004033150472751e-01,0.000000000000000000e+00
1.119000000000000000e+03,3.702383738870287933e-01,0.000000000000000000e+00
1.120000000000000000e+03,3.982469588144393891e-01,0.000000000000000000e+00
1.121000000000000000e+03,4.679320664882809511e-01,0.000000000000000000e+00
1.122000000000000000e+03,2.947408340828753248e-01,0.000000000000000000e+00
1.123000000000000000e+03,-7.679048120724624171e-02,0.000000000000000000e+00
1.124000000000000000e+03,1.028306201487563104e-01,0.000000000000000000e+00
1.125000000000000000e+03,-1.536630615820302193e-01,0.000000000000000000e+00
1.126000000000000000e+03,1.541734958991988480e-01,0.000000000000000000e+00
1.127000000000000000e+03,-4.354020673902578298e-02,0.000000000000000000e+00
1.128000000000000000e+03,1.908306062526726299e+00,0.000000000000000000e+00
1.129000000000000000e+03,6.334000336604029613e+00,0.000000000000000000e+00
1.130000000000000000e+03,1.223473671271017915e+00,1.000000000000000000e+00
1.131000000000000000e+03,-1.393223591562646302e+00,0.000000000000000000e+00
1.132000000000000000e+03,-9.370473090582309705e-01,0.000000000000000000e+00
1.133000000000000000e+03,-1.224263695422211029e+00,0.000000000000000000e+00
1.134000000000000000e+03,-9.979160099262823769e-01,0.000000000000000000e+00
1.135000000000000000e+03,-9.323613615501714635e-01,0.000000000000000000e+00
1.136000000000000000e+03,-7.825524956704549284e-01,0.000000000000000000e+00
1.137000000000000000e+03,-7.589155574260407766e-01,0.000000000000000000e+00
1.138000000000000000e+03,-3.765041574397379742e-01,0.000000000000000000e+00
1.139000000000000000e+03,-3.473792966768770585e-01,0.000000000000000000e+00
1.140000000000000000e+03,-2.341418995830348015e-01,0.000000000000000000e+00
1.141000000000000000e+03,-5.019039836111605785e-02,0.000000000000000000e+00
1.142000000000000000e+03,2.400949810504835191e-01,0.000000000000000000e+00
1.143000000000000000e+03,2.213678527377113403e-01,0.000000000000000000e+00
1.144000000000000000e+03,3.260047145549716530e-01,0.000000000000000000e+00
1.145000000000000000e+03,2.973746189500865444e-01,0.000000000000000000e+00
1.146000000000000000e+03,-6.071200505277195986e-02,0.000000000000000000e+00
1.147000000000000000e+03,-2.671368097834777577e-01,0.000000000000000000e+00
1.148000000000000000e+03,-6.677876484219422704e-01,0.000000000000000000e+00
1.149000000000000000e+03,-6.815520072011561625e-01,0.000000000000000000e+00
1.150000000000000000e+03,-6.810084362100841116e-01,0.000000000000000000e+00
1.151000000000000000e+03,-5.779769739265492312e-01,0.000000000000000000e+00
1.152000000000000000e+03,-5.909986085843830228e-01,0.000000000000000000e+00
1.153000000000000000e+03,-4.800872729042615639e-01,0.000000000000000000e+00
1.154000000000000000e+03,-4.644324327844938649e-01,0.000000000000000000e+00
1.155000000000000000e+03,-2.298177228602421018e-01,0.000000000000000000e+00
1.156000000000000000e+03,-2.680141655089962605e-01,0.000000000000000000e+00
1.157000000000000000e+03,-1.760858406478214289e-01,0.000000000000000000e+00
1.158000000000000000e+03,-1.781018457805881861e-01,0.000000000000000000e+00
1.159000000000000000e+03,-1.257664652187438226e-01,0.000000000000000000e+00
1.160000000000000000e+03,-2.397412251987147136e-01,0.000000000000000000e+00
1.161000000000000000e+03,1.695707370341013182e-02,0.000000000000000000e+00
1.162000000000000000e+03,-1.761570673913720741e-01,0.000000000000000000e+00
1.163000000000000000e+03,-5.063730809013439194e-02,0.000000000000000000e+00
1.164000000000000000e+03,-2.396714077820541553e-03,0.000000000000000000e+00
1.165000000000000000e+03,-3.460274432354561863e-02,0.000000000000000000e+00
1.166000000000000000e+03,-2.141591478677499355e-02,0.000000000000000000e+00
1.167000000000000000e+03,8.213055804653841829e-02,0.000000000000000000e+00
1.168000000000000000e+03,9.816233398772045149e-02,0.000000000000000000e+00
1.169000000000000000e+03,2.005046702469226727e-01,0.000000000000000000e+00
1.170000000000000000e+03,1.847273440977410253e-01,0.000000000000000000e+00
1.171000000000000000e+03,3.800018416760508333e-01,0.000000000000000000e+00
1.172000000000000000e+03,3.144133793046801628e-01,0.000000000000000000e+00
1.173000000000000000e+03,5.557638748888369395e-01,0.000000000000000000e+00
1.174000000000000000e+03,4.322811214220158016e-01,0.000000000000000000e+00
1.175000000000000000e+03,1.851336338887830946e-01,0.000000000000000000e+00
1.176000000000000000e+03,-1.050099710926540725e-01,0.000000000000000000e+00
1.177000000000000000e+03,1.183315929522768678e-01,0.000000000000000000e+00
1.178000000000000000e+03,-1.122868781227505108e-01,0.000000000000000000e+00
1.179000000000000000e+03,1.927528011747832448e-01,0.000000000000000000e+00
1.180000000000000000e+03,7.491838848277637686e-01,0.000000000000000000e+00
1.181000000000000000e+03,5.345379580557269250e+00,0.000000000000000000e+00
1.182000000000000000e+03,2.603415195197926302e+00,1.000000000000000000e+00
1.183000000000000000e+03,-1.866576037831877644e+00,0.000000000000000000e+00
1.184000000000000000e+03,-7.107199631804889117e-01,0.000000000000000000e+00
1.185000000000000000e+03,-1.070816653891368375e+00,0.000000000000000000e+00
1.186000000000000000e+03,-6.759636158630499825e-01,0.000000000000000000e+00
1.187000000000000000e+03,-7.732986327921872460e-01,0.000000000000000000e+00
1.188000000000000000e+03,-4.687503758931125253e-01,0.000000000000000000e+00
1.189000000000000000e+03,-5.935629486050725268e-01,0.000000000000000000e+00
1.190000000000000000e+03,-2.842963550955968088e-01,0.000000000000000000e+00
1.191000000000000000e+03,-2.430837369355735023e-01,0.000000000000000000e+00
1.192000000000000000e+03,9.252682603042401699e-02,0.000000000000000000e+00
1.193000000000000000e+03,6.219040317604861146e-02,0.000000000000000000e+00
1.194000000000000000e+03,3.155856736046210864e-01,0.000000000000000000e+00
1.195000000000000000e+03,3.608056717389259149e-01,0.000000000000000000e+00
1.196000000000000000e+03,4.530135507630501102e-01,0.000000000000000000e+00
1.197000000000000000e+03,2.928118430606503342e-01,0.000000000000000000e+00
1.198000000000000000e+03,2.412786746403710325e-01,0.000000000000000000e+00
1.199000000000000000e+03,-1.685511122584532062e-01,0.000000000000000000e+00
1.200000000000000000e+03,-2.571556904807200117e-01,0.000000000000000000e+00
1.201000000000000000e+03,-7.061449042566366741e-01,0.000000000000000000e+00
1.202000000000000000e+03,-5.472404891509564662e-01,0.000000000000000000e+00
1.203000000000000000e+03,-6.333492450291049458e-01,0.000000000000000000e+00
1.204000000000000000e+03,-4.076807718113469314e-01,0.000000000000000000e+00
1.205000000000000000e+03,-4.557277314994702677e-01,0.000000000000000000e+00
1.206000000000000000e+03,-2.157193265044121677e-01,0.000000000000000000e+00
1.207000000000000000e+03,-3.369636077019015907e-01,0.000000000000000000e+00
1.208000000000000000e+03,-2.844950761528126648e-01,0.000000000000000000e+00
1.209000000000000000e+03,-1.638800590899582577e-01,0.000000000000000000e+00
1.210000000000000000e+03,-7.680936512979767705e-02,0.000000000000000000e+00
1.211000000000000000e+03,-1.529245026329129342e-01,0.000000000000000000e+00
1.212000000000000000e+03,-5.767044438486138014e-02,0.000000000000000000e+00
1.213000000000000000e+03,-1.499398814076636499e-01,0.000000000000000000e+00
1.214000000000000000e+03,-1.239751294783166952e-01,0.000000000000000000e+00
1.215000000000000000e+03,2.375302785787053450e-02,0.000000000000000000e+00
1.216000000000000000e+03,-1.628699405340808537e-01,0.000000000000000000e+00
1.217000000000000000e+03,-9.997731368587801926e-03,0.000000000000000000e+00
1.218000000000000000e+03,1.467580194089655385e-02,0.000000000000000000e+00
1.219000000000000000e+03,-1.212515953633846316e-01,0.000000000000000000e+00
1.220000000000000000e+03,1.197801761231127443e-01,0.000000000000000000e+00
1.221000000000000000e+03,6.259093940006921208e-02,0.000000000000000000e+00
1.222000000000000000e+03,1.550620100102859389e-01,0.000000000000000000e+00
1.223000000000000000e+03,2.413880233763472105e-01,0.000000000000000000e+00
1.224000000000000000e+03,4.470993437430738071e-01,0.000000000000000000e+00
1.225000000000000000e+03,3.718335227628975503e-01,0.000000000000000000e+00
1.226000000000000000e+03,2.500002721076918788e-01,0.000000000000000000e+00
1.227000000000000000e+03,3.229692455749486046e-02,0.000000000000000000e+00
1.228000000000000000e+03,-1.189056949022013615e-01,0.000000000000000000e+00
1.229000000000000000e+03,-4.243734799000564023e-02,0.000000000000000000e+00
1.230000000000000000e+03,4.603770978515193263e-02,0.000000000000000000e+00
1.231000000000000000e+03,6.674841481155265044e-02,0.000000000000000000e+00
1.232000000000000000e+03,1.616865182134703094e+00,0.000000000000000000e+00
1.233000000000000000e+03,5.825838555399267094e+00,0.000000000000000000e+00
1.234000000000000000e+03,7.615528495369441320e-01,1.000000000000000000e+00
1.235000000000000000e+03,-1.461241925063033298e+00,0.000000000000000000e+00
1.236000000000000000e+03,-8.861574867701241809e-01,0.000000000000000000e+00
1.237000000000000000e+03,-1.117595129606867355e+00,0.000000000000000000e+00
1.238000000000000000e+03,-8.299737409890789452e-01,0.000000000000000000e+00
1.239000000000000000e+03,-7.761246472954657083e-01,0.000000000000000000e+00
1.240000000000000000e+03,-5.908874537341499700e-01,0.000000000000000000e+00
1.241000000000000000e+03,-5.176308464800620790e-01,0.000000000000000000e+00
1.242000000000000000e+03,-3.303491131868239172e-01,0.000000000000000000e+00
1.243000000000000000e+03,-2.471897096644369574e-01,0.000000000000000000e+00
1.244000000000000000e+03,-9.122340997394255691e-02,0.000000000000000000e+00
1.245000000000000000e+03,6.179058524939891328e-02,0.000000000000000000e+00
1.246000000000000000e+03,3.674353133910831515e-01,0.000000000000000000e+00
1.247000000000000000e+03,3.751896829644059683e-01,0.000000000000000000e+00
1.248000000000000000e+03,3.938266728769537206e-01,0.000000000000000000e+00
1.249000000000000000e+03,1.115301501005840495e-01,0.000000000000000000e+00
1.250000000000000000e+03,9.650051162281946329e-03,0.000000000000000000e+00
1.251000000000000000e+03,-2.332688130980739849e-01,0.000000000000000000e+00
1.252000000000000000e+03,-3.956004678547130338e-01,0.000000000000000000e+00
1.253000000000000000e+03,-4.954450027923917310e-01,0.000000000000000000e+00
1.254000000000000000e+03,-6.021456219871190729e-01,0.000000000000000000e+00
1.255000000000000000e+03,-4.490857128515633456e-01,0.000000000000000000e+00
1.256000000000000000e+03,-5.487379932048634945e-01,0.000000000000000000e+00
1.257000000000000000e+03,-4.498692372041924181e-01,0.000000000000000000e+00
1.258000000000000000e+03,-1.616378243107265134e-01,0.000000000000000000e+00
1.259000000000000000e+03,-1.671941672148070657e-01,0.000000000000000000e+00
1.260000000000000000e+03,-1.564984838009276513e-01,0.000000000000000000e+00
1.261000000000000000e+03,-1.801471649559639732e-01,0.000000000000000000e+00
1.262000000000000000e+03,-1.319829074548258263e-01,0.000000000000000000e+00
1.263000000000000000e+03,-1.095956035492354486e-01,0.000000000000000000e+00
1.264000000000000000e+03,-1.348859062528043884e-01,0.000000000000000000e+00
1.265000000000000000e+03,-4.566772423457183400e-02,0.000000000000000000e+00
1.266000000000000000e+03,-1.252147425306190665e-01,0.000000000000000000e+00
1.267000000000000000e+03,-1.050471925391094768e-01,0.000000000000000000e+00
1.268000000000000000e+03,1.593518114256571930e-02,0.000000000000000000e+00
1.269000000000000000e+03,5.060963672915481243e-02,0.000000000000000000e+00
1.270000000000000000e+03,-7.034402685247460874e-02,0.000000000000000000e+00
1.271000000000000000e+03,8.435346647776553741e-02,0.000000000000000000e+00
1.272000000000000000e+03,2.821731730017875209e-02,0.000000000000000000e+00
1.273000000000000000e+03,-2.204227608236473349e-03,0.000000000000000000e+00
1.274000000000000000e+03,1.312753773976757798e-01,0.000000000000000000e+00
1.275000000000000000e+03,3.299078938309709663e-01,0.000000000000000000e+00
1.276000000000000000e+03,3.715882574909050162e-01,0.000000000000000000e+00
1.277000000000000000e+03,3.996792464874406869e-01,0.000000000000000000e+00
1.278000000000000000e+03,3.495031345428684100e-01,0.000000000000000000e+00
1.279000000000000000e+03,1.061891114175688572e-01,0.000000000000000000e+00
1.280000000000000000e+03,-1.950003016306308956e-01,0.000000000000000000e+00
1.281000000000000000e+03,4.104239666383088792e-02,0.000000000000000000e+00
1.282000000000000000e+03,-1.730693657119281720e-02,0.000000000000000000e+00
1.283000000000000000e+03,7.793632665171126850e-02,0.000000000000000000e+00
1.284000000000000000e+03,8.543233572084363292e-01,0.000000000000000000e+00
1.285000000000000000e+03,5.943021615209691078e+00,0.000000000000000000e+00
1.286000000000000000e+03,2.642270791927626483e+00,1.000000000000000000e+00
1.287000000000000000e+03,-1.432204832828545271e+00,0.000000000000000000e+00
1.288000000000000000e+03,-1.033846742672890118e+00,0.000000000000000000e+00
1.289000000000000000e+03,-1.212644347795215793e+00,0.000000000000000000e+00
1.290000000000000000e+03,-8.516417985546674840e-01,0.000000000000000000e+00
1.291000000000000000e+03,-9.620225329532275937e-01,0.000000000000000000e+00
1.292000000000000000e+03,-7.074952425957716784e-01,0.000000000000000000e+00
1.293000000000000000e+03,-7.458014344393573136e-01,0.000000000000000000e+00
1.294000000000000000e+03,-3.548641029804769365e-01,0.000000000000000000e+00
1.295000000000000000e+03,-3.351659445786899227e-01,0.000000000000000000e+00
1.296000000000000000e+03,-4.804585025307730323e-02,0.000000000000000000e+00
1.297000000000000000e+03,-1.464232028845232070e-01,0.000000000000000000e+00
1.298000000000000000e+03,1.999691148901465709e-01,0.000000000000000000e+00
1.299000000000000000e+03,2.414983345896187239e-01,0.000000000000000000e+00
1.300000000000000000e+03,4.431280778920273500e-01,0.000000000000000000e+00
1.301000000000000000e+03,2.953251270849575616e-01,0.000000000000000000e+00
1.302000000000000000e+03,9.630258878958926350e-02,0.000000000000000000e+00
1.303000000000000000e+03,-2.099341049246040147e-01,0.000000000000000000e+00
1.304000000000000000e+03,-4.702404660585227103e-01,0.000000000000000000e+00
1.305000000000000000e+03,-5.088205641919136824e-01,0.000000000000000000e+00
1.306000000000000000e+03,-6.555945131750201549e-01,0.000000000000000000e+00
1.307000000000000000e+03,-5.091609470147374639e-01,0.000000000000000000e+00
1.308000000000000000e+03,-4.497332252541783593e-01,0.000000000000000000e+00
1.309000000000000000e+03,-4.902754273218750125e-01,0.000000000000000000e+00
1.310000000000000000e+03,-3.568014229093894318e-01,0.000000000000000000e+00
1.311000000000000000e+03,-3.844933699594926257e-01,0.000000000000000000e+00
1.312000000000000000e+03,-2.069934216134474980e-01,0.000000000000000000e+00
1.313000000000000000e+03,-1.372489438619057256e-01,0.000000000000000000e+00
1.314000000000000000e+03,-5.227066139386126603e-02,0.000000000000000000e+00
1.315000000000000000e+03,-2.174291892014948158e-01,0.000000000000000000e+00
1.316000000000000000e+03,-9.011008786411396632e-02,0.000000000000000000e+00
1.317000000000000000e+03,-1.601344891187434227e-01,0.000000000000000000e+00
1.318000000000000000e+03,-5.885639558720538733e-02,0.000000000000000000e+00
1.319000000000000000e+03,-6.219275479133325873e-02,0.000000000000000000e+00
1.320000000000000000e+03,7.042468345409011454e-02,0.000000000000000000e+00
1.321000000000000000e+03,-7.928070993482397300e-02,0.000000000000000000e+00
1.322000000000000000e+03,1.249512988149368425e-01,0.000000000000000000e+00
1.323000000000000000e+03,4.877326311999013314e-02,0.000000000000000000e+00
1.324000000000000000e+03,9.158382693337503710e-02,0.000000000000000000e+00
1.325000000000000000e+03,1.635998181810462138e-01,0.000000000000000000e+00
1.326000000000000000e+03,1.255769423289128939e-01,0.000000000000000000e+00
1.327000000000000000e+03,4.013096821415211846e-01,0.000000000000000000e+00
1.328000000000000000e+03,3.504342114084082471e-01,0.000000000000000000e+00
1.329000000000000000e+03,4.159580926152402491e-01,0.000000000000000000e+00
1.330000000000000000e+03,3.644398937252841808e-01,0.000000000000000000e+00
1.331000000000000000e+03,2.531725553143778784e-01,0.000000000000000000e+00
1.332000000000000000e+03,-7.252056244626050099e-03,0.000000000000000000e+00
1.333000000000000000e+03,1.641435447357883493e-01,0.000000000000000000e+00
1.334000000000000000e+03,-1.481475600012280291e-01,0.000000000000000000e+00
1.335000000000000000e+03,3.570569129736257674e-02,0.000000000000000000e+00
1.336000000000000000e+03,-8.799275011786525380e-02,0.000000000000000000e+00
1.337000000000000000e+03,3.746907287718248547e+00,0.000000000000000000e+00
1.338000000000000000e+03,5.773973256300578782e+00,0.000000000000000000e+00
1.339000000000000000e+03,-5.352690638009256485e-01,1.000000000000000000e+00
1.340000000000000000e+03,-1.095588187591005402e+00,0.000000000000000000e+00
1.341000000000000000e+03,-1.306870996138920438e+00,0.000000000000000000e+00
1.342000000000000000e+03,-1.059510812612316055e+00,0.000000000000000000e+00
1.343000000000000000e+03,-1.149894750264052634e+00,0.000000000000000000e+00
1.344000000000000000e+03,-7.413947524040626069e-01,0.000000000000000000e+00
1.345000000000000000e+03,-7.365048212517805171e-01,0.000000000000000000e+00
1.346000000000000000e+03,-5.023170194528366883e-01,0.000000000000000000e+00
1.347000000000000000e+03,-5.009261927523090963e-01,0.000000000000000000e+00
1.348000000000000000e+03,-1.665494953937436406e-01,0.000000000000000000e+00
1.349000000000000000e+03,-1.300342418929804622e-01,0.000000000000000000e+00
1.350000000000000000e+03,1.742705609878151263e-01,0.000000000000000000e+00
1.351000000000000000e+03,2.860865074564554189e-01,0.000000000000000000e+00
1.352000000000000000e+03,3.781682996466943503e-01,0.000000000000000000e+00
1.353000000000000000e+03,2.677052674873884319e-01,0.000000000000000000e+00
1.354000000000000000e+03,2.424647229070745480e-01,0.000000000000000000e+00
1.355000000000000000e+03,-1.560332381967545201e-01,0.000000000000000000e+00
1.356000000000000000e+03,-1.816098705567740779e-01,0.000000000000000000e+00
1.357000000000000000e+03,-5.327012983502938948e-01,0.000000000000000000e+00
1.358000000000000000e+03,-5.311135956143105963e-01,0.000000000000000000e+00
1.359000000000000000e+03,-6.457138154209390857e-01,0.000000000000000000e+00
1.360000000000000000e+03,-5.033757865206824889e-01,0.000000000000000000e+00
1.361000000000000000e+03,-5.756000100998899249e-01,0.000000000000000000e+00
1.362000000000000000e+03,-3.664287770265622912e-01,0.000000000000000000e+00
1.363000000000000000e+03,-3.531162659794656045e-01,0.000000000000000000e+00
1.364000000000000000e+03,-4.024388316676169586e-01,0.000000000000000000e+00
1.365000000000000000e+03,-1.791545071181691873e-01,0.000000000000000000e+00
1.366000000000000000e+03,-1.512930488013924379e-01,0.000000000000000000e+00
1.367000000000000000e+03,-2.658608656807108783e-01,0.000000000000000000e+00
1.368000000000000000e+03,-8.144121393055349378e-02,0.000000000000000000e+00
1.369000000000000000e+03,-9.431363051705804468e-02,0.000000000000000000e+00
1.370000000000000000e+03,-1.457129335981848517e-01,0.000000000000000000e+00
1.371000000000000000e+03,-7.501707557625646172e-02,0.000000000000000000e+00
1.372000000000000000e+03,-1.056987530028435651e-01,0.000000000000000000e+00
1.373000000000000000e+03,-1.133184789990695635e-01,0.000000000000000000e+00
1.374000000000000000e+03,8.971231360083815887e-02,0.000000000000000000e+00
1.375000000000000000e+03,1.110026749249805322e-02,0.000000000000000000e+00
1.376000000000000000e+03,1.255112801145291017e-03,0.000000000000000000e+00
1.377000000000000000e+03,6.895467462517908264e-02,0.000000000000000000e+00
1.378000000000000000e+03,1.691344714604772481e-01,0.000000000000000000e+00
1.379000000000000000e+03,3.011647916657554380e-01,0.000000000000000000e+00
1.380000000000000000e+03,3.545868049209046635e-01,0.000000000000000000e+00
1.381000000000000000e+03,4.781401059070679582e-01,0.000000000000000000e+00
1.382000000000000000e+03,3.056999943919533336e-01,0.000000000000000000e+00
1.383000000000000000e+03,1.655722745141491870e-01,0.000000000000000000e+00
1.384000000000000000e+03,-7.103452199598299377e-02,0.000000000000000000e+00
1.385000000000000000e+03,2.980651768298448953e-02,0.000000000000000000e+00
1.386000000000000000e+03,-8.452049877460243721e-02,0.000000000000000000e+00
1.387000000000000000e+03,3.054581177388219770e-01,0.000000000000000000e+00
1.388000000000000000e+03,3.071958224096674184e-01,0.000000000000000000e+00
1.389000000000000000e+03,4.825704858408959019e+00,0.000000000000000000e+00
1.390000000000000000e+03,3.757324090422718754e+00,0.000000000000000000e+00
1.391000000000000000e+03,-1.603383150467954765e+00,1.000000000000000000e+00
1.392000000000000000e+03,-8.070584838427895535e-01,0.000000000000000000e+00
1.393000000000000000e+03,-1.247820854888814557e+00,0.000000000000000000e+00
1.394000000000000000e+03,-6.443398844286906124e-01,0.000000000000000000e+00
1.395000000000000000e+03,-9.201571014293401518e-01,0.000000000000000000e+00
1.396000000000000000e+03,-5.194101151754105805e-01,0.000000000000000000e+00
1.397000000000000000e+03,-6.036481435633086479e-01,0.000000000000000000e+00
1.398000000000000000e+03,-1.760975526905642630e-01,0.000000000000000000e+00
1.399000000000000000e+03,-4.840018329760379379e-01,0.000000000000000000e+00
1.400000000000000000e+03,9.335442582932070021e-02,0.000000000000000000e+00
1.401000000000000000e+03,-1.677336055397246894e-01,0.000000000000000000e+00
1.402000000000000000e+03,2.185015270696909762e-01,0.000000000000000000e+00
1.403000000000000000e+03,3.393389551290937334e-01,0.000000000000000000e+00
1.404000000000000000e+03,4.385233563349548169e-01,0.000000000000000000e+00
1.405000000000000000e+03,1.985069269470837727e-01,0.000000000000000000e+00
1.406000000000000000e+03,1.504601644069335220e-01,0.000000000000000000e+00
1.407000000000000000e+03,-1.671533459670824784e-01,0.000000000000000000e+00
1.408000000000000000e+03,-2.940299096229638254e-01,0.000000000000000000e+00
1.409000000000000000e+03,-5.503106712926798538e-01,0.000000000000000000e+00
1.410000000000000000e+03,-5.378488071612336219e-01,0.000000000000000000e+00
1.411000000000000000e+03,-6.158853377386075412e-01,0.000000000000000000e+00
1.412000000000000000e+03,-5.186870877299489813e-01,0.000000000000000000e+00
1.413000000000000000e+03,-5.107717461066108022e-01,0.000000000000000000e+00
1.414000000000000000e+03,-2.198111968914698844e-01,0.000000000000000000e+00
1.415000000000000000e+03,-3.958207599695939272e-01,0.000000000000000000e+00
1.416000000000000000e+03,-1.634809420875308617e-01,0.000000000000000000e+00
1.417000000000000000e+03,-1.506994134441738131e-01,0.000000000000000000e+00
1.418000000000000000e+03,-2.915991929028533686e-02,0.000000000000000000e+00
1.419000000000000000e+03,-2.465633244892246612e-01,0.000000000000000000e+00
1.420000000000000000e+03,-1.507666935549228102e-03,0.000000000000000000e+00
1.421000000000000000e+03,-1.596375748683983298e-01,0.000000000000000000e+00
1.422000000000000000e+03,5.463205936433816745e-02,0.000000000000000000e+00
1.423000000000000000e+03,-9.557415690401920016e-02,0.000000000000000000e+00
1.424000000000000000e+03,3.398957800504425614e-02,0.000000000000000000e+00
1.425000000000000000e+03,-1.012649712045881889e-01,0.000000000000000000e+00
1.426000000000000000e+03,5.529790848847039586e-02,0.000000000000000000e+00
1.427000000000000000e+03,5.561834190955489143e-02,0.000000000000000000e+00
1.428000000000000000e+03,1.603498089600788601e-01,0.000000000000000000e+00
1.429000000000000000e+03,1.228161712337155625e-01,0.000000000000000000e+00
1.430000000000000000e+03,3.853567076477816267e-01,0.000000000000000000e+00
1.431000000000000000e+03,2.123001022216276790e-01,0.000000000000000000e+00
1.432000000000000000e+03,3.927922392796563411e-01,0.000000000000000000e+00
1.433000000000000000e+03,4.164418707808024700e-01,0.000000000000000000e+00
1.434000000000000000e+03,1.765658168547260820e-01,0.000000000000000000e+00
1.435000000000000000e+03,-2.670853441513121318e-01,0.000000000000000000e+00
1.436000000000000000e+03,6.981544389955139651e-02,0.000000000000000000e+00
1.437000000000000000e+03,-1.598605263477531624e-01,0.000000000000000000e+00
1.438000000000000000e+03,1.430829489902494811e-01,0.000000000000000000e+00
1.439000000000000000e+03,5.011317679243042500e-01,0.000000000000000000e+00
1.440000000000000000e+03,5.147673317371923574e+00,0.000000000000000000e+00
1.441000000000000000e+03,2.930616421643576164e+00,1.000000000000000000e+00
1.442000000000000000e+03,-1.664246693128278887e+00,0.000000000000000000e+00
1.443000000000000000e+03,-8.230380136223324206e-01,0.000000000000000000e+00
1.444000000000000000e+03,-1.133327255372575060e+00,0.000000000000000000e+00
1.445000000000000000e+03,-8.983325643579960218e-01,0.000000000000000000e+00
1.446000000000000000e+03,-9.026126741696990363e-01,0.000000000000000000e+00
1.447000000000000000e+03,-6.605406013025012513e-01,0.000000000000000000e+00
1.448000000000000000e+03,-4.767237333880575689e-01,0.000000000000000000e+00
1.449000000000000000e+03,-4.744800813058163702e-01,0.000000000000000000e+00
1.450000000000000000e+03,-3.917988797008180035e-01,0.000000000000000000e+00
1.451000000000000000e+03,-2.123624639535976188e-01,0.000000000000000000e+00
1.452000000000000000e+03,7.548082989897521300e-02,0.000000000000000000e+00
1.453000000000000000e+03,2.571838189262196650e-01,0.000000000000000000e+00
1.454000000000000000e+03,2.299498683613936112e-01,0.000000000000000000e+00
1.455000000000000000e+03,2.944589719858735632e-01,0.000000000000000000e+00
1.456000000000000000e+03,2.914714928618018508e-01,0.000000000000000000e+00
1.457000000000000000e+03,1.354156315969287649e-01,0.000000000000000000e+00
1.458000000000000000e+03,-9.233588952134463845e-02,0.000000000000000000e+00
1.459000000000000000e+03,-4.550953107061636027e-01,0.000000000000000000e+00
1.460000000000000000e+03,-5.421368765939580392e-01,0.000000000000000000e+00
1.461000000000000000e+03,-6.050995321778500635e-01,0.000000000000000000e+00
1.462000000000000000e+03,-5.730541722922727343e-01,0.000000000000000000e+00
1.463000000000000000e+03,-4.911212442409552126e-01,0.000000000000000000e+00
1.464000000000000000e+03,-3.842587446748610414e-01,0.000000000000000000e+00
1.465000000000000000e+03,-4.034412524537450695e-01,0.000000000000000000e+00
1.466000000000000000e+03,-2.895932199574219323e-01,0.000000000000000000e+00
1.467000000000000000e+03,-1.218330418042765512e-01,0.000000000000000000e+00
1.468000000000000000e+03,-2.054116696487394145e-01,0.000000000000000000e+00
1.469000000000000000e+03,-6.633071672852559886e-02,0.000000000000000000e+00
1.470000000000000000e+03,-2.490199357700678337e-02,0.000000000000000000e+00
1.471000000000000000e+03,-9.330919932304898579e-02,0.000000000000000000e+00
1.472000000000000000e+03,-7.105387877117097170e-03,0.000000000000000000e+00
1.473000000000000000e+03,-1.236881575447759535e-01,0.000000000000000000e+00
1.474000000000000000e+03,-5.997554746536531284e-02,0.000000000000000000e+00
1.475000000000000000e+03,-4.605381598705385153e-03,0.000000000000000000e+00
1.476000000000000000e+03,1.036996065195137928e-01,0.000000000000000000e+00
1.477000000000000000e+03,-8.802030680316784428e-03,0.000000000000000000e+00
1.478000000000000000e+03,1.437072449555249765e-01,0.000000000000000000e+00
1.479000000000000000e+03,6.073904623627858490e-02,0.000000000000000000e+00
1.480000000000000000e+03,1.288910141249356989e-01,0.000000000000000000e+00
1.481000000000000000e+03,3.208538497377685927e-01,0.000000000000000000e+00
1.482000000000000000e+03,3.789492318296326934e-01,0.000000000000000000e+00
1.483000000000000000e+03,4.556528913216505439e-01,0.000000000000000000e+00
1.484000000000000000e+03,4.399713246144322798e-01,0.000000000000000000e+00
1.485000000000000000e+03,2.650111779069033169e-01,0.000000000000000000e+00
1.486000000000000000e+03,1.299877616435927696e-01,0.000000000000000000e+00
1.487000000000000000e+03,2.040453953197570239e-02,0.000000000000000000e+00
1.488000000000000000e+03,1.735098891280085695e-02,0.000000000000000000e+00
1.489000000000000000e+03,9.634969939159031965e-03,0.000000000000000000e+00
1.490000000000000000e+03,1.353780318649649150e-01,0.000000000000000000e+00
1.491000000000000000e+03,1.504282755607990296e+00,0.000000000000000000e+00
1.492000000000000000e+03,6.320656723349019401e+00,0.000000000000000000e+00
1.493000000000000000e+03,1.732357187390056064e+00,1.000000000000000000e+00
1.494000000000000000e+03,-1.388142113499526431e+00,0.000000000000000000e+00
1.495000000000000000e+03,-8.981499290116824463e-01,0.000000000000000000e+00
1.496000000000000000e+03,-1.102246611225640605e+00,0.000000000000000000e+00
1.497000000000000000e+03,-8.854067438820995006e-01,0.000000000000000000e+00
1.498000000000000000e+03,-8.087517276013224121e-01,0.000000000000000000e+00
1.499000000000000000e+03,-6.631219512721526765e-01,0.000000000000000000e+00
1.500000000000000000e+03,-5.818212941946773187e-01,0.000000000000000000e+00
1.501000000000000000e+03,-3.529757818485496634e-01,0.000000000000000000e+00
1.502000000000000000e+03,-2.634816279547739226e-01,0.000000000000000000e+00
1.503000000000000000e+03,3.234339882269406802e-02,0.000000000000000000e+00
1.504000000000000000e+03,2.933352326714711716e-02,0.000000000000000000e+00
1.505000000000000000e+03,2.914246572763338206e-01,0.000000000000000000e+00
1.506000000000000000e+03,2.976576705599251471e-01,0.000000000000000000e+00
1.507000000000000000e+03,2.967401815793010988e-01,0.000000000000000000e+00
1.508000000000000000e+03,2.664106822116765194e-01,0.000000000000000000e+00
1.509000000000000000e+03,4.741227420166062995e-02,0.000000000000000000e+00
1.510000000000000000e+03,-2.566167373217195236e-01,0.000000000000000000e+00
1.511000000000000000e+03,-5.360520069798698772e-01,0.000000000000000000e+00
1.512000000000000000e+03,-6.497056408489596535e-01,0.000000000000000000e+00
1.513000000000000000e+03,-6.199384528066524958e-01,0.000000000000000000e+00
1.514000000000000000e+03,-6.465742404384573483e-01,0.000000000000000000e+00
1.515000000000000000e+03,-6.308449483961630078e-01,0.000000000000000000e+00
1.516000000000000000e+03,-5.349118670514948493e-01,0.000000000000000000e+00
1.517000000000000000e+03,-3.386390321499234690e-01,0.000000000000000000e+00
1.518000000000000000e+03,-2.774910199519116660e-01,0.000000000000000000e+00
1.519000000000000000e+03,-3.532652263375831159e-01,0.000000000000000000e+00
1.520000000000000000e+03,-2.233101313270331456e-01,0.000000000000000000e+00
1.521000000000000000e+03,-2.944191843200368863e-01,0.000000000000000000e+00
1.522000000000000000e+03,-2.734673744015473362e-01,0.000000000000000000e+00
1.523000000000000000e+03,-5.325013614314039190e-02,0.000000000000000000e+00
1.524000000000000000e+03,-2.230056546110916263e-02,0.000000000000000000e+00
1.525000000000000000e+03,-2.217616447691390380e-01,0.000000000000000000e+00
1.526000000000000000e+03,9.730234230236093143e-03,0.000000000000000000e+00
1.527000000000000000e+03,-2.114390349198299601e-01,0.000000000000000000e+00
1.528000000000000000e+03,4.835707444216937739e-02,0.000000000000000000e+00
1.529000000000000000e+03,-3.658151966655057846e-02,0.000000000000000000e+00
1.530000000000000000e+03,5.292331349450188349e-02,0.000000000000000000e+00
1.531000000000000000e+03,-1.056233759811897426e-02,0.000000000000000000e+00
1.532000000000000000e+03,3.661114096371834159e-02,0.000000000000000000e+00
1.533000000000000000e+03,1.234306683087563472e-01,0.000000000000000000e+00
1.534000000000000000e+03,3.338776008865088074e-01,0.000000000000000000e+00
1.535000000000000000e+03,3.289583319561084074e-01,0.000000000000000000e+00
1.536000000000000000e+03,3.771770924817811621e-01,0.000000000000000000e+00
1.537000000000000000e+03,4.255390586047385626e-01,0.000000000000000000e+00
1.538000000000000000e+03,2.861193664994070573e-01,0.000000000000000000e+00
1.539000000000000000e+03,-5.663118876673053567e-03,0.000000000000000000e+00
1.540000000000000000e+03,-3.425833039570622823e-02,0.000000000000000000e+00
1.541000000000000000e+03,-5.531589980874117990e-02,0.000000000000000000e+00
1.542000000000000000e+03,6.267488616745418850e-02,0.000000000000000000e+00
1.543000000000000000e+03,-7.313968010139813847e-02,0.000000000000000000e+00
1.544000000000000000e+03,2.143995459242221902e+00,0.000000000000000000e+00
1.545000000000000000e+03,6.422453482103869682e+00,0.000000000000000000e+00
1.546000000000000000e+03,8.897073225955367537e-01,1.000000000000000000e+00
1.547000000000000000e+03,-1.382778027763385431e+00,0.000000000000000000e+00
1.548000000000000000e+03,-1.084005863099035016e+00,0.000000000000000000e+00
1.549000000000000000e+03,-1.217059095864344798e+00,0.000000000000000000e+00
1.550000000000000000e+03,-9.944786567553937084e-01,0.000000000000000000e+00
1.551000000000000000e+03,-9.029989848029336130e-01,0.000000000000000000e+00
1.552000000000000000e+03,-7.265380128507826774e-01,0.000000000000000000e+00
1.553000000000000000e+03,-5.662157636192494126e-01,0.000000000000000000e+00
1.554000000000000000e+03,-4.600791787945234246e-01,0.000000000000000000e+00
1.555000000000000000e+03,-4.274046791703361436e-01,0.000000000000000000e+00
1.556000000000000000e+03,-1.916212215053787471e-01,0.000000000000000000e+00
1.557000000000000000e+03,3.161159030763258104e-02,0.000000000000000000e+00
1.558000000000000000e+03,2.741418598438828402e-01,0.000000000000000000e+00
1.559000000000000000e+03,2.961209158891758286e-01,0.000000000000000000e+00
1.560000000000000000e+03,3.168147021275810049e-01,0.000000000000000000e+00
1.561000000000000000e+03,1.596916500575196740e-01,0.000000000000000000e+00
1.562000000000000000e+03,-7.003331997446068241e-03,0.000000000000000000e+00
1.563000000000000000e+03,-3.558297924535515633e-01,0.000000000000000000e+00
1.564000000000000000e+03,-3.994467503621003668e-01,0.000000000000000000e+00
1.565000000000000000e+03,-6.687829045030352360e-01,0.000000000000000000e+00
1.566000000000000000e+03,-6.657460245698751944e-01,0.000000000000000000e+00
1.567000000000000000e+03,-7.213654886520260989e-01,0.000000000000000000e+00
1.568000000000000000e+03,-5.228399023691394643e-01,0.000000000000000000e+00
1.569000000000000000e+03,-4.733719832854856868e-01,0.000000000000000000e+00
1.570000000000000000e+03,-3.590356458461982370e-01,0.000000000000000000e+00
1.571000000000000000e+03,-2.929568496216761742e-01,0.000000000000000000e+00
1.572000000000000000e+03,-2.636340333460710506e-01,0.000000000000000000e+00
1.573000000000000000e+03,-2.476628372738335082e-01,0.000000000000000000e+00
1.574000000000000000e+03,-3.779072939318730423e-02,0.000000000000000000e+00
1.575000000000000000e+03,-1.085312367765886993e-01,0.000000000000000000e+00
1.576000000000000000e+03,2.679221241132457090e-02,0.000000000000000000e+00
1.577000000000000000e+03,-1.078507099314140460e-01,0.000000000000000000e+00
1.578000000000000000e+03,-5.063831306506237639e-02,0.000000000000000000e+00
1.579000000000000000e+03,-5.084189756512822594e-02,0.000000000000000000e+00
1.580000000000000000e+03,-7.533499530249369511e-03,0.000000000000000000e+00
1.581000000000000000e+03,3.307853856350476129e-03,0.000000000000000000e+00
1.582000000000000000e+03,1.190785472650934540e-01,0.000000000000000000e+00
1.583000000000000000e+03,8.519452167938569576e-02,0.000000000000000000e+00
1.584000000000000000e+03,4.721228400387612011e-03,0.000000000000000000e+00
1.585000000000000000e+03,2.110497480433175532e-01,0.000000000000000000e+00
1.586000000000000000e+03,1.815985417605181784e-01,0.000000000000000000e+00
