timestamp,ecg_measurement,qrs_detected
0.000000000000000000e+00,-6.401449203682940681e-02,0.000000000000000000e+00
1.000000000000000000e+00,1.419764188212122719e-02,0.000000000000000000e+00
2.000000000000000000e+00,3.565716561675466578e-02,0.000000000000000000e+00
3.000000000000000000e+00,1.727154911010518878e-01,0.000000000000000000e+00
4.000000000000000000e+00,1.254782267541360852e-01,0.000000000000000000e+00
5.000000000000000000e+00,3.262683623240886788e-01,0.000000000000000000e+00
6.000000000000000000e+00,3.608875200875289457e-01,0.000000000000000000e+00
7.000000000000000000e+00,5.853532163958933277e-01,0.000000000000000000e+00
8.000000000000000000e+00,8.646793492238952217e-01,0.000000000000000000e+00
9.000000000000000000e+00,1.124074816443148883e+00,0.000000000000000000e+00
1.000000000000000000e+01,1.211889953611514859e+00,0.000000000000000000e+00
1.100000000000000000e+01,1.167507419245905842e+00,0.000000000000000000e+00
1.200000000000000000e+01,7.545765117099698660e-01,0.000000000000000000e+00
1.300000000000000000e+01,-9.842803902329654020e-02,0.000000000000000000e+00
1.400000000000000000e+01,-8.812674279807442002e-01,1.000000000000000000e+00
1.500000000000000000e+01,-9.429713810759878800e-01,0.000000000000000000e+00
1.600000000000000000e+01,-1.074285318955020996e+00,0.000000000000000000e+00
1.700000000000000000e+01,-1.143353358672186015e+00,0.000000000000000000e+00
1.800000000000000000e+01,-9.481633962907409785e-01,0.000000000000000000e+00
1.900000000000000000e+01,-8.492094386260986560e-01,0.000000000000000000e+00
2.000000000000000000e+01,-7.458837733887101473e-01,0.000000000000000000e+00
2.100000000000000000e+01,-6.771975255382696179e-01,0.000000000000000000e+00
2.200000000000000000e+01,-5.657190427723269854e-01,0.000000000000000000e+00
2.300000000000000000e+01,-4.167197353039670538e-01,0.000000000000000000e+00
2.400000000000000000e+01,-4.352008678185186885e-01,0.000000000000000000e+00
2.500000000000000000e+01,-2.575390302428103850e-01,0.000000000000000000e+00
2.600000000000000000e+01,-2.473374109554979383e-01,0.000000000000000000e+00
2.700000000000000000e+01,-3.521968403738463538e-01,0.000000000000000000e+00
2.800000000000000000e+01,-3.455669944031124485e-01,0.000000000000000000e+00
2.900000000000000000e+01,-2.790194576334362186e-01,0.000000000000000000e+00
3.000000000000000000e+01,-2.940040799844483854e-01,0.000000000000000000e+00
3.100000000000000000e+01,-1.018539572991738196e-01,0.000000000000000000e+00
3.200000000000000000e+01,-1.843098180092278549e-01,0.000000000000000000e+00
3.300000000000000000e+01,-1.991203664689082838e-03,0.000000000000000000e+00
3.400000000000000000e+01,-4.217344405566464394e-02,0.000000000000000000e+00
3.500000000000000000e+01,-4.392086929967877612e-02,0.000000000000000000e+00
3.600000000000000000e+01,4.668886938731047626e-02,0.000000000000000000e+00
3.700000000000000000e+01,-4.088256706271922031e-02,0.000000000000000000e+00
3.800000000000000000e+01,6.951849843118965144e-02,0.000000000000000000e+00
3.900000000000000000e+01,2.221489059735719807e-01,0.000000000000000000e+00
4.000000000000000000e+01,3.729618187031382703e-01,0.000000000000000000e+00
4.100000000000000000e+01,2.717887902432209457e-01,0.000000000000000000e+00
4.200000000000000000e+01,7.712577340206223653e-01,0.000000000000000000e+00
4.300000000000000000e+01,4.502016069409179866e-01,0.000000000000000000e+00
4.400000000000000000e+01,-2.837968954278735287e-02,0.000000000000000000e+00
4.500000000000000000e+01,-1.081176127044991969e-01,0.000000000000000000e+00
4.600000000000000000e+01,-3.031592695500563359e-02,0.000000000000000000e+00
4.700000000000000000e+01,3.141881443323712442e-01,0.000000000000000000e+00
4.800000000000000000e+01,2.149210893659304622e-01,0.000000000000000000e+00
4.900000000000000000e+01,9.072886841094367494e-01,0.000000000000000000e+00
5.000000000000000000e+01,9.000244576145364217e-01,0.000000000000000000e+00
5.100000000000000000e+01,3.298705530608869729e-01,1.000000000000000000e+00
5.200000000000000000e+01,9.353384661742907003e-02,0.000000000000000000e+00
5.300000000000000000e+01,-3.750326715395599364e-02,0.000000000000000000e+00
5.400000000000000000e+01,-9.095309568850555582e-02,0.000000000000000000e+00
5.500000000000000000e+01,-2.300412529157858446e-02,0.000000000000000000e+00
5.600000000000000000e+01,1.434190623866431072e-03,0.000000000000000000e+00
5.700000000000000000e+01,1.431189294090133290e-01,0.000000000000000000e+00
5.800000000000000000e+01,1.656648453336120597e-01,0.000000000000000000e+00
5.900000000000000000e+01,2.327409522202134318e-01,0.000000000000000000e+00
6.000000000000000000e+01,3.943230288591980659e-01,0.000000000000000000e+00
6.100000000000000000e+01,3.820749455437882358e-01,0.000000000000000000e+00
6.200000000000000000e+01,7.385779208187146505e-01,0.000000000000000000e+00
6.300000000000000000e+01,1.060087155985845575e+00,0.000000000000000000e+00
6.400000000000000000e+01,1.132055771188582360e+00,0.000000000000000000e+00
6.500000000000000000e+01,1.207808167599784488e+00,0.000000000000000000e+00
6.600000000000000000e+01,8.868182551672527669e-01,0.000000000000000000e+00
6.700000000000000000e+01,5.277551837920232969e-02,0.000000000000000000e+00
6.800000000000000000e+01,-4.928360816135329281e-01,0.000000000000000000e+00
6.900000000000000000e+01,-9.532531353070152758e-01,0.000000000000000000e+00
7.000000000000000000e+01,-9.743857078408378891e-01,0.000000000000000000e+00
7.100000000000000000e+01,-1.087445471686005360e+00,0.000000000000000000e+00
7.200000000000000000e+01,-9.945793972000178673e-01,0.000000000000000000e+00
7.300000000000000000e+01,-8.166136031710187204e-01,0.000000000000000000e+00
7.400000000000000000e+01,-7.249342612584084300e-01,0.000000000000000000e+00
7.500000000000000000e+01,-6.505030477100951503e-01,0.000000000000000000e+00
7.600000000000000000e+01,-5.504956852771555331e-01,0.000000000000000000e+00
7.700000000000000000e+01,-4.020593311071451459e-01,0.000000000000000000e+00
7.800000000000000000e+01,-4.292221462803841314e-01,0.000000000000000000e+00
7.900000000000000000e+01,-4.137611991904907027e-01,0.000000000000000000e+00
8.000000000000000000e+01,-3.019366008470246721e-01,0.000000000000000000e+00
8.100000000000000000e+01,-4.420078174898192103e-01,0.000000000000000000e+00
8.200000000000000000e+01,-3.440017331212207874e-01,0.000000000000000000e+00
8.300000000000000000e+01,-3.043293418019893393e-01,0.000000000000000000e+00
8.400000000000000000e+01,-2.371700147364126654e-01,0.000000000000000000e+00
8.500000000000000000e+01,-3.088041338297946581e-01,0.000000000000000000e+00
8.600000000000000000e+01,-1.474549666869172104e-01,0.000000000000000000e+00
8.700000000000000000e+01,-1.937308600162185312e-01,0.000000000000000000e+00
8.800000000000000000e+01,-1.261082451382400660e-01,0.000000000000000000e+00
8.900000000000000000e+01,-1.887107308090807123e-01,0.000000000000000000e+00
9.000000000000000000e+01,-1.182987873544115859e-01,0.000000000000000000e+00
9.100000000000000000e+01,6.969549333420582693e-02,0.000000000000000000e+00
9.200000000000000000e+01,3.191113896897766061e-02,0.000000000000000000e+00
9.300000000000000000e+01,1.438662891422074208e-01,0.000000000000000000e+00
9.400000000000000000e+01,7.402929777982740489e-02,0.000000000000000000e+00
9.500000000000000000e+01,1.986941405555920637e-01,0.000000000000000000e+00
9.600000000000000000e+01,3.973498103866442976e-01,0.000000000000000000e+00
9.700000000000000000e+01,6.830381512468470806e-01,0.000000000000000000e+00
9.800000000000000000e+01,6.352608018523143718e-01,0.000000000000000000e+00
9.900000000000000000e+01,7.380041465468670236e-02,0.000000000000000000e+00
1.000000000000000000e+02,1.011822185023048271e-01,0.000000000000000000e+00
1.010000000000000000e+02,-7.194682156630478886e-02,0.000000000000000000e+00
1.020000000000000000e+02,3.891300200120150210e-01,0.000000000000000000e+00
1.030000000000000000e+02,2.499650497975003105e-01,0.000000000000000000e+00
1.040000000000000000e+02,9.571441663504728359e-01,0.000000000000000000e+00
1.050000000000000000e+02,1.322628359223061656e+00,0.000000000000000000e+00
1.060000000000000000e+02,4.782945951805804286e-01,1.000000000000000000e+00
1.070000000000000000e+02,1.904595536101841569e-01,0.000000000000000000e+00
1.080000000000000000e+02,2.518270172072512719e-02,0.000000000000000000e+00
1.090000000000000000e+02,1.956353227257446106e-02,0.000000000000000000e+00
1.100000000000000000e+02,1.263393557785331411e-01,0.000000000000000000e+00
1.110000000000000000e+02,9.807339334232596795e-02,0.000000000000000000e+00
1.120000000000000000e+02,5.502896736696477609e-02,0.000000000000000000e+00
1.130000000000000000e+02,2.407353921217733339e-01,0.000000000000000000e+00
1.140000000000000000e+02,2.766344829556442453e-01,0.000000000000000000e+00
1.150000000000000000e+02,3.429779678255511222e-01,0.000000000000000000e+00
1.160000000000000000e+02,4.381490047566666268e-01,0.000000000000000000e+00
1.170000000000000000e+02,6.825289428231636757e-01,0.000000000000000000e+00
1.180000000000000000e+02,9.487324918906722138e-01,0.000000000000000000e+00
1.190000000000000000e+02,1.082607080420527446e+00,0.000000000000000000e+00
1.200000000000000000e+02,1.131988667479646216e+00,0.000000000000000000e+00
1.210000000000000000e+02,1.009905618363715840e+00,0.000000000000000000e+00
1.220000000000000000e+02,3.299294999610744017e-01,0.000000000000000000e+00
1.230000000000000000e+02,-3.681974947951487387e-01,0.000000000000000000e+00
1.240000000000000000e+02,-9.668170276688725640e-01,0.000000000000000000e+00
1.250000000000000000e+02,-1.116616796383830934e+00,0.000000000000000000e+00
1.260000000000000000e+02,-9.930438505794927373e-01,0.000000000000000000e+00
1.270000000000000000e+02,-1.111685693737123781e+00,0.000000000000000000e+00
1.280000000000000000e+02,-8.163759289697357646e-01,0.000000000000000000e+00
1.290000000000000000e+02,-8.117315900640390547e-01,0.000000000000000000e+00
1.300000000000000000e+02,-7.855950425324996766e-01,0.000000000000000000e+00
1.310000000000000000e+02,-6.026600796237894242e-01,0.000000000000000000e+00
1.320000000000000000e+02,-4.594607997465238181e-01,0.000000000000000000e+00
1.330000000000000000e+02,-5.500276950657476682e-01,0.000000000000000000e+00
1.340000000000000000e+02,-3.464496603815399589e-01,0.000000000000000000e+00
1.350000000000000000e+02,-4.025046611621240222e-01,0.000000000000000000e+00
1.360000000000000000e+02,-3.887977641409521290e-01,0.000000000000000000e+00
1.370000000000000000e+02,-3.480446872724772822e-01,0.000000000000000000e+00
1.380000000000000000e+02,-2.396848167851290123e-01,0.000000000000000000e+00
1.390000000000000000e+02,-2.197178784754639513e-01,0.000000000000000000e+00
1.400000000000000000e+02,-3.217211660485954638e-01,0.000000000000000000e+00
1.410000000000000000e+02,-2.052167527940083058e-01,0.000000000000000000e+00
1.420000000000000000e+02,-2.401801524258243836e-01,0.000000000000000000e+00
1.430000000000000000e+02,7.512376913271195944e-02,0.000000000000000000e+00
1.440000000000000000e+02,-1.562419243120025114e-01,0.000000000000000000e+00
1.450000000000000000e+02,1.479142313144960474e-01,0.000000000000000000e+00
1.460000000000000000e+02,-6.303050141412269713e-02,0.000000000000000000e+00
1.470000000000000000e+02,1.550830883007504601e-01,0.000000000000000000e+00
1.480000000000000000e+02,1.445050891212838473e-01,0.000000000000000000e+00
1.490000000000000000e+02,2.013971780250241594e-01,0.000000000000000000e+00
1.500000000000000000e+02,5.072535190655320658e-01,0.000000000000000000e+00
1.510000000000000000e+02,6.150925702321007327e-01,0.000000000000000000e+00
1.520000000000000000e+02,1.322313906968916597e-01,0.000000000000000000e+00
1.530000000000000000e+02,-9.687782805483481641e-02,0.000000000000000000e+00
1.540000000000000000e+02,-1.224590663489710241e-01,0.000000000000000000e+00
1.550000000000000000e+02,3.517027090536435641e-02,0.000000000000000000e+00
1.560000000000000000e+02,3.126965716896014658e-01,0.000000000000000000e+00
1.570000000000000000e+02,5.918480704076368726e-01,0.000000000000000000e+00
1.580000000000000000e+02,6.903941430257705125e-01,0.000000000000000000e+00
1.590000000000000000e+02,2.203365931116027521e-01,0.000000000000000000e+00
1.600000000000000000e+02,8.990401310312479133e-02,0.000000000000000000e+00
1.610000000000000000e+02,3.103767389852680417e-03,0.000000000000000000e+00
1.620000000000000000e+02,1.259116348631391102e-01,0.000000000000000000e+00
1.630000000000000000e+02,-3.307903842103405295e-03,0.000000000000000000e+00
1.640000000000000000e+02,1.673688978135205452e-01,0.000000000000000000e+00
1.650000000000000000e+02,1.679958721141068811e-01,0.000000000000000000e+00
1.660000000000000000e+02,1.797561502244950093e-01,0.000000000000000000e+00
1.670000000000000000e+02,2.469320843245987884e-01,0.000000000000000000e+00
1.680000000000000000e+02,3.453035749728650128e-01,0.000000000000000000e+00
1.690000000000000000e+02,4.574199146633464719e-01,0.000000000000000000e+00
1.700000000000000000e+02,7.522633279213503110e-01,0.000000000000000000e+00
1.710000000000000000e+02,7.707762140359080139e-01,0.000000000000000000e+00
1.720000000000000000e+02,1.097393234770546622e+00,0.000000000000000000e+00
1.730000000000000000e+02,1.118408142536655214e+00,0.000000000000000000e+00
1.740000000000000000e+02,9.929837111677572992e-01,0.000000000000000000e+00
1.750000000000000000e+02,6.903354036399426130e-01,0.000000000000000000e+00
1.760000000000000000e+02,-1.370838603048218640e-01,0.000000000000000000e+00
1.770000000000000000e+02,-8.219934451921763197e-01,1.000000000000000000e+00
1.780000000000000000e+02,-1.154375965992863406e+00,0.000000000000000000e+00
1.790000000000000000e+02,-1.178740776533057533e+00,0.000000000000000000e+00
1.800000000000000000e+02,-1.201595190367451993e+00,0.000000000000000000e+00
1.810000000000000000e+02,-1.066243970975056854e+00,0.000000000000000000e+00
1.820000000000000000e+02,-9.245844956865122422e-01,0.000000000000000000e+00
1.830000000000000000e+02,-8.262952913358523332e-01,0.000000000000000000e+00
1.840000000000000000e+02,-7.544151941562258212e-01,0.000000000000000000e+00
1.850000000000000000e+02,-5.995290711105992765e-01,0.000000000000000000e+00
1.860000000000000000e+02,-4.524774323902607809e-01,0.000000000000000000e+00
1.870000000000000000e+02,-4.016250471343162376e-01,0.000000000000000000e+00
1.880000000000000000e+02,-4.721888225410142970e-01,0.000000000000000000e+00
1.890000000000000000e+02,-3.914470552810825899e-01,0.000000000000000000e+00
1.900000000000000000e+02,-4.368355294877161454e-01,0.000000000000000000e+00
1.910000000000000000e+02,-3.633781265915720371e-01,0.000000000000000000e+00
1.920000000000000000e+02,-4.313474011144943776e-01,0.000000000000000000e+00
1.930000000000000000e+02,-3.638214407434372522e-01,0.000000000000000000e+00
1.940000000000000000e+02,-3.592520444861006523e-01,0.000000000000000000e+00
1.950000000000000000e+02,-2.378995205088527409e-01,0.000000000000000000e+00
1.960000000000000000e+02,-2.303768726243221321e-01,0.000000000000000000e+00
1.970000000000000000e+02,-1.161423905918375771e-01,0.000000000000000000e+00
1.980000000000000000e+02,-5.783997742122279351e-03,0.000000000000000000e+00
1.990000000000000000e+02,1.462370882255737414e-01,0.000000000000000000e+00
2.000000000000000000e+02,2.135250157244381053e-01,0.000000000000000000e+00
2.010000000000000000e+02,4.501092451868977662e-01,0.000000000000000000e+00
2.020000000000000000e+02,5.815522691854988491e-01,0.000000000000000000e+00
2.030000000000000000e+02,3.956758042083970139e-02,0.000000000000000000e+00
2.040000000000000000e+02,-2.185281154691212299e-02,0.000000000000000000e+00
2.050000000000000000e+02,-1.107514947757203827e-01,0.000000000000000000e+00
2.060000000000000000e+02,6.059420593344917727e-02,0.000000000000000000e+00
2.070000000000000000e+02,3.213170998660002109e-01,0.000000000000000000e+00
2.080000000000000000e+02,6.075885878214131175e-01,0.000000000000000000e+00
2.090000000000000000e+02,1.005975059129121885e+00,0.000000000000000000e+00
2.100000000000000000e+02,4.858497248455038720e-01,0.000000000000000000e+00
2.110000000000000000e+02,2.552309217433494926e-01,0.000000000000000000e+00
2.120000000000000000e+02,7.986073181168107382e-02,0.000000000000000000e+00
2.130000000000000000e+02,1.477937303505995614e-01,0.000000000000000000e+00
2.140000000000000000e+02,1.342296530277452445e-02,0.000000000000000000e+00
2.150000000000000000e+02,1.671302782378475127e-01,0.000000000000000000e+00
2.160000000000000000e+02,1.227425401205089472e-01,0.000000000000000000e+00
2.170000000000000000e+02,3.208309275113597203e-01,0.000000000000000000e+00
2.180000000000000000e+02,2.617964190887446807e-01,0.000000000000000000e+00
2.190000000000000000e+02,4.261987073082172950e-01,0.000000000000000000e+00
2.200000000000000000e+02,5.784824763076849008e-01,0.000000000000000000e+00
2.210000000000000000e+02,7.111940077281955208e-01,0.000000000000000000e+00
2.220000000000000000e+02,1.059208514811964763e+00,0.000000000000000000e+00
2.230000000000000000e+02,1.176336174651831268e+00,0.000000000000000000e+00
2.240000000000000000e+02,1.238316795910293200e+00,0.000000000000000000e+00
2.250000000000000000e+02,1.049939205656046370e+00,0.000000000000000000e+00
2.260000000000000000e+02,6.471778941073739189e-01,0.000000000000000000e+00
2.270000000000000000e+02,-2.582670939341570604e-02,0.000000000000000000e+00
2.280000000000000000e+02,-7.615592695465206452e-01,1.000000000000000000e+00
2.290000000000000000e+02,-9.994412797202224530e-01,0.000000000000000000e+00
2.300000000000000000e+02,-1.031104713355677216e+00,0.000000000000000000e+00
2.310000000000000000e+02,-9.918656977132328523e-01,0.000000000000000000e+00
2.320000000000000000e+02,-8.869956333544670724e-01,0.000000000000000000e+00
2.330000000000000000e+02,-9.005383953075027925e-01,0.000000000000000000e+00
2.340000000000000000e+02,-6.276104278239715839e-01,0.000000000000000000e+00
2.350000000000000000e+02,-5.567629448426607564e-01,0.000000000000000000e+00
2.360000000000000000e+02,-4.287735475847617717e-01,0.000000000000000000e+00
2.370000000000000000e+02,-4.718870908104809136e-01,0.000000000000000000e+00
2.380000000000000000e+02,-2.670157699014419905e-01,0.000000000000000000e+00
2.390000000000000000e+02,-3.558099264299981468e-01,0.000000000000000000e+00
2.400000000000000000e+02,-3.970206221671940261e-01,0.000000000000000000e+00
2.410000000000000000e+02,-3.261144607090228908e-01,0.000000000000000000e+00
2.420000000000000000e+02,-2.792602641814589393e-01,0.000000000000000000e+00
2.430000000000000000e+02,-2.333138462547249270e-01,0.000000000000000000e+00
2.440000000000000000e+02,-2.773188988894484952e-01,0.000000000000000000e+00
2.450000000000000000e+02,-8.795992127872029331e-02,0.000000000000000000e+00
2.460000000000000000e+02,-2.203551096807805920e-01,0.000000000000000000e+00
2.470000000000000000e+02,5.017142035129835281e-03,0.000000000000000000e+00
2.480000000000000000e+02,-6.980499671278678209e-02,0.000000000000000000e+00
2.490000000000000000e+02,1.399913574822423956e-01,0.000000000000000000e+00
2.500000000000000000e+02,-4.109074236227624327e-02,0.000000000000000000e+00
2.510000000000000000e+02,7.499541118131955453e-02,0.000000000000000000e+00
2.520000000000000000e+02,4.704416731121206091e-02,0.000000000000000000e+00
2.530000000000000000e+02,2.520413908172042805e-01,0.000000000000000000e+00
2.540000000000000000e+02,3.089776461270142827e-01,0.000000000000000000e+00
2.550000000000000000e+02,3.764468111047028498e-01,0.000000000000000000e+00
2.560000000000000000e+02,6.021842628255527075e-01,0.000000000000000000e+00
2.570000000000000000e+02,6.761030315299877413e-01,0.000000000000000000e+00
2.580000000000000000e+02,3.482246241938377618e-02,0.000000000000000000e+00
2.590000000000000000e+02,1.123467800130750760e-01,0.000000000000000000e+00
2.600000000000000000e+02,-7.134825920068181559e-02,0.000000000000000000e+00
2.610000000000000000e+02,2.894707136951304438e-01,0.000000000000000000e+00
2.620000000000000000e+02,1.992307487802993660e-01,0.000000000000000000e+00
2.630000000000000000e+02,8.718779149063419220e-01,0.000000000000000000e+00
2.640000000000000000e+02,1.181065128540190745e+00,0.000000000000000000e+00
2.650000000000000000e+02,5.709223077783427414e-01,1.000000000000000000e+00
2.660000000000000000e+02,1.443651836665020560e-01,0.000000000000000000e+00
2.670000000000000000e+02,-1.462600484837664749e-01,0.000000000000000000e+00
2.680000000000000000e+02,-7.863697259543371565e-02,0.000000000000000000e+00
2.690000000000000000e+02,-1.615686533472361630e-01,0.000000000000000000e+00
2.700000000000000000e+02,4.286870983581390904e-02,0.000000000000000000e+00
2.710000000000000000e+02,6.120987477139970372e-03,0.000000000000000000e+00
2.720000000000000000e+02,1.943458875186638013e-01,0.000000000000000000e+00
2.730000000000000000e+02,2.263319983436121730e-01,0.000000000000000000e+00
2.740000000000000000e+02,3.059790965282283004e-01,0.000000000000000000e+00
2.750000000000000000e+02,3.750300633648954163e-01,0.000000000000000000e+00
2.760000000000000000e+02,5.308873470023665053e-01,0.000000000000000000e+00
2.770000000000000000e+02,8.123289154773571941e-01,0.000000000000000000e+00
2.780000000000000000e+02,1.051605681610086274e+00,0.000000000000000000e+00
2.790000000000000000e+02,9.405148151543241131e-01,0.000000000000000000e+00
2.800000000000000000e+02,9.950093921576169675e-01,0.000000000000000000e+00
2.810000000000000000e+02,2.583557851446398601e-01,0.000000000000000000e+00
2.820000000000000000e+02,-3.794796418449163933e-01,0.000000000000000000e+00
2.830000000000000000e+02,-8.990826930188293709e-01,0.000000000000000000e+00
2.840000000000000000e+02,-1.082219463910170321e+00,0.000000000000000000e+00
2.850000000000000000e+02,-1.057443596211814052e+00,0.000000000000000000e+00
2.860000000000000000e+02,-1.014994687706557208e+00,0.000000000000000000e+00
2.870000000000000000e+02,-9.651264408024703423e-01,0.000000000000000000e+00
2.880000000000000000e+02,-8.223763285354941388e-01,0.000000000000000000e+00
2.890000000000000000e+02,-7.376522710609635380e-01,0.000000000000000000e+00
2.900000000000000000e+02,-6.193065755062523436e-01,0.000000000000000000e+00
2.910000000000000000e+02,-5.066522269868882766e-01,0.000000000000000000e+00
2.920000000000000000e+02,-4.084685002910823926e-01,0.000000000000000000e+00
2.930000000000000000e+02,-5.336011289668991520e-01,0.000000000000000000e+00
2.940000000000000000e+02,-3.668670899442939004e-01,0.000000000000000000e+00
2.950000000000000000e+02,-3.694906007548937610e-01,0.000000000000000000e+00
2.960000000000000000e+02,-3.083071295133719136e-01,0.000000000000000000e+00
2.970000000000000000e+02,-2.979462310783005385e-01,0.000000000000000000e+00
2.980000000000000000e+02,-2.562934966192479402e-01,0.000000000000000000e+00
2.990000000000000000e+02,-2.828032731486866402e-01,0.000000000000000000e+00
3.000000000000000000e+02,-2.094828053841075177e-01,0.000000000000000000e+00
3.010000000000000000e+02,-2.378665968703670697e-01,0.000000000000000000e+00
3.020000000000000000e+02,-1.540076336337664054e-01,0.000000000000000000e+00
3.030000000000000000e+02,1.754792010124449353e-02,0.000000000000000000e+00
3.040000000000000000e+02,9.435526014179385079e-02,0.000000000000000000e+00
3.050000000000000000e+02,2.102445987100513558e-01,0.000000000000000000e+00
3.060000000000000000e+02,5.030067905607121803e-01,0.000000000000000000e+00
3.070000000000000000e+02,5.006814820407331501e-01,0.000000000000000000e+00
3.080000000000000000e+02,1.092349551753669656e-01,0.000000000000000000e+00
3.090000000000000000e+02,-8.876166752426238593e-02,0.000000000000000000e+00
3.100000000000000000e+02,-7.955533802986486380e-02,0.000000000000000000e+00
3.110000000000000000e+02,1.126866822853147959e-01,0.000000000000000000e+00
3.120000000000000000e+02,3.776057595870255246e-01,0.000000000000000000e+00
3.130000000000000000e+02,5.626700960584275490e-01,0.000000000000000000e+00
3.140000000000000000e+02,5.681606223616614271e-01,0.000000000000000000e+00
3.150000000000000000e+02,-1.625102571642124752e-02,0.000000000000000000e+00
3.160000000000000000e+02,2.402484069948267187e-01,0.000000000000000000e+00
3.170000000000000000e+02,-4.188361725090172620e-03,0.000000000000000000e+00
3.180000000000000000e+02,1.487503295643780310e-01,0.000000000000000000e+00
3.190000000000000000e+02,1.022987103645651014e-01,0.000000000000000000e+00
3.200000000000000000e+02,1.945783299188512394e-01,0.000000000000000000e+00
3.210000000000000000e+02,1.228838416740048040e-01,0.000000000000000000e+00
3.220000000000000000e+02,1.917872876988725717e-01,0.000000000000000000e+00
3.230000000000000000e+02,2.962439210418882363e-01,0.000000000000000000e+00
3.240000000000000000e+02,4.612605186990277328e-01,0.000000000000000000e+00
3.250000000000000000e+02,4.789246196659580068e-01,0.000000000000000000e+00
3.260000000000000000e+02,7.864099407627106464e-01,0.000000000000000000e+00
3.270000000000000000e+02,9.771134296573106282e-01,0.000000000000000000e+00
3.280000000000000000e+02,1.115800598594476556e+00,0.000000000000000000e+00
3.290000000000000000e+02,1.136459943780667059e+00,0.000000000000000000e+00
3.300000000000000000e+02,1.048018699645357543e+00,0.000000000000000000e+00
3.310000000000000000e+02,5.331793808454409200e-01,0.000000000000000000e+00
3.320000000000000000e+02,-2.345859990657493677e-01,0.000000000000000000e+00
3.330000000000000000e+02,-8.335901457703326356e-01,1.000000000000000000e+00
3.340000000000000000e+02,-1.115800451794729975e+00,0.000000000000000000e+00
3.350000000000000000e+02,-1.172989858758767712e+00,0.000000000000000000e+00
3.360000000000000000e+02,-1.046683135596792713e+00,0.000000000000000000e+00
3.370000000000000000e+02,-1.116747978185896439e+00,0.000000000000000000e+00
3.380000000000000000e+02,-9.034932695450559326e-01,0.000000000000000000e+00
3.390000000000000000e+02,-6.422649134989716346e-01,0.000000000000000000e+00
3.400000000000000000e+02,-5.292408717328530576e-01,0.000000000000000000e+00
3.410000000000000000e+02,-4.490567216864148059e-01,0.000000000000000000e+00
3.420000000000000000e+02,-4.152087782101684943e-01,0.000000000000000000e+00
3.430000000000000000e+02,-4.164871081921642793e-01,0.000000000000000000e+00
3.440000000000000000e+02,-4.297086444312991915e-01,0.000000000000000000e+00
3.450000000000000000e+02,-3.194717378372428085e-01,0.000000000000000000e+00
3.460000000000000000e+02,-3.657741080793409094e-01,0.000000000000000000e+00
3.470000000000000000e+02,-3.024559718566947608e-01,0.000000000000000000e+00
3.480000000000000000e+02,-1.807995602600285800e-01,0.000000000000000000e+00
3.490000000000000000e+02,-2.825717704202674874e-01,0.000000000000000000e+00
3.500000000000000000e+02,-8.121445155772284707e-02,0.000000000000000000e+00
3.510000000000000000e+02,-9.372890332046505957e-02,0.000000000000000000e+00
3.520000000000000000e+02,-4.182148226411124686e-02,0.000000000000000000e+00
3.530000000000000000e+02,2.671071697523003663e-01,0.000000000000000000e+00
3.540000000000000000e+02,2.682573497516726468e-01,0.000000000000000000e+00
3.550000000000000000e+02,3.927944526962052763e-01,0.000000000000000000e+00
3.560000000000000000e+02,5.398182750694021648e-01,0.000000000000000000e+00
3.570000000000000000e+02,-1.301597385202200030e-01,0.000000000000000000e+00
3.580000000000000000e+02,-1.290235217302454773e-01,0.000000000000000000e+00
3.590000000000000000e+02,-1.182656017193566833e-01,0.000000000000000000e+00
3.600000000000000000e+02,1.134566587398122724e-02,0.000000000000000000e+00
3.610000000000000000e+02,1.574055235897071914e-01,0.000000000000000000e+00
3.620000000000000000e+02,5.864319154420744029e-01,0.000000000000000000e+00
3.630000000000000000e+02,8.888798493323486483e-01,0.000000000000000000e+00
3.640000000000000000e+02,2.637358324691903566e-01,0.000000000000000000e+00
3.650000000000000000e+02,2.189206011540835717e-01,0.000000000000000000e+00
3.660000000000000000e+02,8.097257584365050165e-02,0.000000000000000000e+00
3.670000000000000000e+02,2.025111160899827067e-02,0.000000000000000000e+00
3.680000000000000000e+02,2.916419414693076709e-02,0.000000000000000000e+00
3.690000000000000000e+02,1.562618634584841959e-01,0.000000000000000000e+00
3.700000000000000000e+02,2.686650210445832299e-01,0.000000000000000000e+00
3.710000000000000000e+02,2.689051645405557411e-01,0.000000000000000000e+00
3.720000000000000000e+02,3.606919380399654096e-01,0.000000000000000000e+00
3.730000000000000000e+02,4.150398162177673655e-01,0.000000000000000000e+00
3.740000000000000000e+02,5.630660719381954671e-01,0.000000000000000000e+00
3.750000000000000000e+02,7.808145404960780134e-01,0.000000000000000000e+00
3.760000000000000000e+02,9.059762219933205074e-01,0.000000000000000000e+00
3.770000000000000000e+02,1.122263761598247811e+00,0.000000000000000000e+00
3.780000000000000000e+02,1.016882127851579165e+00,0.000000000000000000e+00
3.790000000000000000e+02,1.034210281197211145e+00,0.000000000000000000e+00
3.800000000000000000e+02,4.313643225071131515e-01,0.000000000000000000e+00
3.810000000000000000e+02,-1.798131124643719547e-01,0.000000000000000000e+00
3.820000000000000000e+02,-7.570743135142941060e-01,1.000000000000000000e+00
3.830000000000000000e+02,-9.879469627128439901e-01,0.000000000000000000e+00
3.840000000000000000e+02,-1.164166674449987227e+00,0.000000000000000000e+00
3.850000000000000000e+02,-1.070972652906555744e+00,0.000000000000000000e+00
3.860000000000000000e+02,-9.872132466909194770e-01,0.000000000000000000e+00
3.870000000000000000e+02,-8.217756456839625523e-01,0.000000000000000000e+00
3.880000000000000000e+02,-7.315882767728485447e-01,0.000000000000000000e+00
3.890000000000000000e+02,-4.758115244890308571e-01,0.000000000000000000e+00
3.900000000000000000e+02,-4.818550716370537113e-01,0.000000000000000000e+00
3.910000000000000000e+02,-3.913821038582303014e-01,0.000000000000000000e+00
3.920000000000000000e+02,-3.522244328005505465e-01,0.000000000000000000e+00
3.930000000000000000e+02,-2.642267383745044995e-01,0.000000000000000000e+00
3.940000000000000000e+02,-4.397945306790198572e-01,0.000000000000000000e+00
3.950000000000000000e+02,-3.198638144257719973e-01,0.000000000000000000e+00
3.960000000000000000e+02,-1.560755540157152121e-01,0.000000000000000000e+00
3.970000000000000000e+02,-3.337770363781097371e-01,0.000000000000000000e+00
3.980000000000000000e+02,-1.124745114617621555e-01,0.000000000000000000e+00
3.990000000000000000e+02,-6.527052881259932937e-02,0.000000000000000000e+00
4.000000000000000000e+02,-1.197512667560477195e-01,0.000000000000000000e+00
4.010000000000000000e+02,-1.710306806698999593e-01,0.000000000000000000e+00
4.020000000000000000e+02,-7.772865621972704919e-02,0.000000000000000000e+00
4.030000000000000000e+02,-3.698774071593288748e-02,0.000000000000000000e+00
4.040000000000000000e+02,5.693509357048174430e-02,0.000000000000000000e+00
4.050000000000000000e+02,2.153917123361355490e-01,0.000000000000000000e+00
4.060000000000000000e+02,2.734977913800438754e-01,0.000000000000000000e+00
4.070000000000000000e+02,3.044775129901955424e-01,0.000000000000000000e+00
4.080000000000000000e+02,5.880794056316374085e-01,0.000000000000000000e+00
4.090000000000000000e+02,5.974713061797684022e-01,0.000000000000000000e+00
4.100000000000000000e+02,-2.257085509254387612e-02,0.000000000000000000e+00
4.110000000000000000e+02,-7.965032600960088305e-02,0.000000000000000000e+00
4.120000000000000000e+02,3.081957014957125221e-02,0.000000000000000000e+00
4.130000000000000000e+02,2.903345931809775959e-01,0.000000000000000000e+00
4.140000000000000000e+02,1.534103951599767313e-01,0.000000000000000000e+00
4.150000000000000000e+02,9.214677047221784267e-01,0.000000000000000000e+00
4.160000000000000000e+02,1.116018782703914747e+00,0.000000000000000000e+00
4.170000000000000000e+02,3.655806954095672801e-01,1.000000000000000000e+00
4.180000000000000000e+02,6.719994192364391744e-03,0.000000000000000000e+00
4.190000000000000000e+02,-4.845248532917213052e-02,0.000000000000000000e+00
4.200000000000000000e+02,-3.510211885157780987e-02,0.000000000000000000e+00
4.210000000000000000e+02,4.807582487989917053e-02,0.000000000000000000e+00
4.220000000000000000e+02,8.615404837600973420e-02,0.000000000000000000e+00
4.230000000000000000e+02,1.195136876950592952e-01,0.000000000000000000e+00
4.240000000000000000e+02,2.022963520637935109e-01,0.000000000000000000e+00
4.250000000000000000e+02,1.996147961163747819e-01,0.000000000000000000e+00
4.260000000000000000e+02,3.072642180190802708e-01,0.000000000000000000e+00
4.270000000000000000e+02,4.925886094818417438e-01,0.000000000000000000e+00
4.280000000000000000e+02,6.678118912801106477e-01,0.000000000000000000e+00
4.290000000000000000e+02,9.820578695480595144e-01,0.000000000000000000e+00
4.300000000000000000e+02,1.075706469635188789e+00,0.000000000000000000e+00
4.310000000000000000e+02,1.060054625025724562e+00,0.000000000000000000e+00
4.320000000000000000e+02,9.402843710506306740e-01,0.000000000000000000e+00
4.330000000000000000e+02,2.225501509366765718e-01,0.000000000000000000e+00
4.340000000000000000e+02,-4.330467489691222638e-01,0.000000000000000000e+00
4.350000000000000000e+02,-9.001535400517660657e-01,0.000000000000000000e+00
4.360000000000000000e+02,-1.037868846013679791e+00,0.000000000000000000e+00
4.370000000000000000e+02,-9.669680710144857860e-01,0.000000000000000000e+00
4.380000000000000000e+02,-9.542743584131899715e-01,0.000000000000000000e+00
4.390000000000000000e+02,-7.746271846069505695e-01,0.000000000000000000e+00
4.400000000000000000e+02,-7.347623047508020644e-01,0.000000000000000000e+00
4.410000000000000000e+02,-5.845115049341893521e-01,0.000000000000000000e+00
4.420000000000000000e+02,-4.979996473930057288e-01,0.000000000000000000e+00
4.430000000000000000e+02,-4.440029226201561152e-01,0.000000000000000000e+00
4.440000000000000000e+02,-3.448729943239712825e-01,0.000000000000000000e+00
4.450000000000000000e+02,-2.362478978742673374e-01,0.000000000000000000e+00
4.460000000000000000e+02,-2.885295652606980066e-01,0.000000000000000000e+00
4.470000000000000000e+02,-3.255304979489310191e-01,0.000000000000000000e+00
4.480000000000000000e+02,-3.677459507030146901e-01,0.000000000000000000e+00
4.490000000000000000e+02,-3.162074397203398779e-01,0.000000000000000000e+00
4.500000000000000000e+02,-2.827767886304990430e-01,0.000000000000000000e+00
4.510000000000000000e+02,-3.323100963774435201e-01,0.000000000000000000e+00
4.520000000000000000e+02,-3.246161906148469778e-01,0.000000000000000000e+00
4.530000000000000000e+02,-8.607725985070652230e-02,0.000000000000000000e+00
4.540000000000000000e+02,-7.248179889810667242e-02,0.000000000000000000e+00
4.550000000000000000e+02,-5.981649119404855441e-02,0.000000000000000000e+00
4.560000000000000000e+02,4.537667013724758225e-02,0.000000000000000000e+00
4.570000000000000000e+02,1.541548783960071112e-01,0.000000000000000000e+00
4.580000000000000000e+02,4.112299131036246114e-01,0.000000000000000000e+00
4.590000000000000000e+02,5.827069845662159464e-01,0.000000000000000000e+00
4.600000000000000000e+02,-1.201037836355575567e-01,0.000000000000000000e+00
4.610000000000000000e+02,-1.323002660643010642e-01,0.000000000000000000e+00
4.620000000000000000e+02,-2.289804788326499640e-01,0.000000000000000000e+00
4.630000000000000000e+02,-8.350524535301773188e-02,0.000000000000000000e+00
4.640000000000000000e+02,2.505612698206989841e-01,0.000000000000000000e+00
4.650000000000000000e+02,3.397640589782933151e-01,0.000000000000000000e+00
4.660000000000000000e+02,9.464084200078923814e-01,0.000000000000000000e+00
4.670000000000000000e+02,2.891787210665967556e-01,0.000000000000000000e+00
4.680000000000000000e+02,1.147734883685815402e-02,0.000000000000000000e+00
4.690000000000000000e+02,2.981647247138485834e-02,0.000000000000000000e+00
4.700000000000000000e+02,4.850207254053838339e-03,0.000000000000000000e+00
4.710000000000000000e+02,1.353065661289265705e-02,0.000000000000000000e+00
4.720000000000000000e+02,-1.087459815449612066e-01,0.000000000000000000e+00
4.730000000000000000e+02,2.348485390478922685e-01,0.000000000000000000e+00
4.740000000000000000e+02,1.772167479036386439e-01,0.000000000000000000e+00
4.750000000000000000e+02,3.713833792552672097e-01,0.000000000000000000e+00
4.760000000000000000e+02,5.854023144831007608e-01,0.000000000000000000e+00
4.770000000000000000e+02,5.460247559508482063e-01,0.000000000000000000e+00
4.780000000000000000e+02,6.288284890576076869e-01,0.000000000000000000e+00
4.790000000000000000e+02,1.024375949873387981e+00,0.000000000000000000e+00
4.800000000000000000e+02,1.079269313738271840e+00,0.000000000000000000e+00
4.810000000000000000e+02,1.070328865978501298e+00,0.000000000000000000e+00
4.820000000000000000e+02,1.176936988188545419e+00,0.000000000000000000e+00
4.830000000000000000e+02,4.816122083473828863e-01,0.000000000000000000e+00
4.840000000000000000e+02,-2.238200675640533432e-01,0.000000000000000000e+00
4.850000000000000000e+02,-8.047756462581433512e-01,1.000000000000000000e+00
4.860000000000000000e+02,-1.217183507049500513e+00,0.000000000000000000e+00
4.870000000000000000e+02,-1.241652274498939557e+00,0.000000000000000000e+00
4.880000000000000000e+02,-1.131543485348819544e+00,0.000000000000000000e+00
4.890000000000000000e+02,-1.035542531000337441e+00,0.000000000000000000e+00
4.900000000000000000e+02,-8.548844474810012306e-01,0.000000000000000000e+00
4.910000000000000000e+02,-8.264219242020275358e-01,0.000000000000000000e+00
4.920000000000000000e+02,-5.715687736284517095e-01,0.000000000000000000e+00
4.930000000000000000e+02,-4.886047776564021450e-01,0.000000000000000000e+00
4.940000000000000000e+02,-4.567552318736075589e-01,0.000000000000000000e+00
4.950000000000000000e+02,-3.886511825919430341e-01,0.000000000000000000e+00
4.960000000000000000e+02,-4.161861178172878706e-01,0.000000000000000000e+00
4.970000000000000000e+02,-3.358177690765668522e-01,0.000000000000000000e+00
4.980000000000000000e+02,-3.020565247879814508e-01,0.000000000000000000e+00
4.990000000000000000e+02,-2.623681370866522977e-01,0.000000000000000000e+00
5.000000000000000000e+02,-2.017862484572977844e-01,0.000000000000000000e+00
5.010000000000000000e+02,-2.437248715394616516e-01,0.000000000000000000e+00
5.020000000000000000e+02,-2.229923021759991908e-01,0.000000000000000000e+00
5.030000000000000000e+02,-1.707262351518298582e-01,0.000000000000000000e+00
5.040000000000000000e+02,1.113932385419647841e-01,0.000000000000000000e+00
5.050000000000000000e+02,3.723919354601385595e-02,0.000000000000000000e+00
5.060000000000000000e+02,2.886691324197625530e-01,0.000000000000000000e+00
5.070000000000000000e+02,3.981655951214939093e-01,0.000000000000000000e+00
5.080000000000000000e+02,6.802790203313971995e-01,0.000000000000000000e+00
5.090000000000000000e+02,1.471892969245071903e-01,0.000000000000000000e+00
5.100000000000000000e+02,-4.816258402056046439e-02,0.000000000000000000e+00
5.110000000000000000e+02,-1.060079255666628549e-02,0.000000000000000000e+00
5.120000000000000000e+02,1.379968939452266563e-01,0.000000000000000000e+00
5.130000000000000000e+02,4.435522413370479033e-01,0.000000000000000000e+00
5.140000000000000000e+02,6.557153897214538230e-01,0.000000000000000000e+00
5.150000000000000000e+02,7.790272430671604242e-01,0.000000000000000000e+00
5.160000000000000000e+02,2.786529492267113550e-01,0.000000000000000000e+00
5.170000000000000000e+02,3.250026250133989936e-01,0.000000000000000000e+00
5.180000000000000000e+02,1.174288474041926406e-01,0.000000000000000000e+00
5.190000000000000000e+02,2.525515483660492055e-01,0.000000000000000000e+00
5.200000000000000000e+02,2.021853423634840385e-01,0.000000000000000000e+00
5.210000000000000000e+02,1.818872807285065452e-01,0.000000000000000000e+00
5.220000000000000000e+02,3.045236586128588496e-01,0.000000000000000000e+00
5.230000000000000000e+02,4.274287470335755290e-01,0.000000000000000000e+00
5.240000000000000000e+02,3.314483602911145188e-01,0.000000000000000000e+00
5.250000000000000000e+02,5.046073911269349788e-01,0.000000000000000000e+00
5.260000000000000000e+02,6.313311587252286028e-01,0.000000000000000000e+00
5.270000000000000000e+02,7.446385311850846067e-01,0.000000000000000000e+00
5.280000000000000000e+02,9.412207694950646131e-01,0.000000000000000000e+00
5.290000000000000000e+02,1.105429178542357116e+00,0.000000000000000000e+00
5.300000000000000000e+02,1.097110329113953897e+00,0.000000000000000000e+00
5.310000000000000000e+02,9.861389985708032269e-01,0.000000000000000000e+00
5.320000000000000000e+02,5.103238494754988031e-01,0.000000000000000000e+00
5.330000000000000000e+02,-1.488620581244387286e-01,0.000000000000000000e+00
5.340000000000000000e+02,-7.771798978873604158e-01,1.000000000000000000e+00
5.350000000000000000e+02,-1.124144697708659102e+00,0.000000000000000000e+00
5.360000000000000000e+02,-1.124514466454718642e+00,0.000000000000000000e+00
5.370000000000000000e+02,-1.059024577401381562e+00,0.000000000000000000e+00
5.380000000000000000e+02,-1.037824697370011151e+00,0.000000000000000000e+00
5.390000000000000000e+02,-8.282824970930039443e-01,0.000000000000000000e+00
5.400000000000000000e+02,-7.424264814458635398e-01,0.000000000000000000e+00
5.410000000000000000e+02,-5.915542904779306221e-01,0.000000000000000000e+00
5.420000000000000000e+02,-5.358133053678566515e-01,0.000000000000000000e+00
5.430000000000000000e+02,-4.611389793708318696e-01,0.000000000000000000e+00
5.440000000000000000e+02,-3.538336600645039520e-01,0.000000000000000000e+00
5.450000000000000000e+02,-4.516968633171907221e-01,0.000000000000000000e+00
5.460000000000000000e+02,-3.701305137239639942e-01,0.000000000000000000e+00
5.470000000000000000e+02,-4.271839843969182926e-01,0.000000000000000000e+00
5.480000000000000000e+02,-4.066867054351339661e-01,0.000000000000000000e+00
5.490000000000000000e+02,-3.027361489407511819e-01,0.000000000000000000e+00
5.500000000000000000e+02,-2.313648287809321746e-01,0.000000000000000000e+00
5.510000000000000000e+02,-2.309317898285163650e-01,0.000000000000000000e+00
5.520000000000000000e+02,-2.111153592226882869e-01,0.000000000000000000e+00
5.530000000000000000e+02,-1.202274237745449004e-01,0.000000000000000000e+00
5.540000000000000000e+02,-2.111137253555444016e-01,0.000000000000000000e+00
5.550000000000000000e+02,-8.282128469204078081e-02,0.000000000000000000e+00
5.560000000000000000e+02,7.576407107531160472e-03,0.000000000000000000e+00
5.570000000000000000e+02,1.678798102823594596e-01,0.000000000000000000e+00
5.580000000000000000e+02,1.630791461421211841e-01,0.000000000000000000e+00
5.590000000000000000e+02,2.431489742204895332e-01,0.000000000000000000e+00
5.600000000000000000e+02,6.339073820635084955e-01,0.000000000000000000e+00
5.610000000000000000e+02,3.299952143809869454e-01,0.000000000000000000e+00
5.620000000000000000e+02,-1.408013665088850563e-01,0.000000000000000000e+00
5.630000000000000000e+02,-1.102320071773710830e-01,0.000000000000000000e+00
5.640000000000000000e+02,-1.660297925025603083e-01,0.000000000000000000e+00
5.650000000000000000e+02,1.021364829670279861e-01,0.000000000000000000e+00
5.660000000000000000e+02,1.753317931775062732e-01,0.000000000000000000e+00
5.670000000000000000e+02,8.228686385526484681e-01,0.000000000000000000e+00
5.680000000000000000e+02,8.740188543892053463e-01,0.000000000000000000e+00
5.690000000000000000e+02,2.037329662050851864e-01,1.000000000000000000e+00
5.700000000000000000e+02,3.607017794163794311e-03,0.000000000000000000e+00
5.710000000000000000e+02,-6.320770905105764503e-02,0.000000000000000000e+00
5.720000000000000000e+02,7.249331502785021086e-02,0.000000000000000000e+00
5.730000000000000000e+02,3.226922398293254751e-02,0.000000000000000000e+00
5.740000000000000000e+02,1.046706739061239733e-01,0.000000000000000000e+00
5.750000000000000000e+02,1.427995043494418859e-01,0.000000000000000000e+00
5.760000000000000000e+02,2.985613953695682721e-01,0.000000000000000000e+00
5.770000000000000000e+02,1.952889298110065952e-01,0.000000000000000000e+00
5.780000000000000000e+02,5.617462645481826611e-01,0.000000000000000000e+00
5.790000000000000000e+02,6.381205732591048729e-01,0.000000000000000000e+00
5.800000000000000000e+02,7.990026427242834517e-01,0.000000000000000000e+00
5.810000000000000000e+02,1.013269709513773043e+00,0.000000000000000000e+00
5.820000000000000000e+02,1.081931304548362505e+00,0.000000000000000000e+00
5.830000000000000000e+02,1.118670871103104147e+00,0.000000000000000000e+00
5.840000000000000000e+02,8.652175762291884897e-01,0.000000000000000000e+00
5.850000000000000000e+02,2.021344434568406179e-01,0.000000000000000000e+00
5.860000000000000000e+02,-4.187930973136706481e-01,0.000000000000000000e+00
5.870000000000000000e+02,-8.978637330657397442e-01,0.000000000000000000e+00
5.880000000000000000e+02,-1.113323832603668295e+00,0.000000000000000000e+00
5.890000000000000000e+02,-1.033198899987443742e+00,0.000000000000000000e+00
5.900000000000000000e+02,-9.318107177356435011e-01,0.000000000000000000e+00
5.910000000000000000e+02,-8.976907470207922124e-01,0.000000000000000000e+00
5.920000000000000000e+02,-6.610583591679212168e-01,0.000000000000000000e+00
5.930000000000000000e+02,-5.069469652396867421e-01,0.000000000000000000e+00
5.940000000000000000e+02,-4.131431562658954282e-01,0.000000000000000000e+00
5.950000000000000000e+02,-3.400141942641394799e-01,0.000000000000000000e+00
5.960000000000000000e+02,-3.295944442449808554e-01,0.000000000000000000e+00
5.970000000000000000e+02,-3.318122067332837655e-01,0.000000000000000000e+00
5.980000000000000000e+02,-2.882971877403917582e-01,0.000000000000000000e+00
5.990000000000000000e+02,-2.880638966191882977e-01,0.000000000000000000e+00
6.000000000000000000e+02,-2.611565875689415006e-01,0.000000000000000000e+00
6.010000000000000000e+02,-2.349625823734723673e-01,0.000000000000000000e+00
6.020000000000000000e+02,-2.233536860562524151e-01,0.000000000000000000e+00
6.030000000000000000e+02,-2.589355403628364471e-01,0.000000000000000000e+00
6.040000000000000000e+02,-1.857969637223826909e-01,0.000000000000000000e+00
6.050000000000000000e+02,-2.171158384131453567e-01,0.000000000000000000e+00
6.060000000000000000e+02,-1.279861568943923000e-01,0.000000000000000000e+00
6.070000000000000000e+02,-3.820252868273172481e-02,0.000000000000000000e+00
6.080000000000000000e+02,-7.433013739950111720e-02,0.000000000000000000e+00
6.090000000000000000e+02,1.961163681797374048e-01,0.000000000000000000e+00
6.100000000000000000e+02,1.025349623307926367e-01,0.000000000000000000e+00
6.110000000000000000e+02,4.028854098384622717e-01,0.000000000000000000e+00
6.120000000000000000e+02,5.385541183914578367e-01,0.000000000000000000e+00
6.130000000000000000e+02,4.726384049975568824e-01,0.000000000000000000e+00
6.140000000000000000e+02,-6.882720739441748614e-02,0.000000000000000000e+00
6.150000000000000000e+02,1.536453391121024798e-03,0.000000000000000000e+00
6.160000000000000000e+02,-9.433518201050400398e-02,0.000000000000000000e+00
6.170000000000000000e+02,3.252076943246532958e-01,0.000000000000000000e+00
6.180000000000000000e+02,2.539943216372328449e-01,0.000000000000000000e+00
6.190000000000000000e+02,7.487619346390044228e-01,0.000000000000000000e+00
6.200000000000000000e+02,9.949948560256706154e-01,0.000000000000000000e+00
6.210000000000000000e+02,3.175554780699749724e-01,1.000000000000000000e+00
6.220000000000000000e+02,2.695623270851169387e-02,0.000000000000000000e+00
6.230000000000000000e+02,1.988737936574111465e-02,0.000000000000000000e+00
6.240000000000000000e+02,-1.185130870732507974e-01,0.000000000000000000e+00
6.250000000000000000e+02,-5.882852534998668503e-02,0.000000000000000000e+00
6.260000000000000000e+02,8.538103140774981614e-02,0.000000000000000000e+00
6.270000000000000000e+02,1.562880622912040385e-01,0.000000000000000000e+00
6.280000000000000000e+02,1.821546977464554018e-01,0.000000000000000000e+00
6.290000000000000000e+02,3.402560228981977852e-01,0.000000000000000000e+00
6.300000000000000000e+02,4.879989419047278121e-01,0.000000000000000000e+00
6.310000000000000000e+02,4.375495726384569517e-01,0.000000000000000000e+00
6.320000000000000000e+02,8.133028716242092226e-01,0.000000000000000000e+00
6.330000000000000000e+02,8.948607931511881608e-01,0.000000000000000000e+00
6.340000000000000000e+02,1.149559123712456055e+00,0.000000000000000000e+00
6.350000000000000000e+02,1.218768675343680163e+00,0.000000000000000000e+00
6.360000000000000000e+02,9.530015377933196419e-01,0.000000000000000000e+00
6.370000000000000000e+02,2.397971917513764539e-01,0.000000000000000000e+00
6.380000000000000000e+02,-5.424557930310798248e-01,0.000000000000000000e+00
6.390000000000000000e+02,-9.885709266123764438e-01,0.000000000000000000e+00
6.400000000000000000e+02,-1.137622892930120644e+00,0.000000000000000000e+00
6.410000000000000000e+02,-1.084800544411741674e+00,0.000000000000000000e+00
6.420000000000000000e+02,-1.016206240721842846e+00,0.000000000000000000e+00
6.430000000000000000e+02,-9.031433900967340556e-01,0.000000000000000000e+00
6.440000000000000000e+02,-6.568493726486644979e-01,0.000000000000000000e+00
6.450000000000000000e+02,-6.882563415408239349e-01,0.000000000000000000e+00
6.460000000000000000e+02,-5.356257581014663982e-01,0.000000000000000000e+00
6.470000000000000000e+02,-4.591319339760753793e-01,0.000000000000000000e+00
6.480000000000000000e+02,-4.518790468553958717e-01,0.000000000000000000e+00
6.490000000000000000e+02,-4.424559233901589339e-01,0.000000000000000000e+00
6.500000000000000000e+02,-2.594921297261236770e-01,0.000000000000000000e+00
6.510000000000000000e+02,-3.657222984120901965e-01,0.000000000000000000e+00
6.520000000000000000e+02,-2.493789834082462686e-01,0.000000000000000000e+00
6.530000000000000000e+02,-3.848958196870309045e-01,0.000000000000000000e+00
6.540000000000000000e+02,-1.528003643007336543e-01,0.000000000000000000e+00
6.550000000000000000e+02,-1.975796821292507555e-01,0.000000000000000000e+00
6.560000000000000000e+02,-1.419974427608136636e-01,0.000000000000000000e+00
6.570000000000000000e+02,-1.600506379518529254e-02,0.000000000000000000e+00
6.580000000000000000e+02,3.708210032830237812e-02,0.000000000000000000e+00
6.590000000000000000e+02,2.061228422756455902e-01,0.000000000000000000e+00
6.600000000000000000e+02,5.870350287100604136e-01,0.000000000000000000e+00
6.610000000000000000e+02,1.721793873784834839e-01,0.000000000000000000e+00
6.620000000000000000e+02,-2.157023204253061544e-01,0.000000000000000000e+00
6.630000000000000000e+02,-1.203182489639594704e-01,0.000000000000000000e+00
6.640000000000000000e+02,-2.599196334905577999e-01,0.000000000000000000e+00
6.650000000000000000e+02,2.102045083225920208e-01,0.000000000000000000e+00
6.660000000000000000e+02,3.442508166993648033e-01,0.000000000000000000e+00
6.670000000000000000e+02,5.695901812521696472e-01,0.000000000000000000e+00
6.680000000000000000e+02,2.069192312832523750e-01,0.000000000000000000e+00
6.690000000000000000e+02,-3.283242389927524402e-02,0.000000000000000000e+00
6.700000000000000000e+02,9.423449568874292526e-02,0.000000000000000000e+00
6.710000000000000000e+02,3.206996347689121396e-02,0.000000000000000000e+00
6.720000000000000000e+02,8.347862613105647145e-02,0.000000000000000000e+00
6.730000000000000000e+02,1.269852138116613349e-01,0.000000000000000000e+00
6.740000000000000000e+02,1.445108867627360461e-01,0.000000000000000000e+00
6.750000000000000000e+02,1.761958987654863029e-01,0.000000000000000000e+00
6.760000000000000000e+02,2.701972751020735863e-01,0.000000000000000000e+00
6.770000000000000000e+02,3.405488134349760609e-01,0.000000000000000000e+00
6.780000000000000000e+02,5.814916851202041048e-01,0.000000000000000000e+00
6.790000000000000000e+02,6.640782227300249252e-01,0.000000000000000000e+00
6.800000000000000000e+02,9.279913141813259658e-01,0.000000000000000000e+00
6.810000000000000000e+02,1.086193073860478808e+00,0.000000000000000000e+00
6.820000000000000000e+02,1.264757812243276103e+00,0.000000000000000000e+00
6.830000000000000000e+02,1.165521741327225413e+00,0.000000000000000000e+00
6.840000000000000000e+02,6.885357801712533865e-01,0.000000000000000000e+00
6.850000000000000000e+02,-7.315074703055968013e-03,0.000000000000000000e+00
6.860000000000000000e+02,-5.968719731452225563e-01,1.000000000000000000e+00
6.870000000000000000e+02,-9.178965017713031083e-01,0.000000000000000000e+00
6.880000000000000000e+02,-1.100879083669334957e+00,0.000000000000000000e+00
6.890000000000000000e+02,-1.039257190221409166e+00,0.000000000000000000e+00
6.900000000000000000e+02,-9.248566768908721425e-01,0.000000000000000000e+00
6.910000000000000000e+02,-9.491979044533104259e-01,0.000000000000000000e+00
6.920000000000000000e+02,-6.513900774648806458e-01,0.000000000000000000e+00
6.930000000000000000e+02,-6.039917943797343813e-01,0.000000000000000000e+00
6.940000000000000000e+02,-3.867023856982119145e-01,0.000000000000000000e+00
6.950000000000000000e+02,-3.310133089674821560e-01,0.000000000000000000e+00
6.960000000000000000e+02,-3.666744106582170426e-01,0.000000000000000000e+00
6.970000000000000000e+02,-3.122921338903990041e-01,0.000000000000000000e+00
6.980000000000000000e+02,-3.957383488635534685e-01,0.000000000000000000e+00
6.990000000000000000e+02,-3.330680937973319322e-01,0.000000000000000000e+00
7.000000000000000000e+02,-2.927343869281991418e-01,0.000000000000000000e+00
7.010000000000000000e+02,-2.215261776386639736e-01,0.000000000000000000e+00
7.020000000000000000e+02,-2.435984316668821648e-01,0.000000000000000000e+00
7.030000000000000000e+02,-1.649436507364790971e-01,0.000000000000000000e+00
7.040000000000000000e+02,-2.052668956426463853e-01,0.000000000000000000e+00
7.050000000000000000e+02,-2.191166506693439653e-01,0.000000000000000000e+00
7.060000000000000000e+02,5.937147503795556225e-02,0.000000000000000000e+00
7.070000000000000000e+02,1.405001786213335921e-02,0.000000000000000000e+00
7.080000000000000000e+02,2.338195883657364915e-01,0.000000000000000000e+00
7.090000000000000000e+02,2.908710635555974977e-01,0.000000000000000000e+00
7.100000000000000000e+02,4.715017065087963033e-01,0.000000000000000000e+00
7.110000000000000000e+02,5.467998742811983615e-01,0.000000000000000000e+00
7.120000000000000000e+02,-5.019768917014534593e-02,0.000000000000000000e+00
7.130000000000000000e+02,-2.894664142637304663e-02,0.000000000000000000e+00
7.140000000000000000e+02,-1.498816040074450739e-01,0.000000000000000000e+00
7.150000000000000000e+02,1.353184710645227717e-01,0.000000000000000000e+00
7.160000000000000000e+02,2.205846625471984401e-01,0.000000000000000000e+00
7.170000000000000000e+02,6.832582996844471790e-01,0.000000000000000000e+00
7.180000000000000000e+02,9.304624607271498871e-01,0.000000000000000000e+00
7.190000000000000000e+02,3.565773545753769258e-01,0.000000000000000000e+00
7.200000000000000000e+02,3.022973754925797896e-01,0.000000000000000000e+00
7.210000000000000000e+02,3.085714609603635184e-03,0.000000000000000000e+00
7.220000000000000000e+02,4.334211895139621767e-02,0.000000000000000000e+00
7.230000000000000000e+02,-2.350423781924264321e-02,0.000000000000000000e+00
7.240000000000000000e+02,2.029195664072040994e-01,0.000000000000000000e+00
7.250000000000000000e+02,1.698214951673627238e-01,0.000000000000000000e+00
7.260000000000000000e+02,3.247272062630475187e-01,0.000000000000000000e+00
7.270000000000000000e+02,3.178391877923699149e-01,0.000000000000000000e+00
7.280000000000000000e+02,4.817577217384493848e-01,0.000000000000000000e+00
7.290000000000000000e+02,5.892630872490094429e-01,0.000000000000000000e+00
7.300000000000000000e+02,8.031327398239065385e-01,0.000000000000000000e+00
7.310000000000000000e+02,1.079025708109104587e+00,0.000000000000000000e+00
7.320000000000000000e+02,1.136391197179003720e+00,0.000000000000000000e+00
7.330000000000000000e+02,1.246595654895237049e+00,0.000000000000000000e+00
7.340000000000000000e+02,9.681606379458381761e-01,0.000000000000000000e+00
7.350000000000000000e+02,3.852965005469975446e-01,0.000000000000000000e+00
7.360000000000000000e+02,-2.823570609797682041e-01,1.000000000000000000e+00
7.370000000000000000e+02,-8.652935676267513587e-01,0.000000000000000000e+00
7.380000000000000000e+02,-8.279094251182579356e-01,0.000000000000000000e+00
7.390000000000000000e+02,-1.078932201280604630e+00,0.000000000000000000e+00
7.400000000000000000e+02,-1.000615300222150061e+00,0.000000000000000000e+00
7.410000000000000000e+02,-9.434529633844911389e-01,0.000000000000000000e+00
7.420000000000000000e+02,-8.489791465079996602e-01,0.000000000000000000e+00
7.430000000000000000e+02,-6.629143482516197672e-01,0.000000000000000000e+00
7.440000000000000000e+02,-4.333778441740428478e-01,0.000000000000000000e+00
7.450000000000000000e+02,-3.018855846685432609e-01,0.000000000000000000e+00
7.460000000000000000e+02,-5.200718894253909541e-01,0.000000000000000000e+00
7.470000000000000000e+02,-3.757769039489066154e-01,0.000000000000000000e+00
7.480000000000000000e+02,-4.284240866670903647e-01,0.000000000000000000e+00
7.490000000000000000e+02,-3.319236872454916498e-01,0.000000000000000000e+00
7.500000000000000000e+02,-2.963612814096741599e-01,0.000000000000000000e+00
7.510000000000000000e+02,-3.143996142322139087e-01,0.000000000000000000e+00
7.520000000000000000e+02,-1.857997204439692240e-01,0.000000000000000000e+00
7.530000000000000000e+02,-2.921291917876607802e-01,0.000000000000000000e+00
7.540000000000000000e+02,-1.353775760440566189e-01,0.000000000000000000e+00
7.550000000000000000e+02,-1.180181790302800016e-01,0.000000000000000000e+00
7.560000000000000000e+02,-3.735987590272417391e-02,0.000000000000000000e+00
7.570000000000000000e+02,2.206320447704785900e-02,0.000000000000000000e+00
7.580000000000000000e+02,1.075769112615498069e-01,0.000000000000000000e+00
7.590000000000000000e+02,1.903918225806886244e-01,0.000000000000000000e+00
7.600000000000000000e+02,3.042565891602717620e-01,0.000000000000000000e+00
7.610000000000000000e+02,6.155464937392626235e-01,0.000000000000000000e+00
7.620000000000000000e+02,2.957369963716963146e-02,0.000000000000000000e+00
7.630000000000000000e+02,-1.216266799934870441e-01,0.000000000000000000e+00
7.640000000000000000e+02,-4.376654077471046206e-02,0.000000000000000000e+00
7.650000000000000000e+02,1.125233517704821995e-01,0.000000000000000000e+00
7.660000000000000000e+02,2.161812023085387668e-01,0.000000000000000000e+00
7.670000000000000000e+02,4.130068201454221155e-01,0.000000000000000000e+00
7.680000000000000000e+02,1.001966455274465151e+00,0.000000000000000000e+00
7.690000000000000000e+02,4.223128078980262212e-01,1.000000000000000000e+00
7.700000000000000000e+02,4.674454045587472101e-02,0.000000000000000000e+00
7.710000000000000000e+02,-6.317730906803292745e-02,0.000000000000000000e+00
7.720000000000000000e+02,-1.435308615121636544e-01,0.000000000000000000e+00
7.730000000000000000e+02,-1.147881194308602859e-01,0.000000000000000000e+00
7.740000000000000000e+02,-1.278228893441390457e-01,0.000000000000000000e+00
7.750000000000000000e+02,-8.977038811164518919e-03,0.000000000000000000e+00
7.760000000000000000e+02,8.495451501458295418e-02,0.000000000000000000e+00
7.770000000000000000e+02,1.249913809016244548e-01,0.000000000000000000e+00
7.780000000000000000e+02,3.949788420041727699e-01,0.000000000000000000e+00
7.790000000000000000e+02,4.194228651389730889e-01,0.000000000000000000e+00
7.800000000000000000e+02,6.046616759070263525e-01,0.000000000000000000e+00
7.810000000000000000e+02,9.619894365256727031e-01,0.000000000000000000e+00
7.820000000000000000e+02,1.001874254784800300e+00,0.000000000000000000e+00
7.830000000000000000e+02,1.024154481304571540e+00,0.000000000000000000e+00
7.840000000000000000e+02,9.891517977622883429e-01,0.000000000000000000e+00
7.850000000000000000e+02,3.740080289522124124e-01,0.000000000000000000e+00
7.860000000000000000e+02,-2.640430474881865219e-01,0.000000000000000000e+00
7.870000000000000000e+02,-7.633573344124949811e-01,0.000000000000000000e+00
7.880000000000000000e+02,-9.150237081595754551e-01,0.000000000000000000e+00
7.890000000000000000e+02,-1.015350092809248039e+00,0.000000000000000000e+00
7.900000000000000000e+02,-1.058592600777745307e+00,0.000000000000000000e+00
7.910000000000000000e+02,-1.181686330689002418e+00,0.000000000000000000e+00
7.920000000000000000e+02,-9.356256986250208740e-01,0.000000000000000000e+00
7.930000000000000000e+02,-7.313748242489550577e-01,0.000000000000000000e+00
7.940000000000000000e+02,-6.519540642112862106e-01,0.000000000000000000e+00
7.950000000000000000e+02,-5.213447569110062352e-01,0.000000000000000000e+00
7.960000000000000000e+02,-4.906510343855109424e-01,0.000000000000000000e+00
7.970000000000000000e+02,-4.716751511996965518e-01,0.000000000000000000e+00
7.980000000000000000e+02,-3.855233623314774372e-01,0.000000000000000000e+00
7.990000000000000000e+02,-4.065319729592803411e-01,0.000000000000000000e+00
8.000000000000000000e+02,-3.901973700728508243e-01,0.000000000000000000e+00
8.010000000000000000e+02,-3.413941165910073794e-01,0.000000000000000000e+00
8.020000000000000000e+02,-2.327486677070105536e-01,0.000000000000000000e+00
8.030000000000000000e+02,-1.279304979839472334e-01,0.000000000000000000e+00
8.040000000000000000e+02,-3.083442823978242708e-02,0.000000000000000000e+00
8.050000000000000000e+02,-1.182722702861917496e-01,0.000000000000000000e+00
8.060000000000000000e+02,-6.184768729461796732e-02,0.000000000000000000e+00
8.070000000000000000e+02,-3.730238021610796095e-02,0.000000000000000000e+00
8.080000000000000000e+02,1.611290216472422987e-01,0.000000000000000000e+00
8.090000000000000000e+02,2.297080359869480282e-01,0.000000000000000000e+00
8.100000000000000000e+02,4.051946242764986050e-01,0.000000000000000000e+00
8.110000000000000000e+02,4.734110284649506450e-01,0.000000000000000000e+00
8.120000000000000000e+02,8.247595801624189038e-01,0.000000000000000000e+00
8.130000000000000000e+02,2.718200393016624861e-01,0.000000000000000000e+00
8.140000000000000000e+02,-1.751192059372904319e-03,0.000000000000000000e+00
8.150000000000000000e+02,-1.316544939664456848e-01,0.000000000000000000e+00
8.160000000000000000e+02,1.236754506398349829e-01,0.000000000000000000e+00
8.170000000000000000e+02,1.167459085751315073e-01,0.000000000000000000e+00
8.180000000000000000e+02,5.096839373923784944e-01,0.000000000000000000e+00
8.190000000000000000e+02,1.103185554860544926e+00,0.000000000000000000e+00
8.200000000000000000e+02,6.778122396908452529e-01,1.000000000000000000e+00
8.210000000000000000e+02,5.553882517046147133e-02,0.000000000000000000e+00
8.220000000000000000e+02,5.769467175917154453e-03,0.000000000000000000e+00
8.230000000000000000e+02,-1.484788073563950844e-02,0.000000000000000000e+00
8.240000000000000000e+02,-2.390857529035727777e-02,0.000000000000000000e+00
8.250000000000000000e+02,1.034137648076852711e-01,0.000000000000000000e+00
8.260000000000000000e+02,3.254827806959324776e-02,0.000000000000000000e+00
8.270000000000000000e+02,1.807419075234843187e-01,0.000000000000000000e+00
8.280000000000000000e+02,2.146075594299669542e-01,0.000000000000000000e+00
8.290000000000000000e+02,3.115716918929172241e-01,0.000000000000000000e+00
8.300000000000000000e+02,5.128478765195451095e-01,0.000000000000000000e+00
8.310000000000000000e+02,7.233615235562010914e-01,0.000000000000000000e+00
8.320000000000000000e+02,1.000019605085259888e+00,0.000000000000000000e+00
8.330000000000000000e+02,1.292058930410356021e+00,0.000000000000000000e+00
8.340000000000000000e+02,1.210723771227873558e+00,0.000000000000000000e+00
8.350000000000000000e+02,1.198556792804032378e+00,0.000000000000000000e+00
8.360000000000000000e+02,5.257228602928616379e-01,0.000000000000000000e+00
8.370000000000000000e+02,-2.216344267193030571e-01,0.000000000000000000e+00
8.380000000000000000e+02,-9.401300033688259061e-01,0.000000000000000000e+00
8.390000000000000000e+02,-1.146352752373777095e+00,0.000000000000000000e+00
8.400000000000000000e+02,-1.161029648997390362e+00,0.000000000000000000e+00
8.410000000000000000e+02,-1.107478616970018814e+00,0.000000000000000000e+00
8.420000000000000000e+02,-9.575050081689131520e-01,0.000000000000000000e+00
8.430000000000000000e+02,-7.983147571131612441e-01,0.000000000000000000e+00
8.440000000000000000e+02,-5.656535787610286192e-01,0.000000000000000000e+00
8.450000000000000000e+02,-4.798662076486768790e-01,0.000000000000000000e+00
8.460000000000000000e+02,-3.764276340988891856e-01,0.000000000000000000e+00
8.470000000000000000e+02,-3.155501793407370914e-01,0.000000000000000000e+00
8.480000000000000000e+02,-2.264336363302608401e-01,0.000000000000000000e+00
8.490000000000000000e+02,-2.460093745131276544e-01,0.000000000000000000e+00
8.500000000000000000e+02,-9.138615334074309815e-02,0.000000000000000000e+00
8.510000000000000000e+02,-1.975138186345737068e-01,0.000000000000000000e+00
8.520000000000000000e+02,-2.863810424932491938e-01,0.000000000000000000e+00
8.530000000000000000e+02,-1.813204526916623593e-01,0.000000000000000000e+00
8.540000000000000000e+02,-1.041644362700719917e-01,0.000000000000000000e+00
8.550000000000000000e+02,-1.289913668763592314e-01,0.000000000000000000e+00
8.560000000000000000e+02,-1.723623447009182963e-01,0.000000000000000000e+00
8.570000000000000000e+02,4.652180569225122797e-02,0.000000000000000000e+00
8.580000000000000000e+02,7.820447890166429272e-02,0.000000000000000000e+00
8.590000000000000000e+02,1.602608246134251124e-01,0.000000000000000000e+00
8.600000000000000000e+02,4.025143116126474463e-01,0.000000000000000000e+00
8.610000000000000000e+02,4.501241545373808051e-01,0.000000000000000000e+00
8.620000000000000000e+02,-1.012687204160162280e-01,0.000000000000000000e+00
8.630000000000000000e+02,-1.580543586925049482e-01,0.000000000000000000e+00
8.640000000000000000e+02,-2.035851966880173336e-01,0.000000000000000000e+00
8.650000000000000000e+02,-2.798012515568372091e-02,0.000000000000000000e+00
8.660000000000000000e+02,2.807676683787231897e-01,0.000000000000000000e+00
8.670000000000000000e+02,6.000178342255805264e-01,0.000000000000000000e+00
8.680000000000000000e+02,5.331381723307356824e-01,0.000000000000000000e+00
8.690000000000000000e+02,1.044275293535230770e-01,0.000000000000000000e+00
8.700000000000000000e+02,2.914597902057712298e-01,0.000000000000000000e+00
8.710000000000000000e+02,5.163216439026276777e-02,0.000000000000000000e+00
8.720000000000000000e+02,8.548408352715487768e-02,0.000000000000000000e+00
8.730000000000000000e+02,-3.109349176421433852e-03,0.000000000000000000e+00
8.740000000000000000e+02,7.489190107176059430e-02,0.000000000000000000e+00
8.750000000000000000e+02,1.443273121721432573e-01,0.000000000000000000e+00
8.760000000000000000e+02,3.294358133932594468e-01,0.000000000000000000e+00
8.770000000000000000e+02,3.609605605719923838e-01,0.000000000000000000e+00
8.780000000000000000e+02,4.751702974630095944e-01,0.000000000000000000e+00
8.790000000000000000e+02,5.134679754318167699e-01,0.000000000000000000e+00
8.800000000000000000e+02,7.290077029773561756e-01,0.000000000000000000e+00
8.810000000000000000e+02,1.014775614430887263e+00,0.000000000000000000e+00
8.820000000000000000e+02,1.193805494762415931e+00,0.000000000000000000e+00
8.830000000000000000e+02,1.263102300484919338e+00,0.000000000000000000e+00
8.840000000000000000e+02,1.002664824383340036e+00,0.000000000000000000e+00
8.850000000000000000e+02,3.633720467664099396e-01,0.000000000000000000e+00
8.860000000000000000e+02,-3.127398026160024824e-01,1.000000000000000000e+00
8.870000000000000000e+02,-7.804627688326066792e-01,0.000000000000000000e+00
8.880000000000000000e+02,-1.113512658775746234e+00,0.000000000000000000e+00
8.890000000000000000e+02,-1.129093133605606925e+00,0.000000000000000000e+00
8.900000000000000000e+02,-1.047256665148864396e+00,0.000000000000000000e+00
8.910000000000000000e+02,-1.054819112984321849e+00,0.000000000000000000e+00
8.920000000000000000e+02,-8.240653405447995183e-01,0.000000000000000000e+00
8.930000000000000000e+02,-8.370655897096559439e-01,0.000000000000000000e+00
8.940000000000000000e+02,-6.260209811909976940e-01,0.000000000000000000e+00
8.950000000000000000e+02,-5.306451206455471414e-01,0.000000000000000000e+00
8.960000000000000000e+02,-5.336425055628666314e-01,0.000000000000000000e+00
8.970000000000000000e+02,-4.954006676924225250e-01,0.000000000000000000e+00
8.980000000000000000e+02,-4.504455289584092803e-01,0.000000000000000000e+00
8.990000000000000000e+02,-3.750907212294135040e-01,0.000000000000000000e+00
9.000000000000000000e+02,-3.952136524498300330e-01,0.000000000000000000e+00
9.010000000000000000e+02,-3.853964330287443785e-01,0.000000000000000000e+00
9.020000000000000000e+02,-3.190798693558047350e-01,0.000000000000000000e+00
9.030000000000000000e+02,-2.669512506265658836e-01,0.000000000000000000e+00
9.040000000000000000e+02,-2.638642296621150352e-01,0.000000000000000000e+00
9.050000000000000000e+02,-1.697073045206506092e-01,0.000000000000000000e+00
9.060000000000000000e+02,-7.364234896945280606e-02,0.000000000000000000e+00
9.070000000000000000e+02,1.041542368520945866e-01,0.000000000000000000e+00
9.080000000000000000e+02,4.725819694822944173e-01,0.000000000000000000e+00
9.090000000000000000e+02,3.529096971926112825e-01,0.000000000000000000e+00
9.100000000000000000e+02,-2.001173926853060392e-01,0.000000000000000000e+00
9.110000000000000000e+02,-8.160007611010211548e-03,0.000000000000000000e+00
9.120000000000000000e+02,-1.854833890827091956e-03,0.000000000000000000e+00
9.130000000000000000e+02,2.847678666883340370e-01,0.000000000000000000e+00
9.140000000000000000e+02,2.298503764426821361e-01,0.000000000000000000e+00
9.150000000000000000e+02,7.953733728644418743e-01,0.000000000000000000e+00
9.160000000000000000e+02,5.979295570444732588e-01,0.000000000000000000e+00
9.170000000000000000e+02,2.208224583097742055e-01,0.000000000000000000e+00
9.180000000000000000e+02,7.845494316700007964e-02,0.000000000000000000e+00
9.190000000000000000e+02,2.979292366611929407e-02,0.000000000000000000e+00
9.200000000000000000e+02,-6.206743954341797237e-02,0.000000000000000000e+00
9.210000000000000000e+02,3.894763490097970932e-02,0.000000000000000000e+00
9.220000000000000000e+02,1.225537264926395004e-01,0.000000000000000000e+00
9.230000000000000000e+02,1.805044143207435448e-01,0.000000000000000000e+00
9.240000000000000000e+02,3.256436466591526857e-01,0.000000000000000000e+00
9.250000000000000000e+02,2.471129005696514613e-01,0.000000000000000000e+00
9.260000000000000000e+02,4.353803979658684709e-01,0.000000000000000000e+00
9.270000000000000000e+02,5.450910836050338881e-01,0.000000000000000000e+00
9.280000000000000000e+02,7.940938338843767097e-01,0.000000000000000000e+00
9.290000000000000000e+02,1.022723029605506317e+00,0.000000000000000000e+00
9.300000000000000000e+02,1.222964823809411294e+00,0.000000000000000000e+00
9.310000000000000000e+02,1.277078732483715839e+00,0.000000000000000000e+00
9.320000000000000000e+02,1.069946589719802166e+00,0.000000000000000000e+00
9.330000000000000000e+02,2.127553844337540523e-01,0.000000000000000000e+00
9.340000000000000000e+02,-3.639315735115269956e-01,1.000000000000000000e+00
9.350000000000000000e+02,-1.001459199841225223e+00,0.000000000000000000e+00
9.360000000000000000e+02,-1.188345992143348795e+00,0.000000000000000000e+00
9.370000000000000000e+02,-1.103277770412978365e+00,0.000000000000000000e+00
9.380000000000000000e+02,-1.026862160199270457e+00,0.000000000000000000e+00
9.390000000000000000e+02,-9.623503896739067365e-01,0.000000000000000000e+00
9.400000000000000000e+02,-7.251237887444716979e-01,0.000000000000000000e+00
9.410000000000000000e+02,-8.428272543891001112e-01,0.000000000000000000e+00
9.420000000000000000e+02,-5.503569539353854179e-01,0.000000000000000000e+00
9.430000000000000000e+02,-5.423582840736941302e-01,0.000000000000000000e+00
9.440000000000000000e+02,-3.455567525520585881e-01,0.000000000000000000e+00
9.450000000000000000e+02,-2.994690618264891913e-01,0.000000000000000000e+00
9.460000000000000000e+02,-2.349455665474314559e-01,0.000000000000000000e+00
9.470000000000000000e+02,-2.784714981914007126e-01,0.000000000000000000e+00
9.480000000000000000e+02,-1.588480658469130502e-01,0.000000000000000000e+00
9.490000000000000000e+02,-2.069531319093483590e-01,0.000000000000000000e+00
9.500000000000000000e+02,-7.786563238542226761e-02,0.000000000000000000e+00
9.510000000000000000e+02,4.130543466585446383e-02,0.000000000000000000e+00
9.520000000000000000e+02,1.642407815006682315e-01,0.000000000000000000e+00
9.530000000000000000e+02,5.091620844195929307e-02,0.000000000000000000e+00
9.540000000000000000e+02,6.792744482236987014e-02,0.000000000000000000e+00
9.550000000000000000e+02,3.676387208623566050e-02,0.000000000000000000e+00
9.560000000000000000e+02,1.582762173945023720e-01,0.000000000000000000e+00
9.570000000000000000e+02,1.047261107338269270e-01,0.000000000000000000e+00
9.580000000000000000e+02,1.899617306615654921e-01,0.000000000000000000e+00
9.590000000000000000e+02,3.155655085140249838e-01,0.000000000000000000e+00
9.600000000000000000e+02,3.360609740549485025e-01,0.000000000000000000e+00
9.610000000000000000e+02,5.717299789939960242e-01,0.000000000000000000e+00
9.620000000000000000e+02,8.012473775260692266e-01,0.000000000000000000e+00
9.630000000000000000e+02,1.349370646730566059e-01,0.000000000000000000e+00
9.640000000000000000e+02,8.440213263981184710e-02,0.000000000000000000e+00
9.650000000000000000e+02,1.785583755139516157e-02,0.000000000000000000e+00
9.660000000000000000e+02,1.666235024313407198e-01,0.000000000000000000e+00
9.670000000000000000e+02,3.105763322367001700e-01,0.000000000000000000e+00
9.680000000000000000e+02,7.573971358654985053e-01,0.000000000000000000e+00
9.690000000000000000e+02,1.061178960902925850e+00,0.000000000000000000e+00
9.700000000000000000e+02,5.022583976797777572e-01,1.000000000000000000e+00
9.710000000000000000e+02,1.626829151519053884e-01,0.000000000000000000e+00
9.720000000000000000e+02,1.096234857193678983e-02,0.000000000000000000e+00
9.730000000000000000e+02,-4.448565141366710857e-02,0.000000000000000000e+00
9.740000000000000000e+02,-2.055376822854716908e-03,0.000000000000000000e+00
9.750000000000000000e+02,-3.912822378578599547e-02,0.000000000000000000e+00
9.760000000000000000e+02,1.054534318760342454e-01,0.000000000000000000e+00
9.770000000000000000e+02,1.206281356155256418e-01,0.000000000000000000e+00
9.780000000000000000e+02,1.723327364389686533e-01,0.000000000000000000e+00
9.790000000000000000e+02,3.830618347403854096e-01,0.000000000000000000e+00
9.800000000000000000e+02,4.427043978625150866e-01,0.000000000000000000e+00
9.810000000000000000e+02,6.135402731712801261e-01,0.000000000000000000e+00
9.820000000000000000e+02,8.324041995698868712e-01,0.000000000000000000e+00
9.830000000000000000e+02,9.173791192856219912e-01,0.000000000000000000e+00
9.840000000000000000e+02,9.909491955693982002e-01,0.000000000000000000e+00
9.850000000000000000e+02,8.468098098886879255e-01,0.000000000000000000e+00
9.860000000000000000e+02,2.467935381932743200e-01,0.000000000000000000e+00
9.870000000000000000e+02,-3.543753612058357372e-01,0.000000000000000000e+00
9.880000000000000000e+02,-1.086095244129651860e+00,0.000000000000000000e+00
9.890000000000000000e+02,-1.133980774976595773e+00,0.000000000000000000e+00
9.900000000000000000e+02,-1.293751666545859713e+00,0.000000000000000000e+00
9.910000000000000000e+02,-1.024485282222127980e+00,0.000000000000000000e+00
9.920000000000000000e+02,-1.008606921533374834e+00,0.000000000000000000e+00
9.930000000000000000e+02,-8.172151616330319834e-01,0.000000000000000000e+00
9.940000000000000000e+02,-7.737502537955344151e-01,0.000000000000000000e+00
9.950000000000000000e+02,-6.204543783811270474e-01,0.000000000000000000e+00
9.960000000000000000e+02,-5.535466913758574359e-01,0.000000000000000000e+00
9.970000000000000000e+02,-4.117054902654058157e-01,0.000000000000000000e+00
9.980000000000000000e+02,-2.939226178282412505e-01,0.000000000000000000e+00
9.990000000000000000e+02,-4.238579250265572251e-01,0.000000000000000000e+00
1.000000000000000000e+03,-4.114630562403369107e-01,0.000000000000000000e+00
1.001000000000000000e+03,-3.866042546572515115e-01,0.000000000000000000e+00
1.002000000000000000e+03,-3.388563283509712920e-01,0.000000000000000000e+00
1.003000000000000000e+03,-3.261554709710281497e-01,0.000000000000000000e+00
1.004000000000000000e+03,-2.106123619559323867e-01,0.000000000000000000e+00
1.005000000000000000e+03,-2.394557907067324798e-01,0.000000000000000000e+00
1.006000000000000000e+03,-3.019028710695052520e-01,0.000000000000000000e+00
1.007000000000000000e+03,-4.534186783914399832e-02,0.000000000000000000e+00
1.008000000000000000e+03,-8.377593429430876815e-02,0.000000000000000000e+00
1.009000000000000000e+03,-4.085677504026980975e-03,0.000000000000000000e+00
1.010000000000000000e+03,8.199817858037540541e-02,0.000000000000000000e+00
1.011000000000000000e+03,2.156176230732698706e-01,0.000000000000000000e+00
1.012000000000000000e+03,2.771657959990218023e-01,0.000000000000000000e+00
1.013000000000000000e+03,4.428911125494920942e-01,0.000000000000000000e+00
1.014000000000000000e+03,6.264953341101743289e-01,0.000000000000000000e+00
1.015000000000000000e+03,1.012344315692485092e-01,0.000000000000000000e+00
1.016000000000000000e+03,-1.131471568410997858e-01,0.000000000000000000e+00
1.017000000000000000e+03,-3.790877076639200677e-02,0.000000000000000000e+00
1.018000000000000000e+03,2.559541317217116085e-01,0.000000000000000000e+00
1.019000000000000000e+03,1.392983411054861675e-01,0.000000000000000000e+00
1.020000000000000000e+03,5.937388918080319655e-01,0.000000000000000000e+00
1.021000000000000000e+03,6.390840535207167328e-01,0.000000000000000000e+00
1.022000000000000000e+03,3.193611264356097101e-01,0.000000000000000000e+00
1.023000000000000000e+03,8.257917335396311453e-02,0.000000000000000000e+00
1.024000000000000000e+03,1.846071080815799015e-02,0.000000000000000000e+00
1.025000000000000000e+03,-9.490778554544911788e-03,0.000000000000000000e+00
1.026000000000000000e+03,-2.198435172175777080e-02,0.000000000000000000e+00
1.027000000000000000e+03,1.083094347300513210e-01,0.000000000000000000e+00
1.028000000000000000e+03,1.188718883376549407e-01,0.000000000000000000e+00
1.029000000000000000e+03,1.176447887830088523e-01,0.000000000000000000e+00
1.030000000000000000e+03,3.080340337502826542e-01,0.000000000000000000e+00
1.031000000000000000e+03,3.675811442755776981e-01,0.000000000000000000e+00
1.032000000000000000e+03,4.917193934077042083e-01,0.000000000000000000e+00
1.033000000000000000e+03,8.073961684577765086e-01,0.000000000000000000e+00
1.034000000000000000e+03,9.447335615639017581e-01,0.000000000000000000e+00
1.035000000000000000e+03,1.239471933031498940e+00,0.000000000000000000e+00
1.036000000000000000e+03,1.252156571663144202e+00,0.000000000000000000e+00
1.037000000000000000e+03,1.075749659374048761e+00,0.000000000000000000e+00
1.038000000000000000e+03,4.324159102645066532e-01,0.000000000000000000e+00
1.039000000000000000e+03,-3.266404665505789340e-01,1.000000000000000000e+00
1.040000000000000000e+03,-9.064449391799483946e-01,0.000000000000000000e+00
1.041000000000000000e+03,-1.102647034648745139e+00,0.000000000000000000e+00
1.042000000000000000e+03,-1.095777768436312138e+00,0.000000000000000000e+00
1.043000000000000000e+03,-1.032890154074201705e+00,0.000000000000000000e+00
1.044000000000000000e+03,-1.058691180789324893e+00,0.000000000000000000e+00
1.045000000000000000e+03,-7.574230987336310061e-01,0.000000000000000000e+00
1.046000000000000000e+03,-6.861665027801309158e-01,0.000000000000000000e+00
1.047000000000000000e+03,-5.955361318476238841e-01,0.000000000000000000e+00
1.048000000000000000e+03,-4.432414634962267286e-01,0.000000000000000000e+00
1.049000000000000000e+03,-3.872695216800782214e-01,0.000000000000000000e+00
1.050000000000000000e+03,-3.873719244826882568e-01,0.000000000000000000e+00
1.051000000000000000e+03,-3.621135764598300555e-01,0.000000000000000000e+00
1.052000000000000000e+03,-2.674199201121860714e-01,0.000000000000000000e+00
1.053000000000000000e+03,-3.160159519087814006e-01,0.000000000000000000e+00
1.054000000000000000e+03,-2.876568491171192510e-01,0.000000000000000000e+00
1.055000000000000000e+03,-1.963573078355511370e-01,0.000000000000000000e+00
1.056000000000000000e+03,-2.173898141788091765e-01,0.000000000000000000e+00
1.057000000000000000e+03,7.134254833058807643e-02,0.000000000000000000e+00
1.058000000000000000e+03,9.782282975396604241e-02,0.000000000000000000e+00
1.059000000000000000e+03,2.774142108050891564e-01,0.000000000000000000e+00
1.060000000000000000e+03,5.143440167490013204e-01,0.000000000000000000e+00
1.061000000000000000e+03,2.764715251497992243e-01,0.000000000000000000e+00
1.062000000000000000e+03,-1.291248533608308491e-01,0.000000000000000000e+00
1.063000000000000000e+03,-1.003672520059121186e-02,0.000000000000000000e+00
1.064000000000000000e+03,-7.355525734377138525e-02,0.000000000000000000e+00
1.065000000000000000e+03,3.163719947391581133e-01,0.000000000000000000e+00
1.066000000000000000e+03,5.092948219336113080e-01,0.000000000000000000e+00
1.067000000000000000e+03,6.649275703969880214e-01,0.000000000000000000e+00
1.068000000000000000e+03,2.682520899978229068e-01,0.000000000000000000e+00
1.069000000000000000e+03,1.097886712217467642e-01,0.000000000000000000e+00
1.070000000000000000e+03,2.086196798520495443e-01,0.000000000000000000e+00
1.071000000000000000e+03,9.019739079123960390e-02,0.000000000000000000e+00
1.072000000000000000e+03,1.756151661744256298e-01,0.000000000000000000e+00
1.073000000000000000e+03,1.787150897369349234e-01,0.000000000000000000e+00
1.074000000000000000e+03,1.518363340480063939e-01,0.000000000000000000e+00
1.075000000000000000e+03,1.904855303927343035e-01,0.000000000000000000e+00
1.076000000000000000e+03,3.773412217466364793e-01,0.000000000000000000e+00
1.077000000000000000e+03,4.203190838511179916e-01,0.000000000000000000e+00
1.078000000000000000e+03,5.854480579705551024e-01,0.000000000000000000e+00
1.079000000000000000e+03,7.297527404833877851e-01,0.000000000000000000e+00
1.080000000000000000e+03,8.211148596673556455e-01,0.000000000000000000e+00
1.081000000000000000e+03,1.216976753683288281e+00,0.000000000000000000e+00
1.082000000000000000e+03,1.178606305926430897e+00,0.000000000000000000e+00
1.083000000000000000e+03,1.166241189977464732e+00,0.000000000000000000e+00
1.084000000000000000e+03,9.068987071204342998e-01,0.000000000000000000e+00
1.085000000000000000e+03,1.626428667637970227e-01,0.000000000000000000e+00
1.086000000000000000e+03,-5.926387814932053688e-01,1.000000000000000000e+00
1.087000000000000000e+03,-9.833851443589766150e-01,0.000000000000000000e+00
1.088000000000000000e+03,-1.221313973686462662e+00,0.000000000000000000e+00
1.089000000000000000e+03,-1.032571748057017569e+00,0.000000000000000000e+00
1.090000000000000000e+03,-9.487801789205024816e-01,0.000000000000000000e+00
1.091000000000000000e+03,-9.125747486707183054e-01,0.000000000000000000e+00
1.092000000000000000e+03,-8.052279758846561108e-01,0.000000000000000000e+00
1.093000000000000000e+03,-6.494062477639663822e-01,0.000000000000000000e+00
1.094000000000000000e+03,-4.828759794771057545e-01,0.000000000000000000e+00
1.095000000000000000e+03,-4.041754281160447326e-01,0.000000000000000000e+00
1.096000000000000000e+03,-3.587824038638255941e-01,0.000000000000000000e+00
1.097000000000000000e+03,-2.589541032277330457e-01,0.000000000000000000e+00
1.098000000000000000e+03,-3.726974714413144874e-01,0.000000000000000000e+00
1.099000000000000000e+03,-2.524937558388129499e-01,0.000000000000000000e+00
1.100000000000000000e+03,-2.698559572250570082e-01,0.000000000000000000e+00
1.101000000000000000e+03,-3.238448027619071912e-01,0.000000000000000000e+00
1.102000000000000000e+03,-2.965624063499363028e-01,0.000000000000000000e+00
1.103000000000000000e+03,-1.723210594815813568e-01,0.000000000000000000e+00
1.104000000000000000e+03,-1.748861206898028320e-01,0.000000000000000000e+00
1.105000000000000000e+03,-8.400090600206575053e-02,0.000000000000000000e+00
1.106000000000000000e+03,-4.645849838765923195e-02,0.000000000000000000e+00
1.107000000000000000e+03,8.774774713402395954e-02,0.000000000000000000e+00
1.108000000000000000e+03,-5.475133664777141404e-03,0.000000000000000000e+00
1.109000000000000000e+03,1.894487273275563821e-01,0.000000000000000000e+00
1.110000000000000000e+03,2.271998664846022753e-01,0.000000000000000000e+00
1.111000000000000000e+03,2.416640641912637943e-01,0.000000000000000000e+00
1.112000000000000000e+03,5.356377494723197907e-01,0.000000000000000000e+00
1.113000000000000000e+03,6.645687033810940836e-01,0.000000000000000000e+00
1.114000000000000000e+03,7.924477259105393301e-02,0.000000000000000000e+00
1.115000000000000000e+03,7.746205697379117926e-03,0.000000000000000000e+00
1.116000000000000000e+03,-5.963089825777489333e-02,0.000000000000000000e+00
1.117000000000000000e+03,1.949249418069656514e-01,0.000000000000000000e+00
1.118000000000000000e+03,1.899305741516859880e-01,0.000000000000000000e+00
1.119000000000000000e+03,5.222432958225347033e-01,0.000000000000000000e+00
1.120000000000000000e+03,9.071382649620195471e-01,0.000000000000000000e+00
1.121000000000000000e+03,4.480327611714446379e-01,0.000000000000000000e+00
1.122000000000000000e+03,1.647227222756320053e-01,0.000000000000000000e+00
1.123000000000000000e+03,-8.899634602667436112e-02,0.000000000000000000e+00
1.124000000000000000e+03,1.895498168579977383e-02,0.000000000000000000e+00
1.125000000000000000e+03,2.133842812177076664e-02,0.000000000000000000e+00
1.126000000000000000e+03,-1.792536635642113033e-02,0.000000000000000000e+00
1.127000000000000000e+03,4.815619036358056299e-02,0.000000000000000000e+00
1.128000000000000000e+03,2.656176206469696432e-01,0.000000000000000000e+00
1.129000000000000000e+03,7.976553815947187709e-02,0.000000000000000000e+00
1.130000000000000000e+03,3.377210849893564348e-01,0.000000000000000000e+00
1.131000000000000000e+03,4.388401170672535656e-01,0.000000000000000000e+00
1.132000000000000000e+03,5.135471014219882280e-01,0.000000000000000000e+00
1.133000000000000000e+03,7.598294893161853247e-01,0.000000000000000000e+00
1.134000000000000000e+03,1.068479240254139873e+00,0.000000000000000000e+00
1.135000000000000000e+03,9.914066808183230606e-01,0.000000000000000000e+00
1.136000000000000000e+03,1.075204339357406225e+00,0.000000000000000000e+00
1.137000000000000000e+03,3.652847923501527094e-01,0.000000000000000000e+00
1.138000000000000000e+03,-3.645941758370103702e-01,0.000000000000000000e+00
1.139000000000000000e+03,-8.950516517267941285e-01,1.000000000000000000e+00
1.140000000000000000e+03,-1.200277600692178259e+00,0.000000000000000000e+00
1.141000000000000000e+03,-1.122401584349899117e+00,0.000000000000000000e+00
1.142000000000000000e+03,-1.117649272905844704e+00,0.000000000000000000e+00
1.143000000000000000e+03,-9.155385567247568135e-01,0.000000000000000000e+00
1.144000000000000000e+03,-9.751458762752527321e-01,0.000000000000000000e+00
1.145000000000000000e+03,-7.520712621885423665e-01,0.000000000000000000e+00
1.146000000000000000e+03,-6.209129909565761496e-01,0.000000000000000000e+00
1.147000000000000000e+03,-5.784989724115993104e-01,0.000000000000000000e+00
1.148000000000000000e+03,-4.195116063644557247e-01,0.000000000000000000e+00
1.149000000000000000e+03,-4.045871617759531635e-01,0.000000000000000000e+00
1.150000000000000000e+03,-3.300419617697683550e-01,0.000000000000000000e+00
1.151000000000000000e+03,-4.988734103083325433e-01,0.000000000000000000e+00
1.152000000000000000e+03,-4.351449696522017296e-01,0.000000000000000000e+00
1.153000000000000000e+03,-4.216361198726567561e-01,0.000000000000000000e+00
1.154000000000000000e+03,-2.860170500539380156e-01,0.000000000000000000e+00
1.155000000000000000e+03,-3.483119311213679348e-01,0.000000000000000000e+00
1.156000000000000000e+03,-2.165061553531367478e-01,0.000000000000000000e+00
1.157000000000000000e+03,-1.419239797691811411e-01,0.000000000000000000e+00
1.158000000000000000e+03,-3.847472111442441084e-02,0.000000000000000000e+00
1.159000000000000000e+03,-5.271651516747439398e-02,0.000000000000000000e+00
1.160000000000000000e+03,1.746024832995104470e-01,0.000000000000000000e+00
1.161000000000000000e+03,4.132913121562580838e-01,0.000000000000000000e+00
1.162000000000000000e+03,4.464358420522654969e-01,0.000000000000000000e+00
1.163000000000000000e+03,-1.075103249533163469e-01,0.000000000000000000e+00
1.164000000000000000e+03,-5.173500197002566664e-02,0.000000000000000000e+00
1.165000000000000000e+03,-1.989245238559104456e-01,0.000000000000000000e+00
1.166000000000000000e+03,2.428970337388944578e-01,0.000000000000000000e+00
1.167000000000000000e+03,3.285319396976696948e-01,0.000000000000000000e+00
1.168000000000000000e+03,6.784411037931318278e-01,0.000000000000000000e+00
1.169000000000000000e+03,3.438466079730670422e-01,0.000000000000000000e+00
1.170000000000000000e+03,1.703881342914281560e-01,0.000000000000000000e+00
1.171000000000000000e+03,2.510713070144477976e-01,0.000000000000000000e+00
1.172000000000000000e+03,1.185278038248407662e-01,0.000000000000000000e+00
1.173000000000000000e+03,2.660704621835320305e-01,0.000000000000000000e+00
1.174000000000000000e+03,2.209843056731818911e-01,0.000000000000000000e+00
1.175000000000000000e+03,1.635957896520159049e-01,0.000000000000000000e+00
1.176000000000000000e+03,2.713312179644660205e-01,0.000000000000000000e+00
1.177000000000000000e+03,4.060795215077172005e-01,0.000000000000000000e+00
1.178000000000000000e+03,4.202823617019068037e-01,0.000000000000000000e+00
1.179000000000000000e+03,5.683491765889645553e-01,0.000000000000000000e+00
1.180000000000000000e+03,7.002903127766868518e-01,0.000000000000000000e+00
1.181000000000000000e+03,7.906403613001699027e-01,0.000000000000000000e+00
1.182000000000000000e+03,1.059626063757069581e+00,0.000000000000000000e+00
1.183000000000000000e+03,1.241988516328678793e+00,0.000000000000000000e+00
1.184000000000000000e+03,1.170115606839437383e+00,0.000000000000000000e+00
1.185000000000000000e+03,1.023260165154645573e+00,0.000000000000000000e+00
1.186000000000000000e+03,3.732236022992508895e-01,0.000000000000000000e+00
1.187000000000000000e+03,-3.231880962755515618e-01,1.000000000000000000e+00
1.188000000000000000e+03,-8.691075857154805240e-01,0.000000000000000000e+00
1.189000000000000000e+03,-1.006853962565438687e+00,0.000000000000000000e+00
1.190000000000000000e+03,-9.891544275002488451e-01,0.000000000000000000e+00
1.191000000000000000e+03,-9.777779828754765701e-01,0.000000000000000000e+00
1.192000000000000000e+03,-8.831925203416945980e-01,0.000000000000000000e+00
1.193000000000000000e+03,-7.342267961270809717e-01,0.000000000000000000e+00
1.194000000000000000e+03,-7.037212196787421270e-01,0.000000000000000000e+00
1.195000000000000000e+03,-5.566402021758881657e-01,0.000000000000000000e+00
1.196000000000000000e+03,-4.604359678299708714e-01,0.000000000000000000e+00
1.197000000000000000e+03,-5.386613524363897954e-01,0.000000000000000000e+00
1.198000000000000000e+03,-4.283045730721841138e-01,0.000000000000000000e+00
1.199000000000000000e+03,-4.199902415762514218e-01,0.000000000000000000e+00
1.200000000000000000e+03,-2.782868842014302180e-01,0.000000000000000000e+00
1.201000000000000000e+03,-3.214723207607928512e-01,0.000000000000000000e+00
1.202000000000000000e+03,-2.773591234774910319e-01,0.000000000000000000e+00
1.203000000000000000e+03,-3.105489961144694000e-01,0.000000000000000000e+00
1.204000000000000000e+03,-2.018520196221674778e-01,0.000000000000000000e+00
1.205000000000000000e+03,-5.910720021196622098e-02,0.000000000000000000e+00
1.206000000000000000e+03,1.883567691486315865e-01,0.000000000000000000e+00
1.207000000000000000e+03,1.363029906792321277e-01,0.000000000000000000e+00
1.208000000000000000e+03,3.118622920810344423e-01,0.000000000000000000e+00
1.209000000000000000e+03,4.779727985055424733e-01,0.000000000000000000e+00
1.210000000000000000e+03,3.182928919970871018e-01,0.000000000000000000e+00
1.211000000000000000e+03,-1.264452472126062488e-01,0.000000000000000000e+00
1.212000000000000000e+03,5.953632868440895953e-02,0.000000000000000000e+00
1.213000000000000000e+03,-2.626093567770800830e-01,0.000000000000000000e+00
1.214000000000000000e+03,1.256098799988252801e-01,0.000000000000000000e+00
1.215000000000000000e+03,2.809159276234505787e-01,0.000000000000000000e+00
1.216000000000000000e+03,6.124416862172683551e-01,0.000000000000000000e+00
1.217000000000000000e+03,5.388054872234127046e-01,0.000000000000000000e+00
1.218000000000000000e+03,2.271846220854739085e-01,0.000000000000000000e+00
1.219000000000000000e+03,2.310686651105353928e-01,0.000000000000000000e+00
1.220000000000000000e+03,2.325255820382466851e-03,0.000000000000000000e+00
1.221000000000000000e+03,3.854069181598503840e-02,0.000000000000000000e+00
1.222000000000000000e+03,2.171382053240913657e-01,0.000000000000000000e+00
1.223000000000000000e+03,9.415318668700443927e-02,0.000000000000000000e+00
1.224000000000000000e+03,2.478643564626177576e-01,0.000000000000000000e+00
1.225000000000000000e+03,2.786654505510242630e-01,0.000000000000000000e+00
1.226000000000000000e+03,5.104563506425008335e-01,0.000000000000000000e+00
1.227000000000000000e+03,4.445849048620668098e-01,0.000000000000000000e+00
1.228000000000000000e+03,6.933802436717376727e-01,0.000000000000000000e+00
1.229000000000000000e+03,8.277160910868308630e-01,0.000000000000000000e+00
1.230000000000000000e+03,1.076282251549927294e+00,0.000000000000000000e+00
1.231000000000000000e+03,1.141178892912723342e+00,0.000000000000000000e+00
1.232000000000000000e+03,1.141224309763092748e+00,0.000000000000000000e+00
1.233000000000000000e+03,8.059285245604405068e-01,0.000000000000000000e+00
1.234000000000000000e+03,2.838081793792187613e-01,0.000000000000000000e+00
1.235000000000000000e+03,-4.716543185384403647e-01,1.000000000000000000e+00
1.236000000000000000e+03,-9.463277846972680818e-01,0.000000000000000000e+00
1.237000000000000000e+03,-9.666685711248159674e-01,0.000000000000000000e+00
1.238000000000000000e+03,-1.060563466077225181e+00,0.000000000000000000e+00
1.239000000000000000e+03,-9.323897763154675999e-01,0.000000000000000000e+00
1.240000000000000000e+03,-7.996129657203283614e-01,0.000000000000000000e+00
1.241000000000000000e+03,-7.961185976571718559e-01,0.000000000000000000e+00
1.242000000000000000e+03,-6.622892972289669000e-01,0.000000000000000000e+00
1.243000000000000000e+03,-4.854099681020311863e-01,0.000000000000000000e+00
1.244000000000000000e+03,-5.852249831404032765e-01,0.000000000000000000e+00
1.245000000000000000e+03,-2.920817918522687906e-01,0.000000000000000000e+00
1.246000000000000000e+03,-3.929041588393024642e-01,0.000000000000000000e+00
1.247000000000000000e+03,-4.130301232537175737e-01,0.000000000000000000e+00
1.248000000000000000e+03,-3.195259959513999104e-01,0.000000000000000000e+00
1.249000000000000000e+03,-2.946208532389445467e-01,0.000000000000000000e+00
1.250000000000000000e+03,-4.016506917821807132e-01,0.000000000000000000e+00
1.251000000000000000e+03,-3.258916686286874032e-01,0.000000000000000000e+00
1.252000000000000000e+03,-1.810731648576312247e-01,0.000000000000000000e+00
1.253000000000000000e+03,-2.065475031666646755e-01,0.000000000000000000e+00
1.254000000000000000e+03,-1.826724043798152453e-01,0.000000000000000000e+00
1.255000000000000000e+03,-4.790332700463528770e-02,0.000000000000000000e+00
1.256000000000000000e+03,-1.437145124881952230e-01,0.000000000000000000e+00
1.257000000000000000e+03,4.955655496395790227e-02,0.000000000000000000e+00
1.258000000000000000e+03,1.599088615383869594e-01,0.000000000000000000e+00
1.259000000000000000e+03,2.221495627078255430e-01,0.000000000000000000e+00
1.260000000000000000e+03,2.834026692761403843e-01,0.000000000000000000e+00
1.261000000000000000e+03,6.674014489205137846e-01,0.000000000000000000e+00
1.262000000000000000e+03,3.380035234955591217e-01,0.000000000000000000e+00
1.263000000000000000e+03,-5.355208214993888854e-02,0.000000000000000000e+00
1.264000000000000000e+03,-1.239011175832689104e-01,0.000000000000000000e+00
1.265000000000000000e+03,4.572395888432337352e-02,0.000000000000000000e+00
1.266000000000000000e+03,2.137959850939895323e-01,0.000000000000000000e+00
1.267000000000000000e+03,3.589911941746865010e-01,0.000000000000000000e+00
1.268000000000000000e+03,9.360116983129967982e-01,0.000000000000000000e+00
1.269000000000000000e+03,9.126310453368909892e-01,0.000000000000000000e+00
1.270000000000000000e+03,2.336899434667588649e-01,1.000000000000000000e+00
1.271000000000000000e+03,8.069304527170738373e-02,0.000000000000000000e+00
1.272000000000000000e+03,2.523165921126028707e-02,0.000000000000000000e+00
1.273000000000000000e+03,7.418430641780164592e-02,0.000000000000000000e+00
1.274000000000000000e+03,1.046637495925920036e-01,0.000000000000000000e+00
1.275000000000000000e+03,4.387322575776111261e-02,0.000000000000000000e+00
1.276000000000000000e+03,1.626189685654084172e-01,0.000000000000000000e+00
1.277000000000000000e+03,2.136718378079138225e-01,0.000000000000000000e+00
1.278000000000000000e+03,3.421016885166825450e-01,0.000000000000000000e+00
1.279000000000000000e+03,4.483639362788764404e-01,0.000000000000000000e+00
1.280000000000000000e+03,5.806667607795957808e-01,0.000000000000000000e+00
1.281000000000000000e+03,8.031069931817972352e-01,0.000000000000000000e+00
1.282000000000000000e+03,1.004778859109574984e+00,0.000000000000000000e+00
1.283000000000000000e+03,1.236327615354684051e+00,0.000000000000000000e+00
1.284000000000000000e+03,1.047548496644102878e+00,0.000000000000000000e+00
1.285000000000000000e+03,6.549401968132686491e-01,0.000000000000000000e+00
1.286000000000000000e+03,-3.203380367953058416e-02,0.000000000000000000e+00
1.287000000000000000e+03,-6.608395009558117872e-01,0.000000000000000000e+00
1.288000000000000000e+03,-9.687819188908918244e-01,0.000000000000000000e+00
1.289000000000000000e+03,-1.067754764426201985e+00,0.000000000000000000e+00
1.290000000000000000e+03,-1.054677448187068878e+00,0.000000000000000000e+00
1.291000000000000000e+03,-9.306540187579892542e-01,0.000000000000000000e+00
1.292000000000000000e+03,-8.152587660649767143e-01,0.000000000000000000e+00
1.293000000000000000e+03,-6.845356308494910946e-01,0.000000000000000000e+00
1.294000000000000000e+03,-5.637720668294302628e-01,0.000000000000000000e+00
1.295000000000000000e+03,-4.718752173050449472e-01,0.000000000000000000e+00
1.296000000000000000e+03,-5.091886881154955580e-01,0.000000000000000000e+00
1.297000000000000000e+03,-4.416949697596300739e-01,0.000000000000000000e+00
1.298000000000000000e+03,-4.378113141303406342e-01,0.000000000000000000e+00
1.299000000000000000e+03,-3.008436436054499619e-01,0.000000000000000000e+00
1.300000000000000000e+03,-3.016105139410911740e-01,0.000000000000000000e+00
1.301000000000000000e+03,-3.229197456780730224e-01,0.000000000000000000e+00
1.302000000000000000e+03,-2.365243684941732427e-01,0.000000000000000000e+00
1.303000000000000000e+03,-2.287970983386898305e-01,0.000000000000000000e+00
1.304000000000000000e+03,-1.973230658628853940e-01,0.000000000000000000e+00
1.305000000000000000e+03,-2.721330269677413316e-01,0.000000000000000000e+00
1.306000000000000000e+03,-1.125646679115725191e-01,0.000000000000000000e+00
1.307000000000000000e+03,3.777648888821775065e-03,0.000000000000000000e+00
1.308000000000000000e+03,1.363432885516002724e-01,0.000000000000000000e+00
1.309000000000000000e+03,3.065461539120831191e-01,0.000000000000000000e+00
1.310000000000000000e+03,2.440383447476895118e-01,0.000000000000000000e+00
1.311000000000000000e+03,5.009014868102031892e-01,0.000000000000000000e+00
1.312000000000000000e+03,-1.351709703248515637e-01,0.000000000000000000e+00
1.313000000000000000e+03,-1.506743898470968013e-01,0.000000000000000000e+00
1.314000000000000000e+03,-2.358500072963001515e-01,0.000000000000000000e+00
1.315000000000000000e+03,2.831416571453654590e-03,0.000000000000000000e+00
1.316000000000000000e+03,6.762279626919855124e-02,0.000000000000000000e+00
1.317000000000000000e+03,3.381783031512919369e-01,0.000000000000000000e+00
1.318000000000000000e+03,7.508621312149095228e-01,0.000000000000000000e+00
1.319000000000000000e+03,3.239749554193971370e-01,0.000000000000000000e+00
1.320000000000000000e+03,9.362031452089134009e-02,0.000000000000000000e+00
1.321000000000000000e+03,9.381634998104990825e-03,0.000000000000000000e+00
1.322000000000000000e+03,-2.375862637522339893e-02,0.000000000000000000e+00
1.323000000000000000e+03,-4.914639307087786957e-02,0.000000000000000000e+00
1.324000000000000000e+03,1.227232047828055034e-01,0.000000000000000000e+00
1.325000000000000000e+03,1.252413376834505265e-01,0.000000000000000000e+00
1.326000000000000000e+03,2.018761287957610007e-01,0.000000000000000000e+00
1.327000000000000000e+03,2.926119255675449504e-01,0.000000000000000000e+00
1.328000000000000000e+03,4.415206682478319267e-01,0.000000000000000000e+00
1.329000000000000000e+03,4.825116934480493947e-01,0.000000000000000000e+00
1.330000000000000000e+03,6.487927400680175705e-01,0.000000000000000000e+00
1.331000000000000000e+03,1.030855140880952092e+00,0.000000000000000000e+00
1.332000000000000000e+03,1.221332695611623942e+00,0.000000000000000000e+00
1.333000000000000000e+03,1.156009277571539817e+00,0.000000000000000000e+00
1.334000000000000000e+03,1.124247739646373923e+00,0.000000000000000000e+00
1.335000000000000000e+03,3.961199892773216713e-01,0.000000000000000000e+00
1.336000000000000000e+03,-2.452048428144152914e-01,1.000000000000000000e+00
1.337000000000000000e+03,-8.675058089209602974e-01,0.000000000000000000e+00
1.338000000000000000e+03,-9.761109858237954073e-01,0.000000000000000000e+00
1.339000000000000000e+03,-1.095458297127499092e+00,0.000000000000000000e+00
1.340000000000000000e+03,-1.124211444953247430e+00,0.000000000000000000e+00
1.341000000000000000e+03,-8.657196150330440654e-01,0.000000000000000000e+00
1.342000000000000000e+03,-8.730598377714522407e-01,0.000000000000000000e+00
1.343000000000000000e+03,-6.402384867174792937e-01,0.000000000000000000e+00
1.344000000000000000e+03,-6.054439902736605816e-01,0.000000000000000000e+00
1.345000000000000000e+03,-4.803328530677802854e-01,0.000000000000000000e+00
1.346000000000000000e+03,-3.277194747482613524e-01,0.000000000000000000e+00
1.347000000000000000e+03,-5.431982598523849015e-01,0.000000000000000000e+00
1.348000000000000000e+03,-3.918870699973983629e-01,0.000000000000000000e+00
1.349000000000000000e+03,-3.723604042307315232e-01,0.000000000000000000e+00
1.350000000000000000e+03,-3.874063693830875899e-01,0.000000000000000000e+00
1.351000000000000000e+03,-3.263651214636105191e-01,0.000000000000000000e+00
1.352000000000000000e+03,-2.129230299233790813e-01,0.000000000000000000e+00
1.353000000000000000e+03,-2.757959255545592292e-01,0.000000000000000000e+00
1.354000000000000000e+03,-1.311865924756698554e-01,0.000000000000000000e+00
1.355000000000000000e+03,-9.530202569285183001e-02,0.000000000000000000e+00
1.356000000000000000e+03,1.432629537615187076e-01,0.000000000000000000e+00
1.357000000000000000e+03,1.267193394616794311e-01,0.000000000000000000e+00
1.358000000000000000e+03,3.464770927626955599e-01,0.000000000000000000e+00
1.359000000000000000e+03,5.825313101077163047e-01,0.000000000000000000e+00
1.360000000000000000e+03,-4.838593376595643619e-02,0.000000000000000000e+00
1.361000000000000000e+03,-5.833968939950601174e-02,0.000000000000000000e+00
1.362000000000000000e+03,-3.478298967383882528e-02,0.000000000000000000e+00
1.363000000000000000e+03,1.218796266998056904e-01,0.000000000000000000e+00
1.364000000000000000e+03,3.285924787883315323e-01,0.000000000000000000e+00
1.365000000000000000e+03,5.652349858105992775e-01,0.000000000000000000e+00
1.366000000000000000e+03,4.374394241987466514e-01,0.000000000000000000e+00
1.367000000000000000e+03,-9.803093753112931963e-03,0.000000000000000000e+00
1.368000000000000000e+03,2.332415106486003531e-01,0.000000000000000000e+00
1.369000000000000000e+03,2.441142859772992557e-01,0.000000000000000000e+00
1.370000000000000000e+03,1.723124184196490327e-01,0.000000000000000000e+00
1.371000000000000000e+03,2.793545917647364818e-01,0.000000000000000000e+00
1.372000000000000000e+03,2.925540955749801331e-01,0.000000000000000000e+00
1.373000000000000000e+03,3.324059414997780904e-01,0.000000000000000000e+00
1.374000000000000000e+03,4.214644328064266476e-01,0.000000000000000000e+00
1.375000000000000000e+03,4.032222433694596653e-01,0.000000000000000000e+00
1.376000000000000000e+03,5.372873168886063144e-01,0.000000000000000000e+00
1.377000000000000000e+03,7.447111414145548558e-01,0.000000000000000000e+00
1.378000000000000000e+03,8.987454817742402957e-01,0.000000000000000000e+00
1.379000000000000000e+03,9.555197189638942046e-01,0.000000000000000000e+00
1.380000000000000000e+03,1.288206944457827685e+00,0.000000000000000000e+00
1.381000000000000000e+03,1.230312010301567893e+00,0.000000000000000000e+00
1.382000000000000000e+03,1.137376654345416460e+00,0.000000000000000000e+00
1.383000000000000000e+03,7.041869337127839579e-01,0.000000000000000000e+00
1.384000000000000000e+03,-1.972490422807517962e-01,0.000000000000000000e+00
1.385000000000000000e+03,-9.116456797503229570e-01,1.000000000000000000e+00
1.386000000000000000e+03,-9.704041591271197476e-01,0.000000000000000000e+00
1.387000000000000000e+03,-1.100945157119147977e+00,0.000000000000000000e+00
1.388000000000000000e+03,-1.029134987486137076e+00,0.000000000000000000e+00
1.389000000000000000e+03,-9.076577970151278318e-01,0.000000000000000000e+00
1.390000000000000000e+03,-7.901188375652339335e-01,0.000000000000000000e+00
1.391000000000000000e+03,-6.519757888032404747e-01,0.000000000000000000e+00
1.392000000000000000e+03,-5.003890465388017850e-01,0.000000000000000000e+00
1.393000000000000000e+03,-5.874449865209618871e-01,0.000000000000000000e+00
1.394000000000000000e+03,-3.256847500279410057e-01,0.000000000000000000e+00
1.395000000000000000e+03,-4.210405146147411792e-01,0.000000000000000000e+00
1.396000000000000000e+03,-3.839714677510408514e-01,0.000000000000000000e+00
1.397000000000000000e+03,-3.237828524063823821e-01,0.000000000000000000e+00
1.398000000000000000e+03,-3.404958600795146562e-01,0.000000000000000000e+00
1.399000000000000000e+03,-2.587881901351250513e-01,0.000000000000000000e+00
1.400000000000000000e+03,-2.080942875617074195e-01,0.000000000000000000e+00
1.401000000000000000e+03,-2.530332432164689171e-01,0.000000000000000000e+00
1.402000000000000000e+03,-4.477393010440477994e-02,0.000000000000000000e+00
1.403000000000000000e+03,-2.077206308979517579e-01,0.000000000000000000e+00
1.404000000000000000e+03,-1.937009441335267243e-02,0.000000000000000000e+00
1.405000000000000000e+03,-3.312070784833513748e-02,0.000000000000000000e+00
1.406000000000000000e+03,1.548999114034818048e-01,0.000000000000000000e+00
1.407000000000000000e+03,3.285109515654929119e-02,0.000000000000000000e+00
1.408000000000000000e+03,3.414167726011655413e-01,0.000000000000000000e+00
1.409000000000000000e+03,4.663820505463650568e-01,0.000000000000000000e+00
1.410000000000000000e+03,5.157889619190985098e-01,0.000000000000000000e+00
1.411000000000000000e+03,3.033964802604666861e-02,0.000000000000000000e+00
1.412000000000000000e+03,-1.036773261512180383e-01,0.000000000000000000e+00
1.413000000000000000e+03,-2.018711915599905038e-01,0.000000000000000000e+00
1.414000000000000000e+03,6.619812072070924147e-02,0.000000000000000000e+00
1.415000000000000000e+03,2.232449632710562515e-01,0.000000000000000000e+00
1.416000000000000000e+03,4.511833653611634354e-01,0.000000000000000000e+00
1.417000000000000000e+03,8.877174804598316760e-01,0.000000000000000000e+00
1.418000000000000000e+03,4.772207072490436963e-01,0.000000000000000000e+00
1.419000000000000000e+03,4.079597595433335361e-02,0.000000000000000000e+00
1.420000000000000000e+03,-6.347046742554211807e-02,0.000000000000000000e+00
1.421000000000000000e+03,2.537275268164933262e-02,0.000000000000000000e+00
1.422000000000000000e+03,-1.036548137776080736e-01,0.000000000000000000e+00
1.423000000000000000e+03,3.501808468823851273e-02,0.000000000000000000e+00
1.424000000000000000e+03,6.278176369780436028e-02,0.000000000000000000e+00
1.425000000000000000e+03,2.068588710766421090e-01,0.000000000000000000e+00
1.426000000000000000e+03,1.954364417386214026e-01,0.000000000000000000e+00
1.427000000000000000e+03,4.933957874135880828e-01,0.000000000000000000e+00
1.428000000000000000e+03,4.207190895690202659e-01,0.000000000000000000e+00
1.429000000000000000e+03,6.338576454560412854e-01,0.000000000000000000e+00
1.430000000000000000e+03,9.443504093826313728e-01,0.000000000000000000e+00
1.431000000000000000e+03,1.004438779340636856e+00,0.000000000000000000e+00
1.432000000000000000e+03,1.225083786951515430e+00,0.000000000000000000e+00
1.433000000000000000e+03,9.914955104606392178e-01,0.000000000000000000e+00
1.434000000000000000e+03,4.317544988065442069e-01,0.000000000000000000e+00
1.435000000000000000e+03,-3.391305721228975445e-01,1.000000000000000000e+00
1.436000000000000000e+03,-9.182320145701031722e-01,0.000000000000000000e+00
1.437000000000000000e+03,-1.098290699934429515e+00,0.000000000000000000e+00
1.438000000000000000e+03,-1.146476416355098005e+00,0.000000000000000000e+00
1.439000000000000000e+03,-1.152214266103848139e+00,0.000000000000000000e+00
1.440000000000000000e+03,-1.096916936536388221e+00,0.000000000000000000e+00
1.441000000000000000e+03,-7.958022618996587472e-01,0.000000000000000000e+00
1.442000000000000000e+03,-8.719706912902646101e-01,0.000000000000000000e+00
1.443000000000000000e+03,-5.694861920330216432e-01,0.000000000000000000e+00
1.444000000000000000e+03,-6.301087316460188825e-01,0.000000000000000000e+00
1.445000000000000000e+03,-5.172326873270960412e-01,0.000000000000000000e+00
1.446000000000000000e+03,-4.520257383732932954e-01,0.000000000000000000e+00
1.447000000000000000e+03,-4.468301263115547206e-01,0.000000000000000000e+00
1.448000000000000000e+03,-4.103710896081310122e-01,0.000000000000000000e+00
1.449000000000000000e+03,-4.407242115523524184e-01,0.000000000000000000e+00
1.450000000000000000e+03,-3.922911474048690894e-01,0.000000000000000000e+00
1.451000000000000000e+03,-3.542570693246341329e-01,0.000000000000000000e+00
1.452000000000000000e+03,-2.019470091897123398e-01,0.000000000000000000e+00
1.453000000000000000e+03,-2.773976763363909526e-01,0.000000000000000000e+00
1.454000000000000000e+03,-1.997590042408189243e-02,0.000000000000000000e+00
1.455000000000000000e+03,-5.022651860190555789e-02,0.000000000000000000e+00
1.456000000000000000e+03,-8.128955626044336025e-02,0.000000000000000000e+00
1.457000000000000000e+03,1.651461640018162258e-01,0.000000000000000000e+00
1.458000000000000000e+03,2.135757077200374776e-01,0.000000000000000000e+00
1.459000000000000000e+03,3.244800236906237867e-01,0.000000000000000000e+00
1.460000000000000000e+03,5.025247240144565808e-01,0.000000000000000000e+00
1.461000000000000000e+03,6.932172279661041880e-01,0.000000000000000000e+00
1.462000000000000000e+03,1.508885379461915865e-01,0.000000000000000000e+00
1.463000000000000000e+03,6.379872407229855713e-02,0.000000000000000000e+00
1.464000000000000000e+03,9.602426480843853293e-03,0.000000000000000000e+00
1.465000000000000000e+03,8.322237608074860293e-02,0.000000000000000000e+00
1.466000000000000000e+03,3.866275306086492947e-01,0.000000000000000000e+00
1.467000000000000000e+03,4.360074379429214608e-01,0.000000000000000000e+00
1.468000000000000000e+03,1.312766715645154569e+00,0.000000000000000000e+00
1.469000000000000000e+03,7.192352338579841575e-01,1.000000000000000000e+00
1.470000000000000000e+03,3.235682403914032501e-01,0.000000000000000000e+00
1.471000000000000000e+03,-5.439719340699177702e-02,0.000000000000000000e+00
1.472000000000000000e+03,1.324196925938332658e-01,0.000000000000000000e+00
1.473000000000000000e+03,1.029960667813370340e-01,0.000000000000000000e+00
1.474000000000000000e+03,1.040619804177874974e-01,0.000000000000000000e+00
1.475000000000000000e+03,1.706724838087026186e-01,0.000000000000000000e+00
1.476000000000000000e+03,1.460174413592736364e-01,0.000000000000000000e+00
1.477000000000000000e+03,3.286016623281022841e-01,0.000000000000000000e+00
1.478000000000000000e+03,4.113787891263997465e-01,0.000000000000000000e+00
1.479000000000000000e+03,4.011264048866122200e-01,0.000000000000000000e+00
1.480000000000000000e+03,7.145255446727156734e-01,0.000000000000000000e+00
1.481000000000000000e+03,9.107471319091127171e-01,0.000000000000000000e+00
1.482000000000000000e+03,1.082426810351265312e+00,0.000000000000000000e+00
1.483000000000000000e+03,1.136070936702239020e+00,0.000000000000000000e+00
1.484000000000000000e+03,1.058177227235590490e+00,0.000000000000000000e+00
1.485000000000000000e+03,5.469157252243397327e-01,0.000000000000000000e+00
1.486000000000000000e+03,-3.219895094398820823e-01,0.000000000000000000e+00
1.487000000000000000e+03,-9.253124367271441386e-01,0.000000000000000000e+00
1.488000000000000000e+03,-1.167638270321968541e+00,0.000000000000000000e+00
1.489000000000000000e+03,-1.277418974896224357e+00,0.000000000000000000e+00
1.490000000000000000e+03,-1.071892480982417961e+00,0.000000000000000000e+00
1.491000000000000000e+03,-1.020105037383332691e+00,0.000000000000000000e+00
1.492000000000000000e+03,-9.305016717024670037e-01,0.000000000000000000e+00
1.493000000000000000e+03,-7.601815764998195446e-01,0.000000000000000000e+00
1.494000000000000000e+03,-6.270866438217265193e-01,0.000000000000000000e+00
1.495000000000000000e+03,-6.631393410585254555e-01,0.000000000000000000e+00
1.496000000000000000e+03,-5.113744463721628941e-01,0.000000000000000000e+00
1.497000000000000000e+03,-4.263094198963691683e-01,0.000000000000000000e+00
1.498000000000000000e+03,-5.060401850341893493e-01,0.000000000000000000e+00
1.499000000000000000e+03,-3.585102131341053044e-01,0.000000000000000000e+00
1.500000000000000000e+03,-3.035199229583415148e-01,0.000000000000000000e+00
1.501000000000000000e+03,-4.011223128934315874e-01,0.000000000000000000e+00
1.502000000000000000e+03,-1.989443240427951898e-01,0.000000000000000000e+00
1.503000000000000000e+03,-2.728232828453455161e-01,0.000000000000000000e+00
1.504000000000000000e+03,-1.868593082174568598e-01,0.000000000000000000e+00
1.505000000000000000e+03,4.812764667900856080e-02,0.000000000000000000e+00
1.506000000000000000e+03,8.427337723325731278e-02,0.000000000000000000e+00
1.507000000000000000e+03,1.857288571737689409e-01,0.000000000000000000e+00
1.508000000000000000e+03,6.280447824924833000e-01,0.000000000000000000e+00
1.509000000000000000e+03,1.554970977127897724e-01,0.000000000000000000e+00
1.510000000000000000e+03,-4.123079230970812248e-02,0.000000000000000000e+00
1.511000000000000000e+03,-8.712300062129088585e-02,0.000000000000000000e+00
1.512000000000000000e+03,-4.659299947131043118e-02,0.000000000000000000e+00
1.513000000000000000e+03,2.272467731112077505e-01,0.000000000000000000e+00
1.514000000000000000e+03,4.525111545019299131e-01,0.000000000000000000e+00
1.515000000000000000e+03,6.457434932781985770e-01,0.000000000000000000e+00
1.516000000000000000e+03,1.856304736740816974e-01,0.000000000000000000e+00
1.517000000000000000e+03,2.847283727969341371e-01,0.000000000000000000e+00
1.518000000000000000e+03,1.225288939936075988e-01,0.000000000000000000e+00
1.519000000000000000e+03,1.667735232660272904e-01,0.000000000000000000e+00
1.520000000000000000e+03,1.966414480028842449e-01,0.000000000000000000e+00
1.521000000000000000e+03,1.718406364155270205e-01,0.000000000000000000e+00
1.522000000000000000e+03,3.953166848048062509e-01,0.000000000000000000e+00
1.523000000000000000e+03,1.990316773062608957e-01,0.000000000000000000e+00
1.524000000000000000e+03,3.707557584783575666e-01,0.000000000000000000e+00
1.525000000000000000e+03,4.041826375336838861e-01,0.000000000000000000e+00
1.526000000000000000e+03,5.026711956623787225e-01,0.000000000000000000e+00
1.527000000000000000e+03,8.239919532290251869e-01,0.000000000000000000e+00
1.528000000000000000e+03,8.854245998033298815e-01,0.000000000000000000e+00
1.529000000000000000e+03,1.272755312733815813e+00,0.000000000000000000e+00
1.530000000000000000e+03,1.207138856484655909e+00,0.000000000000000000e+00
1.531000000000000000e+03,1.166628330799074575e+00,0.000000000000000000e+00
1.532000000000000000e+03,6.272480442414812840e-01,0.000000000000000000e+00
1.533000000000000000e+03,-1.124673330682509909e-01,0.000000000000000000e+00
1.534000000000000000e+03,-7.072691962497198448e-01,1.000000000000000000e+00
1.535000000000000000e+03,-1.071716955128877657e+00,0.000000000000000000e+00
1.536000000000000000e+03,-1.119375385547960011e+00,0.000000000000000000e+00
1.537000000000000000e+03,-1.008180901740387325e+00,0.000000000000000000e+00
1.538000000000000000e+03,-1.086590799011234898e+00,0.000000000000000000e+00
1.539000000000000000e+03,-1.002329106910956558e+00,0.000000000000000000e+00
1.540000000000000000e+03,-8.361066858109481581e-01,0.000000000000000000e+00
1.541000000000000000e+03,-5.140093763222443046e-01,0.000000000000000000e+00
1.542000000000000000e+03,-5.112457504522394114e-01,0.000000000000000000e+00
1.543000000000000000e+03,-3.606110330618306770e-01,0.000000000000000000e+00
1.544000000000000000e+03,-4.278257659535903423e-01,0.000000000000000000e+00
1.545000000000000000e+03,-4.138085149853156230e-01,0.000000000000000000e+00
1.546000000000000000e+03,-3.365673936178166792e-01,0.000000000000000000e+00
1.547000000000000000e+03,-3.488763902854671306e-01,0.000000000000000000e+00
1.548000000000000000e+03,-2.683366673386797796e-01,0.000000000000000000e+00
1.549000000000000000e+03,-3.422361886606602455e-01,0.000000000000000000e+00
1.550000000000000000e+03,-2.192079133153372605e-01,0.000000000000000000e+00
1.551000000000000000e+03,-1.328813843361091318e-01,0.000000000000000000e+00
1.552000000000000000e+03,-2.213140583213016321e-01,0.000000000000000000e+00
1.553000000000000000e+03,-3.080586969504882019e-02,0.000000000000000000e+00
1.554000000000000000e+03,-2.455547241259866450e-03,0.000000000000000000e+00
1.555000000000000000e+03,1.604371311283767920e-01,0.000000000000000000e+00
1.556000000000000000e+03,3.340715108262553024e-01,0.000000000000000000e+00
1.557000000000000000e+03,4.594144474824686797e-01,0.000000000000000000e+00
1.558000000000000000e+03,2.412475466395357093e-01,0.000000000000000000e+00
1.559000000000000000e+03,-1.456601254024855185e-01,0.000000000000000000e+00
1.560000000000000000e+03,-9.248803461761903599e-02,0.000000000000000000e+00
1.561000000000000000e+03,5.989769275164751050e-02,0.000000000000000000e+00
1.562000000000000000e+03,3.329371409448201313e-01,0.000000000000000000e+00
1.563000000000000000e+03,4.847934332387990319e-01,0.000000000000000000e+00
1.564000000000000000e+03,9.205899926718522641e-01,0.000000000000000000e+00
1.565000000000000000e+03,4.291021216670730110e-01,0.000000000000000000e+00
1.566000000000000000e+03,2.110340002800940584e-01,0.000000000000000000e+00
1.567000000000000000e+03,1.037328107691810608e-01,0.000000000000000000e+00
1.568000000000000000e+03,1.058043212052948295e-01,0.000000000000000000e+00
1.569000000000000000e+03,5.883060603527173055e-02,0.000000000000000000e+00
1.570000000000000000e+03,6.967781042114411238e-02,0.000000000000000000e+00
1.571000000000000000e+03,2.669117040735757840e-01,0.000000000000000000e+00
1.572000000000000000e+03,2.183461106398017215e-01,0.000000000000000000e+00
1.573000000000000000e+03,3.364830393709760115e-01,0.000000000000000000e+00
1.574000000000000000e+03,4.171590987069802581e-01,0.000000000000000000e+00
1.575000000000000000e+03,5.433088492164523942e-01,0.000000000000000000e+00
1.576000000000000000e+03,6.682884792869001611e-01,0.000000000000000000e+00
1.577000000000000000e+03,9.218417329108598013e-01,0.000000000000000000e+00
1.578000000000000000e+03,1.036894397726500605e+00,0.000000000000000000e+00
1.579000000000000000e+03,1.297023524000809225e+00,0.000000000000000000e+00
1.580000000000000000e+03,1.100518045915047427e+00,0.000000000000000000e+00
1.581000000000000000e+03,5.387548928268176551e-01,0.000000000000000000e+00
1.582000000000000000e+03,-1.409321575908879798e-01,0.000000000000000000e+00
1.583000000000000000e+03,-6.664515275175740827e-01,1.000000000000000000e+00
1.584000000000000000e+03,-9.671143397701404965e-01,0.000000000000000000e+00
1.585000000000000000e+03,-1.005563812439001170e+00,0.000000000000000000e+00
1.586000000000000000e+03,-9.960079493674371953e-01,0.000000000000000000e+00
1.587000000000000000e+03,-9.156211152523359154e-01,0.000000000000000000e+00
1.588000000000000000e+03,-7.271119298828022659e-01,0.000000000000000000e+00
