timestamp,ecg_measurement,qrs_detected
0.000000000000000000e+00,1.147501251442333003e-01,0.000000000000000000e+00
1.000000000000000000e+00,2.486553179466539087e-01,0.000000000000000000e+00
2.000000000000000000e+00,6.434539339624092413e-01,0.000000000000000000e+00
3.000000000000000000e+00,4.114284465580104189e-01,0.000000000000000000e+00
4.000000000000000000e+00,-8.985528191146080479e-02,0.000000000000000000e+00
5.000000000000000000e+00,-4.981768867782940258e-02,0.000000000000000000e+00
6.000000000000000000e+00,-1.267819466170337084e-01,0.000000000000000000e+00
7.000000000000000000e+00,1.880649531234648564e-01,0.000000000000000000e+00
8.000000000000000000e+00,3.685619264164416431e-01,0.000000000000000000e+00
9.000000000000000000e+00,1.230157550376113740e+00,0.000000000000000000e+00
1.000000000000000000e+01,1.107153294232994023e+00,0.000000000000000000e+00
1.100000000000000000e+01,2.325591304096002176e-01,1.000000000000000000e+00
1.200000000000000000e+01,-3.858088694692047432e-02,0.000000000000000000e+00
1.300000000000000000e+01,-1.683637351314485053e-01,0.000000000000000000e+00
1.400000000000000000e+01,-2.023758162937760452e-01,0.000000000000000000e+00
1.500000000000000000e+01,-1.288694373797479586e-01,0.000000000000000000e+00
1.600000000000000000e+01,-8.017637981649254619e-02,0.000000000000000000e+00
1.700000000000000000e+01,1.663413184501350353e-02,0.000000000000000000e+00
1.800000000000000000e+01,1.957017506462758738e-01,0.000000000000000000e+00
1.900000000000000000e+01,2.175898833578530922e-01,0.000000000000000000e+00
2.000000000000000000e+01,2.094545059528762909e-01,0.000000000000000000e+00
2.100000000000000000e+01,3.737719107561983667e-01,0.000000000000000000e+00
2.200000000000000000e+01,5.975401265840777354e-01,0.000000000000000000e+00
2.300000000000000000e+01,8.981512003084103357e-01,0.000000000000000000e+00
2.400000000000000000e+01,1.171716342226148067e+00,0.000000000000000000e+00
2.500000000000000000e+01,1.002294556559970351e+00,0.000000000000000000e+00
2.600000000000000000e+01,8.147279272639432746e-01,0.000000000000000000e+00
2.700000000000000000e+01,1.807242801169968438e-01,0.000000000000000000e+00
2.800000000000000000e+01,-4.756268408407960946e-01,0.000000000000000000e+00
2.900000000000000000e+01,-8.514547375452465872e-01,0.000000000000000000e+00
3.000000000000000000e+01,-1.048293995285752622e+00,0.000000000000000000e+00
3.100000000000000000e+01,-1.059251714366568065e+00,0.000000000000000000e+00
3.200000000000000000e+01,-1.060492352691080997e+00,0.000000000000000000e+00
3.300000000000000000e+01,-9.301185714534989657e-01,0.000000000000000000e+00
3.400000000000000000e+01,-7.665284241244297858e-01,0.000000000000000000e+00
3.500000000000000000e+01,-5.767638658539130381e-01,0.000000000000000000e+00
3.600000000000000000e+01,-5.233130021569393220e-01,0.000000000000000000e+00
3.700000000000000000e+01,-4.510074763838459733e-01,0.000000000000000000e+00
3.800000000000000000e+01,-3.905466367360545532e-01,0.000000000000000000e+00
3.900000000000000000e+01,-3.410176462847199219e-01,0.000000000000000000e+00
4.000000000000000000e+01,-3.178128177483298122e-01,0.000000000000000000e+00
4.100000000000000000e+01,-2.532936581599026793e-01,0.000000000000000000e+00
4.200000000000000000e+01,-2.631709665829776168e-01,0.000000000000000000e+00
4.300000000000000000e+01,-2.962993019190150457e-01,0.000000000000000000e+00
4.400000000000000000e+01,-1.860333988814098227e-01,0.000000000000000000e+00
4.500000000000000000e+01,-2.050480444055165219e-01,0.000000000000000000e+00
4.600000000000000000e+01,-1.102762835943805059e-01,0.000000000000000000e+00
4.700000000000000000e+01,-1.081923522644859803e-01,0.000000000000000000e+00
4.800000000000000000e+01,-1.286478778185137783e-01,0.000000000000000000e+00
4.900000000000000000e+01,2.200542282308470821e-02,0.000000000000000000e+00
5.000000000000000000e+01,5.197537996684022110e-02,0.000000000000000000e+00
5.100000000000000000e+01,-3.071155519987884414e-02,0.000000000000000000e+00
5.200000000000000000e+01,1.238142704409943284e-01,0.000000000000000000e+00
5.300000000000000000e+01,2.934301701005324614e-01,0.000000000000000000e+00
5.400000000000000000e+01,3.032572215663396631e-01,0.000000000000000000e+00
5.500000000000000000e+01,4.958139869178495029e-01,0.000000000000000000e+00
5.600000000000000000e+01,8.659898014741683747e-01,0.000000000000000000e+00
5.700000000000000000e+01,4.026946324606259786e-01,0.000000000000000000e+00
5.800000000000000000e+01,8.716230528284968360e-02,0.000000000000000000e+00
5.900000000000000000e+01,9.789302093232232424e-03,0.000000000000000000e+00
6.000000000000000000e+01,4.645987097764994050e-02,0.000000000000000000e+00
6.100000000000000000e+01,3.564318276331610580e-01,0.000000000000000000e+00
6.200000000000000000e+01,3.781899524372270283e-01,0.000000000000000000e+00
6.300000000000000000e+01,1.622478317084270483e+00,0.000000000000000000e+00
6.400000000000000000e+01,1.210091471561963949e+00,0.000000000000000000e+00
6.500000000000000000e+01,4.139131696477190703e-01,1.000000000000000000e+00
6.600000000000000000e+01,-2.778650435937280450e-01,0.000000000000000000e+00
6.700000000000000000e+01,-9.328242828578706125e-02,0.000000000000000000e+00
6.800000000000000000e+01,-1.518890016581324887e-01,0.000000000000000000e+00
6.900000000000000000e+01,-3.106599205325974791e-02,0.000000000000000000e+00
7.000000000000000000e+01,-2.174135948053859332e-02,0.000000000000000000e+00
7.100000000000000000e+01,1.510723001380557540e-01,0.000000000000000000e+00
7.200000000000000000e+01,-6.622062285544730309e-02,0.000000000000000000e+00
7.300000000000000000e+01,2.039748450550900594e-01,0.000000000000000000e+00
7.400000000000000000e+01,5.092444184726288015e-01,0.000000000000000000e+00
7.500000000000000000e+01,4.194035095611923780e-01,0.000000000000000000e+00
7.600000000000000000e+01,8.305585391164400644e-01,0.000000000000000000e+00
7.700000000000000000e+01,9.599380724131250098e-01,0.000000000000000000e+00
7.800000000000000000e+01,1.017733225966588551e+00,0.000000000000000000e+00
7.900000000000000000e+01,1.123018817945734993e+00,0.000000000000000000e+00
8.000000000000000000e+01,7.918598802432790240e-01,0.000000000000000000e+00
8.100000000000000000e+01,1.257671669706934003e-01,0.000000000000000000e+00
8.200000000000000000e+01,-7.194227965106031464e-01,0.000000000000000000e+00
8.300000000000000000e+01,-1.166568741033552570e+00,0.000000000000000000e+00
8.400000000000000000e+01,-1.244913935609103461e+00,0.000000000000000000e+00
8.500000000000000000e+01,-1.225310287908843110e+00,0.000000000000000000e+00
8.600000000000000000e+01,-1.253570652359615956e+00,0.000000000000000000e+00
8.700000000000000000e+01,-1.077932446802703392e+00,0.000000000000000000e+00
8.800000000000000000e+01,-7.579180094854012228e-01,0.000000000000000000e+00
8.900000000000000000e+01,-7.481065332304793758e-01,0.000000000000000000e+00
9.000000000000000000e+01,-7.282974888875294317e-01,0.000000000000000000e+00
9.100000000000000000e+01,-6.534237047944408960e-01,0.000000000000000000e+00
9.200000000000000000e+01,-3.617274602959055230e-01,0.000000000000000000e+00
9.300000000000000000e+01,-5.040388068765702112e-01,0.000000000000000000e+00
9.400000000000000000e+01,-4.065070604992971348e-01,0.000000000000000000e+00
9.500000000000000000e+01,-4.761925599679492915e-01,0.000000000000000000e+00
9.600000000000000000e+01,-4.557053185374311810e-01,0.000000000000000000e+00
9.700000000000000000e+01,-3.190445327069771353e-01,0.000000000000000000e+00
9.800000000000000000e+01,-2.912065890641889476e-01,0.000000000000000000e+00
9.900000000000000000e+01,-2.956728511793870195e-01,0.000000000000000000e+00
1.000000000000000000e+02,-3.916581282499952410e-01,0.000000000000000000e+00
1.010000000000000000e+02,-1.797825691703799356e-01,0.000000000000000000e+00
1.020000000000000000e+02,4.215366840990535796e-02,0.000000000000000000e+00
1.030000000000000000e+02,4.738138526375813842e-02,0.000000000000000000e+00
1.040000000000000000e+02,2.538495668350624901e-01,0.000000000000000000e+00
1.050000000000000000e+02,3.911218033050046783e-01,0.000000000000000000e+00
1.060000000000000000e+02,5.642418007671402558e-01,0.000000000000000000e+00
1.070000000000000000e+02,1.187932466062160963e-02,0.000000000000000000e+00
1.080000000000000000e+02,-8.624137901038725351e-02,0.000000000000000000e+00
1.090000000000000000e+02,-1.737966352757265298e-01,0.000000000000000000e+00
1.100000000000000000e+02,1.495296595188795319e-01,0.000000000000000000e+00
1.110000000000000000e+02,4.784928603213413068e-01,0.000000000000000000e+00
1.120000000000000000e+02,7.888262787489300765e-01,0.000000000000000000e+00
1.130000000000000000e+02,9.722558102003318048e-01,0.000000000000000000e+00
1.140000000000000000e+02,3.154633708836488970e-01,0.000000000000000000e+00
1.150000000000000000e+02,3.270396252250336588e-01,0.000000000000000000e+00
1.160000000000000000e+02,9.377664232717679293e-02,0.000000000000000000e+00
1.170000000000000000e+02,2.991735509141187910e-01,0.000000000000000000e+00
1.180000000000000000e+02,1.018015064156035654e-01,0.000000000000000000e+00
1.190000000000000000e+02,2.042943355489664214e-01,0.000000000000000000e+00
1.200000000000000000e+02,2.674116978795256783e-01,0.000000000000000000e+00
1.210000000000000000e+02,4.361058721931440063e-01,0.000000000000000000e+00
1.220000000000000000e+02,3.794741979753462058e-01,0.000000000000000000e+00
1.230000000000000000e+02,6.303096605446830702e-01,0.000000000000000000e+00
1.240000000000000000e+02,6.648837618519024550e-01,0.000000000000000000e+00
1.250000000000000000e+02,8.153124475650558312e-01,0.000000000000000000e+00
1.260000000000000000e+02,1.027399439652344704e+00,0.000000000000000000e+00
1.270000000000000000e+02,1.289125495158841561e+00,0.000000000000000000e+00
1.280000000000000000e+02,1.292219680907818136e+00,0.000000000000000000e+00
1.290000000000000000e+02,1.347600615865847562e+00,0.000000000000000000e+00
1.300000000000000000e+02,8.159023566962266827e-01,0.000000000000000000e+00
1.310000000000000000e+02,3.191470225089189372e-02,0.000000000000000000e+00
1.320000000000000000e+02,-7.967204075968383759e-01,1.000000000000000000e+00
1.330000000000000000e+02,-1.030066532908731292e+00,0.000000000000000000e+00
1.340000000000000000e+02,-1.227874820630573183e+00,0.000000000000000000e+00
1.350000000000000000e+02,-1.061060127087053884e+00,0.000000000000000000e+00
1.360000000000000000e+02,-9.873176078705777625e-01,0.000000000000000000e+00
1.370000000000000000e+02,-8.243037284710562629e-01,0.000000000000000000e+00
1.380000000000000000e+02,-6.574707628456691877e-01,0.000000000000000000e+00
1.390000000000000000e+02,-5.520004179932305188e-01,0.000000000000000000e+00
1.400000000000000000e+02,-4.319604354838879612e-01,0.000000000000000000e+00
1.410000000000000000e+02,-4.489837712389678215e-01,0.000000000000000000e+00
1.420000000000000000e+02,-4.139381909096276346e-01,0.000000000000000000e+00
1.430000000000000000e+02,-3.872452267354845046e-01,0.000000000000000000e+00
1.440000000000000000e+02,-3.995702055925666185e-01,0.000000000000000000e+00
1.450000000000000000e+02,-1.373147390535475743e-01,0.000000000000000000e+00
1.460000000000000000e+02,-3.991674859495805139e-01,0.000000000000000000e+00
1.470000000000000000e+02,-2.233532657610246552e-01,0.000000000000000000e+00
1.480000000000000000e+02,-2.228692795974098473e-01,0.000000000000000000e+00
1.490000000000000000e+02,-2.190359160034909547e-01,0.000000000000000000e+00
1.500000000000000000e+02,-2.362475193134133122e-01,0.000000000000000000e+00
1.510000000000000000e+02,4.343065621796902975e-02,0.000000000000000000e+00
1.520000000000000000e+02,1.153262636097713290e-01,0.000000000000000000e+00
1.530000000000000000e+02,2.565241162427820965e-01,0.000000000000000000e+00
1.540000000000000000e+02,1.879902669032941509e-01,0.000000000000000000e+00
1.550000000000000000e+02,7.707033386471097147e-01,0.000000000000000000e+00
1.560000000000000000e+02,1.941096116549845957e-02,0.000000000000000000e+00
1.570000000000000000e+02,6.745563042726674188e-03,0.000000000000000000e+00
1.580000000000000000e+02,-9.857263478592200034e-02,0.000000000000000000e+00
1.590000000000000000e+02,1.246259866635981983e-01,0.000000000000000000e+00
1.600000000000000000e+02,1.830862807236312284e-01,0.000000000000000000e+00
1.610000000000000000e+02,6.412352378295771427e-01,0.000000000000000000e+00
1.620000000000000000e+02,1.072237674457835466e+00,0.000000000000000000e+00
1.630000000000000000e+02,3.734715518954888069e-01,1.000000000000000000e+00
1.640000000000000000e+02,2.149787124492641421e-01,0.000000000000000000e+00
1.650000000000000000e+02,3.340237063193311762e-02,0.000000000000000000e+00
1.660000000000000000e+02,-9.325256089221263534e-02,0.000000000000000000e+00
1.670000000000000000e+02,8.008506001132517649e-02,0.000000000000000000e+00
1.680000000000000000e+02,3.613518433365343202e-02,0.000000000000000000e+00
1.690000000000000000e+02,7.219207536713022344e-02,0.000000000000000000e+00
1.700000000000000000e+02,3.154389052979036934e-01,0.000000000000000000e+00
1.710000000000000000e+02,2.188357653204137110e-01,0.000000000000000000e+00
1.720000000000000000e+02,3.590041551721992463e-01,0.000000000000000000e+00
1.730000000000000000e+02,5.699026161763032228e-01,0.000000000000000000e+00
1.740000000000000000e+02,5.860408779958676817e-01,0.000000000000000000e+00
1.750000000000000000e+02,8.192515980573441547e-01,0.000000000000000000e+00
1.760000000000000000e+02,1.008295449208223005e+00,0.000000000000000000e+00
1.770000000000000000e+02,1.180410554771209597e+00,0.000000000000000000e+00
1.780000000000000000e+02,1.097321846775700216e+00,0.000000000000000000e+00
1.790000000000000000e+02,7.024102542856873743e-01,0.000000000000000000e+00
1.800000000000000000e+02,1.295092326047646118e-02,0.000000000000000000e+00
1.810000000000000000e+02,-7.552513716804352129e-01,0.000000000000000000e+00
1.820000000000000000e+02,-1.139605791363812015e+00,0.000000000000000000e+00
1.830000000000000000e+02,-1.161070314408363613e+00,0.000000000000000000e+00
1.840000000000000000e+02,-1.205979812509863747e+00,0.000000000000000000e+00
1.850000000000000000e+02,-1.124962390544787638e+00,0.000000000000000000e+00
1.860000000000000000e+02,-9.590874708680960925e-01,0.000000000000000000e+00
1.870000000000000000e+02,-8.298639217384858879e-01,0.000000000000000000e+00
1.880000000000000000e+02,-7.155905380852944919e-01,0.000000000000000000e+00
1.890000000000000000e+02,-6.220424519823802845e-01,0.000000000000000000e+00
1.900000000000000000e+02,-5.249857782028658493e-01,0.000000000000000000e+00
1.910000000000000000e+02,-5.304062272999457983e-01,0.000000000000000000e+00
1.920000000000000000e+02,-4.426252600042181462e-01,0.000000000000000000e+00
1.930000000000000000e+02,-3.543597244995472240e-01,0.000000000000000000e+00
1.940000000000000000e+02,-4.930995872002774671e-01,0.000000000000000000e+00
1.950000000000000000e+02,-4.020369987614302865e-01,0.000000000000000000e+00
1.960000000000000000e+02,-3.455084081697834542e-01,0.000000000000000000e+00
1.970000000000000000e+02,-3.307506646267617811e-01,0.000000000000000000e+00
1.980000000000000000e+02,-1.983246924725398375e-01,0.000000000000000000e+00
1.990000000000000000e+02,-2.065387367598940649e-01,0.000000000000000000e+00
2.000000000000000000e+02,-2.333872644325427070e-01,0.000000000000000000e+00
2.010000000000000000e+02,-2.216652122431295169e-01,0.000000000000000000e+00
2.020000000000000000e+02,-7.204337519908173004e-02,0.000000000000000000e+00
2.030000000000000000e+02,-1.562452203612981205e-01,0.000000000000000000e+00
2.040000000000000000e+02,7.529508346393214147e-02,0.000000000000000000e+00
2.050000000000000000e+02,2.861595363740752074e-01,0.000000000000000000e+00
2.060000000000000000e+02,1.155923186005047704e-01,0.000000000000000000e+00
2.070000000000000000e+02,4.819585142868233474e-01,0.000000000000000000e+00
2.080000000000000000e+02,7.729686415952156109e-01,0.000000000000000000e+00
2.090000000000000000e+02,2.027114305542869754e-01,0.000000000000000000e+00
2.100000000000000000e+02,-1.275357758362612171e-01,0.000000000000000000e+00
2.110000000000000000e+02,-5.992973612809075062e-02,0.000000000000000000e+00
2.120000000000000000e+02,-1.087323801224150399e-01,0.000000000000000000e+00
2.130000000000000000e+02,1.977833247336911460e-01,0.000000000000000000e+00
2.140000000000000000e+02,4.275777385520276863e-01,0.000000000000000000e+00
2.150000000000000000e+02,1.570024189327888120e+00,0.000000000000000000e+00
2.160000000000000000e+02,1.207914027090588371e+00,1.000000000000000000e+00
2.170000000000000000e+02,3.430865441090074075e-01,0.000000000000000000e+00
2.180000000000000000e+02,-1.135250106604895476e-01,0.000000000000000000e+00
2.190000000000000000e+02,-1.320233328236203596e-01,0.000000000000000000e+00
2.200000000000000000e+02,-9.158771643572047316e-02,0.000000000000000000e+00
2.210000000000000000e+02,-6.668831050567940177e-02,0.000000000000000000e+00
2.220000000000000000e+02,2.040761368746001406e-02,0.000000000000000000e+00
2.230000000000000000e+02,3.798989349962775958e-02,0.000000000000000000e+00
2.240000000000000000e+02,7.144686636089042642e-02,0.000000000000000000e+00
2.250000000000000000e+02,2.797827931911906485e-01,0.000000000000000000e+00
2.260000000000000000e+02,3.819322911778070262e-01,0.000000000000000000e+00
2.270000000000000000e+02,5.283371473001562402e-01,0.000000000000000000e+00
2.280000000000000000e+02,7.477418974596098389e-01,0.000000000000000000e+00
2.290000000000000000e+02,1.040556824854559359e+00,0.000000000000000000e+00
2.300000000000000000e+02,9.909415762797796345e-01,0.000000000000000000e+00
2.310000000000000000e+02,1.203010773005870115e+00,0.000000000000000000e+00
2.320000000000000000e+02,8.449755765080955161e-01,0.000000000000000000e+00
2.330000000000000000e+02,6.085853120441631070e-02,0.000000000000000000e+00
2.340000000000000000e+02,-6.099666901865364865e-01,0.000000000000000000e+00
2.350000000000000000e+02,-9.891440698481439586e-01,0.000000000000000000e+00
2.360000000000000000e+02,-1.104693873396872306e+00,0.000000000000000000e+00
2.370000000000000000e+02,-1.049006770589419046e+00,0.000000000000000000e+00
2.380000000000000000e+02,-1.153501023945952886e+00,0.000000000000000000e+00
2.390000000000000000e+02,-8.682127429551361741e-01,0.000000000000000000e+00
2.400000000000000000e+02,-7.329422269722136729e-01,0.000000000000000000e+00
2.410000000000000000e+02,-6.449491211303202132e-01,0.000000000000000000e+00
2.420000000000000000e+02,-4.784966062899346229e-01,0.000000000000000000e+00
2.430000000000000000e+02,-4.549033584491937732e-01,0.000000000000000000e+00
2.440000000000000000e+02,-3.370829610561021372e-01,0.000000000000000000e+00
2.450000000000000000e+02,-4.212699245290673633e-01,0.000000000000000000e+00
2.460000000000000000e+02,-2.517505572039524520e-01,0.000000000000000000e+00
2.470000000000000000e+02,-2.312571041146531392e-01,0.000000000000000000e+00
2.480000000000000000e+02,-3.341532292644165403e-01,0.000000000000000000e+00
2.490000000000000000e+02,-2.857430732406144314e-01,0.000000000000000000e+00
2.500000000000000000e+02,-2.696728675687908305e-01,0.000000000000000000e+00
2.510000000000000000e+02,-2.549585120742833833e-01,0.000000000000000000e+00
2.520000000000000000e+02,-1.498413019570467852e-01,0.000000000000000000e+00
2.530000000000000000e+02,-3.153509977641030804e-01,0.000000000000000000e+00
2.540000000000000000e+02,-7.702691101708496191e-02,0.000000000000000000e+00
2.550000000000000000e+02,-1.266170250965764632e-01,0.000000000000000000e+00
2.560000000000000000e+02,1.072088714417026439e-01,0.000000000000000000e+00
2.570000000000000000e+02,1.833830760869701870e-01,0.000000000000000000e+00
2.580000000000000000e+02,2.185788572282173770e-01,0.000000000000000000e+00
2.590000000000000000e+02,3.504545320230512129e-01,0.000000000000000000e+00
2.600000000000000000e+02,6.504806183193097002e-01,0.000000000000000000e+00
2.610000000000000000e+02,5.161483566605635787e-01,0.000000000000000000e+00
2.620000000000000000e+02,-3.831379000381247846e-02,0.000000000000000000e+00
2.630000000000000000e+02,-1.061151153584541790e-01,0.000000000000000000e+00
2.640000000000000000e+02,3.459608771225763935e-02,0.000000000000000000e+00
2.650000000000000000e+02,2.294166543081033183e-01,0.000000000000000000e+00
2.660000000000000000e+02,3.353450047401927980e-01,0.000000000000000000e+00
2.670000000000000000e+02,1.053840503978522358e+00,0.000000000000000000e+00
2.680000000000000000e+02,1.649551360413270551e+00,0.000000000000000000e+00
2.690000000000000000e+02,4.348648362496685960e-01,1.000000000000000000e+00
2.700000000000000000e+02,-1.444794244632059341e-02,0.000000000000000000e+00
2.710000000000000000e+02,-1.829554389014425853e-01,0.000000000000000000e+00
2.720000000000000000e+02,-3.282860163597396685e-02,0.000000000000000000e+00
2.730000000000000000e+02,-6.791871449128970839e-02,0.000000000000000000e+00
2.740000000000000000e+02,-3.242492533808233324e-02,0.000000000000000000e+00
2.750000000000000000e+02,-4.910388907771546380e-02,0.000000000000000000e+00
2.760000000000000000e+02,1.489733577385954910e-01,0.000000000000000000e+00
2.770000000000000000e+02,2.553137534562611721e-01,0.000000000000000000e+00
2.780000000000000000e+02,3.690700341952349306e-01,0.000000000000000000e+00
2.790000000000000000e+02,4.373856310503669298e-01,0.000000000000000000e+00
2.800000000000000000e+02,5.189225316751872041e-01,0.000000000000000000e+00
2.810000000000000000e+02,9.679558448777382251e-01,0.000000000000000000e+00
2.820000000000000000e+02,1.243086487839654808e+00,0.000000000000000000e+00
2.830000000000000000e+02,1.167146107704647218e+00,0.000000000000000000e+00
2.840000000000000000e+02,1.022283572669456797e+00,0.000000000000000000e+00
2.850000000000000000e+02,3.814696027960612912e-01,0.000000000000000000e+00
2.860000000000000000e+02,-4.445904665961004087e-01,0.000000000000000000e+00
2.870000000000000000e+02,-9.238767982682810631e-01,0.000000000000000000e+00
2.880000000000000000e+02,-1.165375910370458401e+00,0.000000000000000000e+00
2.890000000000000000e+02,-1.019901598293520006e+00,0.000000000000000000e+00
2.900000000000000000e+02,-9.691335645482336281e-01,0.000000000000000000e+00
2.910000000000000000e+02,-8.487902464839675032e-01,0.000000000000000000e+00
2.920000000000000000e+02,-7.916486041006716157e-01,0.000000000000000000e+00
2.930000000000000000e+02,-6.070177706852768473e-01,0.000000000000000000e+00
2.940000000000000000e+02,-5.143928598186491286e-01,0.000000000000000000e+00
2.950000000000000000e+02,-4.635501096084421735e-01,0.000000000000000000e+00
2.960000000000000000e+02,-4.076943444809834616e-01,0.000000000000000000e+00
2.970000000000000000e+02,-5.326368244528981721e-01,0.000000000000000000e+00
2.980000000000000000e+02,-4.321929327756162120e-01,0.000000000000000000e+00
2.990000000000000000e+02,-3.724967842346359470e-01,0.000000000000000000e+00
3.000000000000000000e+02,-3.550045526651452454e-01,0.000000000000000000e+00
3.010000000000000000e+02,-2.296280620645643200e-01,0.000000000000000000e+00
3.020000000000000000e+02,-3.555150126849542791e-01,0.000000000000000000e+00
3.030000000000000000e+02,-1.589812817156239233e-01,0.000000000000000000e+00
3.040000000000000000e+02,-2.517386085576730492e-01,0.000000000000000000e+00
3.050000000000000000e+02,-2.267087159481347147e-01,0.000000000000000000e+00
3.060000000000000000e+02,-2.420368848124526337e-02,0.000000000000000000e+00
3.070000000000000000e+02,7.282053647212552785e-03,0.000000000000000000e+00
3.080000000000000000e+02,1.320885502798331834e-01,0.000000000000000000e+00
3.090000000000000000e+02,5.568092428032747065e-01,0.000000000000000000e+00
3.100000000000000000e+02,2.925737049519269717e-01,0.000000000000000000e+00
3.110000000000000000e+02,-1.207732189893582497e-01,0.000000000000000000e+00
3.120000000000000000e+02,-6.770875337532585025e-02,0.000000000000000000e+00
3.130000000000000000e+02,-7.769461550935639199e-03,0.000000000000000000e+00
3.140000000000000000e+02,2.742324146780670269e-01,0.000000000000000000e+00
3.150000000000000000e+02,5.235399199203460974e-01,0.000000000000000000e+00
3.160000000000000000e+02,1.018963449097486373e+00,0.000000000000000000e+00
3.170000000000000000e+02,4.306690479761929868e-01,0.000000000000000000e+00
3.180000000000000000e+02,2.039403423046529940e-01,0.000000000000000000e+00
3.190000000000000000e+02,7.980538924392803490e-02,0.000000000000000000e+00
3.200000000000000000e+02,-3.191151751662842789e-02,0.000000000000000000e+00
3.210000000000000000e+02,1.635656765695501780e-01,0.000000000000000000e+00
3.220000000000000000e+02,1.505794999984196580e-01,0.000000000000000000e+00
3.230000000000000000e+02,1.639655496669779333e-01,0.000000000000000000e+00
3.240000000000000000e+02,2.525843756816347208e-01,0.000000000000000000e+00
3.250000000000000000e+02,3.565848645941632200e-01,0.000000000000000000e+00
3.260000000000000000e+02,4.655613189583451272e-01,0.000000000000000000e+00
3.270000000000000000e+02,5.994574209978643653e-01,0.000000000000000000e+00
3.280000000000000000e+02,6.706412196562825390e-01,0.000000000000000000e+00
3.290000000000000000e+02,9.201315149091581214e-01,0.000000000000000000e+00
3.300000000000000000e+02,1.169467240473719416e+00,0.000000000000000000e+00
3.310000000000000000e+02,1.253562843032346885e+00,0.000000000000000000e+00
3.320000000000000000e+02,1.165481187717869238e+00,0.000000000000000000e+00
3.330000000000000000e+02,1.053326567266177793e+00,0.000000000000000000e+00
3.340000000000000000e+02,3.664697096589289993e-01,0.000000000000000000e+00
3.350000000000000000e+02,-3.558169623843737139e-01,1.000000000000000000e+00
3.360000000000000000e+02,-9.957550808194872705e-01,0.000000000000000000e+00
3.370000000000000000e+02,-1.150613134026217343e+00,0.000000000000000000e+00
3.380000000000000000e+02,-1.222368205718306067e+00,0.000000000000000000e+00
3.390000000000000000e+02,-1.180298832771049522e+00,0.000000000000000000e+00
3.400000000000000000e+02,-1.029827328915651208e+00,0.000000000000000000e+00
3.410000000000000000e+02,-9.246103511099625916e-01,0.000000000000000000e+00
3.420000000000000000e+02,-7.983698405401670195e-01,0.000000000000000000e+00
3.430000000000000000e+02,-5.487618131034679436e-01,0.000000000000000000e+00
3.440000000000000000e+02,-5.445155279131670412e-01,0.000000000000000000e+00
3.450000000000000000e+02,-3.812908906356431427e-01,0.000000000000000000e+00
3.460000000000000000e+02,-4.576593736931816037e-01,0.000000000000000000e+00
3.470000000000000000e+02,-4.320925017343245078e-01,0.000000000000000000e+00
3.480000000000000000e+02,-3.548288301545523549e-01,0.000000000000000000e+00
3.490000000000000000e+02,-2.840431083893405484e-01,0.000000000000000000e+00
3.500000000000000000e+02,-2.402541960291570133e-01,0.000000000000000000e+00
3.510000000000000000e+02,-1.726799013079839129e-01,0.000000000000000000e+00
3.520000000000000000e+02,-3.086038731411315170e-02,0.000000000000000000e+00
3.530000000000000000e+02,-1.431558825761945763e-02,0.000000000000000000e+00
3.540000000000000000e+02,4.139237569080267964e-01,0.000000000000000000e+00
3.550000000000000000e+02,9.665012295825413380e-03,0.000000000000000000e+00
3.560000000000000000e+02,-2.500833826376160363e-01,0.000000000000000000e+00
3.570000000000000000e+02,-2.098373601938278432e-01,0.000000000000000000e+00
3.580000000000000000e+02,-3.970823103450240033e-01,0.000000000000000000e+00
3.590000000000000000e+02,1.875794250551168774e-01,0.000000000000000000e+00
3.600000000000000000e+02,2.102313553345957764e-01,0.000000000000000000e+00
3.610000000000000000e+02,1.040631022289036922e+00,0.000000000000000000e+00
3.620000000000000000e+02,6.580696237537914106e-01,0.000000000000000000e+00
3.630000000000000000e+02,1.351271067060972053e-01,0.000000000000000000e+00
3.640000000000000000e+02,-1.852572632672480901e-01,0.000000000000000000e+00
3.650000000000000000e+02,4.617089117323271152e-02,0.000000000000000000e+00
3.660000000000000000e+02,-8.675321348367768387e-03,0.000000000000000000e+00
3.670000000000000000e+02,6.924026905096820894e-02,0.000000000000000000e+00
3.680000000000000000e+02,9.433158102784207355e-02,0.000000000000000000e+00
3.690000000000000000e+02,2.075011072579914240e-01,0.000000000000000000e+00
3.700000000000000000e+02,2.509278410873621579e-01,0.000000000000000000e+00
3.710000000000000000e+02,2.375437245279778675e-01,0.000000000000000000e+00
3.720000000000000000e+02,4.730692171519254030e-01,0.000000000000000000e+00
3.730000000000000000e+02,5.857145124656066848e-01,0.000000000000000000e+00
3.740000000000000000e+02,6.834377367963916372e-01,0.000000000000000000e+00
3.750000000000000000e+02,9.591936914425504002e-01,0.000000000000000000e+00
3.760000000000000000e+02,1.305224462169485511e+00,0.000000000000000000e+00
3.770000000000000000e+02,1.090751116562980183e+00,0.000000000000000000e+00
3.780000000000000000e+02,1.020061383998798643e+00,0.000000000000000000e+00
3.790000000000000000e+02,2.887129683912176281e-01,0.000000000000000000e+00
3.800000000000000000e+02,-3.618830798831084716e-01,1.000000000000000000e+00
3.810000000000000000e+02,-8.432720661549081287e-01,0.000000000000000000e+00
3.820000000000000000e+02,-9.820136493950897272e-01,0.000000000000000000e+00
3.830000000000000000e+02,-1.023398108603929657e+00,0.000000000000000000e+00
3.840000000000000000e+02,-9.245489546503878886e-01,0.000000000000000000e+00
3.850000000000000000e+02,-7.549900169078018752e-01,0.000000000000000000e+00
3.860000000000000000e+02,-4.991597577830128585e-01,0.000000000000000000e+00
3.870000000000000000e+02,-4.648770082664082648e-01,0.000000000000000000e+00
3.880000000000000000e+02,-3.871785197069310125e-01,0.000000000000000000e+00
3.890000000000000000e+02,-3.586349836232448629e-01,0.000000000000000000e+00
3.900000000000000000e+02,-2.245974263677563698e-01,0.000000000000000000e+00
3.910000000000000000e+02,-2.706867557435276295e-01,0.000000000000000000e+00
3.920000000000000000e+02,-3.069117540520985288e-01,0.000000000000000000e+00
3.930000000000000000e+02,-1.693282437598902790e-01,0.000000000000000000e+00
3.940000000000000000e+02,-2.765885575071734825e-01,0.000000000000000000e+00
3.950000000000000000e+02,-2.083879769866562315e-01,0.000000000000000000e+00
3.960000000000000000e+02,-1.062595597443954376e-01,0.000000000000000000e+00
3.970000000000000000e+02,-1.140934989940620981e-01,0.000000000000000000e+00
3.980000000000000000e+02,-9.243179784915575570e-02,0.000000000000000000e+00
3.990000000000000000e+02,-5.860933638021264408e-02,0.000000000000000000e+00
4.000000000000000000e+02,-1.994502266765554310e-01,0.000000000000000000e+00
4.010000000000000000e+02,-1.174958198937260806e-01,0.000000000000000000e+00
4.020000000000000000e+02,5.533380322770448459e-03,0.000000000000000000e+00
4.030000000000000000e+02,1.133759083135071760e-01,0.000000000000000000e+00
4.040000000000000000e+02,3.201754720879343430e-02,0.000000000000000000e+00
4.050000000000000000e+02,3.351820285705989222e-01,0.000000000000000000e+00
4.060000000000000000e+02,2.148508599842659517e-01,0.000000000000000000e+00
4.070000000000000000e+02,2.929788132798520905e-01,0.000000000000000000e+00
4.080000000000000000e+02,4.451523809039426571e-01,0.000000000000000000e+00
4.090000000000000000e+02,8.288568782630516552e-01,0.000000000000000000e+00
4.100000000000000000e+02,1.012071688611808490e-01,0.000000000000000000e+00
4.110000000000000000e+02,1.492931733963134833e-02,0.000000000000000000e+00
4.120000000000000000e+02,-7.303138669664459293e-02,0.000000000000000000e+00
4.130000000000000000e+02,1.908904773819672107e-01,0.000000000000000000e+00
4.140000000000000000e+02,1.796729998620082147e-01,0.000000000000000000e+00
4.150000000000000000e+02,1.073836943251748277e+00,0.000000000000000000e+00
4.160000000000000000e+02,1.533204515288099534e+00,0.000000000000000000e+00
4.170000000000000000e+02,5.945920692911242922e-01,1.000000000000000000e+00
4.180000000000000000e+02,-1.762989295005769896e-01,0.000000000000000000e+00
4.190000000000000000e+02,-1.908059952868857989e-01,0.000000000000000000e+00
4.200000000000000000e+02,-2.424958389017041471e-01,0.000000000000000000e+00
4.210000000000000000e+02,-1.349037013425696541e-01,0.000000000000000000e+00
4.220000000000000000e+02,-1.653390847711989631e-01,0.000000000000000000e+00
4.230000000000000000e+02,-1.534511899953893976e-01,0.000000000000000000e+00
4.240000000000000000e+02,2.856055687580433267e-02,0.000000000000000000e+00
4.250000000000000000e+02,3.733914005961451454e-02,0.000000000000000000e+00
4.260000000000000000e+02,2.169228977420255278e-01,0.000000000000000000e+00
4.270000000000000000e+02,2.656177252295859326e-01,0.000000000000000000e+00
4.280000000000000000e+02,3.453391860367190369e-01,0.000000000000000000e+00
4.290000000000000000e+02,6.859179872092846519e-01,0.000000000000000000e+00
4.300000000000000000e+02,9.207444924083402205e-01,0.000000000000000000e+00
4.310000000000000000e+02,8.856800301571398082e-01,0.000000000000000000e+00
4.320000000000000000e+02,8.874096095785523053e-01,0.000000000000000000e+00
4.330000000000000000e+02,2.455598338887465537e-01,0.000000000000000000e+00
4.340000000000000000e+02,-4.311040941919042635e-01,0.000000000000000000e+00
4.350000000000000000e+02,-8.781645062541887370e-01,0.000000000000000000e+00
4.360000000000000000e+02,-1.068418058913016111e+00,0.000000000000000000e+00
4.370000000000000000e+02,-1.117349097828571391e+00,0.000000000000000000e+00
4.380000000000000000e+02,-1.140282997232645812e+00,0.000000000000000000e+00
4.390000000000000000e+02,-9.821393637277515687e-01,0.000000000000000000e+00
4.400000000000000000e+02,-7.930950183270781828e-01,0.000000000000000000e+00
4.410000000000000000e+02,-7.340293374254017733e-01,0.000000000000000000e+00
4.420000000000000000e+02,-5.694978441445169848e-01,0.000000000000000000e+00
4.430000000000000000e+02,-4.973536285724031725e-01,0.000000000000000000e+00
4.440000000000000000e+02,-3.639141593167780075e-01,0.000000000000000000e+00
4.450000000000000000e+02,-3.611616176717575288e-01,0.000000000000000000e+00
4.460000000000000000e+02,-2.830136863499413402e-01,0.000000000000000000e+00
4.470000000000000000e+02,-3.855370773192696721e-01,0.000000000000000000e+00
4.480000000000000000e+02,-2.865065783089928986e-01,0.000000000000000000e+00
4.490000000000000000e+02,-3.408498944939415409e-01,0.000000000000000000e+00
4.500000000000000000e+02,-2.065791598643618165e-01,0.000000000000000000e+00
4.510000000000000000e+02,-1.766592103879929820e-01,0.000000000000000000e+00
4.520000000000000000e+02,-2.463605897462598504e-01,0.000000000000000000e+00
4.530000000000000000e+02,-1.154457187308956662e-01,0.000000000000000000e+00
4.540000000000000000e+02,-7.053756730185985202e-02,0.000000000000000000e+00
4.550000000000000000e+02,1.384390992405902243e-01,0.000000000000000000e+00
4.560000000000000000e+02,1.245358211075719979e-01,0.000000000000000000e+00
4.570000000000000000e+02,2.008363931435548644e-01,0.000000000000000000e+00
4.580000000000000000e+02,5.556333465757582468e-01,0.000000000000000000e+00
4.590000000000000000e+02,7.324850061298027182e-01,0.000000000000000000e+00
4.600000000000000000e+02,9.295870696498181873e-02,0.000000000000000000e+00
4.610000000000000000e+02,-3.199213205666116139e-02,0.000000000000000000e+00
4.620000000000000000e+02,-5.266817340269439734e-02,0.000000000000000000e+00
4.630000000000000000e+02,6.333350445211399782e-02,0.000000000000000000e+00
4.640000000000000000e+02,2.679332904984871866e-01,0.000000000000000000e+00
4.650000000000000000e+02,7.991835328753789103e-01,0.000000000000000000e+00
4.660000000000000000e+02,1.631579485759460324e+00,0.000000000000000000e+00
4.670000000000000000e+02,8.152796032998033127e-01,1.000000000000000000e+00
4.680000000000000000e+02,5.603835044796728199e-02,0.000000000000000000e+00
4.690000000000000000e+02,-2.043164915319118091e-01,0.000000000000000000e+00
4.700000000000000000e+02,-8.198303273546347913e-02,0.000000000000000000e+00
4.710000000000000000e+02,-1.284578298173922606e-01,0.000000000000000000e+00
4.720000000000000000e+02,1.407896995798512130e-01,0.000000000000000000e+00
4.730000000000000000e+02,9.355036873359107163e-02,0.000000000000000000e+00
4.740000000000000000e+02,6.889352152300998178e-02,0.000000000000000000e+00
4.750000000000000000e+02,2.004247639321499186e-01,0.000000000000000000e+00
4.760000000000000000e+02,3.651031483084278273e-01,0.000000000000000000e+00
4.770000000000000000e+02,4.852351678608030627e-01,0.000000000000000000e+00
4.780000000000000000e+02,6.707371777556012660e-01,0.000000000000000000e+00
4.790000000000000000e+02,8.242115294480177878e-01,0.000000000000000000e+00
4.800000000000000000e+02,1.093772187504019167e+00,0.000000000000000000e+00
4.810000000000000000e+02,1.211286699506800124e+00,0.000000000000000000e+00
4.820000000000000000e+02,1.003600830230027663e+00,0.000000000000000000e+00
4.830000000000000000e+02,5.227805372785763183e-01,0.000000000000000000e+00
4.840000000000000000e+02,-3.067105081648369147e-01,0.000000000000000000e+00
4.850000000000000000e+02,-8.580008060931267888e-01,0.000000000000000000e+00
4.860000000000000000e+02,-1.144557204888889457e+00,0.000000000000000000e+00
4.870000000000000000e+02,-1.298265602030036714e+00,0.000000000000000000e+00
4.880000000000000000e+02,-1.178563003608698923e+00,0.000000000000000000e+00
4.890000000000000000e+02,-1.078730296108712405e+00,0.000000000000000000e+00
4.900000000000000000e+02,-8.562632999835716463e-01,0.000000000000000000e+00
4.910000000000000000e+02,-7.858549886849893751e-01,0.000000000000000000e+00
4.920000000000000000e+02,-6.021674183312089035e-01,0.000000000000000000e+00
4.930000000000000000e+02,-4.681100091160858012e-01,0.000000000000000000e+00
4.940000000000000000e+02,-5.016860716510782581e-01,0.000000000000000000e+00
4.950000000000000000e+02,-4.986100505080681144e-01,0.000000000000000000e+00
4.960000000000000000e+02,-3.262057069067992865e-01,0.000000000000000000e+00
4.970000000000000000e+02,-4.176192856563499256e-01,0.000000000000000000e+00
4.980000000000000000e+02,-2.550851150850918514e-01,0.000000000000000000e+00
4.990000000000000000e+02,-3.149067335484961871e-01,0.000000000000000000e+00
5.000000000000000000e+02,-1.736506143070802310e-01,0.000000000000000000e+00
5.010000000000000000e+02,-1.589380008291195190e-01,0.000000000000000000e+00
5.020000000000000000e+02,-1.365408984177078622e-01,0.000000000000000000e+00
5.030000000000000000e+02,8.870579428475260098e-02,0.000000000000000000e+00
5.040000000000000000e+02,1.097843289107215264e-01,0.000000000000000000e+00
5.050000000000000000e+02,3.516001330735740171e-01,0.000000000000000000e+00
5.060000000000000000e+02,5.938439741455949772e-01,0.000000000000000000e+00
5.070000000000000000e+02,2.332410344558386583e-01,0.000000000000000000e+00
5.080000000000000000e+02,-6.399285806984989465e-03,0.000000000000000000e+00
5.090000000000000000e+02,2.098875638946394971e-03,0.000000000000000000e+00
5.100000000000000000e+02,-7.327558874948080858e-04,0.000000000000000000e+00
5.110000000000000000e+02,3.134741659912075318e-01,0.000000000000000000e+00
5.120000000000000000e+02,5.257251382294433339e-01,0.000000000000000000e+00
5.130000000000000000e+02,1.031233536175127918e+00,0.000000000000000000e+00
5.140000000000000000e+02,4.220139339921362143e-01,0.000000000000000000e+00
5.150000000000000000e+02,1.378012749989823982e-01,0.000000000000000000e+00
5.160000000000000000e+02,7.433324405823275860e-02,0.000000000000000000e+00
5.170000000000000000e+02,1.084060157422801901e-01,0.000000000000000000e+00
5.180000000000000000e+02,-2.152542064625051314e-03,0.000000000000000000e+00
5.190000000000000000e+02,1.580675915210155991e-01,0.000000000000000000e+00
5.200000000000000000e+02,2.756749412094271490e-01,0.000000000000000000e+00
5.210000000000000000e+02,2.004047048845572221e-01,0.000000000000000000e+00
5.220000000000000000e+02,4.358956154658000792e-01,0.000000000000000000e+00
5.230000000000000000e+02,5.000340983979238985e-01,0.000000000000000000e+00
5.240000000000000000e+02,6.200772452982755700e-01,0.000000000000000000e+00
5.250000000000000000e+02,8.808528605531925626e-01,0.000000000000000000e+00
5.260000000000000000e+02,9.654293024786828603e-01,0.000000000000000000e+00
5.270000000000000000e+02,1.255742142260138472e+00,0.000000000000000000e+00
5.280000000000000000e+02,1.400910192074566130e+00,0.000000000000000000e+00
5.290000000000000000e+02,1.269116581613603634e+00,0.000000000000000000e+00
5.300000000000000000e+02,8.180248661265324683e-01,0.000000000000000000e+00
5.310000000000000000e+02,2.383124612805897213e-01,0.000000000000000000e+00
5.320000000000000000e+02,-5.781398305810612204e-01,1.000000000000000000e+00
5.330000000000000000e+02,-9.470280396569757952e-01,0.000000000000000000e+00
5.340000000000000000e+02,-1.271994284601681402e+00,0.000000000000000000e+00
5.350000000000000000e+02,-1.015385616742303876e+00,0.000000000000000000e+00
5.360000000000000000e+02,-1.070678581278647234e+00,0.000000000000000000e+00
5.370000000000000000e+02,-9.160924762464922599e-01,0.000000000000000000e+00
5.380000000000000000e+02,-7.445869457203925235e-01,0.000000000000000000e+00
5.390000000000000000e+02,-7.007571845453247628e-01,0.000000000000000000e+00
5.400000000000000000e+02,-5.341950809211806206e-01,0.000000000000000000e+00
5.410000000000000000e+02,-4.222693592905757964e-01,0.000000000000000000e+00
5.420000000000000000e+02,-4.495693350860899828e-01,0.000000000000000000e+00
5.430000000000000000e+02,-4.207122068514856927e-01,0.000000000000000000e+00
5.440000000000000000e+02,-3.727331741479169569e-01,0.000000000000000000e+00
5.450000000000000000e+02,-3.796332074892778685e-01,0.000000000000000000e+00
5.460000000000000000e+02,-4.180643297261046887e-01,0.000000000000000000e+00
5.470000000000000000e+02,-3.832615960486528417e-01,0.000000000000000000e+00
5.480000000000000000e+02,-2.449072902257837248e-01,0.000000000000000000e+00
5.490000000000000000e+02,-2.515965269911762392e-01,0.000000000000000000e+00
5.500000000000000000e+02,-1.844610611004767753e-01,0.000000000000000000e+00
5.510000000000000000e+02,-6.440955289290972718e-02,0.000000000000000000e+00
5.520000000000000000e+02,6.866966635484177128e-02,0.000000000000000000e+00
5.530000000000000000e+02,2.368812844163505349e-01,0.000000000000000000e+00
5.540000000000000000e+02,4.494935137652356638e-01,0.000000000000000000e+00
5.550000000000000000e+02,4.162159484611809707e-02,0.000000000000000000e+00
5.560000000000000000e+02,-2.204536337985736894e-01,0.000000000000000000e+00
5.570000000000000000e+02,-1.627123395313377907e-01,0.000000000000000000e+00
5.580000000000000000e+02,-1.064889614804456902e-01,0.000000000000000000e+00
5.590000000000000000e+02,8.512491847867481587e-02,0.000000000000000000e+00
5.600000000000000000e+02,7.114156377615125093e-01,0.000000000000000000e+00
5.610000000000000000e+02,1.130088163780776256e+00,0.000000000000000000e+00
5.620000000000000000e+02,2.707781718267812110e-01,1.000000000000000000e+00
5.630000000000000000e+02,1.183217256555285785e-01,0.000000000000000000e+00
5.640000000000000000e+02,-1.654793322032781788e-01,0.000000000000000000e+00
5.650000000000000000e+02,-1.197547434886784556e-01,0.000000000000000000e+00
5.660000000000000000e+02,-1.481104019398550298e-01,0.000000000000000000e+00
5.670000000000000000e+02,5.394639897044498783e-02,0.000000000000000000e+00
5.680000000000000000e+02,-4.649444545475646395e-02,0.000000000000000000e+00
5.690000000000000000e+02,1.723882598021450330e-01,0.000000000000000000e+00
5.700000000000000000e+02,1.817302448776380863e-01,0.000000000000000000e+00
5.710000000000000000e+02,3.161985255446618792e-01,0.000000000000000000e+00
5.720000000000000000e+02,4.779276491490950241e-01,0.000000000000000000e+00
5.730000000000000000e+02,5.900601573304434799e-01,0.000000000000000000e+00
5.740000000000000000e+02,8.308043005880205722e-01,0.000000000000000000e+00
5.750000000000000000e+02,1.006071633090113160e+00,0.000000000000000000e+00
5.760000000000000000e+02,1.274012726892471914e+00,0.000000000000000000e+00
5.770000000000000000e+02,1.147945692018147001e+00,0.000000000000000000e+00
5.780000000000000000e+02,6.588168153115018244e-01,0.000000000000000000e+00
5.790000000000000000e+02,-1.449036642273167086e-01,0.000000000000000000e+00
5.800000000000000000e+02,-7.787170596949399837e-01,0.000000000000000000e+00
5.810000000000000000e+02,-1.183866963888426938e+00,0.000000000000000000e+00
5.820000000000000000e+02,-1.141286003938711824e+00,0.000000000000000000e+00
5.830000000000000000e+02,-1.072399270288197926e+00,0.000000000000000000e+00
5.840000000000000000e+02,-8.411924388999884039e-01,0.000000000000000000e+00
5.850000000000000000e+02,-7.692746626964600543e-01,0.000000000000000000e+00
5.860000000000000000e+02,-8.895665826802596765e-01,0.000000000000000000e+00
5.870000000000000000e+02,-5.367356492505349630e-01,0.000000000000000000e+00
5.880000000000000000e+02,-6.065063748026013890e-01,0.000000000000000000e+00
5.890000000000000000e+02,-3.490106343787166554e-01,0.000000000000000000e+00
5.900000000000000000e+02,-3.702200903340094884e-01,0.000000000000000000e+00
5.910000000000000000e+02,-3.106243306429695150e-01,0.000000000000000000e+00
5.920000000000000000e+02,-3.161162423140379540e-01,0.000000000000000000e+00
5.930000000000000000e+02,-3.727693074775024762e-01,0.000000000000000000e+00
5.940000000000000000e+02,-3.603463909917424823e-01,0.000000000000000000e+00
5.950000000000000000e+02,-1.542303206202174648e-01,0.000000000000000000e+00
5.960000000000000000e+02,-1.599010169864265585e-01,0.000000000000000000e+00
5.970000000000000000e+02,-6.254255997884153317e-02,0.000000000000000000e+00
5.980000000000000000e+02,-1.455825056918415294e-01,0.000000000000000000e+00
5.990000000000000000e+02,1.717590711932686157e-02,0.000000000000000000e+00
6.000000000000000000e+02,-4.286283196502063859e-03,0.000000000000000000e+00
6.010000000000000000e+02,5.428328765182854204e-02,0.000000000000000000e+00
6.020000000000000000e+02,7.368366374788468814e-03,0.000000000000000000e+00
6.030000000000000000e+02,2.436995876888581880e-01,0.000000000000000000e+00
6.040000000000000000e+02,2.139287615088979189e-01,0.000000000000000000e+00
6.050000000000000000e+02,3.916122709037219152e-01,0.000000000000000000e+00
6.060000000000000000e+02,6.712808532859152466e-01,0.000000000000000000e+00
6.070000000000000000e+02,6.716808403489521462e-01,0.000000000000000000e+00
6.080000000000000000e+02,-8.564605701502447585e-03,0.000000000000000000e+00
6.090000000000000000e+02,-1.937329508375831150e-02,0.000000000000000000e+00
6.100000000000000000e+02,-1.081783766316308654e-01,0.000000000000000000e+00
6.110000000000000000e+02,2.423647400734759427e-01,0.000000000000000000e+00
6.120000000000000000e+02,3.212697613233522764e-01,0.000000000000000000e+00
6.130000000000000000e+02,1.049490427843781992e+00,0.000000000000000000e+00
6.140000000000000000e+02,1.528652512065944657e+00,0.000000000000000000e+00
6.150000000000000000e+02,5.482330741702432508e-01,1.000000000000000000e+00
6.160000000000000000e+02,9.016031616300407281e-03,0.000000000000000000e+00
6.170000000000000000e+02,-2.820321037442833356e-01,0.000000000000000000e+00
6.180000000000000000e+02,-1.116132648999458299e-01,0.000000000000000000e+00
6.190000000000000000e+02,-1.340055257414907719e-01,0.000000000000000000e+00
6.200000000000000000e+02,-1.130714344940116911e-01,0.000000000000000000e+00
6.210000000000000000e+02,-4.125872337929767375e-02,0.000000000000000000e+00
6.220000000000000000e+02,8.714983170591948658e-02,0.000000000000000000e+00
6.230000000000000000e+02,9.523083238644756976e-02,0.000000000000000000e+00
6.240000000000000000e+02,2.928506178175580010e-01,0.000000000000000000e+00
6.250000000000000000e+02,4.227537630040665850e-01,0.000000000000000000e+00
6.260000000000000000e+02,6.801068144681161609e-01,0.000000000000000000e+00
6.270000000000000000e+02,8.735049408722985742e-01,0.000000000000000000e+00
6.280000000000000000e+02,1.042321920299976501e+00,0.000000000000000000e+00
6.290000000000000000e+02,1.066010666454811684e+00,0.000000000000000000e+00
6.300000000000000000e+02,9.120986690771440975e-01,0.000000000000000000e+00
6.310000000000000000e+02,3.937967428888007326e-01,0.000000000000000000e+00
6.320000000000000000e+02,-4.140025793919741570e-01,0.000000000000000000e+00
6.330000000000000000e+02,-7.959948939989843764e-01,0.000000000000000000e+00
6.340000000000000000e+02,-1.086449004564306486e+00,0.000000000000000000e+00
6.350000000000000000e+02,-1.117092538021858372e+00,0.000000000000000000e+00
6.360000000000000000e+02,-9.380562227193320890e-01,0.000000000000000000e+00
6.370000000000000000e+02,-8.191722073002862814e-01,0.000000000000000000e+00
6.380000000000000000e+02,-8.079087125471438036e-01,0.000000000000000000e+00
6.390000000000000000e+02,-7.388670068436339333e-01,0.000000000000000000e+00
6.400000000000000000e+02,-6.088136942017713382e-01,0.000000000000000000e+00
6.410000000000000000e+02,-4.943310266907475214e-01,0.000000000000000000e+00
6.420000000000000000e+02,-3.739275560658018027e-01,0.000000000000000000e+00
6.430000000000000000e+02,-3.824728653527184052e-01,0.000000000000000000e+00
6.440000000000000000e+02,-1.754175833657686812e-01,0.000000000000000000e+00
6.450000000000000000e+02,-3.835608349260257732e-01,0.000000000000000000e+00
6.460000000000000000e+02,-2.266578901724174699e-01,0.000000000000000000e+00
6.470000000000000000e+02,-2.882400008079727960e-01,0.000000000000000000e+00
6.480000000000000000e+02,-2.615766282258522035e-01,0.000000000000000000e+00
6.490000000000000000e+02,-2.097710914197019050e-01,0.000000000000000000e+00
6.500000000000000000e+02,-1.638760399325592532e-01,0.000000000000000000e+00
6.510000000000000000e+02,-1.493727792477234084e-01,0.000000000000000000e+00
6.520000000000000000e+02,-1.398984928709584297e-01,0.000000000000000000e+00
6.530000000000000000e+02,1.012957508608747781e-01,0.000000000000000000e+00
6.540000000000000000e+02,2.343422827806426745e-01,0.000000000000000000e+00
6.550000000000000000e+02,1.810163852454930167e-01,0.000000000000000000e+00
6.560000000000000000e+02,4.169626641606014039e-01,0.000000000000000000e+00
6.570000000000000000e+02,5.936863034089630009e-01,0.000000000000000000e+00
6.580000000000000000e+02,7.249052792432231218e-02,0.000000000000000000e+00
6.590000000000000000e+02,-1.715123874437726181e-01,0.000000000000000000e+00
6.600000000000000000e+02,-1.000664556789308823e-01,0.000000000000000000e+00
6.610000000000000000e+02,1.437813473742480253e-01,0.000000000000000000e+00
6.620000000000000000e+02,3.120548243549224887e-01,0.000000000000000000e+00
6.630000000000000000e+02,8.764451377167638002e-01,0.000000000000000000e+00
6.640000000000000000e+02,1.474903457695491804e+00,0.000000000000000000e+00
6.650000000000000000e+02,5.914027340707260771e-01,1.000000000000000000e+00
6.660000000000000000e+02,-2.936187997719489143e-02,0.000000000000000000e+00
6.670000000000000000e+02,-1.329047177952586388e-02,0.000000000000000000e+00
6.680000000000000000e+02,-7.583518318939594383e-02,0.000000000000000000e+00
6.690000000000000000e+02,-6.912198224697370386e-02,0.000000000000000000e+00
6.700000000000000000e+02,8.399796171429027569e-02,0.000000000000000000e+00
6.710000000000000000e+02,-2.798219205481086800e-03,0.000000000000000000e+00
6.720000000000000000e+02,1.969591871560823215e-01,0.000000000000000000e+00
6.730000000000000000e+02,8.039822505546928566e-02,0.000000000000000000e+00
6.740000000000000000e+02,4.288659547448976372e-01,0.000000000000000000e+00
6.750000000000000000e+02,4.508782166195757224e-01,0.000000000000000000e+00
6.760000000000000000e+02,5.700704330453288948e-01,0.000000000000000000e+00
6.770000000000000000e+02,9.553370786369976830e-01,0.000000000000000000e+00
6.780000000000000000e+02,1.376351371517136046e+00,0.000000000000000000e+00
6.790000000000000000e+02,1.148582390357215433e+00,0.000000000000000000e+00
6.800000000000000000e+02,1.198052198263749091e+00,0.000000000000000000e+00
6.810000000000000000e+02,4.789075737438972524e-01,0.000000000000000000e+00
6.820000000000000000e+02,-1.898000273691068385e-01,0.000000000000000000e+00
6.830000000000000000e+02,-9.293346478869102256e-01,0.000000000000000000e+00
6.840000000000000000e+02,-1.076596417969490460e+00,0.000000000000000000e+00
6.850000000000000000e+02,-1.207306073798483981e+00,0.000000000000000000e+00
6.860000000000000000e+02,-1.121054808553081150e+00,0.000000000000000000e+00
6.870000000000000000e+02,-9.991308906105096366e-01,0.000000000000000000e+00
6.880000000000000000e+02,-9.154345467603698383e-01,0.000000000000000000e+00
6.890000000000000000e+02,-8.090158153360846871e-01,0.000000000000000000e+00
6.900000000000000000e+02,-5.664007820712405605e-01,0.000000000000000000e+00
6.910000000000000000e+02,-5.375201376726809199e-01,0.000000000000000000e+00
6.920000000000000000e+02,-2.625085244357616143e-01,0.000000000000000000e+00
6.930000000000000000e+02,-3.611251423150437789e-01,0.000000000000000000e+00
6.940000000000000000e+02,-2.730079065565084728e-01,0.000000000000000000e+00
6.950000000000000000e+02,-4.317000312291720543e-01,0.000000000000000000e+00
6.960000000000000000e+02,-2.934322873707623236e-01,0.000000000000000000e+00
6.970000000000000000e+02,-3.390894926902897621e-01,0.000000000000000000e+00
6.980000000000000000e+02,-2.501445783240862086e-01,0.000000000000000000e+00
6.990000000000000000e+02,-1.259232336273167219e-01,0.000000000000000000e+00
7.000000000000000000e+02,-1.039090883272787841e-01,0.000000000000000000e+00
7.010000000000000000e+02,1.538853795206112374e-01,0.000000000000000000e+00
7.020000000000000000e+02,2.422707378637233289e-01,0.000000000000000000e+00
7.030000000000000000e+02,4.519719233863170316e-01,0.000000000000000000e+00
7.040000000000000000e+02,3.675542295998781572e-01,0.000000000000000000e+00
7.050000000000000000e+02,-1.496256659249690646e-01,0.000000000000000000e+00
7.060000000000000000e+02,-1.390528975960710067e-01,0.000000000000000000e+00
7.070000000000000000e+02,-1.922816793389125201e-01,0.000000000000000000e+00
7.080000000000000000e+02,3.261576739644849177e-01,0.000000000000000000e+00
7.090000000000000000e+02,4.655944178329440297e-01,0.000000000000000000e+00
7.100000000000000000e+02,9.981294661288191428e-01,0.000000000000000000e+00
7.110000000000000000e+02,3.882285116568811034e-01,0.000000000000000000e+00
7.120000000000000000e+02,6.476319359491124195e-02,0.000000000000000000e+00
7.130000000000000000e+02,2.487410927790312531e-01,0.000000000000000000e+00
7.140000000000000000e+02,8.151265186194806001e-02,0.000000000000000000e+00
7.150000000000000000e+02,1.342339637721230439e-01,0.000000000000000000e+00
7.160000000000000000e+02,2.269681674004097871e-01,0.000000000000000000e+00
7.170000000000000000e+02,1.202743455127202460e-01,0.000000000000000000e+00
7.180000000000000000e+02,3.667325448937133747e-01,0.000000000000000000e+00
7.190000000000000000e+02,1.794198394370321581e-01,0.000000000000000000e+00
7.200000000000000000e+02,4.737364640537957139e-01,0.000000000000000000e+00
7.210000000000000000e+02,5.121950704518913877e-01,0.000000000000000000e+00
7.220000000000000000e+02,6.713061658463550518e-01,0.000000000000000000e+00
7.230000000000000000e+02,8.299936696410147308e-01,0.000000000000000000e+00
7.240000000000000000e+02,1.143102397500979528e+00,0.000000000000000000e+00
7.250000000000000000e+02,1.260811036372297744e+00,0.000000000000000000e+00
7.260000000000000000e+02,1.161395112944082708e+00,0.000000000000000000e+00
7.270000000000000000e+02,9.185691154203058373e-01,0.000000000000000000e+00
7.280000000000000000e+02,2.453923294184879311e-01,0.000000000000000000e+00
7.290000000000000000e+02,-6.365129396031425912e-01,1.000000000000000000e+00
7.300000000000000000e+02,-1.062008486490330972e+00,0.000000000000000000e+00
7.310000000000000000e+02,-1.167748708452390982e+00,0.000000000000000000e+00
7.320000000000000000e+02,-1.332495755658343661e+00,0.000000000000000000e+00
7.330000000000000000e+02,-1.117912504775446347e+00,0.000000000000000000e+00
7.340000000000000000e+02,-1.072066714149513045e+00,0.000000000000000000e+00
7.350000000000000000e+02,-8.720154280393223045e-01,0.000000000000000000e+00
7.360000000000000000e+02,-6.498887132189512528e-01,0.000000000000000000e+00
7.370000000000000000e+02,-6.005196832109317429e-01,0.000000000000000000e+00
7.380000000000000000e+02,-5.500352325984008139e-01,0.000000000000000000e+00
7.390000000000000000e+02,-4.978631775430976125e-01,0.000000000000000000e+00
7.400000000000000000e+02,-4.437960171490386574e-01,0.000000000000000000e+00
7.410000000000000000e+02,-3.803644024177342264e-01,0.000000000000000000e+00
7.420000000000000000e+02,-3.461499499754130960e-01,0.000000000000000000e+00
7.430000000000000000e+02,-4.178154850988596292e-01,0.000000000000000000e+00
7.440000000000000000e+02,-1.918333763376541823e-01,0.000000000000000000e+00
7.450000000000000000e+02,-2.669750714679823833e-01,0.000000000000000000e+00
7.460000000000000000e+02,-2.020738407007525994e-01,0.000000000000000000e+00
7.470000000000000000e+02,-1.404979323327817942e-01,0.000000000000000000e+00
7.480000000000000000e+02,-9.437711006877125275e-02,0.000000000000000000e+00
7.490000000000000000e+02,-2.828673023600261280e-02,0.000000000000000000e+00
7.500000000000000000e+02,-1.197572845710996071e-02,0.000000000000000000e+00
7.510000000000000000e+02,1.931910668474522141e-01,0.000000000000000000e+00
7.520000000000000000e+02,1.874039961866020010e-01,0.000000000000000000e+00
7.530000000000000000e+02,3.283242106715998365e-01,0.000000000000000000e+00
7.540000000000000000e+02,6.189442704785765859e-01,0.000000000000000000e+00
7.550000000000000000e+02,4.550436920472766822e-01,0.000000000000000000e+00
7.560000000000000000e+02,-1.684997423586836740e-01,0.000000000000000000e+00
7.570000000000000000e+02,-3.533207352407468499e-02,0.000000000000000000e+00
7.580000000000000000e+02,-5.077089908432896870e-02,0.000000000000000000e+00
7.590000000000000000e+02,2.397095439104026393e-01,0.000000000000000000e+00
7.600000000000000000e+02,3.005681303569766039e-01,0.000000000000000000e+00
7.610000000000000000e+02,1.096460999633292799e+00,0.000000000000000000e+00
7.620000000000000000e+02,8.532323080645729529e-01,0.000000000000000000e+00
7.630000000000000000e+02,1.828102163941635883e-01,1.000000000000000000e+00
7.640000000000000000e+02,-1.671778814840296501e-01,0.000000000000000000e+00
7.650000000000000000e+02,-1.004240106236912455e-01,0.000000000000000000e+00
7.660000000000000000e+02,-1.003958338431999303e-01,0.000000000000000000e+00
7.670000000000000000e+02,-6.164776969407945867e-02,0.000000000000000000e+00
7.680000000000000000e+02,-8.372613864306927001e-02,0.000000000000000000e+00
7.690000000000000000e+02,9.860427967940389726e-02,0.000000000000000000e+00
7.700000000000000000e+02,1.535153699761928892e-01,0.000000000000000000e+00
7.710000000000000000e+02,3.244431370354179389e-01,0.000000000000000000e+00
7.720000000000000000e+02,2.442937734912619396e-01,0.000000000000000000e+00
7.730000000000000000e+02,6.968363780844022415e-01,0.000000000000000000e+00
7.740000000000000000e+02,6.495440242604511027e-01,0.000000000000000000e+00
7.750000000000000000e+02,1.059818680195382168e+00,0.000000000000000000e+00
7.760000000000000000e+02,1.169737591916019115e+00,0.000000000000000000e+00
7.770000000000000000e+02,1.221789800513995550e+00,0.000000000000000000e+00
7.780000000000000000e+02,9.264852189596658461e-01,0.000000000000000000e+00
7.790000000000000000e+02,2.342425319762476976e-02,0.000000000000000000e+00
7.800000000000000000e+02,-4.491529174660290336e-01,0.000000000000000000e+00
7.810000000000000000e+02,-1.088956948182747020e+00,0.000000000000000000e+00
7.820000000000000000e+02,-1.015175857344300825e+00,0.000000000000000000e+00
7.830000000000000000e+02,-1.175434775687753897e+00,0.000000000000000000e+00
7.840000000000000000e+02,-1.003379666304448525e+00,0.000000000000000000e+00
7.850000000000000000e+02,-8.984223425294035614e-01,0.000000000000000000e+00
7.860000000000000000e+02,-7.621457025024820364e-01,0.000000000000000000e+00
7.870000000000000000e+02,-6.396162000861768115e-01,0.000000000000000000e+00
7.880000000000000000e+02,-5.644726805389843616e-01,0.000000000000000000e+00
7.890000000000000000e+02,-4.882179717640694472e-01,0.000000000000000000e+00
7.900000000000000000e+02,-4.453138530390851058e-01,0.000000000000000000e+00
7.910000000000000000e+02,-3.774549010831614315e-01,0.000000000000000000e+00
7.920000000000000000e+02,-2.912016879855170437e-01,0.000000000000000000e+00
7.930000000000000000e+02,-3.079975468951858253e-01,0.000000000000000000e+00
7.940000000000000000e+02,-4.125491791659167684e-01,0.000000000000000000e+00
7.950000000000000000e+02,-2.075232553451027417e-01,0.000000000000000000e+00
7.960000000000000000e+02,-2.518523936162953003e-01,0.000000000000000000e+00
7.970000000000000000e+02,-9.698922120063713237e-02,0.000000000000000000e+00
7.980000000000000000e+02,4.716033972123044073e-04,0.000000000000000000e+00
7.990000000000000000e+02,-1.974894780738898833e-02,0.000000000000000000e+00
8.000000000000000000e+02,-4.139218028312929148e-02,0.000000000000000000e+00
8.010000000000000000e+02,6.430448339917038680e-02,0.000000000000000000e+00
8.020000000000000000e+02,2.625311284231620079e-01,0.000000000000000000e+00
8.030000000000000000e+02,2.862195624049163056e-01,0.000000000000000000e+00
8.040000000000000000e+02,4.747980255122115634e-01,0.000000000000000000e+00
8.050000000000000000e+02,7.160286929922686783e-01,0.000000000000000000e+00
8.060000000000000000e+02,8.800535305677809061e-02,0.000000000000000000e+00
8.070000000000000000e+02,-1.616845797853439792e-01,0.000000000000000000e+00
8.080000000000000000e+02,-5.209111434729885720e-02,0.000000000000000000e+00
8.090000000000000000e+02,1.068290212401044464e-01,0.000000000000000000e+00
8.100000000000000000e+02,7.101938555701441114e-02,0.000000000000000000e+00
8.110000000000000000e+02,7.116611550302087696e-01,0.000000000000000000e+00
8.120000000000000000e+02,1.672202873393691114e+00,0.000000000000000000e+00
8.130000000000000000e+02,8.765054717322565692e-01,1.000000000000000000e+00
8.140000000000000000e+02,1.105378350901240203e-01,0.000000000000000000e+00
8.150000000000000000e+02,-2.251210755178504608e-01,0.000000000000000000e+00
8.160000000000000000e+02,-1.342091362417149880e-01,0.000000000000000000e+00
8.170000000000000000e+02,-1.419615173025732535e-01,0.000000000000000000e+00
8.180000000000000000e+02,-9.537816999875924073e-02,0.000000000000000000e+00
8.190000000000000000e+02,-1.767275010494127538e-02,0.000000000000000000e+00
8.200000000000000000e+02,3.947187403335821604e-02,0.000000000000000000e+00
8.210000000000000000e+02,1.109496076548550231e-01,0.000000000000000000e+00
8.220000000000000000e+02,2.875974835664877327e-01,0.000000000000000000e+00
8.230000000000000000e+02,2.402774795475107472e-01,0.000000000000000000e+00
8.240000000000000000e+02,4.516301139124978548e-01,0.000000000000000000e+00
8.250000000000000000e+02,7.924667387469640500e-01,0.000000000000000000e+00
8.260000000000000000e+02,1.125616909208604577e+00,0.000000000000000000e+00
8.270000000000000000e+02,1.116226978843304796e+00,0.000000000000000000e+00
8.280000000000000000e+02,1.198645113447957211e+00,0.000000000000000000e+00
8.290000000000000000e+02,4.734900020069847115e-01,0.000000000000000000e+00
8.300000000000000000e+02,-1.688986677970305550e-01,0.000000000000000000e+00
8.310000000000000000e+02,-8.708966736945329412e-01,0.000000000000000000e+00
8.320000000000000000e+02,-9.085099947817157906e-01,0.000000000000000000e+00
8.330000000000000000e+02,-1.116669541442978586e+00,0.000000000000000000e+00
8.340000000000000000e+02,-9.909210188789092655e-01,0.000000000000000000e+00
8.350000000000000000e+02,-9.661428108693321803e-01,0.000000000000000000e+00
8.360000000000000000e+02,-7.793342127729778746e-01,0.000000000000000000e+00
8.370000000000000000e+02,-6.829556993462971848e-01,0.000000000000000000e+00
8.380000000000000000e+02,-4.646394070561509215e-01,0.000000000000000000e+00
8.390000000000000000e+02,-5.132467513550184046e-01,0.000000000000000000e+00
8.400000000000000000e+02,-2.692757620917172190e-01,0.000000000000000000e+00
8.410000000000000000e+02,-4.288601638812048478e-01,0.000000000000000000e+00
8.420000000000000000e+02,-3.202880342372633193e-01,0.000000000000000000e+00
8.430000000000000000e+02,-3.004161839163655978e-01,0.000000000000000000e+00
8.440000000000000000e+02,-2.594761991146679603e-01,0.000000000000000000e+00
8.450000000000000000e+02,-2.816389401240158019e-01,0.000000000000000000e+00
8.460000000000000000e+02,-1.743683626682573096e-01,0.000000000000000000e+00
8.470000000000000000e+02,-3.055503309834184944e-01,0.000000000000000000e+00
8.480000000000000000e+02,-3.898795715478718671e-02,0.000000000000000000e+00
8.490000000000000000e+02,-3.135015387829544892e-02,0.000000000000000000e+00
8.500000000000000000e+02,6.927276337554506835e-02,0.000000000000000000e+00
8.510000000000000000e+02,1.991036103642785937e-01,0.000000000000000000e+00
8.520000000000000000e+02,4.394811520523411175e-01,0.000000000000000000e+00
8.530000000000000000e+02,7.783131278741889369e-01,0.000000000000000000e+00
8.540000000000000000e+02,2.945510160536438105e-01,0.000000000000000000e+00
8.550000000000000000e+02,-8.193635604850425802e-02,0.000000000000000000e+00
8.560000000000000000e+02,9.577464884114293697e-02,0.000000000000000000e+00
8.570000000000000000e+02,5.048833906913538505e-02,0.000000000000000000e+00
8.580000000000000000e+02,2.177675996447900053e-01,0.000000000000000000e+00
8.590000000000000000e+02,5.790081353592493318e-01,0.000000000000000000e+00
8.600000000000000000e+02,1.225494918689455037e+00,0.000000000000000000e+00
8.610000000000000000e+02,5.417090172389297242e-01,1.000000000000000000e+00
8.620000000000000000e+02,1.629346503497827170e-01,0.000000000000000000e+00
8.630000000000000000e+02,8.916474790608176770e-03,0.000000000000000000e+00
8.640000000000000000e+02,-7.716328942976925787e-02,0.000000000000000000e+00
8.650000000000000000e+02,-1.279418302240707961e-01,0.000000000000000000e+00
8.660000000000000000e+02,4.950556300988892544e-02,0.000000000000000000e+00
8.670000000000000000e+02,4.681521065273399479e-02,0.000000000000000000e+00
8.680000000000000000e+02,-3.136269524426014022e-03,0.000000000000000000e+00
8.690000000000000000e+02,2.159736358805063317e-01,0.000000000000000000e+00
8.700000000000000000e+02,2.862816611879195339e-01,0.000000000000000000e+00
8.710000000000000000e+02,4.895773529897173293e-01,0.000000000000000000e+00
8.720000000000000000e+02,5.814922596219981310e-01,0.000000000000000000e+00
8.730000000000000000e+02,8.735238401726492796e-01,0.000000000000000000e+00
8.740000000000000000e+02,1.120605691115602376e+00,0.000000000000000000e+00
8.750000000000000000e+02,1.146872069083946677e+00,0.000000000000000000e+00
8.760000000000000000e+02,1.161923488364513535e+00,0.000000000000000000e+00
8.770000000000000000e+02,7.187115071423626489e-01,0.000000000000000000e+00
8.780000000000000000e+02,1.538262864479294223e-01,0.000000000000000000e+00
8.790000000000000000e+02,-7.915280555356992709e-01,0.000000000000000000e+00
8.800000000000000000e+02,-1.079638802248676921e+00,0.000000000000000000e+00
8.810000000000000000e+02,-1.333555945678512655e+00,0.000000000000000000e+00
8.820000000000000000e+02,-1.212039338880285921e+00,0.000000000000000000e+00
8.830000000000000000e+02,-1.114277600076429398e+00,0.000000000000000000e+00
8.840000000000000000e+02,-9.793970889648075939e-01,0.000000000000000000e+00
8.850000000000000000e+02,-7.894221665090686013e-01,0.000000000000000000e+00
8.860000000000000000e+02,-6.568979392124641992e-01,0.000000000000000000e+00
8.870000000000000000e+02,-5.308950197980611962e-01,0.000000000000000000e+00
8.880000000000000000e+02,-4.259302473138215084e-01,0.000000000000000000e+00
8.890000000000000000e+02,-4.034952716502222536e-01,0.000000000000000000e+00
8.900000000000000000e+02,-2.847939731593573942e-01,0.000000000000000000e+00
8.910000000000000000e+02,-3.104141133992717183e-01,0.000000000000000000e+00
8.920000000000000000e+02,-3.073650027914014982e-01,0.000000000000000000e+00
8.930000000000000000e+02,-2.667413589414944775e-01,0.000000000000000000e+00
8.940000000000000000e+02,-2.580578950429731622e-01,0.000000000000000000e+00
8.950000000000000000e+02,-2.857067487473111678e-01,0.000000000000000000e+00
8.960000000000000000e+02,-1.205585024367370472e-01,0.000000000000000000e+00
8.970000000000000000e+02,-4.333649612670818774e-02,0.000000000000000000e+00
8.980000000000000000e+02,-5.496810970283444453e-02,0.000000000000000000e+00
8.990000000000000000e+02,9.342424506358565361e-02,0.000000000000000000e+00
9.000000000000000000e+02,3.478100706130236586e-01,0.000000000000000000e+00
9.010000000000000000e+02,4.577885799328733074e-01,0.000000000000000000e+00
9.020000000000000000e+02,-1.539591041213508871e-01,0.000000000000000000e+00
9.030000000000000000e+02,-7.440734097294313121e-02,0.000000000000000000e+00
9.040000000000000000e+02,-1.587749242552805307e-01,0.000000000000000000e+00
9.050000000000000000e+02,1.288493137986814752e-01,0.000000000000000000e+00
9.060000000000000000e+02,3.773389649762485809e-01,0.000000000000000000e+00
9.070000000000000000e+02,8.674204760395261005e-01,0.000000000000000000e+00
9.080000000000000000e+02,6.047887436590814181e-01,0.000000000000000000e+00
9.090000000000000000e+02,1.161963259580455349e-01,0.000000000000000000e+00
9.100000000000000000e+02,1.303147060038631067e-01,0.000000000000000000e+00
9.110000000000000000e+02,3.851856299916624378e-03,0.000000000000000000e+00
9.120000000000000000e+02,1.631148998249670745e-01,0.000000000000000000e+00
9.130000000000000000e+02,8.748200222486800237e-02,0.000000000000000000e+00
9.140000000000000000e+02,2.695354008576384408e-01,0.000000000000000000e+00
9.150000000000000000e+02,1.219531764236596871e-01,0.000000000000000000e+00
9.160000000000000000e+02,3.290343958756539733e-01,0.000000000000000000e+00
9.170000000000000000e+02,4.235094759739784220e-01,0.000000000000000000e+00
9.180000000000000000e+02,4.754552881123372265e-01,0.000000000000000000e+00
9.190000000000000000e+02,7.273210108172298849e-01,0.000000000000000000e+00
9.200000000000000000e+02,8.755925154615398220e-01,0.000000000000000000e+00
9.210000000000000000e+02,1.004361996094324416e+00,0.000000000000000000e+00
9.220000000000000000e+02,1.366842802427743253e+00,0.000000000000000000e+00
9.230000000000000000e+02,1.260757539596550236e+00,0.000000000000000000e+00
9.240000000000000000e+02,1.009231471581125028e+00,0.000000000000000000e+00
9.250000000000000000e+02,3.958619765269885682e-01,0.000000000000000000e+00
9.260000000000000000e+02,-2.551368285217779919e-01,1.000000000000000000e+00
9.270000000000000000e+02,-8.820636556831189523e-01,0.000000000000000000e+00
9.280000000000000000e+02,-1.099631780852415863e+00,0.000000000000000000e+00
9.290000000000000000e+02,-1.056746270762097595e+00,0.000000000000000000e+00
9.300000000000000000e+02,-1.116082622045509343e+00,0.000000000000000000e+00
9.310000000000000000e+02,-8.817261148952333372e-01,0.000000000000000000e+00
9.320000000000000000e+02,-7.117366709235678490e-01,0.000000000000000000e+00
9.330000000000000000e+02,-6.764552481352323898e-01,0.000000000000000000e+00
9.340000000000000000e+02,-5.771899790172356770e-01,0.000000000000000000e+00
9.350000000000000000e+02,-5.091816350682273340e-01,0.000000000000000000e+00
9.360000000000000000e+02,-2.863841415736377294e-01,0.000000000000000000e+00
9.370000000000000000e+02,-5.411380342035025937e-01,0.000000000000000000e+00
9.380000000000000000e+02,-3.619668897274196384e-01,0.000000000000000000e+00
9.390000000000000000e+02,-4.492652741578027076e-01,0.000000000000000000e+00
9.400000000000000000e+02,-3.441026274291771880e-01,0.000000000000000000e+00
9.410000000000000000e+02,-4.098222375396001760e-01,0.000000000000000000e+00
9.420000000000000000e+02,-3.839126920833519363e-01,0.000000000000000000e+00
9.430000000000000000e+02,-4.183141508625102811e-01,0.000000000000000000e+00
9.440000000000000000e+02,-1.525206219344314162e-01,0.000000000000000000e+00
9.450000000000000000e+02,-1.915905814554557385e-01,0.000000000000000000e+00
9.460000000000000000e+02,-2.854550400361497223e-02,0.000000000000000000e+00
9.470000000000000000e+02,-1.752617541056540884e-01,0.000000000000000000e+00
9.480000000000000000e+02,7.871607508741861048e-02,0.000000000000000000e+00
9.490000000000000000e+02,3.236730588166928518e-03,0.000000000000000000e+00
9.500000000000000000e+02,2.271215600845502836e-01,0.000000000000000000e+00
9.510000000000000000e+02,5.794554998602802209e-01,0.000000000000000000e+00
9.520000000000000000e+02,6.979292317072093299e-01,0.000000000000000000e+00
9.530000000000000000e+02,6.865655618468907706e-02,0.000000000000000000e+00
9.540000000000000000e+02,7.031776014514860840e-02,0.000000000000000000e+00
9.550000000000000000e+02,1.616692561061321837e-02,0.000000000000000000e+00
9.560000000000000000e+02,1.728151939584851859e-01,0.000000000000000000e+00
9.570000000000000000e+02,2.049214164259141879e-01,0.000000000000000000e+00
9.580000000000000000e+02,9.717844196453194749e-01,0.000000000000000000e+00
9.590000000000000000e+02,1.391700872203498918e+00,0.000000000000000000e+00
9.600000000000000000e+02,5.948041991158303787e-01,1.000000000000000000e+00
9.610000000000000000e+02,8.930063403331474359e-03,0.000000000000000000e+00
9.620000000000000000e+02,-7.146795303522832099e-02,0.000000000000000000e+00
9.630000000000000000e+02,-1.526057753005999051e-01,0.000000000000000000e+00
9.640000000000000000e+02,-1.408958536155116847e-01,0.000000000000000000e+00
9.650000000000000000e+02,-4.124876301209618595e-02,0.000000000000000000e+00
9.660000000000000000e+02,-1.071808807484747605e-02,0.000000000000000000e+00
9.670000000000000000e+02,5.581750639795247243e-02,0.000000000000000000e+00
9.680000000000000000e+02,2.069036250245622210e-01,0.000000000000000000e+00
9.690000000000000000e+02,3.277428233076237762e-01,0.000000000000000000e+00
9.700000000000000000e+02,4.358305324660032842e-01,0.000000000000000000e+00
9.710000000000000000e+02,5.464739789213524102e-01,0.000000000000000000e+00
9.720000000000000000e+02,9.443915434481880977e-01,0.000000000000000000e+00
9.730000000000000000e+02,1.021707823667143078e+00,0.000000000000000000e+00
9.740000000000000000e+02,1.162306483986960126e+00,0.000000000000000000e+00
9.750000000000000000e+02,9.687973655193624634e-01,0.000000000000000000e+00
9.760000000000000000e+02,4.398588836081075426e-01,0.000000000000000000e+00
9.770000000000000000e+02,-3.021822788489670342e-01,0.000000000000000000e+00
9.780000000000000000e+02,-8.414848117425839380e-01,0.000000000000000000e+00
9.790000000000000000e+02,-1.231232301379182603e+00,0.000000000000000000e+00
9.800000000000000000e+02,-1.115108105971884589e+00,0.000000000000000000e+00
9.810000000000000000e+02,-1.146273261769311880e+00,0.000000000000000000e+00
9.820000000000000000e+02,-9.645619861967460462e-01,0.000000000000000000e+00
9.830000000000000000e+02,-8.568528931934166204e-01,0.000000000000000000e+00
9.840000000000000000e+02,-7.082184033909046939e-01,0.000000000000000000e+00
9.850000000000000000e+02,-6.442279933822756544e-01,0.000000000000000000e+00
9.860000000000000000e+02,-4.553792401281915314e-01,0.000000000000000000e+00
9.870000000000000000e+02,-4.373589438808089258e-01,0.000000000000000000e+00
9.880000000000000000e+02,-3.285822484098800400e-01,0.000000000000000000e+00
9.890000000000000000e+02,-3.397596881856413398e-01,0.000000000000000000e+00
9.900000000000000000e+02,-4.290097134935523249e-01,0.000000000000000000e+00
9.910000000000000000e+02,-2.484096568903914060e-01,0.000000000000000000e+00
9.920000000000000000e+02,-2.673965068359035469e-01,0.000000000000000000e+00
9.930000000000000000e+02,-2.473433026402139800e-01,0.000000000000000000e+00
9.940000000000000000e+02,-1.723138000291618566e-01,0.000000000000000000e+00
9.950000000000000000e+02,-2.075391205201357891e-01,0.000000000000000000e+00
9.960000000000000000e+02,-1.272499794470620393e-01,0.000000000000000000e+00
9.970000000000000000e+02,-4.659632078398574795e-02,0.000000000000000000e+00
9.980000000000000000e+02,1.073164118266703576e-01,0.000000000000000000e+00
9.990000000000000000e+02,1.511589924705344645e-01,0.000000000000000000e+00
1.000000000000000000e+03,3.239558800279430106e-01,0.000000000000000000e+00
1.001000000000000000e+03,5.567256370843506330e-01,0.000000000000000000e+00
1.002000000000000000e+03,7.155158275598419992e-01,0.000000000000000000e+00
1.003000000000000000e+03,1.628952271392048456e-01,0.000000000000000000e+00
1.004000000000000000e+03,-1.102759156427108866e-01,0.000000000000000000e+00
1.005000000000000000e+03,-8.395534977868346349e-02,0.000000000000000000e+00
1.006000000000000000e+03,1.198842356136595455e-01,0.000000000000000000e+00
1.007000000000000000e+03,1.096643507544830948e-01,0.000000000000000000e+00
1.008000000000000000e+03,6.719540238685988154e-01,0.000000000000000000e+00
1.009000000000000000e+03,1.784499373334644812e+00,0.000000000000000000e+00
1.010000000000000000e+03,8.303951305583007203e-01,1.000000000000000000e+00
1.011000000000000000e+03,5.708937712142438115e-02,0.000000000000000000e+00
1.012000000000000000e+03,-2.238214763393855111e-01,0.000000000000000000e+00
1.013000000000000000e+03,-2.511795661203026775e-01,0.000000000000000000e+00
1.014000000000000000e+03,-8.872368472226965785e-02,0.000000000000000000e+00
1.015000000000000000e+03,-4.359282970390912504e-02,0.000000000000000000e+00
1.016000000000000000e+03,3.562712320456106613e-02,0.000000000000000000e+00
1.017000000000000000e+03,-3.908341381325411423e-02,0.000000000000000000e+00
1.018000000000000000e+03,1.553469913643992228e-01,0.000000000000000000e+00
1.019000000000000000e+03,2.101433006538223902e-01,0.000000000000000000e+00
1.020000000000000000e+03,2.563551747751831589e-01,0.000000000000000000e+00
1.021000000000000000e+03,5.486291766077328047e-01,0.000000000000000000e+00
1.022000000000000000e+03,8.315979161949667020e-01,0.000000000000000000e+00
1.023000000000000000e+03,1.155222112290112069e+00,0.000000000000000000e+00
1.024000000000000000e+03,1.267172968741828054e+00,0.000000000000000000e+00
1.025000000000000000e+03,1.096502018528515254e+00,0.000000000000000000e+00
1.026000000000000000e+03,5.104437225303312120e-01,0.000000000000000000e+00
1.027000000000000000e+03,-2.223080269623637639e-01,0.000000000000000000e+00
1.028000000000000000e+03,-8.089020968459587069e-01,0.000000000000000000e+00
1.029000000000000000e+03,-1.093477789189174043e+00,0.000000000000000000e+00
1.030000000000000000e+03,-1.142291070960045118e+00,0.000000000000000000e+00
1.031000000000000000e+03,-9.788270336240711966e-01,0.000000000000000000e+00
1.032000000000000000e+03,-1.017529990541841567e+00,0.000000000000000000e+00
1.033000000000000000e+03,-8.300003638971843456e-01,0.000000000000000000e+00
1.034000000000000000e+03,-7.426360142853408730e-01,0.000000000000000000e+00
1.035000000000000000e+03,-7.010007851377774157e-01,0.000000000000000000e+00
1.036000000000000000e+03,-4.525854950273972555e-01,0.000000000000000000e+00
1.037000000000000000e+03,-4.596670496089002023e-01,0.000000000000000000e+00
1.038000000000000000e+03,-4.094162504702790195e-01,0.000000000000000000e+00
1.039000000000000000e+03,-5.600880696889617427e-01,0.000000000000000000e+00
1.040000000000000000e+03,-3.857125364282351643e-01,0.000000000000000000e+00
1.041000000000000000e+03,-3.923500782884573601e-01,0.000000000000000000e+00
1.042000000000000000e+03,-2.996685728678151195e-01,0.000000000000000000e+00
1.043000000000000000e+03,-2.101155459493068978e-01,0.000000000000000000e+00
1.044000000000000000e+03,-1.836962205532803039e-01,0.000000000000000000e+00
1.045000000000000000e+03,-2.476390412990829848e-01,0.000000000000000000e+00
1.046000000000000000e+03,-1.990694366732562171e-02,0.000000000000000000e+00
1.047000000000000000e+03,4.707331588878990031e-02,0.000000000000000000e+00
1.048000000000000000e+03,1.651831245669058978e-01,0.000000000000000000e+00
1.049000000000000000e+03,3.216962002355441830e-01,0.000000000000000000e+00
1.050000000000000000e+03,6.109703326418181035e-01,0.000000000000000000e+00
1.051000000000000000e+03,1.580598572243793049e-02,0.000000000000000000e+00
1.052000000000000000e+03,-1.512733859036470563e-01,0.000000000000000000e+00
1.053000000000000000e+03,-1.290903637836011419e-01,0.000000000000000000e+00
1.054000000000000000e+03,1.246398883927704593e-02,0.000000000000000000e+00
1.055000000000000000e+03,1.748931106500442312e-01,0.000000000000000000e+00
1.056000000000000000e+03,6.972406504369915714e-01,0.000000000000000000e+00
1.057000000000000000e+03,1.116238625669719653e+00,0.000000000000000000e+00
1.058000000000000000e+03,4.181605345060459555e-01,1.000000000000000000e+00
1.059000000000000000e+03,2.336769038875204929e-01,0.000000000000000000e+00
1.060000000000000000e+03,5.047422432746644788e-02,0.000000000000000000e+00
1.061000000000000000e+03,5.354564016037322710e-02,0.000000000000000000e+00
1.062000000000000000e+03,2.347013067580261750e-02,0.000000000000000000e+00
1.063000000000000000e+03,1.028978183279698477e-01,0.000000000000000000e+00
1.064000000000000000e+03,8.241567954370219995e-02,0.000000000000000000e+00
1.065000000000000000e+03,1.909254520473248895e-01,0.000000000000000000e+00
1.066000000000000000e+03,1.355325354448462805e-01,0.000000000000000000e+00
1.067000000000000000e+03,4.282831278575083278e-01,0.000000000000000000e+00
1.068000000000000000e+03,5.968140969857914646e-01,0.000000000000000000e+00
1.069000000000000000e+03,7.591625527061945933e-01,0.000000000000000000e+00
1.070000000000000000e+03,1.062963903009311650e+00,0.000000000000000000e+00
1.071000000000000000e+03,1.215587638065122711e+00,0.000000000000000000e+00
1.072000000000000000e+03,1.314854215811222415e+00,0.000000000000000000e+00
1.073000000000000000e+03,1.095339016063377580e+00,0.000000000000000000e+00
1.074000000000000000e+03,7.722759077466894162e-01,0.000000000000000000e+00
1.075000000000000000e+03,-7.950581045332752450e-02,0.000000000000000000e+00
1.076000000000000000e+03,-4.980034737024671143e-01,0.000000000000000000e+00
1.077000000000000000e+03,-1.145041620950175920e+00,0.000000000000000000e+00
1.078000000000000000e+03,-1.110909152119822663e+00,0.000000000000000000e+00
1.079000000000000000e+03,-1.024146409478176256e+00,0.000000000000000000e+00
1.080000000000000000e+03,-1.017956381443274161e+00,0.000000000000000000e+00
1.081000000000000000e+03,-7.391026711195823884e-01,0.000000000000000000e+00
1.082000000000000000e+03,-6.393036635989816086e-01,0.000000000000000000e+00
1.083000000000000000e+03,-5.653542205882032823e-01,0.000000000000000000e+00
1.084000000000000000e+03,-4.853607894949120705e-01,0.000000000000000000e+00
1.085000000000000000e+03,-3.130571175094965519e-01,0.000000000000000000e+00
1.086000000000000000e+03,-2.811144191644591728e-01,0.000000000000000000e+00
1.087000000000000000e+03,-3.014385227676725787e-01,0.000000000000000000e+00
1.088000000000000000e+03,-3.087825162122476153e-01,0.000000000000000000e+00
1.089000000000000000e+03,-3.621570814706076002e-01,0.000000000000000000e+00
1.090000000000000000e+03,-1.511937957615747119e-01,0.000000000000000000e+00
1.091000000000000000e+03,-3.484565612878922636e-01,0.000000000000000000e+00
1.092000000000000000e+03,8.017140046542368947e-02,0.000000000000000000e+00
1.093000000000000000e+03,1.202073723927042093e-01,0.000000000000000000e+00
1.094000000000000000e+03,7.659510956473583598e-02,0.000000000000000000e+00
1.095000000000000000e+03,2.785988432291856554e-01,0.000000000000000000e+00
1.096000000000000000e+03,6.280668361109249531e-01,0.000000000000000000e+00
1.097000000000000000e+03,1.183718407249005899e-01,0.000000000000000000e+00
1.098000000000000000e+03,-5.174705630781842314e-02,0.000000000000000000e+00
1.099000000000000000e+03,-1.342010913596581867e-01,0.000000000000000000e+00
1.100000000000000000e+03,-1.292197987748019972e-01,0.000000000000000000e+00
1.101000000000000000e+03,1.779670197837026901e-01,0.000000000000000000e+00
1.102000000000000000e+03,5.909525187002749869e-01,0.000000000000000000e+00
1.103000000000000000e+03,8.781859270864350586e-01,0.000000000000000000e+00
1.104000000000000000e+03,9.392194512675781926e-02,0.000000000000000000e+00
1.105000000000000000e+03,9.629394423162507266e-02,0.000000000000000000e+00
1.106000000000000000e+03,-1.497920635497783891e-02,0.000000000000000000e+00
1.107000000000000000e+03,-3.583374772612439585e-02,0.000000000000000000e+00
1.108000000000000000e+03,5.052105556840397887e-02,0.000000000000000000e+00
1.109000000000000000e+03,6.284967754364004233e-02,0.000000000000000000e+00
1.110000000000000000e+03,2.136572193959869470e-01,0.000000000000000000e+00
1.111000000000000000e+03,2.415747739091756163e-01,0.000000000000000000e+00
1.112000000000000000e+03,3.024596284610232555e-01,0.000000000000000000e+00
1.113000000000000000e+03,4.059619255192284948e-01,0.000000000000000000e+00
1.114000000000000000e+03,4.758941649540973096e-01,0.000000000000000000e+00
1.115000000000000000e+03,6.908106831025233596e-01,0.000000000000000000e+00
1.116000000000000000e+03,1.095911533500106172e+00,0.000000000000000000e+00
1.117000000000000000e+03,1.165529377583439663e+00,0.000000000000000000e+00
1.118000000000000000e+03,1.279835407793211921e+00,0.000000000000000000e+00
1.119000000000000000e+03,1.153380874108247189e+00,0.000000000000000000e+00
1.120000000000000000e+03,6.202778321151458663e-01,0.000000000000000000e+00
1.121000000000000000e+03,-5.770410999550625725e-02,0.000000000000000000e+00
1.122000000000000000e+03,-6.955646474045983352e-01,1.000000000000000000e+00
1.123000000000000000e+03,-1.008979598122681676e+00,0.000000000000000000e+00
1.124000000000000000e+03,-1.109446662703343911e+00,0.000000000000000000e+00
1.125000000000000000e+03,-1.082256761494255093e+00,0.000000000000000000e+00
1.126000000000000000e+03,-9.021726420437776728e-01,0.000000000000000000e+00
1.127000000000000000e+03,-8.179670592084258285e-01,0.000000000000000000e+00
1.128000000000000000e+03,-7.054305769707378548e-01,0.000000000000000000e+00
1.129000000000000000e+03,-6.209911146417992356e-01,0.000000000000000000e+00
1.130000000000000000e+03,-4.945946821440103669e-01,0.000000000000000000e+00
1.131000000000000000e+03,-3.771769314268422213e-01,0.000000000000000000e+00
1.132000000000000000e+03,-4.717322712641339733e-01,0.000000000000000000e+00
1.133000000000000000e+03,-3.455906130748844785e-01,0.000000000000000000e+00
1.134000000000000000e+03,-5.006645307056278860e-01,0.000000000000000000e+00
1.135000000000000000e+03,-4.067763256771533831e-01,0.000000000000000000e+00
1.136000000000000000e+03,-3.134926731106024711e-01,0.000000000000000000e+00
1.137000000000000000e+03,-3.999711246912900919e-01,0.000000000000000000e+00
1.138000000000000000e+03,-1.652548250304889943e-01,0.000000000000000000e+00
1.139000000000000000e+03,-2.923198523375975522e-01,0.000000000000000000e+00
1.140000000000000000e+03,-2.102388262251617124e-01,0.000000000000000000e+00
1.141000000000000000e+03,-1.628761765009879847e-01,0.000000000000000000e+00
1.142000000000000000e+03,-8.781702400403330888e-02,0.000000000000000000e+00
1.143000000000000000e+03,1.106804776753769343e-01,0.000000000000000000e+00
1.144000000000000000e+03,1.388881979468700179e-01,0.000000000000000000e+00
1.145000000000000000e+03,2.345220983965604078e-01,0.000000000000000000e+00
1.146000000000000000e+03,4.728147204048563368e-01,0.000000000000000000e+00
1.147000000000000000e+03,5.372694039889304163e-01,0.000000000000000000e+00
1.148000000000000000e+03,-2.030502438121887243e-01,0.000000000000000000e+00
1.149000000000000000e+03,-2.456162949708691479e-02,0.000000000000000000e+00
1.150000000000000000e+03,-1.699400687889193184e-01,0.000000000000000000e+00
1.151000000000000000e+03,1.664363840069065514e-01,0.000000000000000000e+00
1.152000000000000000e+03,2.424906232594953026e-01,0.000000000000000000e+00
1.153000000000000000e+03,1.107695125798114688e+00,0.000000000000000000e+00
1.154000000000000000e+03,1.036876203215535863e+00,0.000000000000000000e+00
1.155000000000000000e+03,3.785591443865722328e-01,1.000000000000000000e+00
1.156000000000000000e+03,6.597512940573393991e-02,0.000000000000000000e+00
1.157000000000000000e+03,-2.658335510491728892e-01,0.000000000000000000e+00
1.158000000000000000e+03,-5.220650164945170313e-02,0.000000000000000000e+00
1.159000000000000000e+03,-1.209551350820372156e-01,0.000000000000000000e+00
1.160000000000000000e+03,-8.616538607912184455e-02,0.000000000000000000e+00
1.161000000000000000e+03,4.951076072035974496e-02,0.000000000000000000e+00
1.162000000000000000e+03,8.488186477148054743e-02,0.000000000000000000e+00
1.163000000000000000e+03,2.849877143259745838e-01,0.000000000000000000e+00
1.164000000000000000e+03,3.486791157336717739e-01,0.000000000000000000e+00
1.165000000000000000e+03,4.427745323063544958e-01,0.000000000000000000e+00
1.166000000000000000e+03,7.676135947136979443e-01,0.000000000000000000e+00
1.167000000000000000e+03,9.659895879378103123e-01,0.000000000000000000e+00
1.168000000000000000e+03,1.137211310947280785e+00,0.000000000000000000e+00
1.169000000000000000e+03,1.157258611222435229e+00,0.000000000000000000e+00
1.170000000000000000e+03,9.010776017257222659e-01,0.000000000000000000e+00
1.171000000000000000e+03,3.651908566261132805e-01,0.000000000000000000e+00
1.172000000000000000e+03,-4.703746613200010529e-01,0.000000000000000000e+00
1.173000000000000000e+03,-9.995224699440196092e-01,0.000000000000000000e+00
1.174000000000000000e+03,-1.039170078870906844e+00,0.000000000000000000e+00
1.175000000000000000e+03,-1.102587321405989362e+00,0.000000000000000000e+00
1.176000000000000000e+03,-9.395400548013502773e-01,0.000000000000000000e+00
1.177000000000000000e+03,-9.801819478932367602e-01,0.000000000000000000e+00
1.178000000000000000e+03,-7.027268115379247115e-01,0.000000000000000000e+00
1.179000000000000000e+03,-6.887983585545183196e-01,0.000000000000000000e+00
1.180000000000000000e+03,-5.948265726524089025e-01,0.000000000000000000e+00
1.181000000000000000e+03,-4.972712955415455327e-01,0.000000000000000000e+00
1.182000000000000000e+03,-3.915952280662259311e-01,0.000000000000000000e+00
1.183000000000000000e+03,-3.493198675894786942e-01,0.000000000000000000e+00
1.184000000000000000e+03,-3.597657303798966755e-01,0.000000000000000000e+00
1.185000000000000000e+03,-5.084161348473981157e-01,0.000000000000000000e+00
1.186000000000000000e+03,-3.310066003064954798e-01,0.000000000000000000e+00
1.187000000000000000e+03,-3.632624090032450237e-01,0.000000000000000000e+00
1.188000000000000000e+03,-3.739804256382308623e-01,0.000000000000000000e+00
1.189000000000000000e+03,-3.683536616282588882e-01,0.000000000000000000e+00
1.190000000000000000e+03,-2.310804957168748619e-01,0.000000000000000000e+00
1.191000000000000000e+03,-2.301868997892278224e-01,0.000000000000000000e+00
1.192000000000000000e+03,-9.614417767667022066e-03,0.000000000000000000e+00
1.193000000000000000e+03,-6.042990785942278092e-02,0.000000000000000000e+00
1.194000000000000000e+03,7.882491027097564273e-02,0.000000000000000000e+00
1.195000000000000000e+03,2.913370411568786400e-01,0.000000000000000000e+00
1.196000000000000000e+03,5.220508710682036924e-01,0.000000000000000000e+00
1.197000000000000000e+03,-3.960266201000630509e-02,0.000000000000000000e+00
1.198000000000000000e+03,-1.297680976588419244e-01,0.000000000000000000e+00
1.199000000000000000e+03,-7.921200588907825746e-02,0.000000000000000000e+00
1.200000000000000000e+03,-3.520619342922048402e-03,0.000000000000000000e+00
1.201000000000000000e+03,1.461493141511168992e-01,0.000000000000000000e+00
1.202000000000000000e+03,4.810318151247605645e-01,0.000000000000000000e+00
1.203000000000000000e+03,1.663615686333062227e+00,0.000000000000000000e+00
1.204000000000000000e+03,8.290754879892000551e-01,1.000000000000000000e+00
1.205000000000000000e+03,1.304242367753667697e-01,0.000000000000000000e+00
1.206000000000000000e+03,-1.969850833438019644e-01,0.000000000000000000e+00
1.207000000000000000e+03,-6.748618747038127863e-02,0.000000000000000000e+00
1.208000000000000000e+03,-1.194212046315718118e-01,0.000000000000000000e+00
1.209000000000000000e+03,9.480430114046144163e-02,0.000000000000000000e+00
1.210000000000000000e+03,3.520452921846324579e-02,0.000000000000000000e+00
1.211000000000000000e+03,1.213463096502979538e-01,0.000000000000000000e+00
1.212000000000000000e+03,3.392505572734877961e-01,0.000000000000000000e+00
1.213000000000000000e+03,3.115412577567368557e-01,0.000000000000000000e+00
1.214000000000000000e+03,5.560510151400435142e-01,0.000000000000000000e+00
1.215000000000000000e+03,6.161049908226099436e-01,0.000000000000000000e+00
1.216000000000000000e+03,9.696540497976917639e-01,0.000000000000000000e+00
1.217000000000000000e+03,1.089253490960488735e+00,0.000000000000000000e+00
1.218000000000000000e+03,1.271493443608281204e+00,0.000000000000000000e+00
1.219000000000000000e+03,1.198208396515087815e+00,0.000000000000000000e+00
1.220000000000000000e+03,5.552613591111502656e-01,0.000000000000000000e+00
1.221000000000000000e+03,-2.227518210634417128e-01,0.000000000000000000e+00
1.222000000000000000e+03,-6.063949767258809409e-01,0.000000000000000000e+00
1.223000000000000000e+03,-9.417403438362430546e-01,0.000000000000000000e+00
1.224000000000000000e+03,-1.062456669740494020e+00,0.000000000000000000e+00
1.225000000000000000e+03,-1.008939090973285158e+00,0.000000000000000000e+00
1.226000000000000000e+03,-7.349691610673351194e-01,0.000000000000000000e+00
1.227000000000000000e+03,-6.403612974059873508e-01,0.000000000000000000e+00
1.228000000000000000e+03,-6.798861049445822369e-01,0.000000000000000000e+00
1.229000000000000000e+03,-5.000610252754595919e-01,0.000000000000000000e+00
1.230000000000000000e+03,-4.370150885625633252e-01,0.000000000000000000e+00
1.231000000000000000e+03,-3.753802987981714745e-01,0.000000000000000000e+00
1.232000000000000000e+03,-3.228148624595523208e-01,0.000000000000000000e+00
1.233000000000000000e+03,-2.803136554200383324e-01,0.000000000000000000e+00
1.234000000000000000e+03,-3.790035340128656838e-01,0.000000000000000000e+00
1.235000000000000000e+03,-2.641341421997809302e-01,0.000000000000000000e+00
1.236000000000000000e+03,-3.588518110036677533e-01,0.000000000000000000e+00
1.237000000000000000e+03,-1.847137895856147405e-01,0.000000000000000000e+00
1.238000000000000000e+03,-3.151428223889639058e-01,0.000000000000000000e+00
1.239000000000000000e+03,-7.736110077152480446e-02,0.000000000000000000e+00
1.240000000000000000e+03,1.521590248775786802e-01,0.000000000000000000e+00
1.241000000000000000e+03,1.035296337122530441e-01,0.000000000000000000e+00
1.242000000000000000e+03,4.005858905793361902e-01,0.000000000000000000e+00
1.243000000000000000e+03,5.651276962487540301e-01,0.000000000000000000e+00
1.244000000000000000e+03,4.574541894316830337e-01,0.000000000000000000e+00
1.245000000000000000e+03,-9.066005756476315514e-02,0.000000000000000000e+00
1.246000000000000000e+03,-1.131378346238558902e-01,0.000000000000000000e+00
1.247000000000000000e+03,-2.549263304090728655e-01,0.000000000000000000e+00
1.248000000000000000e+03,2.058289318127722034e-01,0.000000000000000000e+00
1.249000000000000000e+03,2.167394294024107826e-01,0.000000000000000000e+00
1.250000000000000000e+03,1.069762770210682445e+00,0.000000000000000000e+00
1.251000000000000000e+03,1.018850181302266344e+00,0.000000000000000000e+00
1.252000000000000000e+03,3.474534879205510851e-01,1.000000000000000000e+00
1.253000000000000000e+03,9.090838841956297434e-02,0.000000000000000000e+00
1.254000000000000000e+03,-8.671502191787920644e-02,0.000000000000000000e+00
1.255000000000000000e+03,-2.222173985494842879e-02,0.000000000000000000e+00
1.256000000000000000e+03,4.183217965400126692e-02,0.000000000000000000e+00
1.257000000000000000e+03,1.190932845137893936e-01,0.000000000000000000e+00
1.258000000000000000e+03,2.014396292158097956e-01,0.000000000000000000e+00
1.259000000000000000e+03,2.647320543282384864e-01,0.000000000000000000e+00
1.260000000000000000e+03,3.070102299011768232e-01,0.000000000000000000e+00
1.261000000000000000e+03,5.036436328582732935e-01,0.000000000000000000e+00
1.262000000000000000e+03,6.250017244440542186e-01,0.000000000000000000e+00
1.263000000000000000e+03,8.062996606534650335e-01,0.000000000000000000e+00
1.264000000000000000e+03,1.133584235226287928e+00,0.000000000000000000e+00
1.265000000000000000e+03,1.244587499581478518e+00,0.000000000000000000e+00
1.266000000000000000e+03,1.248481818177371361e+00,0.000000000000000000e+00
1.267000000000000000e+03,9.869267979723455042e-01,0.000000000000000000e+00
1.268000000000000000e+03,2.345357788574868041e-01,0.000000000000000000e+00
1.269000000000000000e+03,-4.812845131642183860e-01,0.000000000000000000e+00
1.270000000000000000e+03,-1.047015687519396554e+00,0.000000000000000000e+00
1.271000000000000000e+03,-1.267146087380820241e+00,0.000000000000000000e+00
1.272000000000000000e+03,-1.158650778891390676e+00,0.000000000000000000e+00
1.273000000000000000e+03,-1.207250690308771857e+00,0.000000000000000000e+00
1.274000000000000000e+03,-9.726512377555981415e-01,0.000000000000000000e+00
1.275000000000000000e+03,-8.586279204929860853e-01,0.000000000000000000e+00
1.276000000000000000e+03,-5.365343046251896952e-01,0.000000000000000000e+00
1.277000000000000000e+03,-5.154413894469609403e-01,0.000000000000000000e+00
1.278000000000000000e+03,-4.044698913105632676e-01,0.000000000000000000e+00
1.279000000000000000e+03,-4.360049159908281347e-01,0.000000000000000000e+00
1.280000000000000000e+03,-4.025477836509709917e-01,0.000000000000000000e+00
1.281000000000000000e+03,-3.851030521986614219e-01,0.000000000000000000e+00
1.282000000000000000e+03,-4.545430703164723418e-01,0.000000000000000000e+00
1.283000000000000000e+03,-4.024575779237203332e-01,0.000000000000000000e+00
1.284000000000000000e+03,-2.395967366196384007e-01,0.000000000000000000e+00
1.285000000000000000e+03,-2.040832551688474550e-01,0.000000000000000000e+00
1.286000000000000000e+03,-9.127170438556826693e-02,0.000000000000000000e+00
1.287000000000000000e+03,-8.382568810321544203e-03,0.000000000000000000e+00
1.288000000000000000e+03,-2.507737583894235206e-02,0.000000000000000000e+00
1.289000000000000000e+03,2.424751288131250793e-01,0.000000000000000000e+00
1.290000000000000000e+03,5.374816468774820111e-01,0.000000000000000000e+00
1.291000000000000000e+03,3.378151668373610000e-02,0.000000000000000000e+00
1.292000000000000000e+03,-1.867190639382660389e-01,0.000000000000000000e+00
1.293000000000000000e+03,-1.458329685405782561e-01,0.000000000000000000e+00
1.294000000000000000e+03,4.738402606027269925e-02,0.000000000000000000e+00
1.295000000000000000e+03,1.795408885069428861e-01,0.000000000000000000e+00
1.296000000000000000e+03,6.014524968585465148e-01,0.000000000000000000e+00
1.297000000000000000e+03,6.876292459403487989e-01,0.000000000000000000e+00
1.298000000000000000e+03,1.243480328989183398e-01,0.000000000000000000e+00
1.299000000000000000e+03,1.934628251263680598e-01,0.000000000000000000e+00
1.300000000000000000e+03,1.020020516725776705e-02,0.000000000000000000e+00
1.301000000000000000e+03,9.997570270980944696e-02,0.000000000000000000e+00
1.302000000000000000e+03,1.127725387366018545e-01,0.000000000000000000e+00
1.303000000000000000e+03,2.151457071310062807e-01,0.000000000000000000e+00
1.304000000000000000e+03,1.435158505653509886e-01,0.000000000000000000e+00
1.305000000000000000e+03,2.745644326903079468e-01,0.000000000000000000e+00
1.306000000000000000e+03,3.134861075548696641e-01,0.000000000000000000e+00
1.307000000000000000e+03,3.548692756218588262e-01,0.000000000000000000e+00
1.308000000000000000e+03,5.167103834245130312e-01,0.000000000000000000e+00
1.309000000000000000e+03,7.055591766774172990e-01,0.000000000000000000e+00
1.310000000000000000e+03,9.249201869244544350e-01,0.000000000000000000e+00
1.311000000000000000e+03,1.226906586264850940e+00,0.000000000000000000e+00
1.312000000000000000e+03,1.165214419666807277e+00,0.000000000000000000e+00
1.313000000000000000e+03,1.104090079801712587e+00,0.000000000000000000e+00
1.314000000000000000e+03,6.513866164006891779e-01,0.000000000000000000e+00
1.315000000000000000e+03,-1.703419812239536646e-01,0.000000000000000000e+00
1.316000000000000000e+03,-7.789661203531959011e-01,1.000000000000000000e+00
1.317000000000000000e+03,-1.028276392323558053e+00,0.000000000000000000e+00
1.318000000000000000e+03,-1.292258790268544733e+00,0.000000000000000000e+00
1.319000000000000000e+03,-1.145912402419732912e+00,0.000000000000000000e+00
1.320000000000000000e+03,-1.027943485162915005e+00,0.000000000000000000e+00
1.321000000000000000e+03,-9.499165897507573231e-01,0.000000000000000000e+00
1.322000000000000000e+03,-6.920353854838663388e-01,0.000000000000000000e+00
1.323000000000000000e+03,-6.420911356504791501e-01,0.000000000000000000e+00
1.324000000000000000e+03,-5.434288957458446312e-01,0.000000000000000000e+00
1.325000000000000000e+03,-3.901310101389640073e-01,0.000000000000000000e+00
1.326000000000000000e+03,-5.680381261508098412e-01,0.000000000000000000e+00
1.327000000000000000e+03,-3.747719667769373597e-01,0.000000000000000000e+00
1.328000000000000000e+03,-4.413096368909780742e-01,0.000000000000000000e+00
1.329000000000000000e+03,-3.118471229505395681e-01,0.000000000000000000e+00
1.330000000000000000e+03,-3.184473612499795769e-01,0.000000000000000000e+00
1.331000000000000000e+03,-3.949349005415659919e-01,0.000000000000000000e+00
1.332000000000000000e+03,-3.156239293550345826e-01,0.000000000000000000e+00
1.333000000000000000e+03,-1.799977945439943661e-01,0.000000000000000000e+00
1.334000000000000000e+03,-1.576313094463380748e-01,0.000000000000000000e+00
1.335000000000000000e+03,-7.455675287192267513e-03,0.000000000000000000e+00
1.336000000000000000e+03,3.232980484169326041e-02,0.000000000000000000e+00
1.337000000000000000e+03,6.812615085636117285e-02,0.000000000000000000e+00
1.338000000000000000e+03,3.864373686829906673e-01,0.000000000000000000e+00
1.339000000000000000e+03,3.678264233513048875e-01,0.000000000000000000e+00
1.340000000000000000e+03,6.242477571113460577e-01,0.000000000000000000e+00
1.341000000000000000e+03,2.645484767085426459e-01,0.000000000000000000e+00
1.342000000000000000e+03,-1.364406802270177743e-01,0.000000000000000000e+00
1.343000000000000000e+03,-1.184333617356407992e-01,0.000000000000000000e+00
1.344000000000000000e+03,4.997883415998134737e-02,0.000000000000000000e+00
1.345000000000000000e+03,1.860417394112052203e-01,0.000000000000000000e+00
1.346000000000000000e+03,3.624384156848473038e-01,0.000000000000000000e+00
1.347000000000000000e+03,1.227548515034302845e+00,0.000000000000000000e+00
1.348000000000000000e+03,7.211805523810812524e-01,1.000000000000000000e+00
1.349000000000000000e+03,3.262996029230541550e-01,0.000000000000000000e+00
1.350000000000000000e+03,-3.986561620969451825e-02,0.000000000000000000e+00
1.351000000000000000e+03,5.246521566785158908e-02,0.000000000000000000e+00
1.352000000000000000e+03,-3.709726897126097017e-02,0.000000000000000000e+00
1.353000000000000000e+03,8.517668913471052039e-02,0.000000000000000000e+00
1.354000000000000000e+03,1.601301351077859259e-01,0.000000000000000000e+00
1.355000000000000000e+03,3.131884666392343308e-01,0.000000000000000000e+00
1.356000000000000000e+03,2.853365091490171479e-01,0.000000000000000000e+00
1.357000000000000000e+03,3.790821169117319922e-01,0.000000000000000000e+00
1.358000000000000000e+03,4.458152614235328381e-01,0.000000000000000000e+00
1.359000000000000000e+03,7.077104646728079596e-01,0.000000000000000000e+00
1.360000000000000000e+03,1.043216411759764872e+00,0.000000000000000000e+00
1.361000000000000000e+03,1.237942134569297581e+00,0.000000000000000000e+00
1.362000000000000000e+03,1.222529240018870755e+00,0.000000000000000000e+00
1.363000000000000000e+03,1.124547378402022124e+00,0.000000000000000000e+00
1.364000000000000000e+03,7.504768229934504209e-01,0.000000000000000000e+00
1.365000000000000000e+03,5.393980365907318636e-02,0.000000000000000000e+00
1.366000000000000000e+03,-7.467293468143907376e-01,0.000000000000000000e+00
1.367000000000000000e+03,-9.558285836217526032e-01,0.000000000000000000e+00
1.368000000000000000e+03,-1.186653398079266175e+00,0.000000000000000000e+00
1.369000000000000000e+03,-1.095377536051929335e+00,0.000000000000000000e+00
1.370000000000000000e+03,-1.031253474336715881e+00,0.000000000000000000e+00
1.371000000000000000e+03,-8.043911420211431462e-01,0.000000000000000000e+00
1.372000000000000000e+03,-6.960586069213883231e-01,0.000000000000000000e+00
1.373000000000000000e+03,-8.174174145004678427e-02,0.000000000000000000e+00
1.374000000000000000e+03,8.783760886430935777e-01,0.000000000000000000e+00
1.375000000000000000e+03,1.681222848081905141e+00,0.000000000000000000e+00
1.376000000000000000e+03,2.389442349471768257e+00,0.000000000000000000e+00
1.377000000000000000e+03,8.328638666687564196e-02,1.000000000000000000e+00
1.378000000000000000e+03,-1.465799696442307010e+00,0.000000000000000000e+00
1.379000000000000000e+03,-1.209539860342251805e+00,0.000000000000000000e+00
1.380000000000000000e+03,-1.562790924280099469e+00,0.000000000000000000e+00
1.381000000000000000e+03,-1.315367475738804970e+00,0.000000000000000000e+00
1.382000000000000000e+03,-1.095996998496687747e+00,0.000000000000000000e+00
1.383000000000000000e+03,-1.097047611547100621e+00,0.000000000000000000e+00
1.384000000000000000e+03,-8.675129603606313022e-01,0.000000000000000000e+00
1.385000000000000000e+03,-6.456565613777970336e-01,0.000000000000000000e+00
1.386000000000000000e+03,-6.212324993261104655e-01,0.000000000000000000e+00
1.387000000000000000e+03,-2.584578545087643509e-01,0.000000000000000000e+00
1.388000000000000000e+03,1.397459521562383622e-01,0.000000000000000000e+00
1.389000000000000000e+03,3.717809082717012936e-01,0.000000000000000000e+00
1.390000000000000000e+03,9.082596869903483139e-01,0.000000000000000000e+00
1.391000000000000000e+03,9.433167640825419475e-01,0.000000000000000000e+00
1.392000000000000000e+03,6.933565686292938457e-01,0.000000000000000000e+00
1.393000000000000000e+03,4.429513018996971696e-01,0.000000000000000000e+00
1.394000000000000000e+03,-1.087089379357932678e-01,0.000000000000000000e+00
1.395000000000000000e+03,-2.470838069431174899e-01,0.000000000000000000e+00
1.396000000000000000e+03,-4.666647350530762628e-01,0.000000000000000000e+00
1.397000000000000000e+03,-6.477191908908087603e-01,0.000000000000000000e+00
1.398000000000000000e+03,-7.407025652694189111e-01,0.000000000000000000e+00
1.399000000000000000e+03,-5.812872570678186968e-01,0.000000000000000000e+00
1.400000000000000000e+03,-7.047887561118837407e-01,0.000000000000000000e+00
1.401000000000000000e+03,-5.256894074405977779e-01,0.000000000000000000e+00
1.402000000000000000e+03,-3.752998483377230077e-01,0.000000000000000000e+00
1.403000000000000000e+03,-3.118763416675479072e-01,0.000000000000000000e+00
1.404000000000000000e+03,-3.129827499801532964e-01,0.000000000000000000e+00
1.405000000000000000e+03,-1.930175426772216818e-01,0.000000000000000000e+00
1.406000000000000000e+03,-9.130379438205957210e-02,0.000000000000000000e+00
1.407000000000000000e+03,-4.619575760996126254e-03,0.000000000000000000e+00
1.408000000000000000e+03,-4.522949062452341629e-02,0.000000000000000000e+00
1.409000000000000000e+03,1.533947710251475083e-01,0.000000000000000000e+00
1.410000000000000000e+03,9.559282570761577780e-02,0.000000000000000000e+00
1.411000000000000000e+03,1.495539393012869644e-01,0.000000000000000000e+00
1.412000000000000000e+03,1.969789786362121931e-01,0.000000000000000000e+00
1.413000000000000000e+03,2.409351410195756937e-01,0.000000000000000000e+00
1.414000000000000000e+03,2.350389575625346228e-01,0.000000000000000000e+00
1.415000000000000000e+03,3.267604368890009159e-01,0.000000000000000000e+00
1.416000000000000000e+03,3.510737808897450574e-01,0.000000000000000000e+00
1.417000000000000000e+03,3.443255808362503112e-01,0.000000000000000000e+00
1.418000000000000000e+03,3.190004507748238072e-01,0.000000000000000000e+00
1.419000000000000000e+03,4.867281069891016831e-01,0.000000000000000000e+00
1.420000000000000000e+03,3.011558881058837289e-01,0.000000000000000000e+00
1.421000000000000000e+03,3.394530929349100501e-01,0.000000000000000000e+00
1.422000000000000000e+03,4.564394305065498925e-01,0.000000000000000000e+00
1.423000000000000000e+03,4.792352672549423098e-01,0.000000000000000000e+00
1.424000000000000000e+03,4.221533944603672595e-01,0.000000000000000000e+00
1.425000000000000000e+03,4.623237429441928170e-01,0.000000000000000000e+00
1.426000000000000000e+03,3.432984112899840068e-01,0.000000000000000000e+00
1.427000000000000000e+03,3.883588440890254345e-01,0.000000000000000000e+00
1.428000000000000000e+03,4.229706004252873353e-01,0.000000000000000000e+00
1.429000000000000000e+03,3.867050097748885862e-01,0.000000000000000000e+00
1.430000000000000000e+03,4.714009409570070197e-01,0.000000000000000000e+00
1.431000000000000000e+03,2.350326951104187712e-01,0.000000000000000000e+00
1.432000000000000000e+03,4.809595959890198835e-01,0.000000000000000000e+00
1.433000000000000000e+03,3.625572835157487295e-01,0.000000000000000000e+00
1.434000000000000000e+03,1.435811946618257562e-01,0.000000000000000000e+00
1.435000000000000000e+03,3.663739803912220427e-01,0.000000000000000000e+00
1.436000000000000000e+03,1.674884114277492841e-01,0.000000000000000000e+00
1.437000000000000000e+03,3.526359772659119485e-01,0.000000000000000000e+00
1.438000000000000000e+03,3.151035366909051283e-01,0.000000000000000000e+00
1.439000000000000000e+03,3.981370614605397873e-01,0.000000000000000000e+00
1.440000000000000000e+03,3.909826532739099636e-01,0.000000000000000000e+00
1.441000000000000000e+03,7.282444402897189084e-01,0.000000000000000000e+00
1.442000000000000000e+03,2.577468795866107443e-01,0.000000000000000000e+00
1.443000000000000000e+03,-1.601816294248214756e-01,0.000000000000000000e+00
1.444000000000000000e+03,-2.694754672815925511e-01,0.000000000000000000e+00
1.445000000000000000e+03,-7.502811274921398002e-03,0.000000000000000000e+00
1.446000000000000000e+03,-1.819018618817772326e-01,0.000000000000000000e+00
1.447000000000000000e+03,4.820060616914152440e-01,0.000000000000000000e+00
1.448000000000000000e+03,1.216516496181232254e+00,0.000000000000000000e+00
1.449000000000000000e+03,3.090133801294820404e-01,1.000000000000000000e+00
1.450000000000000000e+03,-3.887017064994312543e-01,0.000000000000000000e+00
1.451000000000000000e+03,-4.230750878283275340e-01,0.000000000000000000e+00
1.452000000000000000e+03,-4.466519689492317036e-01,0.000000000000000000e+00
1.453000000000000000e+03,-5.638563652192495335e-01,0.000000000000000000e+00
1.454000000000000000e+03,-3.404325056076625278e-01,0.000000000000000000e+00
1.455000000000000000e+03,-3.036358258476088423e-01,0.000000000000000000e+00
1.456000000000000000e+03,-3.165335738422233591e-01,0.000000000000000000e+00
1.457000000000000000e+03,-1.058268537596882553e-01,0.000000000000000000e+00
1.458000000000000000e+03,1.054189861008681672e-01,0.000000000000000000e+00
1.459000000000000000e+03,1.007212773036094966e-01,0.000000000000000000e+00
1.460000000000000000e+03,3.284708923794661395e-01,0.000000000000000000e+00
1.461000000000000000e+03,2.308877850529130749e-01,0.000000000000000000e+00
1.462000000000000000e+03,4.384303912915285539e-01,0.000000000000000000e+00
1.463000000000000000e+03,4.056935348569863931e-01,0.000000000000000000e+00
1.464000000000000000e+03,3.206137980590800796e-01,0.000000000000000000e+00
1.465000000000000000e+03,2.432726531954162441e-01,0.000000000000000000e+00
1.466000000000000000e+03,-1.493861938869339712e-01,0.000000000000000000e+00
1.467000000000000000e+03,-5.272008683850445410e-01,0.000000000000000000e+00
1.468000000000000000e+03,-8.701360440058351076e-01,0.000000000000000000e+00
1.469000000000000000e+03,-1.186637980700668393e+00,0.000000000000000000e+00
1.470000000000000000e+03,-1.206871618979470373e+00,0.000000000000000000e+00
1.471000000000000000e+03,-9.913564368750832356e-01,0.000000000000000000e+00
1.472000000000000000e+03,-9.857485861025968576e-01,0.000000000000000000e+00
1.473000000000000000e+03,-7.967249539773922917e-01,0.000000000000000000e+00
1.474000000000000000e+03,-7.311286775406564686e-01,0.000000000000000000e+00
1.475000000000000000e+03,-7.000207409154509675e-01,0.000000000000000000e+00
1.476000000000000000e+03,-6.627901796469928275e-01,0.000000000000000000e+00
1.477000000000000000e+03,-5.763327691064669134e-01,0.000000000000000000e+00
1.478000000000000000e+03,-6.896553246794393521e-01,0.000000000000000000e+00
1.479000000000000000e+03,-6.365669246865854891e-01,0.000000000000000000e+00
1.480000000000000000e+03,-5.982530569700267309e-01,0.000000000000000000e+00
1.481000000000000000e+03,-4.135069152739829224e-01,0.000000000000000000e+00
1.482000000000000000e+03,-4.345407445288085313e-01,0.000000000000000000e+00
1.483000000000000000e+03,-3.653641237172158829e-01,0.000000000000000000e+00
1.484000000000000000e+03,-2.898190267008650678e-01,0.000000000000000000e+00
1.485000000000000000e+03,6.319807968906586415e-02,0.000000000000000000e+00
1.486000000000000000e+03,2.501881601176289549e-01,0.000000000000000000e+00
1.487000000000000000e+03,4.198515508126456908e-01,0.000000000000000000e+00
1.488000000000000000e+03,-3.422277923284553491e-01,0.000000000000000000e+00
1.489000000000000000e+03,-1.653880628779968442e-01,0.000000000000000000e+00
1.490000000000000000e+03,-3.327748619928528329e-01,0.000000000000000000e+00
1.491000000000000000e+03,6.784261639124453125e-02,0.000000000000000000e+00
1.492000000000000000e+03,2.702826621603711676e-01,0.000000000000000000e+00
1.493000000000000000e+03,9.208080002719942758e-01,0.000000000000000000e+00
1.494000000000000000e+03,7.622633414954435027e-01,1.000000000000000000e+00
1.495000000000000000e+03,6.571219412987455710e-02,0.000000000000000000e+00
1.496000000000000000e+03,1.984998870161416851e-01,0.000000000000000000e+00
1.497000000000000000e+03,5.140733163689410051e-02,0.000000000000000000e+00
1.498000000000000000e+03,9.245261656735553890e-02,0.000000000000000000e+00
1.499000000000000000e+03,5.763420408718578081e-02,0.000000000000000000e+00
1.500000000000000000e+03,3.029013018678829439e-01,0.000000000000000000e+00
1.501000000000000000e+03,2.670503109399081643e-01,0.000000000000000000e+00
1.502000000000000000e+03,3.689454471277894831e-01,0.000000000000000000e+00
1.503000000000000000e+03,4.696032489712027025e-01,0.000000000000000000e+00
1.504000000000000000e+03,6.506765997679881952e-01,0.000000000000000000e+00
1.505000000000000000e+03,7.626512712543118688e-01,0.000000000000000000e+00
1.506000000000000000e+03,1.000517893499055067e+00,0.000000000000000000e+00
1.507000000000000000e+03,1.197156804947299591e+00,0.000000000000000000e+00
1.508000000000000000e+03,1.364092752952660748e+00,0.000000000000000000e+00
1.509000000000000000e+03,1.227615101171063650e+00,0.000000000000000000e+00
1.510000000000000000e+03,1.033231620861657207e+00,0.000000000000000000e+00
1.511000000000000000e+03,6.226689269447795994e-01,0.000000000000000000e+00
1.512000000000000000e+03,-1.402666251729348112e-01,0.000000000000000000e+00
1.513000000000000000e+03,-7.196410137551981778e-01,0.000000000000000000e+00
1.514000000000000000e+03,-8.665319145748608953e-01,0.000000000000000000e+00
1.515000000000000000e+03,-9.539635388036986630e-01,0.000000000000000000e+00
1.516000000000000000e+03,-9.407835341151445929e-01,0.000000000000000000e+00
1.517000000000000000e+03,-7.247291141457121721e-01,0.000000000000000000e+00
1.518000000000000000e+03,-5.852674290362185339e-01,0.000000000000000000e+00
1.519000000000000000e+03,-5.275301623863209999e-01,0.000000000000000000e+00
1.520000000000000000e+03,-4.076795661804986093e-01,0.000000000000000000e+00
1.521000000000000000e+03,-4.090275577804786677e-01,0.000000000000000000e+00
1.522000000000000000e+03,-2.876714699218212989e-01,0.000000000000000000e+00
1.523000000000000000e+03,-4.120864856140178945e-01,0.000000000000000000e+00
1.524000000000000000e+03,-2.738707774462708078e-01,0.000000000000000000e+00
1.525000000000000000e+03,-2.229362121933872176e-01,0.000000000000000000e+00
1.526000000000000000e+03,-2.890761342676589907e-01,0.000000000000000000e+00
1.527000000000000000e+03,-2.286070121330251448e-01,0.000000000000000000e+00
1.528000000000000000e+03,-1.923459940039859428e-01,0.000000000000000000e+00
1.529000000000000000e+03,-9.287753177863908305e-02,0.000000000000000000e+00
1.530000000000000000e+03,-3.047014124069199591e-03,0.000000000000000000e+00
1.531000000000000000e+03,8.853949694523199909e-02,0.000000000000000000e+00
1.532000000000000000e+03,1.687347517737481928e-01,0.000000000000000000e+00
1.533000000000000000e+03,4.446375377337538626e-01,0.000000000000000000e+00
1.534000000000000000e+03,5.522703039479724962e-01,0.000000000000000000e+00
1.535000000000000000e+03,1.559079049159584280e-03,0.000000000000000000e+00
1.536000000000000000e+03,-6.506844377501835863e-02,0.000000000000000000e+00
1.537000000000000000e+03,-8.170136363826956127e-02,0.000000000000000000e+00
1.538000000000000000e+03,2.081423775220500871e-01,0.000000000000000000e+00
1.539000000000000000e+03,1.819963266437168992e-01,0.000000000000000000e+00
1.540000000000000000e+03,1.056867701755877631e+00,0.000000000000000000e+00
1.541000000000000000e+03,1.210590095109534747e+00,0.000000000000000000e+00
1.542000000000000000e+03,3.926649113609003705e-01,1.000000000000000000e+00
1.543000000000000000e+03,2.633769984281570387e-01,0.000000000000000000e+00
1.544000000000000000e+03,-1.764376065193819232e-02,0.000000000000000000e+00
1.545000000000000000e+03,8.917915597807439532e-02,0.000000000000000000e+00
1.546000000000000000e+03,6.708323529851384359e-02,0.000000000000000000e+00
1.547000000000000000e+03,9.933190356488942607e-02,0.000000000000000000e+00
1.548000000000000000e+03,1.969602076725077422e-01,0.000000000000000000e+00
1.549000000000000000e+03,1.965087768398361134e-01,0.000000000000000000e+00
1.550000000000000000e+03,3.242802098270184397e-01,0.000000000000000000e+00
1.551000000000000000e+03,4.121457384078751618e-01,0.000000000000000000e+00
1.552000000000000000e+03,5.443474360174962445e-01,0.000000000000000000e+00
1.553000000000000000e+03,7.859056498227573462e-01,0.000000000000000000e+00
1.554000000000000000e+03,8.724273193657093861e-01,0.000000000000000000e+00
1.555000000000000000e+03,1.060888586188487803e+00,0.000000000000000000e+00
1.556000000000000000e+03,1.119094600227067415e+00,0.000000000000000000e+00
1.557000000000000000e+03,8.881834738406322316e-01,0.000000000000000000e+00
1.558000000000000000e+03,3.614168513367623237e-01,0.000000000000000000e+00
1.559000000000000000e+03,-3.242699365326919270e-01,0.000000000000000000e+00
1.560000000000000000e+03,-9.297334290441469085e-01,0.000000000000000000e+00
1.561000000000000000e+03,-1.025412599784434997e+00,0.000000000000000000e+00
1.562000000000000000e+03,-1.145775820732437555e+00,0.000000000000000000e+00
1.563000000000000000e+03,-9.807207084999368663e-01,0.000000000000000000e+00
1.564000000000000000e+03,-1.004532890551554036e+00,0.000000000000000000e+00
1.565000000000000000e+03,-7.854215010863565549e-01,0.000000000000000000e+00
1.566000000000000000e+03,-6.118333686461441268e-01,0.000000000000000000e+00
1.567000000000000000e+03,-5.836776111893241525e-01,0.000000000000000000e+00
1.568000000000000000e+03,-5.128341941068189636e-01,0.000000000000000000e+00
1.569000000000000000e+03,-4.264852325438311942e-01,0.000000000000000000e+00
1.570000000000000000e+03,-3.611418672765138727e-01,0.000000000000000000e+00
1.571000000000000000e+03,-3.740371431403120006e-01,0.000000000000000000e+00
1.572000000000000000e+03,-5.174181592884642411e-01,0.000000000000000000e+00
1.573000000000000000e+03,-4.021408987682409952e-01,0.000000000000000000e+00
1.574000000000000000e+03,-3.469523323265000236e-01,0.000000000000000000e+00
1.575000000000000000e+03,-2.389710695545574359e-01,0.000000000000000000e+00
1.576000000000000000e+03,-3.125242804371892724e-01,0.000000000000000000e+00
1.577000000000000000e+03,-2.105426125714063290e-01,0.000000000000000000e+00
1.578000000000000000e+03,-1.093745446208739258e-01,0.000000000000000000e+00
1.579000000000000000e+03,-3.259012517924785024e-02,0.000000000000000000e+00
1.580000000000000000e+03,1.329402328815986745e-01,0.000000000000000000e+00
1.581000000000000000e+03,2.435085965943882547e-01,0.000000000000000000e+00
1.582000000000000000e+03,3.067357266929385817e-01,0.000000000000000000e+00
1.583000000000000000e+03,5.175175214096109366e-01,0.000000000000000000e+00
1.584000000000000000e+03,2.453823806733136104e-01,0.000000000000000000e+00
1.585000000000000000e+03,-1.315531873473509972e-01,0.000000000000000000e+00
1.586000000000000000e+03,-2.738413071785327779e-01,0.000000000000000000e+00
1.587000000000000000e+03,-5.865653135858948236e-02,0.000000000000000000e+00
