timestamp,ecg_measurement,qrs_detected
0.000000000000000000e+00,-2.323541483173959810e-01,0.000000000000000000e+00
1.000000000000000000e+00,-1.234358642350275731e-01,0.000000000000000000e+00
2.000000000000000000e+00,-2.184265256896668062e-01,0.000000000000000000e+00
3.000000000000000000e+00,2.126725567580954879e-01,0.000000000000000000e+00
4.000000000000000000e+00,3.072230915775639448e-01,0.000000000000000000e+00
5.000000000000000000e+00,1.088773280701052837e+00,0.000000000000000000e+00
6.000000000000000000e+00,1.087120803164775884e+00,0.000000000000000000e+00
7.000000000000000000e+00,1.535106706601739202e+00,0.000000000000000000e+00
8.000000000000000000e+00,7.879591506970372583e-01,0.000000000000000000e+00
9.000000000000000000e+00,9.256394887245902869e-02,0.000000000000000000e+00
1.000000000000000000e+01,-7.481423159687966562e-01,1.000000000000000000e+00
1.100000000000000000e+01,-8.943320038991064980e-01,0.000000000000000000e+00
1.200000000000000000e+01,-1.048912906297992498e+00,0.000000000000000000e+00
1.300000000000000000e+01,-1.011676160924924517e+00,0.000000000000000000e+00
1.400000000000000000e+01,-9.224271352549974212e-01,0.000000000000000000e+00
1.500000000000000000e+01,-8.022827975303140624e-01,0.000000000000000000e+00
1.600000000000000000e+01,-8.587709957657353455e-01,0.000000000000000000e+00
1.700000000000000000e+01,-6.481955796534977221e-01,0.000000000000000000e+00
1.800000000000000000e+01,-6.818842224669884322e-01,0.000000000000000000e+00
1.900000000000000000e+01,-6.385975921674850175e-01,0.000000000000000000e+00
2.000000000000000000e+01,-4.622887356497843436e-01,0.000000000000000000e+00
2.100000000000000000e+01,-4.321926752082939638e-01,0.000000000000000000e+00
2.200000000000000000e+01,-3.175322691953842424e-01,0.000000000000000000e+00
2.300000000000000000e+01,-3.074381910918070338e-01,0.000000000000000000e+00
2.400000000000000000e+01,-2.197777831283348193e-01,0.000000000000000000e+00
2.500000000000000000e+01,-1.772505788822713313e-01,0.000000000000000000e+00
2.600000000000000000e+01,-1.904037354104392565e-01,0.000000000000000000e+00
2.700000000000000000e+01,-2.086289042556269124e-01,0.000000000000000000e+00
2.800000000000000000e+01,1.823912939198590183e-02,0.000000000000000000e+00
2.900000000000000000e+01,-1.200259132912964849e-01,0.000000000000000000e+00
3.000000000000000000e+01,1.867517782009816829e-01,0.000000000000000000e+00
3.100000000000000000e+01,-6.405026549353121882e-04,0.000000000000000000e+00
3.200000000000000000e+01,5.397864948620002545e-01,0.000000000000000000e+00
3.300000000000000000e+01,5.628893675006569897e-01,0.000000000000000000e+00
3.400000000000000000e+01,6.807373089804666932e-01,0.000000000000000000e+00
3.500000000000000000e+01,2.245095933729182314e-01,0.000000000000000000e+00
3.600000000000000000e+01,-2.691734212512025270e-01,0.000000000000000000e+00
3.700000000000000000e+01,-3.998808294059632562e-01,0.000000000000000000e+00
3.800000000000000000e+01,-5.914088597128942804e-02,0.000000000000000000e+00
3.900000000000000000e+01,-7.369972931653528958e-01,0.000000000000000000e+00
4.000000000000000000e+01,8.942360047936456779e-02,0.000000000000000000e+00
4.100000000000000000e+01,-1.247612489839949212e+00,0.000000000000000000e+00
4.200000000000000000e+01,3.498676512668378535e+00,0.000000000000000000e+00
4.300000000000000000e+01,4.319699194817329335e+00,0.000000000000000000e+00
4.400000000000000000e+01,-1.923317296550832278e+00,1.000000000000000000e+00
4.500000000000000000e+01,-4.280089823230253665e-01,0.000000000000000000e+00
4.600000000000000000e+01,-9.987065275404781728e-01,0.000000000000000000e+00
4.700000000000000000e+01,-4.542643079655067084e-01,0.000000000000000000e+00
4.800000000000000000e+01,-5.785764296300690557e-01,0.000000000000000000e+00
4.900000000000000000e+01,-3.495203274884164379e-01,0.000000000000000000e+00
5.000000000000000000e+01,-4.655380050765730027e-01,0.000000000000000000e+00
5.100000000000000000e+01,2.569788547707005377e-02,0.000000000000000000e+00
5.200000000000000000e+01,-1.581401663697614979e-01,0.000000000000000000e+00
5.300000000000000000e+01,3.166449165145763245e-01,0.000000000000000000e+00
5.400000000000000000e+01,3.050398521142927422e-01,0.000000000000000000e+00
5.500000000000000000e+01,7.241727907269278619e-01,0.000000000000000000e+00
5.600000000000000000e+01,1.084949709089575443e+00,0.000000000000000000e+00
5.700000000000000000e+01,1.439524289889760222e+00,0.000000000000000000e+00
5.800000000000000000e+01,1.020264403664538300e+00,0.000000000000000000e+00
5.900000000000000000e+01,5.810430389335891066e-01,0.000000000000000000e+00
6.000000000000000000e+01,-4.226682060336521274e-01,0.000000000000000000e+00
6.100000000000000000e+01,-6.389311140628577412e-01,0.000000000000000000e+00
6.200000000000000000e+01,-8.981971737322240745e-01,0.000000000000000000e+00
6.300000000000000000e+01,-8.299153014273064066e-01,0.000000000000000000e+00
6.400000000000000000e+01,-7.923498626096918684e-01,0.000000000000000000e+00
6.500000000000000000e+01,-7.903172823143098658e-01,0.000000000000000000e+00
6.600000000000000000e+01,-5.777779027989720095e-01,0.000000000000000000e+00
6.700000000000000000e+01,-7.123470533040408004e-01,0.000000000000000000e+00
6.800000000000000000e+01,-5.567100875031254503e-01,0.000000000000000000e+00
6.900000000000000000e+01,-3.565014826372823742e-01,0.000000000000000000e+00
7.000000000000000000e+01,-5.523905195096897591e-01,0.000000000000000000e+00
7.100000000000000000e+01,-1.748383809675985445e-01,0.000000000000000000e+00
7.200000000000000000e+01,-3.347961125281488370e-01,0.000000000000000000e+00
7.300000000000000000e+01,-6.833945918681860743e-02,0.000000000000000000e+00
7.400000000000000000e+01,-2.286917092987204581e-01,0.000000000000000000e+00
7.500000000000000000e+01,-1.938114036866230711e-02,0.000000000000000000e+00
7.600000000000000000e+01,-1.089039224802742789e-01,0.000000000000000000e+00
7.700000000000000000e+01,1.349098042224358140e-01,0.000000000000000000e+00
7.800000000000000000e+01,-3.460209510495702162e-02,0.000000000000000000e+00
7.900000000000000000e+01,2.792840145706531607e-01,0.000000000000000000e+00
8.000000000000000000e+01,1.240320042977141046e-01,0.000000000000000000e+00
8.100000000000000000e+01,5.049915114492471435e-01,0.000000000000000000e+00
8.200000000000000000e+01,6.667744904461223587e-01,0.000000000000000000e+00
8.300000000000000000e+01,8.388894805506907915e-01,0.000000000000000000e+00
8.400000000000000000e+01,4.633806257987044819e-01,0.000000000000000000e+00
8.500000000000000000e+01,1.531252763221907787e-01,0.000000000000000000e+00
8.600000000000000000e+01,-2.335418556258621603e-01,0.000000000000000000e+00
8.700000000000000000e+01,-1.102049012441196629e-01,0.000000000000000000e+00
8.800000000000000000e+01,-3.194684308535674644e-01,0.000000000000000000e+00
8.900000000000000000e+01,5.932084285883662544e-02,0.000000000000000000e+00
9.000000000000000000e+01,-6.472570093349543363e-01,0.000000000000000000e+00
9.100000000000000000e+01,1.324817439284354803e+00,0.000000000000000000e+00
9.200000000000000000e+01,4.933949478063334837e+00,0.000000000000000000e+00
9.300000000000000000e+01,-9.894454642542570566e-01,1.000000000000000000e+00
9.400000000000000000e+01,-9.426411106799682527e-01,0.000000000000000000e+00
9.500000000000000000e+01,-4.520821471335300656e-01,0.000000000000000000e+00
9.600000000000000000e+01,-4.868346112424446481e-01,0.000000000000000000e+00
9.700000000000000000e+01,-2.154299854971847006e-01,0.000000000000000000e+00
9.800000000000000000e+01,-1.586988832453034293e-01,0.000000000000000000e+00
9.900000000000000000e+01,-1.752630218706102694e-01,0.000000000000000000e+00
1.000000000000000000e+02,3.943570866286128657e-02,0.000000000000000000e+00
1.010000000000000000e+02,2.106859706353713529e-02,0.000000000000000000e+00
1.020000000000000000e+02,2.227297293784386845e-01,0.000000000000000000e+00
1.030000000000000000e+02,4.620121181520099873e-01,0.000000000000000000e+00
1.040000000000000000e+02,7.939932298447690551e-01,0.000000000000000000e+00
1.050000000000000000e+02,1.135914100100663626e+00,0.000000000000000000e+00
1.060000000000000000e+02,1.275549740568909129e+00,0.000000000000000000e+00
1.070000000000000000e+02,1.405785385800381926e+00,0.000000000000000000e+00
1.080000000000000000e+02,6.362444115494313435e-01,0.000000000000000000e+00
1.090000000000000000e+02,-8.978252149219015377e-02,0.000000000000000000e+00
1.100000000000000000e+02,-8.461068036078612797e-01,0.000000000000000000e+00
1.110000000000000000e+02,-6.796513123366271225e-01,0.000000000000000000e+00
1.120000000000000000e+02,-9.430319315724225993e-01,0.000000000000000000e+00
1.130000000000000000e+02,-7.250673829579835639e-01,0.000000000000000000e+00
1.140000000000000000e+02,-6.935702667793239851e-01,0.000000000000000000e+00
1.150000000000000000e+02,-7.482951321414892387e-01,0.000000000000000000e+00
1.160000000000000000e+02,-6.423599619188098409e-01,0.000000000000000000e+00
1.170000000000000000e+02,-5.010122273352558553e-01,0.000000000000000000e+00
1.180000000000000000e+02,-5.223410423047699647e-01,0.000000000000000000e+00
1.190000000000000000e+02,-2.533246810588972719e-01,0.000000000000000000e+00
1.200000000000000000e+02,-4.298754915697958756e-01,0.000000000000000000e+00
1.210000000000000000e+02,-2.308740029805886884e-01,0.000000000000000000e+00
1.220000000000000000e+02,-3.961143949958796373e-01,0.000000000000000000e+00
1.230000000000000000e+02,-7.321947381260622556e-02,0.000000000000000000e+00
1.240000000000000000e+02,-3.394216514559981190e-01,0.000000000000000000e+00
1.250000000000000000e+02,3.232128689485045531e-02,0.000000000000000000e+00
1.260000000000000000e+02,-2.944048943137810292e-01,0.000000000000000000e+00
1.270000000000000000e+02,1.088986409114278409e-01,0.000000000000000000e+00
1.280000000000000000e+02,-1.040764714610948292e-02,0.000000000000000000e+00
1.290000000000000000e+02,-7.461592933770806735e-03,0.000000000000000000e+00
1.300000000000000000e+02,1.117758696033407800e-01,0.000000000000000000e+00
1.310000000000000000e+02,3.915080941228956668e-01,0.000000000000000000e+00
1.320000000000000000e+02,5.702865590424095465e-01,0.000000000000000000e+00
1.330000000000000000e+02,6.820195789339622561e-01,0.000000000000000000e+00
1.340000000000000000e+02,2.969236945996864274e-01,0.000000000000000000e+00
1.350000000000000000e+02,-3.078561534338239512e-03,0.000000000000000000e+00
1.360000000000000000e+02,-4.537393409123635091e-01,0.000000000000000000e+00
1.370000000000000000e+02,-1.403110421081312786e-01,0.000000000000000000e+00
1.380000000000000000e+02,-5.404437434195197287e-01,0.000000000000000000e+00
1.390000000000000000e+02,-5.370735431982494659e-03,0.000000000000000000e+00
1.400000000000000000e+02,-9.360013384004017833e-01,0.000000000000000000e+00
1.410000000000000000e+02,2.086983413054976921e+00,0.000000000000000000e+00
1.420000000000000000e+02,5.153506422846731994e+00,0.000000000000000000e+00
1.430000000000000000e+02,-1.339976707312690696e+00,1.000000000000000000e+00
1.440000000000000000e+02,-6.171017190837279065e-01,0.000000000000000000e+00
1.450000000000000000e+02,-9.033654237441538504e-01,0.000000000000000000e+00
1.460000000000000000e+02,-6.118106925016768560e-01,0.000000000000000000e+00
1.470000000000000000e+02,-5.140265088821991402e-01,0.000000000000000000e+00
1.480000000000000000e+02,-4.945086326325558446e-01,0.000000000000000000e+00
1.490000000000000000e+02,-3.207717175317005287e-01,0.000000000000000000e+00
1.500000000000000000e+02,-2.431293455220041311e-01,0.000000000000000000e+00
1.510000000000000000e+02,-1.293615554835907955e-01,0.000000000000000000e+00
1.520000000000000000e+02,1.856990283662069419e-01,0.000000000000000000e+00
1.530000000000000000e+02,3.635350669773153576e-01,0.000000000000000000e+00
1.540000000000000000e+02,8.274419378214725729e-01,0.000000000000000000e+00
1.550000000000000000e+02,1.085931556866735814e+00,0.000000000000000000e+00
1.560000000000000000e+02,1.225937010025793361e+00,0.000000000000000000e+00
1.570000000000000000e+02,1.241054087657907701e+00,0.000000000000000000e+00
1.580000000000000000e+02,4.738426803020747702e-01,0.000000000000000000e+00
1.590000000000000000e+02,-1.294349581327405574e-01,0.000000000000000000e+00
1.600000000000000000e+02,-7.287517484548560187e-01,0.000000000000000000e+00
1.610000000000000000e+02,-9.835965388067543502e-01,0.000000000000000000e+00
1.620000000000000000e+02,-9.035517328956081951e-01,0.000000000000000000e+00
1.630000000000000000e+02,-8.666407504428700337e-01,0.000000000000000000e+00
1.640000000000000000e+02,-6.823924217878195586e-01,0.000000000000000000e+00
1.650000000000000000e+02,-8.134324821426780483e-01,0.000000000000000000e+00
1.660000000000000000e+02,-6.075186901986080468e-01,0.000000000000000000e+00
1.670000000000000000e+02,-7.100157769960332432e-01,0.000000000000000000e+00
1.680000000000000000e+02,-4.935076419541837289e-01,0.000000000000000000e+00
1.690000000000000000e+02,-4.936798998990176157e-01,0.000000000000000000e+00
1.700000000000000000e+02,-4.155994817910884098e-01,0.000000000000000000e+00
1.710000000000000000e+02,-4.300740052155205828e-01,0.000000000000000000e+00
1.720000000000000000e+02,-2.273012094924242443e-01,0.000000000000000000e+00
1.730000000000000000e+02,-3.575620389424408185e-01,0.000000000000000000e+00
1.740000000000000000e+02,-8.731590507219780251e-02,0.000000000000000000e+00
1.750000000000000000e+02,-1.819270466818795617e-01,0.000000000000000000e+00
1.760000000000000000e+02,-4.690610407178315983e-02,0.000000000000000000e+00
1.770000000000000000e+02,-1.388002041535050246e-01,0.000000000000000000e+00
1.780000000000000000e+02,1.518395828370543849e-02,0.000000000000000000e+00
1.790000000000000000e+02,-2.965911407872200839e-02,0.000000000000000000e+00
1.800000000000000000e+02,2.503141567421660052e-01,0.000000000000000000e+00
1.810000000000000000e+02,3.201877575715706414e-01,0.000000000000000000e+00
1.820000000000000000e+02,6.022591850577472261e-01,0.000000000000000000e+00
1.830000000000000000e+02,9.205602106342457569e-01,0.000000000000000000e+00
1.840000000000000000e+02,5.587731213605361402e-01,0.000000000000000000e+00
1.850000000000000000e+02,-5.942218147849045312e-02,0.000000000000000000e+00
1.860000000000000000e+02,-1.629589176741376710e-01,0.000000000000000000e+00
1.870000000000000000e+02,-3.092003638501950591e-01,0.000000000000000000e+00
1.880000000000000000e+02,-2.842501981155672319e-01,0.000000000000000000e+00
1.890000000000000000e+02,-4.159017211813004211e-01,0.000000000000000000e+00
1.900000000000000000e+02,-4.104524740804499361e-01,0.000000000000000000e+00
1.910000000000000000e+02,9.885281409537698127e-02,0.000000000000000000e+00
1.920000000000000000e+02,5.796964527460941596e+00,0.000000000000000000e+00
1.930000000000000000e+02,5.377460220559735493e-01,1.000000000000000000e+00
1.940000000000000000e+02,-1.495250523537079657e+00,0.000000000000000000e+00
1.950000000000000000e+02,-5.046925012423677526e-01,0.000000000000000000e+00
1.960000000000000000e+02,-1.188037180040985019e+00,0.000000000000000000e+00
1.970000000000000000e+02,-3.179907907381456234e-01,0.000000000000000000e+00
1.980000000000000000e+02,-5.433153530841580148e-01,0.000000000000000000e+00
1.990000000000000000e+02,-3.289336236308041950e-01,0.000000000000000000e+00
2.000000000000000000e+02,-1.842108229105537398e-01,0.000000000000000000e+00
2.010000000000000000e+02,-1.116361671010817486e-01,0.000000000000000000e+00
2.020000000000000000e+02,1.364023652258265773e-01,0.000000000000000000e+00
2.030000000000000000e+02,3.370278361876265505e-01,0.000000000000000000e+00
2.040000000000000000e+02,4.592419704858634599e-01,0.000000000000000000e+00
2.050000000000000000e+02,1.233721070862252800e+00,0.000000000000000000e+00
2.060000000000000000e+02,1.202273211887096460e+00,0.000000000000000000e+00
2.070000000000000000e+02,1.480757581152516433e+00,0.000000000000000000e+00
2.080000000000000000e+02,9.504684357409020068e-01,0.000000000000000000e+00
2.090000000000000000e+02,1.550497094701333567e-01,0.000000000000000000e+00
2.100000000000000000e+02,-6.271839476773252153e-01,0.000000000000000000e+00
2.110000000000000000e+02,-8.790522285028199434e-01,0.000000000000000000e+00
2.120000000000000000e+02,-7.667128151027617911e-01,0.000000000000000000e+00
2.130000000000000000e+02,-9.726092239584852583e-01,0.000000000000000000e+00
2.140000000000000000e+02,-6.942763248177005186e-01,0.000000000000000000e+00
2.150000000000000000e+02,-6.070312500209450457e-01,0.000000000000000000e+00
2.160000000000000000e+02,-8.147131801381730654e-01,0.000000000000000000e+00
2.170000000000000000e+02,-4.249931763552545760e-01,0.000000000000000000e+00
2.180000000000000000e+02,-5.718829609477322773e-01,0.000000000000000000e+00
2.190000000000000000e+02,-4.617995639791775964e-01,0.000000000000000000e+00
2.200000000000000000e+02,-1.162669455403396862e-01,0.000000000000000000e+00
2.210000000000000000e+02,-5.206473814229539698e-01,0.000000000000000000e+00
2.220000000000000000e+02,2.429698434526374184e-02,0.000000000000000000e+00
2.230000000000000000e+02,-2.244655504676168756e-01,0.000000000000000000e+00
2.240000000000000000e+02,-1.661156637943080883e-01,0.000000000000000000e+00
2.250000000000000000e+02,3.393206879454094271e-02,0.000000000000000000e+00
2.260000000000000000e+02,-2.248391496270194523e-01,0.000000000000000000e+00
2.270000000000000000e+02,8.079688725844615116e-02,0.000000000000000000e+00
2.280000000000000000e+02,6.938915946179713065e-03,0.000000000000000000e+00
2.290000000000000000e+02,-2.153141699587851621e-02,0.000000000000000000e+00
2.300000000000000000e+02,9.056758287459233669e-02,0.000000000000000000e+00
2.310000000000000000e+02,5.149837645727352031e-01,0.000000000000000000e+00
2.320000000000000000e+02,5.341250215996230510e-01,0.000000000000000000e+00
2.330000000000000000e+02,8.354496903686398079e-01,0.000000000000000000e+00
2.340000000000000000e+02,4.847796061449027860e-01,0.000000000000000000e+00
2.350000000000000000e+02,-1.832302442437781231e-01,0.000000000000000000e+00
2.360000000000000000e+02,-2.512370648253584027e-01,0.000000000000000000e+00
2.370000000000000000e+02,-2.290680730765844442e-01,0.000000000000000000e+00
2.380000000000000000e+02,-3.313591395088071323e-01,0.000000000000000000e+00
2.390000000000000000e+02,-3.200810423323979248e-01,0.000000000000000000e+00
2.400000000000000000e+02,-4.762979190321163236e-01,0.000000000000000000e+00
2.410000000000000000e+02,8.143914641200085125e-01,0.000000000000000000e+00
2.420000000000000000e+02,5.647056874020855766e+00,0.000000000000000000e+00
2.430000000000000000e+02,-2.509995236144187403e-01,1.000000000000000000e+00
2.440000000000000000e+02,-1.188884683444594303e+00,0.000000000000000000e+00
2.450000000000000000e+02,-6.847337070147958560e-01,0.000000000000000000e+00
2.460000000000000000e+02,-6.742614721216533269e-01,0.000000000000000000e+00
2.470000000000000000e+02,-5.320227782015174434e-01,0.000000000000000000e+00
2.480000000000000000e+02,-2.507297076285663340e-01,0.000000000000000000e+00
2.490000000000000000e+02,-3.036091916725896511e-01,0.000000000000000000e+00
2.500000000000000000e+02,-1.461380353206370442e-01,0.000000000000000000e+00
2.510000000000000000e+02,4.943292314315898134e-02,0.000000000000000000e+00
2.520000000000000000e+02,-1.280915660680453927e-01,0.000000000000000000e+00
2.530000000000000000e+02,5.341452255393858151e-01,0.000000000000000000e+00
2.540000000000000000e+02,5.694620811539701233e-01,0.000000000000000000e+00
2.550000000000000000e+02,1.272073932956121922e+00,0.000000000000000000e+00
2.560000000000000000e+02,1.343886973585623368e+00,0.000000000000000000e+00
2.570000000000000000e+02,1.238549379137377837e+00,0.000000000000000000e+00
2.580000000000000000e+02,7.839703841427920761e-01,0.000000000000000000e+00
2.590000000000000000e+02,-9.235660359459819252e-03,0.000000000000000000e+00
2.600000000000000000e+02,-7.152520311364116701e-01,0.000000000000000000e+00
2.610000000000000000e+02,-8.841771411163517058e-01,0.000000000000000000e+00
2.620000000000000000e+02,-1.006746078740154760e+00,0.000000000000000000e+00
2.630000000000000000e+02,-7.660987788449645786e-01,0.000000000000000000e+00
2.640000000000000000e+02,-7.322140667065695219e-01,0.000000000000000000e+00
2.650000000000000000e+02,-7.262768439706243084e-01,0.000000000000000000e+00
2.660000000000000000e+02,-5.302051549236146410e-01,0.000000000000000000e+00
2.670000000000000000e+02,-7.180302949222836517e-01,0.000000000000000000e+00
2.680000000000000000e+02,-5.699892532815113988e-01,0.000000000000000000e+00
2.690000000000000000e+02,-1.816638234849772549e-01,0.000000000000000000e+00
2.700000000000000000e+02,-4.273436784205169037e-01,0.000000000000000000e+00
2.710000000000000000e+02,-1.733083371780947401e-01,0.000000000000000000e+00
2.720000000000000000e+02,-1.404993296531666103e-01,0.000000000000000000e+00
2.730000000000000000e+02,-1.139527012627846447e-01,0.000000000000000000e+00
2.740000000000000000e+02,-1.446962222759357042e-01,0.000000000000000000e+00
2.750000000000000000e+02,-2.229758422584821737e-02,0.000000000000000000e+00
2.760000000000000000e+02,5.958814306560559354e-02,0.000000000000000000e+00
2.770000000000000000e+02,-1.306643023506583526e-02,0.000000000000000000e+00
2.780000000000000000e+02,-6.224144181240935658e-02,0.000000000000000000e+00
2.790000000000000000e+02,2.384899037417468615e-01,0.000000000000000000e+00
2.800000000000000000e+02,2.505675603870679002e-01,0.000000000000000000e+00
2.810000000000000000e+02,5.242483679871030589e-01,0.000000000000000000e+00
2.820000000000000000e+02,9.340500725450460173e-01,0.000000000000000000e+00
2.830000000000000000e+02,5.266320566197512099e-01,0.000000000000000000e+00
2.840000000000000000e+02,1.656206140233483226e-01,0.000000000000000000e+00
2.850000000000000000e+02,-1.084961212332125058e-01,0.000000000000000000e+00
2.860000000000000000e+02,-3.880082483780194491e-01,0.000000000000000000e+00
2.870000000000000000e+02,-2.262896148890078674e-01,0.000000000000000000e+00
2.880000000000000000e+02,-4.468484076515629733e-01,0.000000000000000000e+00
2.890000000000000000e+02,-1.110497010014056402e-01,0.000000000000000000e+00
2.900000000000000000e+02,-1.825891781178484718e-01,0.000000000000000000e+00
2.910000000000000000e+02,5.399103735448359309e+00,0.000000000000000000e+00
2.920000000000000000e+02,8.854951864267106565e-01,1.000000000000000000e+00
2.930000000000000000e+02,-1.693995908459591471e+00,0.000000000000000000e+00
2.940000000000000000e+02,-3.443993189545782596e-01,0.000000000000000000e+00
2.950000000000000000e+02,-1.018758522327990024e+00,0.000000000000000000e+00
2.960000000000000000e+02,-3.610097972523259591e-01,0.000000000000000000e+00
2.970000000000000000e+02,-6.049012600174034082e-01,0.000000000000000000e+00
2.980000000000000000e+02,-1.225232440613154283e-01,0.000000000000000000e+00
2.990000000000000000e+02,-3.586223878895333783e-01,0.000000000000000000e+00
3.000000000000000000e+02,-4.522354595368167224e-02,0.000000000000000000e+00
3.010000000000000000e+02,6.175095396950421728e-02,0.000000000000000000e+00
3.020000000000000000e+02,2.658897189387813831e-01,0.000000000000000000e+00
3.030000000000000000e+02,6.703338708549770875e-01,0.000000000000000000e+00
3.040000000000000000e+02,1.077022517285160408e+00,0.000000000000000000e+00
3.050000000000000000e+02,1.050740730739307516e+00,0.000000000000000000e+00
3.060000000000000000e+02,1.466812338291033635e+00,0.000000000000000000e+00
3.070000000000000000e+02,7.352399518621640651e-01,0.000000000000000000e+00
3.080000000000000000e+02,9.234188438543114441e-02,0.000000000000000000e+00
3.090000000000000000e+02,-6.554034986756749337e-01,0.000000000000000000e+00
3.100000000000000000e+02,-9.811965099002217805e-01,0.000000000000000000e+00
3.110000000000000000e+02,-1.110880323278488069e+00,0.000000000000000000e+00
3.120000000000000000e+02,-8.353321337797707802e-01,0.000000000000000000e+00
3.130000000000000000e+02,-1.012610732979559724e+00,0.000000000000000000e+00
3.140000000000000000e+02,-7.684972483243683872e-01,0.000000000000000000e+00
3.150000000000000000e+02,-8.586849317579317020e-01,0.000000000000000000e+00
3.160000000000000000e+02,-7.407144137557007957e-01,0.000000000000000000e+00
3.170000000000000000e+02,-6.481874734021777495e-01,0.000000000000000000e+00
3.180000000000000000e+02,-5.148689852483208096e-01,0.000000000000000000e+00
3.190000000000000000e+02,-5.443555631416068241e-01,0.000000000000000000e+00
3.200000000000000000e+02,-2.174853488557617343e-01,0.000000000000000000e+00
3.210000000000000000e+02,-4.766940073734947658e-01,0.000000000000000000e+00
3.220000000000000000e+02,-1.956524943293207475e-01,0.000000000000000000e+00
3.230000000000000000e+02,-2.583456820839540868e-01,0.000000000000000000e+00
3.240000000000000000e+02,-2.175943584357460936e-01,0.000000000000000000e+00
3.250000000000000000e+02,-1.706994429320976558e-01,0.000000000000000000e+00
3.260000000000000000e+02,-1.013629448350308049e-01,0.000000000000000000e+00
3.270000000000000000e+02,-1.492608208196637698e-01,0.000000000000000000e+00
3.280000000000000000e+02,-4.906088045113832924e-02,0.000000000000000000e+00
3.290000000000000000e+02,8.658374040928126791e-02,0.000000000000000000e+00
3.300000000000000000e+02,5.267778134870479967e-01,0.000000000000000000e+00
3.310000000000000000e+02,5.570198345233433601e-01,0.000000000000000000e+00
3.320000000000000000e+02,9.887140047655709196e-01,0.000000000000000000e+00
3.330000000000000000e+02,3.028427255956623876e-01,0.000000000000000000e+00
3.340000000000000000e+02,-2.652620874117381580e-02,0.000000000000000000e+00
3.350000000000000000e+02,-3.921411076052805367e-01,0.000000000000000000e+00
3.360000000000000000e+02,-1.572787072076228809e-01,0.000000000000000000e+00
3.370000000000000000e+02,-4.002812616562215209e-01,0.000000000000000000e+00
3.380000000000000000e+02,-3.962733435120717462e-02,0.000000000000000000e+00
3.390000000000000000e+02,-8.423854419179097608e-01,0.000000000000000000e+00
3.400000000000000000e+02,1.545052818197989675e+00,0.000000000000000000e+00
3.410000000000000000e+02,5.665641260479747920e+00,0.000000000000000000e+00
3.420000000000000000e+02,-8.907749105517061006e-01,1.000000000000000000e+00
3.430000000000000000e+02,-9.626356345251010360e-01,0.000000000000000000e+00
3.440000000000000000e+02,-7.602351138382784645e-01,0.000000000000000000e+00
3.450000000000000000e+02,-6.934801912677045488e-01,0.000000000000000000e+00
3.460000000000000000e+02,-6.153782902496084395e-01,0.000000000000000000e+00
3.470000000000000000e+02,-3.498839770376309111e-01,0.000000000000000000e+00
3.480000000000000000e+02,-3.696077176890379401e-01,0.000000000000000000e+00
3.490000000000000000e+02,-1.647812690826125637e-01,0.000000000000000000e+00
3.500000000000000000e+02,-4.383232149801876559e-02,0.000000000000000000e+00
3.510000000000000000e+02,1.095505391191168437e-01,0.000000000000000000e+00
3.520000000000000000e+02,3.834992586736462594e-01,0.000000000000000000e+00
3.530000000000000000e+02,7.363131640666964461e-01,0.000000000000000000e+00
3.540000000000000000e+02,1.050823966542132837e+00,0.000000000000000000e+00
3.550000000000000000e+02,1.376483315886937397e+00,0.000000000000000000e+00
3.560000000000000000e+02,1.327461841847162427e+00,0.000000000000000000e+00
3.570000000000000000e+02,7.001774690912077048e-01,0.000000000000000000e+00
3.580000000000000000e+02,-1.768546523762908329e-01,0.000000000000000000e+00
3.590000000000000000e+02,-7.019551381219065744e-01,0.000000000000000000e+00
3.600000000000000000e+02,-9.139625517015749212e-01,0.000000000000000000e+00
3.610000000000000000e+02,-9.258674415423020498e-01,0.000000000000000000e+00
3.620000000000000000e+02,-7.843494735068827772e-01,0.000000000000000000e+00
3.630000000000000000e+02,-8.939586402213813843e-01,0.000000000000000000e+00
3.640000000000000000e+02,-7.125887764394898127e-01,0.000000000000000000e+00
3.650000000000000000e+02,-6.044018323845838925e-01,0.000000000000000000e+00
3.660000000000000000e+02,-5.692547696901417709e-01,0.000000000000000000e+00
3.670000000000000000e+02,-5.927621326852597905e-01,0.000000000000000000e+00
3.680000000000000000e+02,-4.267217106091309442e-01,0.000000000000000000e+00
3.690000000000000000e+02,-4.103999887572323257e-01,0.000000000000000000e+00
3.700000000000000000e+02,-2.654808210266781932e-01,0.000000000000000000e+00
3.710000000000000000e+02,-1.874157518673603695e-01,0.000000000000000000e+00
3.720000000000000000e+02,-2.465584768476112854e-01,0.000000000000000000e+00
3.730000000000000000e+02,-1.308535438785135840e-01,0.000000000000000000e+00
3.740000000000000000e+02,-1.098147013774361663e-01,0.000000000000000000e+00
3.750000000000000000e+02,-3.004169208967901253e-02,0.000000000000000000e+00
3.760000000000000000e+02,-8.822447854354831254e-02,0.000000000000000000e+00
3.770000000000000000e+02,1.071797886707489822e-01,0.000000000000000000e+00
3.780000000000000000e+02,-1.037646010330501266e-02,0.000000000000000000e+00
3.790000000000000000e+02,2.641960566009193823e-01,0.000000000000000000e+00
3.800000000000000000e+02,4.922070358040969151e-01,0.000000000000000000e+00
3.810000000000000000e+02,6.235689839055189587e-01,0.000000000000000000e+00
3.820000000000000000e+02,9.660903208764932693e-01,0.000000000000000000e+00
3.830000000000000000e+02,5.318143832751763833e-01,0.000000000000000000e+00
3.840000000000000000e+02,1.640961161039073968e-01,0.000000000000000000e+00
3.850000000000000000e+02,-9.839196371059201474e-02,0.000000000000000000e+00
3.860000000000000000e+02,-2.619887720188247560e-01,0.000000000000000000e+00
3.870000000000000000e+02,-3.363974621740912357e-02,0.000000000000000000e+00
3.880000000000000000e+02,-2.330172046942995956e-01,0.000000000000000000e+00
3.890000000000000000e+02,-3.160954747813202181e-01,0.000000000000000000e+00
3.900000000000000000e+02,5.751605753035771151e-01,0.000000000000000000e+00
3.910000000000000000e+02,5.957929063103351019e+00,0.000000000000000000e+00
3.920000000000000000e+02,8.679535535597170115e-02,1.000000000000000000e+00
3.930000000000000000e+02,-1.211186330793151189e+00,0.000000000000000000e+00
3.940000000000000000e+02,-4.863667780369015370e-01,0.000000000000000000e+00
3.950000000000000000e+02,-7.494480116243574797e-01,0.000000000000000000e+00
3.960000000000000000e+02,-4.449126046026395942e-01,0.000000000000000000e+00
3.970000000000000000e+02,-4.260107877726942438e-01,0.000000000000000000e+00
3.980000000000000000e+02,-4.426857529594472318e-01,0.000000000000000000e+00
3.990000000000000000e+02,-1.528965655885093089e-01,0.000000000000000000e+00
4.000000000000000000e+02,-7.597850050627902307e-02,0.000000000000000000e+00
4.010000000000000000e+02,4.991843218988137321e-02,0.000000000000000000e+00
4.020000000000000000e+02,1.990334762574837157e-01,0.000000000000000000e+00
4.030000000000000000e+02,7.355209162524352084e-01,0.000000000000000000e+00
4.040000000000000000e+02,1.100662072721501961e+00,0.000000000000000000e+00
4.050000000000000000e+02,1.315062013032177068e+00,0.000000000000000000e+00
4.060000000000000000e+02,1.389807803414236043e+00,0.000000000000000000e+00
4.070000000000000000e+02,7.958433496453295453e-01,0.000000000000000000e+00
4.080000000000000000e+02,-8.186060035883159502e-02,0.000000000000000000e+00
4.090000000000000000e+02,-5.758282189412009533e-01,0.000000000000000000e+00
4.100000000000000000e+02,-9.335231985451676318e-01,0.000000000000000000e+00
4.110000000000000000e+02,-7.311973219704803739e-01,0.000000000000000000e+00
4.120000000000000000e+02,-8.620112298805410189e-01,0.000000000000000000e+00
4.130000000000000000e+02,-7.825192953466321155e-01,0.000000000000000000e+00
4.140000000000000000e+02,-6.039027309026953061e-01,0.000000000000000000e+00
4.150000000000000000e+02,-6.960549992757494309e-01,0.000000000000000000e+00
4.160000000000000000e+02,-4.872104610431123861e-01,0.000000000000000000e+00
4.170000000000000000e+02,-5.452742429155958970e-01,0.000000000000000000e+00
4.180000000000000000e+02,-4.474703627278660556e-01,0.000000000000000000e+00
4.190000000000000000e+02,-4.384500697552385362e-01,0.000000000000000000e+00
4.200000000000000000e+02,-3.938739934314672286e-01,0.000000000000000000e+00
4.210000000000000000e+02,-1.168326131100258236e-01,0.000000000000000000e+00
4.220000000000000000e+02,-2.992966416630957194e-01,0.000000000000000000e+00
4.230000000000000000e+02,-1.131632084213972517e-01,0.000000000000000000e+00
4.240000000000000000e+02,-1.200799415172542628e-01,0.000000000000000000e+00
4.250000000000000000e+02,-1.109914225896717760e-01,0.000000000000000000e+00
4.260000000000000000e+02,-3.003863629474072885e-02,0.000000000000000000e+00
4.270000000000000000e+02,-7.302800764506107989e-02,0.000000000000000000e+00
4.280000000000000000e+02,1.241625748852235311e-01,0.000000000000000000e+00
4.290000000000000000e+02,9.216037332116155945e-02,0.000000000000000000e+00
4.300000000000000000e+02,3.449909079241603865e-02,0.000000000000000000e+00
4.310000000000000000e+02,6.726600049929620795e-01,0.000000000000000000e+00
4.320000000000000000e+02,7.479671212062726227e-01,0.000000000000000000e+00
4.330000000000000000e+02,6.862118614065351174e-01,0.000000000000000000e+00
4.340000000000000000e+02,2.239841819670790046e-01,0.000000000000000000e+00
4.350000000000000000e+02,-1.343907771090889491e-01,0.000000000000000000e+00
4.360000000000000000e+02,-2.688677728485462382e-01,0.000000000000000000e+00
4.370000000000000000e+02,-1.105915851648338749e-01,0.000000000000000000e+00
4.380000000000000000e+02,-4.322239215411892155e-01,0.000000000000000000e+00
4.390000000000000000e+02,1.047173739465414033e-01,0.000000000000000000e+00
4.400000000000000000e+02,-8.886509905989604663e-01,0.000000000000000000e+00
4.410000000000000000e+02,4.436078023213868349e+00,0.000000000000000000e+00
4.420000000000000000e+02,2.800563764454690574e+00,1.000000000000000000e+00
4.430000000000000000e+02,-1.957138812517588589e+00,0.000000000000000000e+00
4.440000000000000000e+02,-1.730173084750274426e-01,0.000000000000000000e+00
4.450000000000000000e+02,-1.079144358549210869e+00,0.000000000000000000e+00
4.460000000000000000e+02,-1.370683121751792022e-01,0.000000000000000000e+00
4.470000000000000000e+02,-7.318365141158899023e-01,0.000000000000000000e+00
4.480000000000000000e+02,5.373142540493209413e-02,0.000000000000000000e+00
4.490000000000000000e+02,-4.723477954307488957e-01,0.000000000000000000e+00
4.500000000000000000e+02,1.681407721509683151e-01,0.000000000000000000e+00
4.510000000000000000e+02,-1.371223198536707932e-01,0.000000000000000000e+00
4.520000000000000000e+02,4.549269104612807535e-01,0.000000000000000000e+00
4.530000000000000000e+02,3.426676444832684743e-01,0.000000000000000000e+00
4.540000000000000000e+02,1.169440037263556054e+00,0.000000000000000000e+00
4.550000000000000000e+02,1.094680143326142829e+00,0.000000000000000000e+00
4.560000000000000000e+02,1.253846501451502116e+00,0.000000000000000000e+00
4.570000000000000000e+02,1.149414093396719183e+00,0.000000000000000000e+00
4.580000000000000000e+02,3.322236195323098329e-01,0.000000000000000000e+00
4.590000000000000000e+02,-4.876771296019320467e-01,0.000000000000000000e+00
4.600000000000000000e+02,-8.335101159530950987e-01,0.000000000000000000e+00
4.610000000000000000e+02,-1.170520215580808765e+00,0.000000000000000000e+00
4.620000000000000000e+02,-7.831261208341038227e-01,0.000000000000000000e+00
4.630000000000000000e+02,-1.004261870951967506e+00,0.000000000000000000e+00
4.640000000000000000e+02,-7.121995657262688573e-01,0.000000000000000000e+00
4.650000000000000000e+02,-8.279602745895087157e-01,0.000000000000000000e+00
4.660000000000000000e+02,-6.643767007110561451e-01,0.000000000000000000e+00
4.670000000000000000e+02,-6.843009974393893247e-01,0.000000000000000000e+00
4.680000000000000000e+02,-4.998620269139507633e-01,0.000000000000000000e+00
4.690000000000000000e+02,-5.781755838135860248e-01,0.000000000000000000e+00
4.700000000000000000e+02,-3.757018021806769470e-01,0.000000000000000000e+00
4.710000000000000000e+02,-4.206431780729698033e-01,0.000000000000000000e+00
4.720000000000000000e+02,-1.118878534710828904e-01,0.000000000000000000e+00
4.730000000000000000e+02,-3.857691713848657167e-01,0.000000000000000000e+00
4.740000000000000000e+02,-3.320223326095048805e-02,0.000000000000000000e+00
4.750000000000000000e+02,-3.366590272403920947e-01,0.000000000000000000e+00
4.760000000000000000e+02,-1.793624109882938772e-02,0.000000000000000000e+00
4.770000000000000000e+02,-9.127966568241009659e-02,0.000000000000000000e+00
4.780000000000000000e+02,-1.166757902286378323e-01,0.000000000000000000e+00
4.790000000000000000e+02,-1.546684961074670794e-01,0.000000000000000000e+00
4.800000000000000000e+02,2.686011582193926772e-01,0.000000000000000000e+00
4.810000000000000000e+02,3.804035164316035139e-02,0.000000000000000000e+00
4.820000000000000000e+02,6.529536415236660840e-01,0.000000000000000000e+00
4.830000000000000000e+02,8.441282523091546697e-01,0.000000000000000000e+00
4.840000000000000000e+02,5.039929988014077988e-01,0.000000000000000000e+00
4.850000000000000000e+02,-1.283437612462280664e-01,0.000000000000000000e+00
4.860000000000000000e+02,8.668614818769199148e-02,0.000000000000000000e+00
4.870000000000000000e+02,-5.771066587801895187e-01,0.000000000000000000e+00
4.880000000000000000e+02,-5.992615750767564531e-02,0.000000000000000000e+00
4.890000000000000000e+02,-4.251666012097778946e-01,0.000000000000000000e+00
4.900000000000000000e+02,-6.535114931766819457e-02,0.000000000000000000e+00
4.910000000000000000e+02,-5.725148426582332695e-01,0.000000000000000000e+00
4.920000000000000000e+02,5.540830873950976176e+00,0.000000000000000000e+00
4.930000000000000000e+02,1.654679120440210482e+00,1.000000000000000000e+00
4.940000000000000000e+02,-1.564838841048672435e+00,0.000000000000000000e+00
4.950000000000000000e+02,-4.319286229568226054e-01,0.000000000000000000e+00
4.960000000000000000e+02,-9.833725614002241100e-01,0.000000000000000000e+00
4.970000000000000000e+02,-3.886663312462316777e-01,0.000000000000000000e+00
4.980000000000000000e+02,-7.269766038597531566e-01,0.000000000000000000e+00
4.990000000000000000e+02,-1.225463309050635191e-01,0.000000000000000000e+00
5.000000000000000000e+02,-4.307962742135811318e-01,0.000000000000000000e+00
5.010000000000000000e+02,4.823745178087721595e-03,0.000000000000000000e+00
5.020000000000000000e+02,-5.197398663314817258e-02,0.000000000000000000e+00
5.030000000000000000e+02,2.780393021440059065e-01,0.000000000000000000e+00
5.040000000000000000e+02,4.808051627423940988e-01,0.000000000000000000e+00
5.050000000000000000e+02,9.548913095318479760e-01,0.000000000000000000e+00
5.060000000000000000e+02,1.279662787596661744e+00,0.000000000000000000e+00
5.070000000000000000e+02,1.378105261708292284e+00,0.000000000000000000e+00
5.080000000000000000e+02,1.027931689462612930e+00,0.000000000000000000e+00
5.090000000000000000e+02,1.895948270670762825e-01,0.000000000000000000e+00
5.100000000000000000e+02,-6.162258580128388008e-01,0.000000000000000000e+00
5.110000000000000000e+02,-8.192057122930020974e-01,0.000000000000000000e+00
5.120000000000000000e+02,-1.048058521824294154e+00,0.000000000000000000e+00
5.130000000000000000e+02,-6.842529740534207816e-01,0.000000000000000000e+00
5.140000000000000000e+02,-1.027193560954575480e+00,0.000000000000000000e+00
5.150000000000000000e+02,-7.196273882459164328e-01,0.000000000000000000e+00
5.160000000000000000e+02,-5.729550683640940445e-01,0.000000000000000000e+00
5.170000000000000000e+02,-7.860803706942964819e-01,0.000000000000000000e+00
5.180000000000000000e+02,-6.693084117703032021e-01,0.000000000000000000e+00
5.190000000000000000e+02,-4.538934066872483131e-01,0.000000000000000000e+00
5.200000000000000000e+02,-3.726069576671633410e-01,0.000000000000000000e+00
5.210000000000000000e+02,-3.989702544615131852e-01,0.000000000000000000e+00
5.220000000000000000e+02,-1.086890818346296361e-01,0.000000000000000000e+00
5.230000000000000000e+02,-2.605049259091187230e-01,0.000000000000000000e+00
5.240000000000000000e+02,-2.190987948391764639e-01,0.000000000000000000e+00
5.250000000000000000e+02,-3.133983846804545004e-01,0.000000000000000000e+00
5.260000000000000000e+02,8.365777908213395397e-02,0.000000000000000000e+00
5.270000000000000000e+02,-1.272835482908300231e-01,0.000000000000000000e+00
5.280000000000000000e+02,-3.542909338007843578e-02,0.000000000000000000e+00
5.290000000000000000e+02,3.623528664269252964e-02,0.000000000000000000e+00
5.300000000000000000e+02,6.039080821271443356e-02,0.000000000000000000e+00
5.310000000000000000e+02,-5.590051007724643195e-02,0.000000000000000000e+00
5.320000000000000000e+02,2.551991510014215425e-01,0.000000000000000000e+00
5.330000000000000000e+02,5.027661716047420182e-01,0.000000000000000000e+00
5.340000000000000000e+02,8.566833633609605148e-01,0.000000000000000000e+00
5.350000000000000000e+02,8.277677422807478980e-01,0.000000000000000000e+00
5.360000000000000000e+02,5.280635291466202474e-01,0.000000000000000000e+00
5.370000000000000000e+02,7.813320550791680308e-02,0.000000000000000000e+00
5.380000000000000000e+02,-3.284582766238806628e-01,0.000000000000000000e+00
5.390000000000000000e+02,-1.704502173331750026e-01,0.000000000000000000e+00
5.400000000000000000e+02,-3.795080172572531385e-01,0.000000000000000000e+00
5.410000000000000000e+02,-4.585143770652511108e-02,0.000000000000000000e+00
5.420000000000000000e+02,-4.853522578002217869e-01,0.000000000000000000e+00
5.430000000000000000e+02,1.049101561446424524e+00,0.000000000000000000e+00
5.440000000000000000e+02,5.974059570730806179e+00,0.000000000000000000e+00
5.450000000000000000e+02,-5.389848472949017033e-01,1.000000000000000000e+00
5.460000000000000000e+02,-1.103537391326360639e+00,0.000000000000000000e+00
5.470000000000000000e+02,-4.490150291592965859e-01,0.000000000000000000e+00
5.480000000000000000e+02,-6.897184522115037408e-01,0.000000000000000000e+00
5.490000000000000000e+02,-5.020677188572840732e-01,0.000000000000000000e+00
5.500000000000000000e+02,-5.124090701824666194e-01,0.000000000000000000e+00
5.510000000000000000e+02,-2.828148249197143804e-01,0.000000000000000000e+00
5.520000000000000000e+02,-1.646084999966651863e-01,0.000000000000000000e+00
5.530000000000000000e+02,-1.577525928208839134e-01,0.000000000000000000e+00
5.540000000000000000e+02,1.391101961134938447e-01,0.000000000000000000e+00
5.550000000000000000e+02,3.868274763904858693e-01,0.000000000000000000e+00
5.560000000000000000e+02,6.618742323032208441e-01,0.000000000000000000e+00
5.570000000000000000e+02,1.126975275184668224e+00,0.000000000000000000e+00
5.580000000000000000e+02,1.240086685299593094e+00,0.000000000000000000e+00
5.590000000000000000e+02,1.405539753212199372e+00,0.000000000000000000e+00
5.600000000000000000e+02,7.782752218141513190e-01,0.000000000000000000e+00
5.610000000000000000e+02,-2.145068127960141624e-01,0.000000000000000000e+00
5.620000000000000000e+02,-6.686229320256243946e-01,0.000000000000000000e+00
5.630000000000000000e+02,-9.236558928308111760e-01,0.000000000000000000e+00
5.640000000000000000e+02,-8.855843033728870717e-01,0.000000000000000000e+00
5.650000000000000000e+02,-9.666918890859000912e-01,0.000000000000000000e+00
5.660000000000000000e+02,-7.838022634796554255e-01,0.000000000000000000e+00
5.670000000000000000e+02,-7.567341143845736084e-01,0.000000000000000000e+00
5.680000000000000000e+02,-7.753202780089160084e-01,0.000000000000000000e+00
5.690000000000000000e+02,-5.268851715439978323e-01,0.000000000000000000e+00
5.700000000000000000e+02,-6.677338132087440314e-01,0.000000000000000000e+00
5.710000000000000000e+02,-5.104712268949481713e-01,0.000000000000000000e+00
5.720000000000000000e+02,-3.479146694207526092e-01,0.000000000000000000e+00
5.730000000000000000e+02,-2.531318550572139170e-01,0.000000000000000000e+00
5.740000000000000000e+02,-3.740437945809052533e-01,0.000000000000000000e+00
5.750000000000000000e+02,-1.654159940935795992e-01,0.000000000000000000e+00
5.760000000000000000e+02,-6.971926904632368138e-02,0.000000000000000000e+00
5.770000000000000000e+02,-3.008292836064192510e-01,0.000000000000000000e+00
5.780000000000000000e+02,9.650118709508338777e-02,0.000000000000000000e+00
5.790000000000000000e+02,-1.554153407748264659e-01,0.000000000000000000e+00
5.800000000000000000e+02,-3.983949152199695032e-02,0.000000000000000000e+00
5.810000000000000000e+02,1.608457673466730797e-01,0.000000000000000000e+00
5.820000000000000000e+02,-1.029426289359702401e-01,0.000000000000000000e+00
5.830000000000000000e+02,2.698537322206635003e-01,0.000000000000000000e+00
5.840000000000000000e+02,3.374853909158813670e-01,0.000000000000000000e+00
5.850000000000000000e+02,7.396393373410102834e-01,0.000000000000000000e+00
5.860000000000000000e+02,7.505663990087756421e-01,0.000000000000000000e+00
5.870000000000000000e+02,1.176220160900317002e-01,0.000000000000000000e+00
5.880000000000000000e+02,8.078300466169509308e-02,0.000000000000000000e+00
5.890000000000000000e+02,-2.070005077338389898e-01,0.000000000000000000e+00
5.900000000000000000e+02,-1.533686170098515766e-01,0.000000000000000000e+00
5.910000000000000000e+02,-4.077903901057977620e-01,0.000000000000000000e+00
5.920000000000000000e+02,1.659753427455468444e-01,0.000000000000000000e+00
5.930000000000000000e+02,-9.202739171811147312e-01,0.000000000000000000e+00
5.940000000000000000e+02,1.899525711624385771e+00,0.000000000000000000e+00
5.950000000000000000e+02,5.043732934335342755e+00,0.000000000000000000e+00
5.960000000000000000e+02,-1.432069170410150694e+00,1.000000000000000000e+00
5.970000000000000000e+02,-5.646672142945186046e-01,0.000000000000000000e+00
5.980000000000000000e+02,-9.060207981225998353e-01,0.000000000000000000e+00
5.990000000000000000e+02,-4.867944982630252326e-01,0.000000000000000000e+00
6.000000000000000000e+02,-3.674799874298472213e-01,0.000000000000000000e+00
6.010000000000000000e+02,-5.223756919937579957e-01,0.000000000000000000e+00
6.020000000000000000e+02,-1.715538208151037303e-01,0.000000000000000000e+00
6.030000000000000000e+02,-1.125342850888011309e-01,0.000000000000000000e+00
6.040000000000000000e+02,-2.057966299641618424e-01,0.000000000000000000e+00
6.050000000000000000e+02,2.907128244006276230e-01,0.000000000000000000e+00
6.060000000000000000e+02,3.757582007672336522e-01,0.000000000000000000e+00
6.070000000000000000e+02,6.690143445116752963e-01,0.000000000000000000e+00
6.080000000000000000e+02,1.035153808261133568e+00,0.000000000000000000e+00
6.090000000000000000e+02,1.217330552634006136e+00,0.000000000000000000e+00
6.100000000000000000e+02,1.346168133994503968e+00,0.000000000000000000e+00
6.110000000000000000e+02,6.100623690849747982e-01,0.000000000000000000e+00
6.120000000000000000e+02,-2.201605012203750322e-01,0.000000000000000000e+00
6.130000000000000000e+02,-7.177406737190212827e-01,0.000000000000000000e+00
6.140000000000000000e+02,-1.112668577725392405e+00,0.000000000000000000e+00
6.150000000000000000e+02,-9.175882063876125150e-01,0.000000000000000000e+00
6.160000000000000000e+02,-8.633261450029441342e-01,0.000000000000000000e+00
6.170000000000000000e+02,-7.426537455309898395e-01,0.000000000000000000e+00
6.180000000000000000e+02,-7.923621219191988585e-01,0.000000000000000000e+00
6.190000000000000000e+02,-6.010294665462310171e-01,0.000000000000000000e+00
6.200000000000000000e+02,-6.415814338298378994e-01,0.000000000000000000e+00
6.210000000000000000e+02,-5.137562268730004877e-01,0.000000000000000000e+00
6.220000000000000000e+02,-3.898377132504941001e-01,0.000000000000000000e+00
6.230000000000000000e+02,-4.764695318772799726e-01,0.000000000000000000e+00
6.240000000000000000e+02,-3.387058895726776653e-01,0.000000000000000000e+00
6.250000000000000000e+02,-3.133906248241895010e-01,0.000000000000000000e+00
6.260000000000000000e+02,-3.768644520375286078e-01,0.000000000000000000e+00
6.270000000000000000e+02,-2.434050073501603240e-01,0.000000000000000000e+00
6.280000000000000000e+02,-2.967028254245904217e-01,0.000000000000000000e+00
6.290000000000000000e+02,-8.883988380515608907e-02,0.000000000000000000e+00
6.300000000000000000e+02,-2.043990433350563463e-01,0.000000000000000000e+00
6.310000000000000000e+02,1.058541720956716753e-01,0.000000000000000000e+00
6.320000000000000000e+02,-4.566553594850871899e-04,0.000000000000000000e+00
6.330000000000000000e+02,2.095998290596598757e-01,0.000000000000000000e+00
6.340000000000000000e+02,3.551292913675442864e-01,0.000000000000000000e+00
6.350000000000000000e+02,6.616748702212790212e-01,0.000000000000000000e+00
6.360000000000000000e+02,9.770300241926748175e-01,0.000000000000000000e+00
6.370000000000000000e+02,8.293078957098173332e-01,0.000000000000000000e+00
6.380000000000000000e+02,2.630988757224840824e-01,0.000000000000000000e+00
6.390000000000000000e+02,1.472895449057988471e-01,0.000000000000000000e+00
6.400000000000000000e+02,-2.477989835930546891e-01,0.000000000000000000e+00
6.410000000000000000e+02,1.731792954153494324e-01,0.000000000000000000e+00
6.420000000000000000e+02,-1.944214425016138614e-01,0.000000000000000000e+00
6.430000000000000000e+02,1.427922401929550555e-01,0.000000000000000000e+00
6.440000000000000000e+02,-6.058375278346577186e-01,0.000000000000000000e+00
6.450000000000000000e+02,5.264430074217644417e+00,0.000000000000000000e+00
6.460000000000000000e+02,2.336284950788068748e+00,1.000000000000000000e+00
6.470000000000000000e+02,-1.765476024671866817e+00,0.000000000000000000e+00
6.480000000000000000e+02,-1.131661510374985941e-01,0.000000000000000000e+00
6.490000000000000000e+02,-1.023558734340884069e+00,0.000000000000000000e+00
6.500000000000000000e+02,-2.058021772629290702e-01,0.000000000000000000e+00
6.510000000000000000e+02,-6.656167194131860088e-01,0.000000000000000000e+00
6.520000000000000000e+02,-2.278055196735221666e-01,0.000000000000000000e+00
6.530000000000000000e+02,-2.334583782953676689e-01,0.000000000000000000e+00
6.540000000000000000e+02,9.677348834488619378e-02,0.000000000000000000e+00
6.550000000000000000e+02,-8.017908512197569060e-02,0.000000000000000000e+00
6.560000000000000000e+02,4.030318670605136933e-01,0.000000000000000000e+00
6.570000000000000000e+02,4.550407647926668631e-01,0.000000000000000000e+00
6.580000000000000000e+02,1.098275607184390656e+00,0.000000000000000000e+00
6.590000000000000000e+02,9.840449376478057619e-01,0.000000000000000000e+00
6.600000000000000000e+02,1.540594535682280553e+00,0.000000000000000000e+00
6.610000000000000000e+02,8.178968012707018564e-01,0.000000000000000000e+00
6.620000000000000000e+02,1.736454214539969454e-01,0.000000000000000000e+00
6.630000000000000000e+02,-5.651808878672891501e-01,0.000000000000000000e+00
6.640000000000000000e+02,-8.528845485196999698e-01,0.000000000000000000e+00
6.650000000000000000e+02,-1.069829372085239649e+00,0.000000000000000000e+00
6.660000000000000000e+02,-7.699910648705836635e-01,0.000000000000000000e+00
6.670000000000000000e+02,-1.046116711243168851e+00,0.000000000000000000e+00
6.680000000000000000e+02,-6.739863012772596695e-01,0.000000000000000000e+00
6.690000000000000000e+02,-1.028467561728688695e+00,0.000000000000000000e+00
6.700000000000000000e+02,-5.359676605768470825e-01,0.000000000000000000e+00
6.710000000000000000e+02,-6.737571752230905320e-01,0.000000000000000000e+00
6.720000000000000000e+02,-3.478165469392534570e-01,0.000000000000000000e+00
6.730000000000000000e+02,-5.609158292698082082e-01,0.000000000000000000e+00
6.740000000000000000e+02,-4.965630465203562660e-01,0.000000000000000000e+00
6.750000000000000000e+02,-3.567952037919379649e-01,0.000000000000000000e+00
6.760000000000000000e+02,-3.586723815022204165e-01,0.000000000000000000e+00
6.770000000000000000e+02,-2.277431420866305178e-01,0.000000000000000000e+00
6.780000000000000000e+02,-1.849019389098484623e-01,0.000000000000000000e+00
6.790000000000000000e+02,-2.973901795098029543e-01,0.000000000000000000e+00
6.800000000000000000e+02,-9.147143549289901698e-02,0.000000000000000000e+00
6.810000000000000000e+02,-1.857263042521651863e-01,0.000000000000000000e+00
6.820000000000000000e+02,5.340844942510374754e-02,0.000000000000000000e+00
6.830000000000000000e+02,-2.055477731522367124e-01,0.000000000000000000e+00
6.840000000000000000e+02,1.753605889647232019e-01,0.000000000000000000e+00
6.850000000000000000e+02,1.393029088408714034e-01,0.000000000000000000e+00
6.860000000000000000e+02,6.239610142324474307e-01,0.000000000000000000e+00
6.870000000000000000e+02,6.997410715323333363e-01,0.000000000000000000e+00
6.880000000000000000e+02,7.069143926819302370e-01,0.000000000000000000e+00
6.890000000000000000e+02,-1.165457924834577830e-01,0.000000000000000000e+00
6.900000000000000000e+02,-3.318373185648721413e-01,0.000000000000000000e+00
6.910000000000000000e+02,-4.100963327161132321e-01,0.000000000000000000e+00
6.920000000000000000e+02,-2.968062316440938653e-01,0.000000000000000000e+00
6.930000000000000000e+02,-4.003382324497478661e-01,0.000000000000000000e+00
6.940000000000000000e+02,-1.284868058186311168e-01,0.000000000000000000e+00
6.950000000000000000e+02,-6.119537553317758727e-01,0.000000000000000000e+00
6.960000000000000000e+02,5.575688382917270758e+00,0.000000000000000000e+00
6.970000000000000000e+02,1.372662705467761812e+00,1.000000000000000000e+00
6.980000000000000000e+02,-2.011010658228554515e+00,0.000000000000000000e+00
6.990000000000000000e+02,-2.630335087754069878e-01,0.000000000000000000e+00
7.000000000000000000e+02,-1.073118315053243066e+00,0.000000000000000000e+00
7.010000000000000000e+02,-4.761230328517444543e-01,0.000000000000000000e+00
7.020000000000000000e+02,-5.859503759425874758e-01,0.000000000000000000e+00
7.030000000000000000e+02,-3.748906142332485980e-01,0.000000000000000000e+00
7.040000000000000000e+02,-3.213850624073258389e-01,0.000000000000000000e+00
7.050000000000000000e+02,-5.739091757647993286e-02,0.000000000000000000e+00
7.060000000000000000e+02,-8.272391378200261158e-02,0.000000000000000000e+00
7.070000000000000000e+02,3.339109776397342633e-01,0.000000000000000000e+00
7.080000000000000000e+02,5.086121842482699273e-01,0.000000000000000000e+00
7.090000000000000000e+02,9.515923394089238485e-01,0.000000000000000000e+00
7.100000000000000000e+02,1.359383473228325645e+00,0.000000000000000000e+00
7.110000000000000000e+02,1.369138302729792089e+00,0.000000000000000000e+00
7.120000000000000000e+02,1.076386067667693958e+00,0.000000000000000000e+00
7.130000000000000000e+02,9.723771355603996747e-02,0.000000000000000000e+00
7.140000000000000000e+02,-5.485425520638448349e-01,0.000000000000000000e+00
7.150000000000000000e+02,-8.489985194724858353e-01,0.000000000000000000e+00
7.160000000000000000e+02,-8.876058036388081440e-01,0.000000000000000000e+00
7.170000000000000000e+02,-7.815415831858094631e-01,0.000000000000000000e+00
7.180000000000000000e+02,-8.478699728641575506e-01,0.000000000000000000e+00
7.190000000000000000e+02,-6.322113704063070383e-01,0.000000000000000000e+00
7.200000000000000000e+02,-6.619151246590794235e-01,0.000000000000000000e+00
7.210000000000000000e+02,-4.527591482854332328e-01,0.000000000000000000e+00
7.220000000000000000e+02,-5.531212782212244772e-01,0.000000000000000000e+00
7.230000000000000000e+02,-3.569219342254409955e-01,0.000000000000000000e+00
7.240000000000000000e+02,-3.158741930821831745e-01,0.000000000000000000e+00
7.250000000000000000e+02,-2.466992406764490497e-01,0.000000000000000000e+00
7.260000000000000000e+02,-1.501623326406089642e-01,0.000000000000000000e+00
7.270000000000000000e+02,-2.387896606562458501e-01,0.000000000000000000e+00
7.280000000000000000e+02,-9.964964519708881252e-02,0.000000000000000000e+00
7.290000000000000000e+02,7.980356314871618617e-02,0.000000000000000000e+00
7.300000000000000000e+02,-5.659523735882762002e-02,0.000000000000000000e+00
7.310000000000000000e+02,1.255080747672012720e-01,0.000000000000000000e+00
7.320000000000000000e+02,1.436573018282102411e-02,0.000000000000000000e+00
7.330000000000000000e+02,2.229272822790087649e-01,0.000000000000000000e+00
7.340000000000000000e+02,1.382426300957324272e-01,0.000000000000000000e+00
7.350000000000000000e+02,2.565122513634131574e-01,0.000000000000000000e+00
7.360000000000000000e+02,3.502502209455881643e-01,0.000000000000000000e+00
7.370000000000000000e+02,6.774192066433273318e-01,0.000000000000000000e+00
7.380000000000000000e+02,8.424181620941409987e-01,0.000000000000000000e+00
7.390000000000000000e+02,7.776518128575798938e-01,0.000000000000000000e+00
7.400000000000000000e+02,1.749018484054514488e-01,0.000000000000000000e+00
7.410000000000000000e+02,-1.925155754851529677e-01,0.000000000000000000e+00
7.420000000000000000e+02,-1.489059353175891665e-01,0.000000000000000000e+00
7.430000000000000000e+02,-6.253121581485195091e-02,0.000000000000000000e+00
7.440000000000000000e+02,-3.673302788507445960e-01,0.000000000000000000e+00
7.450000000000000000e+02,-2.453806264179896890e-01,0.000000000000000000e+00
7.460000000000000000e+02,5.792252027938189773e-02,0.000000000000000000e+00
7.470000000000000000e+02,5.301431811957435514e+00,0.000000000000000000e+00
7.480000000000000000e+02,9.332062219397514458e-01,1.000000000000000000e+00
7.490000000000000000e+02,-1.661311723217323566e+00,0.000000000000000000e+00
7.500000000000000000e+02,-2.601467496673905422e-01,0.000000000000000000e+00
7.510000000000000000e+02,-8.726548199664705407e-01,0.000000000000000000e+00
7.520000000000000000e+02,-4.031837872860217775e-01,0.000000000000000000e+00
7.530000000000000000e+02,-5.514891365490622865e-01,0.000000000000000000e+00
7.540000000000000000e+02,-1.508099884831667625e-01,0.000000000000000000e+00
7.550000000000000000e+02,-4.665175542026077093e-01,0.000000000000000000e+00
7.560000000000000000e+02,5.015902184775351130e-02,0.000000000000000000e+00
7.570000000000000000e+02,-1.245722506711274408e-01,0.000000000000000000e+00
7.580000000000000000e+02,4.335747479817944061e-01,0.000000000000000000e+00
7.590000000000000000e+02,3.983869796321231616e-01,0.000000000000000000e+00
7.600000000000000000e+02,1.188067185294165995e+00,0.000000000000000000e+00
7.610000000000000000e+02,1.161039355655750116e+00,0.000000000000000000e+00
7.620000000000000000e+02,1.271553584638332346e+00,0.000000000000000000e+00
7.630000000000000000e+02,8.333610701191983550e-01,0.000000000000000000e+00
7.640000000000000000e+02,-2.982217037076746735e-03,0.000000000000000000e+00
7.650000000000000000e+02,-5.887696032745223240e-01,0.000000000000000000e+00
7.660000000000000000e+02,-9.993524211528632684e-01,0.000000000000000000e+00
7.670000000000000000e+02,-1.045321145027028997e+00,0.000000000000000000e+00
7.680000000000000000e+02,-8.183682314929996426e-01,0.000000000000000000e+00
7.690000000000000000e+02,-1.066231546057063717e+00,0.000000000000000000e+00
7.700000000000000000e+02,-5.143301504546718972e-01,0.000000000000000000e+00
7.710000000000000000e+02,-9.510674388628391762e-01,0.000000000000000000e+00
7.720000000000000000e+02,-4.533603005156568999e-01,0.000000000000000000e+00
7.730000000000000000e+02,-5.789924788556964907e-01,0.000000000000000000e+00
7.740000000000000000e+02,-4.116626953456809512e-01,0.000000000000000000e+00
7.750000000000000000e+02,-5.807956087072927431e-01,0.000000000000000000e+00
7.760000000000000000e+02,-1.597685403405865734e-01,0.000000000000000000e+00
7.770000000000000000e+02,-3.590373024428377136e-01,0.000000000000000000e+00
7.780000000000000000e+02,-1.063325185695224440e-01,0.000000000000000000e+00
7.790000000000000000e+02,-2.473976192103912175e-01,0.000000000000000000e+00
7.800000000000000000e+02,-5.176871179738308515e-02,0.000000000000000000e+00
7.810000000000000000e+02,-2.399405254954530831e-01,0.000000000000000000e+00
7.820000000000000000e+02,5.663804811457748972e-02,0.000000000000000000e+00
7.830000000000000000e+02,-6.299667633887295892e-02,0.000000000000000000e+00
7.840000000000000000e+02,6.136460519853754320e-02,0.000000000000000000e+00
7.850000000000000000e+02,1.044781167918994030e-01,0.000000000000000000e+00
7.860000000000000000e+02,4.184308814714707836e-01,0.000000000000000000e+00
7.870000000000000000e+02,6.585257784542791759e-01,0.000000000000000000e+00
7.880000000000000000e+02,8.485186447905956886e-01,0.000000000000000000e+00
7.890000000000000000e+02,-1.112791403238203164e-01,0.000000000000000000e+00
7.900000000000000000e+02,1.042461973484637844e-01,0.000000000000000000e+00
7.910000000000000000e+02,-4.691889348174294594e-01,0.000000000000000000e+00
7.920000000000000000e+02,1.029767782061619813e-01,0.000000000000000000e+00
7.930000000000000000e+02,-6.122987873022106564e-01,0.000000000000000000e+00
7.940000000000000000e+02,1.741451533653535777e-01,0.000000000000000000e+00
7.950000000000000000e+02,-1.029589853525596288e+00,0.000000000000000000e+00
7.960000000000000000e+02,3.761803607562389740e+00,0.000000000000000000e+00
7.970000000000000000e+02,3.605480218901825573e+00,0.000000000000000000e+00
7.980000000000000000e+02,-1.853848658142481343e+00,1.000000000000000000e+00
7.990000000000000000e+02,-5.343914640928962845e-01,0.000000000000000000e+00
8.000000000000000000e+02,-8.358603089352084625e-01,0.000000000000000000e+00
8.010000000000000000e+02,-3.730919661678335220e-01,0.000000000000000000e+00
8.020000000000000000e+02,-6.580334604195789971e-01,0.000000000000000000e+00
8.030000000000000000e+02,-2.589981195772133454e-02,0.000000000000000000e+00
8.040000000000000000e+02,-4.212166031426962665e-01,0.000000000000000000e+00
8.050000000000000000e+02,-7.162131849685511586e-02,0.000000000000000000e+00
8.060000000000000000e+02,-1.073467052798923738e-01,0.000000000000000000e+00
8.070000000000000000e+02,2.943999961982743940e-01,0.000000000000000000e+00
8.080000000000000000e+02,4.285128558225411166e-01,0.000000000000000000e+00
8.090000000000000000e+02,8.327960898599049422e-01,0.000000000000000000e+00
8.100000000000000000e+02,1.205467812650382831e+00,0.000000000000000000e+00
8.110000000000000000e+02,1.386922946590720240e+00,0.000000000000000000e+00
8.120000000000000000e+02,1.211689027330726365e+00,0.000000000000000000e+00
8.130000000000000000e+02,3.437262430713355910e-01,0.000000000000000000e+00
8.140000000000000000e+02,-4.562513274487486337e-01,0.000000000000000000e+00
8.150000000000000000e+02,-7.714453765970419319e-01,0.000000000000000000e+00
8.160000000000000000e+02,-1.091284805089987042e+00,0.000000000000000000e+00
8.170000000000000000e+02,-8.735134419225553115e-01,0.000000000000000000e+00
8.180000000000000000e+02,-9.282479466613057228e-01,0.000000000000000000e+00
8.190000000000000000e+02,-7.443912794401074118e-01,0.000000000000000000e+00
8.200000000000000000e+02,-6.429596422089396413e-01,0.000000000000000000e+00
8.210000000000000000e+02,-5.921971978510017776e-01,0.000000000000000000e+00
8.220000000000000000e+02,-6.219409998172358289e-01,0.000000000000000000e+00
8.230000000000000000e+02,-5.848602256138200062e-01,0.000000000000000000e+00
8.240000000000000000e+02,-4.012481859005027629e-01,0.000000000000000000e+00
8.250000000000000000e+02,-3.159948762795760091e-01,0.000000000000000000e+00
8.260000000000000000e+02,-1.726818769731633396e-01,0.000000000000000000e+00
8.270000000000000000e+02,-3.872183079139325801e-01,0.000000000000000000e+00
8.280000000000000000e+02,3.168726868351551262e-02,0.000000000000000000e+00
8.290000000000000000e+02,-2.184495288150722636e-01,0.000000000000000000e+00
8.300000000000000000e+02,-3.733324103730328164e-02,0.000000000000000000e+00
8.310000000000000000e+02,-8.801137396516107991e-02,0.000000000000000000e+00
8.320000000000000000e+02,1.554221481652355852e-01,0.000000000000000000e+00
8.330000000000000000e+02,-7.248407380971373659e-02,0.000000000000000000e+00
8.340000000000000000e+02,2.418580130121070204e-01,0.000000000000000000e+00
8.350000000000000000e+02,2.886099428152036350e-01,0.000000000000000000e+00
8.360000000000000000e+02,5.648927064140871757e-01,0.000000000000000000e+00
8.370000000000000000e+02,7.493981668587974543e-01,0.000000000000000000e+00
8.380000000000000000e+02,8.274067212767997059e-01,0.000000000000000000e+00
8.390000000000000000e+02,2.168477685847163827e-01,0.000000000000000000e+00
8.400000000000000000e+02,7.287766171061819953e-02,0.000000000000000000e+00
8.410000000000000000e+02,-3.596222590403378994e-01,0.000000000000000000e+00
8.420000000000000000e+02,-6.241242882883971804e-02,0.000000000000000000e+00
8.430000000000000000e+02,-5.405581048985049764e-01,0.000000000000000000e+00
8.440000000000000000e+02,1.798863887312256715e-01,0.000000000000000000e+00
8.450000000000000000e+02,-9.449524358850850403e-01,0.000000000000000000e+00
8.460000000000000000e+02,4.593518374982321184e+00,0.000000000000000000e+00
8.470000000000000000e+02,3.391886444800570555e+00,1.000000000000000000e+00
8.480000000000000000e+02,-2.123017528578774460e+00,0.000000000000000000e+00
8.490000000000000000e+02,-3.206866671411734981e-01,0.000000000000000000e+00
8.500000000000000000e+02,-8.597162762350213372e-01,0.000000000000000000e+00
8.510000000000000000e+02,-3.949343493328565380e-01,0.000000000000000000e+00
8.520000000000000000e+02,-6.583126143520897644e-01,0.000000000000000000e+00
8.530000000000000000e+02,-1.872633132162281056e-01,0.000000000000000000e+00
8.540000000000000000e+02,-3.654336750838924619e-01,0.000000000000000000e+00
8.550000000000000000e+02,-8.149701262008304803e-02,0.000000000000000000e+00
8.560000000000000000e+02,-4.670463079358595088e-02,0.000000000000000000e+00
8.570000000000000000e+02,3.266184179942660526e-01,0.000000000000000000e+00
8.580000000000000000e+02,4.803446595118748830e-01,0.000000000000000000e+00
8.590000000000000000e+02,1.084013740736469611e+00,0.000000000000000000e+00
8.600000000000000000e+02,1.033272118326830968e+00,0.000000000000000000e+00
8.610000000000000000e+02,1.266082788969713047e+00,0.000000000000000000e+00
8.620000000000000000e+02,1.153769521538785758e+00,0.000000000000000000e+00
8.630000000000000000e+02,6.451145309906816672e-02,0.000000000000000000e+00
8.640000000000000000e+02,-4.264855673404843173e-01,0.000000000000000000e+00
8.650000000000000000e+02,-9.424365491738381229e-01,0.000000000000000000e+00
8.660000000000000000e+02,-1.059429016930597989e+00,0.000000000000000000e+00
8.670000000000000000e+02,-8.764459907470157907e-01,0.000000000000000000e+00
8.680000000000000000e+02,-9.230520841116826025e-01,0.000000000000000000e+00
8.690000000000000000e+02,-8.422543333919939590e-01,0.000000000000000000e+00
8.700000000000000000e+02,-7.806132725251447857e-01,0.000000000000000000e+00
8.710000000000000000e+02,-6.654456830690064217e-01,0.000000000000000000e+00
8.720000000000000000e+02,-6.475401406928024128e-01,0.000000000000000000e+00
8.730000000000000000e+02,-6.568210969033249080e-01,0.000000000000000000e+00
8.740000000000000000e+02,-4.557954604191657988e-01,0.000000000000000000e+00
8.750000000000000000e+02,-5.425267600667323942e-01,0.000000000000000000e+00
8.760000000000000000e+02,-2.128514123586804363e-01,0.000000000000000000e+00
8.770000000000000000e+02,-4.236244601131153309e-01,0.000000000000000000e+00
8.780000000000000000e+02,-1.153717800736716453e-01,0.000000000000000000e+00
8.790000000000000000e+02,-2.677914349499592173e-01,0.000000000000000000e+00
8.800000000000000000e+02,-1.745619970518807185e-01,0.000000000000000000e+00
8.810000000000000000e+02,-3.356694275563895657e-02,0.000000000000000000e+00
8.820000000000000000e+02,-8.462003418401910226e-02,0.000000000000000000e+00
8.830000000000000000e+02,-1.720044878904245789e-01,0.000000000000000000e+00
8.840000000000000000e+02,2.141740248135356461e-01,0.000000000000000000e+00
8.850000000000000000e+02,2.376322919701287506e-01,0.000000000000000000e+00
8.860000000000000000e+02,6.327848555025484822e-01,0.000000000000000000e+00
8.870000000000000000e+02,7.580353709529035200e-01,0.000000000000000000e+00
8.880000000000000000e+02,6.465769151643933066e-01,0.000000000000000000e+00
8.890000000000000000e+02,9.041268989570888648e-02,0.000000000000000000e+00
8.900000000000000000e+02,-4.485023568174272696e-03,0.000000000000000000e+00
8.910000000000000000e+02,-3.385262598566627368e-01,0.000000000000000000e+00
8.920000000000000000e+02,-2.132231928216457295e-01,0.000000000000000000e+00
8.930000000000000000e+02,-1.957921185632345296e-01,0.000000000000000000e+00
8.940000000000000000e+02,-8.300329628682216743e-02,0.000000000000000000e+00
8.950000000000000000e+02,-3.868900960361053021e-01,0.000000000000000000e+00
8.960000000000000000e+02,5.610487602534787399e+00,0.000000000000000000e+00
8.970000000000000000e+02,1.876519357973317259e+00,1.000000000000000000e+00
8.980000000000000000e+02,-1.842749343012469510e+00,0.000000000000000000e+00
8.990000000000000000e+02,-1.721406496107742712e-01,0.000000000000000000e+00
9.000000000000000000e+02,-9.921137580422080271e-01,0.000000000000000000e+00
9.010000000000000000e+02,-2.807992948692379365e-01,0.000000000000000000e+00
9.020000000000000000e+02,-6.223457231778325438e-01,0.000000000000000000e+00
9.030000000000000000e+02,-2.284802490612900250e-01,0.000000000000000000e+00
9.040000000000000000e+02,-2.791406980336564869e-01,0.000000000000000000e+00
9.050000000000000000e+02,1.047019995414469051e-01,0.000000000000000000e+00
9.060000000000000000e+02,4.004576821128737196e-02,0.000000000000000000e+00
9.070000000000000000e+02,3.679454904660815484e-01,0.000000000000000000e+00
9.080000000000000000e+02,6.324993587747559376e-01,0.000000000000000000e+00
9.090000000000000000e+02,9.990345911588172090e-01,0.000000000000000000e+00
9.100000000000000000e+02,1.274273400083573149e+00,0.000000000000000000e+00
9.110000000000000000e+02,1.602399041315155204e+00,0.000000000000000000e+00
9.120000000000000000e+02,1.103120203595295834e+00,0.000000000000000000e+00
9.130000000000000000e+02,1.814361531014588025e-01,0.000000000000000000e+00
9.140000000000000000e+02,-6.726756816844544629e-01,0.000000000000000000e+00
9.150000000000000000e+02,-8.209211021719214907e-01,0.000000000000000000e+00
9.160000000000000000e+02,-1.064619160341678361e+00,0.000000000000000000e+00
9.170000000000000000e+02,-8.662513589335026909e-01,0.000000000000000000e+00
9.180000000000000000e+02,-8.083953996400200515e-01,0.000000000000000000e+00
9.190000000000000000e+02,-8.078132880869308696e-01,0.000000000000000000e+00
9.200000000000000000e+02,-7.931048876127766434e-01,0.000000000000000000e+00
9.210000000000000000e+02,-7.089798972365644047e-01,0.000000000000000000e+00
9.220000000000000000e+02,-5.234498678884873524e-01,0.000000000000000000e+00
9.230000000000000000e+02,-6.072075551279381145e-01,0.000000000000000000e+00
9.240000000000000000e+02,-4.448042101047242625e-01,0.000000000000000000e+00
9.250000000000000000e+02,-5.095762906210221654e-01,0.000000000000000000e+00
9.260000000000000000e+02,-3.659252201216629530e-01,0.000000000000000000e+00
9.270000000000000000e+02,-2.191458060916978423e-01,0.000000000000000000e+00
9.280000000000000000e+02,-2.762223929590957305e-01,0.000000000000000000e+00
9.290000000000000000e+02,-2.280831051277545651e-01,0.000000000000000000e+00
9.300000000000000000e+02,-7.823601813265877725e-02,0.000000000000000000e+00
9.310000000000000000e+02,-1.678041461246698729e-01,0.000000000000000000e+00
9.320000000000000000e+02,-3.836741374381733797e-03,0.000000000000000000e+00
9.330000000000000000e+02,-3.119541865704585082e-02,0.000000000000000000e+00
9.340000000000000000e+02,1.037229922386503078e-01,0.000000000000000000e+00
9.350000000000000000e+02,2.832210334090846660e-01,0.000000000000000000e+00
9.360000000000000000e+02,5.047007116747863620e-01,0.000000000000000000e+00
9.370000000000000000e+02,7.908225884264196148e-01,0.000000000000000000e+00
9.380000000000000000e+02,4.917521800319101799e-01,0.000000000000000000e+00
9.390000000000000000e+02,-3.486007275911728875e-02,0.000000000000000000e+00
9.400000000000000000e+02,-3.068656261851908651e-01,0.000000000000000000e+00
9.410000000000000000e+02,-2.373690744773344630e-01,0.000000000000000000e+00
9.420000000000000000e+02,-4.944067139040411174e-01,0.000000000000000000e+00
9.430000000000000000e+02,-5.222323762420935656e-02,0.000000000000000000e+00
9.440000000000000000e+02,-5.249845047599391856e-01,0.000000000000000000e+00
9.450000000000000000e+02,8.728956026488209341e-01,0.000000000000000000e+00
9.460000000000000000e+02,5.573459003187716476e+00,0.000000000000000000e+00
9.470000000000000000e+02,-6.292245123881070601e-01,1.000000000000000000e+00
9.480000000000000000e+02,-1.164972611358649601e+00,0.000000000000000000e+00
9.490000000000000000e+02,-3.726208846185835588e-01,0.000000000000000000e+00
9.500000000000000000e+02,-6.627109202932108811e-01,0.000000000000000000e+00
9.510000000000000000e+02,-5.410277486685124426e-01,0.000000000000000000e+00
9.520000000000000000e+02,-3.791634233983500191e-01,0.000000000000000000e+00
9.530000000000000000e+02,-3.440530055285560551e-01,0.000000000000000000e+00
9.540000000000000000e+02,-1.971482665620789276e-01,0.000000000000000000e+00
9.550000000000000000e+02,5.392167417921778921e-02,0.000000000000000000e+00
9.560000000000000000e+02,1.012877829046126277e-01,0.000000000000000000e+00
9.570000000000000000e+02,3.459399929277033325e-01,0.000000000000000000e+00
9.580000000000000000e+02,9.081189714756507936e-01,0.000000000000000000e+00
9.590000000000000000e+02,1.045027954563600092e+00,0.000000000000000000e+00
9.600000000000000000e+02,1.219769035388176937e+00,0.000000000000000000e+00
9.610000000000000000e+02,1.408315377813895042e+00,0.000000000000000000e+00
9.620000000000000000e+02,6.784917178315934549e-01,0.000000000000000000e+00
9.630000000000000000e+02,-1.056662135360212917e-01,0.000000000000000000e+00
9.640000000000000000e+02,-6.397313085434009894e-01,0.000000000000000000e+00
9.650000000000000000e+02,-9.702109581903582969e-01,0.000000000000000000e+00
9.660000000000000000e+02,-9.621831857533829080e-01,0.000000000000000000e+00
9.670000000000000000e+02,-7.567415817193400285e-01,0.000000000000000000e+00
9.680000000000000000e+02,-8.156889901243590257e-01,0.000000000000000000e+00
9.690000000000000000e+02,-7.592521274881227633e-01,0.000000000000000000e+00
9.700000000000000000e+02,-6.268578176553503134e-01,0.000000000000000000e+00
9.710000000000000000e+02,-6.388544461743612679e-01,0.000000000000000000e+00
9.720000000000000000e+02,-4.448560072520130193e-01,0.000000000000000000e+00
9.730000000000000000e+02,-4.897615856929059541e-01,0.000000000000000000e+00
9.740000000000000000e+02,-3.535768079291138344e-01,0.000000000000000000e+00
9.750000000000000000e+02,-3.098546718133365907e-01,0.000000000000000000e+00
9.760000000000000000e+02,-2.207156682465546693e-01,0.000000000000000000e+00
9.770000000000000000e+02,-2.667748198497161827e-01,0.000000000000000000e+00
9.780000000000000000e+02,-1.098540740808963551e-01,0.000000000000000000e+00
9.790000000000000000e+02,-6.619125351164190096e-02,0.000000000000000000e+00
9.800000000000000000e+02,-2.717491388297300567e-02,0.000000000000000000e+00
9.810000000000000000e+02,-1.815071624184165788e-01,0.000000000000000000e+00
9.820000000000000000e+02,5.380638350325952363e-02,0.000000000000000000e+00
9.830000000000000000e+02,2.095904909668618379e-02,0.000000000000000000e+00
9.840000000000000000e+02,3.668206459230570760e-01,0.000000000000000000e+00
9.850000000000000000e+02,6.687345884926337858e-01,0.000000000000000000e+00
9.860000000000000000e+02,7.915248254449779308e-01,0.000000000000000000e+00
9.870000000000000000e+02,2.350823903510119994e-01,0.000000000000000000e+00
9.880000000000000000e+02,8.895823150895302081e-03,0.000000000000000000e+00
9.890000000000000000e+02,-3.655921905642641190e-01,0.000000000000000000e+00
9.900000000000000000e+02,-6.353299348466040497e-02,0.000000000000000000e+00
9.910000000000000000e+02,-6.558020739784611308e-01,0.000000000000000000e+00
9.920000000000000000e+02,2.845456632893854088e-01,0.000000000000000000e+00
9.930000000000000000e+02,-9.979372076755386178e-01,0.000000000000000000e+00
9.940000000000000000e+02,2.087711352972924761e+00,0.000000000000000000e+00
9.950000000000000000e+02,5.243633807137144665e+00,0.000000000000000000e+00
9.960000000000000000e+02,-1.127794364573365238e+00,1.000000000000000000e+00
9.970000000000000000e+02,-7.446523288653470463e-01,0.000000000000000000e+00
9.980000000000000000e+02,-7.153045628075059836e-01,0.000000000000000000e+00
9.990000000000000000e+02,-4.265632363018757589e-01,0.000000000000000000e+00
1.000000000000000000e+03,-4.133221232115319999e-01,0.000000000000000000e+00
1.001000000000000000e+03,-3.706844516917524035e-01,0.000000000000000000e+00
1.002000000000000000e+03,-1.871267938831747968e-01,0.000000000000000000e+00
1.003000000000000000e+03,-9.060385610670931844e-02,0.000000000000000000e+00
1.004000000000000000e+03,6.954022073936750627e-03,0.000000000000000000e+00
1.005000000000000000e+03,2.586422675039986019e-01,0.000000000000000000e+00
1.006000000000000000e+03,3.184426762678930767e-01,0.000000000000000000e+00
1.007000000000000000e+03,8.788196857278092189e-01,0.000000000000000000e+00
1.008000000000000000e+03,1.247431759927610795e+00,0.000000000000000000e+00
1.009000000000000000e+03,1.452187626792701858e+00,0.000000000000000000e+00
1.010000000000000000e+03,1.378363841066634787e+00,0.000000000000000000e+00
1.011000000000000000e+03,6.821948977765814881e-01,0.000000000000000000e+00
1.012000000000000000e+03,-2.799655455266500947e-01,0.000000000000000000e+00
1.013000000000000000e+03,-7.249543535193814225e-01,0.000000000000000000e+00
1.014000000000000000e+03,-7.906406748302190479e-01,0.000000000000000000e+00
1.015000000000000000e+03,-8.648184627042705408e-01,0.000000000000000000e+00
1.016000000000000000e+03,-9.194165498211684939e-01,0.000000000000000000e+00
1.017000000000000000e+03,-7.287636068928856625e-01,0.000000000000000000e+00
1.018000000000000000e+03,-7.513669930681968756e-01,0.000000000000000000e+00
1.019000000000000000e+03,-6.382740928201281472e-01,0.000000000000000000e+00
1.020000000000000000e+03,-3.981041391297672760e-01,0.000000000000000000e+00
1.021000000000000000e+03,-7.696584006227064068e-01,0.000000000000000000e+00
1.022000000000000000e+03,-2.143995677378068843e-01,0.000000000000000000e+00
1.023000000000000000e+03,-3.534898453021818598e-01,0.000000000000000000e+00
1.024000000000000000e+03,-3.847396865382767817e-01,0.000000000000000000e+00
1.025000000000000000e+03,-3.730739820904041548e-01,0.000000000000000000e+00
1.026000000000000000e+03,-6.630371694973681562e-02,0.000000000000000000e+00
1.027000000000000000e+03,-2.368962692281630367e-01,0.000000000000000000e+00
1.028000000000000000e+03,-3.639125174317212053e-02,0.000000000000000000e+00
1.029000000000000000e+03,-1.573967606394219565e-01,0.000000000000000000e+00
1.030000000000000000e+03,1.674297403278315888e-01,0.000000000000000000e+00
1.031000000000000000e+03,-1.848756302476201874e-01,0.000000000000000000e+00
1.032000000000000000e+03,1.385429222675827465e-01,0.000000000000000000e+00
1.033000000000000000e+03,2.257555922432623041e-01,0.000000000000000000e+00
1.034000000000000000e+03,5.677056042385094647e-01,0.000000000000000000e+00
1.035000000000000000e+03,6.928910959531491276e-01,0.000000000000000000e+00
1.036000000000000000e+03,7.509562235797029306e-01,0.000000000000000000e+00
1.037000000000000000e+03,1.412604939633872736e-01,0.000000000000000000e+00
1.038000000000000000e+03,9.011969511346010209e-02,0.000000000000000000e+00
1.039000000000000000e+03,-5.793840045082604417e-01,0.000000000000000000e+00
1.040000000000000000e+03,-5.730482864671691823e-02,0.000000000000000000e+00
1.041000000000000000e+03,-5.390745829575643855e-01,0.000000000000000000e+00
1.042000000000000000e+03,1.293284718320744930e-01,0.000000000000000000e+00
1.043000000000000000e+03,-1.074848466147713566e+00,0.000000000000000000e+00
1.044000000000000000e+03,4.413741657862551904e+00,0.000000000000000000e+00
1.045000000000000000e+03,3.545457019321572645e+00,1.000000000000000000e+00
1.046000000000000000e+03,-2.032655171143436856e+00,0.000000000000000000e+00
1.047000000000000000e+03,-5.336361248091295861e-01,0.000000000000000000e+00
1.048000000000000000e+03,-1.091120863324406942e+00,0.000000000000000000e+00
1.049000000000000000e+03,-2.713129996388507492e-01,0.000000000000000000e+00
1.050000000000000000e+03,-7.301319084164442641e-01,0.000000000000000000e+00
1.051000000000000000e+03,-2.007107094470804154e-01,0.000000000000000000e+00
1.052000000000000000e+03,-3.389000591241028704e-01,0.000000000000000000e+00
1.053000000000000000e+03,-1.230062891508072187e-01,0.000000000000000000e+00
1.054000000000000000e+03,-2.468378036575011591e-01,0.000000000000000000e+00
1.055000000000000000e+03,3.462781774215994979e-01,0.000000000000000000e+00
1.056000000000000000e+03,3.242881978147731381e-01,0.000000000000000000e+00
1.057000000000000000e+03,1.045212305289578536e+00,0.000000000000000000e+00
1.058000000000000000e+03,1.186378495590787452e+00,0.000000000000000000e+00
1.059000000000000000e+03,1.462261589142133777e+00,0.000000000000000000e+00
1.060000000000000000e+03,1.009996877452972841e+00,0.000000000000000000e+00
1.061000000000000000e+03,4.403930239576986372e-01,0.000000000000000000e+00
1.062000000000000000e+03,-6.339872125727767926e-01,0.000000000000000000e+00
1.063000000000000000e+03,-7.067677011948215737e-01,0.000000000000000000e+00
1.064000000000000000e+03,-9.462310061167354958e-01,0.000000000000000000e+00
1.065000000000000000e+03,-9.510247888186369458e-01,0.000000000000000000e+00
1.066000000000000000e+03,-7.387191664154177939e-01,0.000000000000000000e+00
1.067000000000000000e+03,-8.697890939289195655e-01,0.000000000000000000e+00
1.068000000000000000e+03,-6.372656654478949800e-01,0.000000000000000000e+00
1.069000000000000000e+03,-6.041822945435957326e-01,0.000000000000000000e+00
1.070000000000000000e+03,-5.213264155613495099e-01,0.000000000000000000e+00
1.071000000000000000e+03,-6.360565399414527255e-01,0.000000000000000000e+00
1.072000000000000000e+03,-4.320890901745322310e-01,0.000000000000000000e+00
1.073000000000000000e+03,-4.558176480940788200e-01,0.000000000000000000e+00
1.074000000000000000e+03,-3.426828918665582591e-01,0.000000000000000000e+00
1.075000000000000000e+03,-1.556485079998681520e-01,0.000000000000000000e+00
1.076000000000000000e+03,-2.860103055909730130e-01,0.000000000000000000e+00
1.077000000000000000e+03,-1.985737630180274202e-02,0.000000000000000000e+00
1.078000000000000000e+03,-3.139105259476042409e-02,0.000000000000000000e+00
1.079000000000000000e+03,-1.173848120630199415e-01,0.000000000000000000e+00
1.080000000000000000e+03,7.460266123065222021e-02,0.000000000000000000e+00
1.081000000000000000e+03,-1.334574956105703258e-01,0.000000000000000000e+00
1.082000000000000000e+03,2.093435498923258142e-01,0.000000000000000000e+00
1.083000000000000000e+03,2.418989391969548486e-01,0.000000000000000000e+00
1.084000000000000000e+03,6.467682148261589825e-01,0.000000000000000000e+00
1.085000000000000000e+03,8.609538456065889411e-01,0.000000000000000000e+00
1.086000000000000000e+03,7.218819263754345794e-01,0.000000000000000000e+00
1.087000000000000000e+03,5.022980276338916139e-02,0.000000000000000000e+00
1.088000000000000000e+03,7.962021882554968025e-03,0.000000000000000000e+00
1.089000000000000000e+03,-4.083938427849405084e-01,0.000000000000000000e+00
1.090000000000000000e+03,-2.295674555982066267e-01,0.000000000000000000e+00
1.091000000000000000e+03,-4.891639937295470530e-01,0.000000000000000000e+00
1.092000000000000000e+03,-2.212774069469642113e-01,0.000000000000000000e+00
1.093000000000000000e+03,-7.152308924166278503e-01,0.000000000000000000e+00
1.094000000000000000e+03,4.703920478213776235e+00,0.000000000000000000e+00
1.095000000000000000e+03,3.085769266845852510e+00,1.000000000000000000e+00
1.096000000000000000e+03,-2.299131078663984251e+00,0.000000000000000000e+00
1.097000000000000000e+03,-2.078934762861399943e-01,0.000000000000000000e+00
1.098000000000000000e+03,-9.570607794829338877e-01,0.000000000000000000e+00
1.099000000000000000e+03,-3.086582615940274277e-01,0.000000000000000000e+00
1.100000000000000000e+03,-7.034781973421164736e-01,0.000000000000000000e+00
1.101000000000000000e+03,-3.756463221568578925e-01,0.000000000000000000e+00
1.102000000000000000e+03,-4.979967525114358251e-01,0.000000000000000000e+00
1.103000000000000000e+03,-1.066544404833386916e-01,0.000000000000000000e+00
1.104000000000000000e+03,-2.703814943506539087e-02,0.000000000000000000e+00
1.105000000000000000e+03,3.244187227308801269e-01,0.000000000000000000e+00
1.106000000000000000e+03,2.282297981749925042e-01,0.000000000000000000e+00
1.107000000000000000e+03,9.715209130243864788e-01,0.000000000000000000e+00
1.108000000000000000e+03,1.074827222188564191e+00,0.000000000000000000e+00
1.109000000000000000e+03,1.349700015043986401e+00,0.000000000000000000e+00
1.110000000000000000e+03,1.104164735788900176e+00,0.000000000000000000e+00
1.111000000000000000e+03,2.435090418569949289e-01,0.000000000000000000e+00
1.112000000000000000e+03,-5.479167670072053742e-01,0.000000000000000000e+00
1.113000000000000000e+03,-7.955634390635162312e-01,0.000000000000000000e+00
1.114000000000000000e+03,-1.165053347342089873e+00,0.000000000000000000e+00
1.115000000000000000e+03,-8.934981553497298723e-01,0.000000000000000000e+00
1.116000000000000000e+03,-9.877640404068190882e-01,0.000000000000000000e+00
1.117000000000000000e+03,-6.904097687502709357e-01,0.000000000000000000e+00
1.118000000000000000e+03,-7.900504687197211773e-01,0.000000000000000000e+00
1.119000000000000000e+03,-5.338509409588649834e-01,0.000000000000000000e+00
1.120000000000000000e+03,-7.312315727838170076e-01,0.000000000000000000e+00
1.121000000000000000e+03,-6.502534059509140763e-01,0.000000000000000000e+00
1.122000000000000000e+03,-5.621431163772071526e-01,0.000000000000000000e+00
1.123000000000000000e+03,-3.625129584560942697e-01,0.000000000000000000e+00
1.124000000000000000e+03,-3.398327019704417973e-01,0.000000000000000000e+00
1.125000000000000000e+03,-2.713615578728770794e-01,0.000000000000000000e+00
1.126000000000000000e+03,-2.473918583660358050e-01,0.000000000000000000e+00
1.127000000000000000e+03,-1.195500020240396061e-01,0.000000000000000000e+00
1.128000000000000000e+03,-1.902924865948626143e-01,0.000000000000000000e+00
1.129000000000000000e+03,-2.090111316122904295e-02,0.000000000000000000e+00
1.130000000000000000e+03,-7.106703053567225981e-02,0.000000000000000000e+00
1.131000000000000000e+03,7.751639297992925096e-04,0.000000000000000000e+00
1.132000000000000000e+03,2.640166791133736687e-02,0.000000000000000000e+00
1.133000000000000000e+03,5.236390589381464400e-01,0.000000000000000000e+00
1.134000000000000000e+03,6.087869376157903911e-01,0.000000000000000000e+00
1.135000000000000000e+03,1.055973283876283642e+00,0.000000000000000000e+00
1.136000000000000000e+03,4.159077479328751603e-01,0.000000000000000000e+00
1.137000000000000000e+03,1.175519897016302599e-02,0.000000000000000000e+00
1.138000000000000000e+03,-1.386592810126317521e-01,0.000000000000000000e+00
1.139000000000000000e+03,-1.945005639767399264e-01,0.000000000000000000e+00
1.140000000000000000e+03,-3.707198048315296646e-01,0.000000000000000000e+00
1.141000000000000000e+03,2.104707054837331726e-01,0.000000000000000000e+00
1.142000000000000000e+03,-5.503565416955297218e-01,0.000000000000000000e+00
1.143000000000000000e+03,1.667834983158358764e+00,0.000000000000000000e+00
1.144000000000000000e+03,5.108489885938476860e+00,0.000000000000000000e+00
1.145000000000000000e+03,-1.039285348347570137e+00,1.000000000000000000e+00
1.146000000000000000e+03,-6.331898164614581104e-01,0.000000000000000000e+00
1.147000000000000000e+03,-4.392193480843233355e-01,0.000000000000000000e+00
1.148000000000000000e+03,-4.462845392427222668e-01,0.000000000000000000e+00
1.149000000000000000e+03,-2.924686934090118817e-01,0.000000000000000000e+00
1.150000000000000000e+03,-1.732754009405477469e-01,0.000000000000000000e+00
1.151000000000000000e+03,-5.074192845194767931e-02,0.000000000000000000e+00
1.152000000000000000e+03,-1.775154091171220472e-01,0.000000000000000000e+00
1.153000000000000000e+03,1.644448366444495602e-01,0.000000000000000000e+00
1.154000000000000000e+03,3.507483519293461138e-01,0.000000000000000000e+00
1.155000000000000000e+03,3.617657404055215631e-01,0.000000000000000000e+00
1.156000000000000000e+03,9.628168984577181178e-01,0.000000000000000000e+00
1.157000000000000000e+03,1.039832763236907764e+00,0.000000000000000000e+00
1.158000000000000000e+03,1.348707726166655352e+00,0.000000000000000000e+00
1.159000000000000000e+03,1.459068558174305696e+00,0.000000000000000000e+00
1.160000000000000000e+03,6.398401180780406428e-01,0.000000000000000000e+00
1.161000000000000000e+03,-1.841949452887202965e-01,0.000000000000000000e+00
1.162000000000000000e+03,-7.132532554999420071e-01,0.000000000000000000e+00
1.163000000000000000e+03,-9.498966563244670702e-01,0.000000000000000000e+00
1.164000000000000000e+03,-9.615172504223830074e-01,0.000000000000000000e+00
1.165000000000000000e+03,-6.372397495465169648e-01,0.000000000000000000e+00
1.166000000000000000e+03,-7.706960274378606979e-01,0.000000000000000000e+00
1.167000000000000000e+03,-6.591239381486438953e-01,0.000000000000000000e+00
1.168000000000000000e+03,-7.053104849924040076e-01,0.000000000000000000e+00
1.169000000000000000e+03,-4.347153981599677364e-01,0.000000000000000000e+00
1.170000000000000000e+03,-5.980711098672942816e-01,0.000000000000000000e+00
1.171000000000000000e+03,-4.673416686995746083e-01,0.000000000000000000e+00
1.172000000000000000e+03,-3.653300076272724128e-01,0.000000000000000000e+00
1.173000000000000000e+03,-3.563148723511336269e-01,0.000000000000000000e+00
1.174000000000000000e+03,-5.067581967289637446e-02,0.000000000000000000e+00
1.175000000000000000e+03,-2.984920809378171502e-01,0.000000000000000000e+00
1.176000000000000000e+03,-1.943309880536906731e-01,0.000000000000000000e+00
1.177000000000000000e+03,-1.976200256655299692e-01,0.000000000000000000e+00
1.178000000000000000e+03,-1.479336231327311735e-01,0.000000000000000000e+00
1.179000000000000000e+03,-2.714811396324576243e-02,0.000000000000000000e+00
1.180000000000000000e+03,4.536457162161000589e-03,0.000000000000000000e+00
1.181000000000000000e+03,3.272089078452697364e-01,0.000000000000000000e+00
1.182000000000000000e+03,6.161386815149969554e-01,0.000000000000000000e+00
1.183000000000000000e+03,5.871212246294175152e-01,0.000000000000000000e+00
1.184000000000000000e+03,4.948545417948198577e-01,0.000000000000000000e+00
1.185000000000000000e+03,1.767192549855308575e-02,0.000000000000000000e+00
1.186000000000000000e+03,-4.392067638280836572e-01,0.000000000000000000e+00
1.187000000000000000e+03,-2.374166249321837396e-01,0.000000000000000000e+00
1.188000000000000000e+03,-3.583894739144193320e-01,0.000000000000000000e+00
1.189000000000000000e+03,-2.462094576367252208e-01,0.000000000000000000e+00
1.190000000000000000e+03,-7.041308790168717691e-01,0.000000000000000000e+00
1.191000000000000000e+03,1.173892111615595368e+00,0.000000000000000000e+00
1.192000000000000000e+03,5.400505028333957291e+00,0.000000000000000000e+00
1.193000000000000000e+03,-6.730794545393404826e-01,1.000000000000000000e+00
1.194000000000000000e+03,-9.558628811246615564e-01,0.000000000000000000e+00
1.195000000000000000e+03,-6.876794897996093558e-01,0.000000000000000000e+00
1.196000000000000000e+03,-8.954273323779061711e-01,0.000000000000000000e+00
1.197000000000000000e+03,-3.415347795781686902e-01,0.000000000000000000e+00
1.198000000000000000e+03,-5.271175725555086178e-01,0.000000000000000000e+00
1.199000000000000000e+03,-3.018946352966134783e-01,0.000000000000000000e+00
1.200000000000000000e+03,-1.416258911201556392e-01,0.000000000000000000e+00
1.201000000000000000e+03,-1.578377914896075540e-01,0.000000000000000000e+00
1.202000000000000000e+03,1.092518021032952286e-01,0.000000000000000000e+00
1.203000000000000000e+03,2.644115024133189551e-01,0.000000000000000000e+00
1.204000000000000000e+03,7.481668244993358030e-01,0.000000000000000000e+00
1.205000000000000000e+03,1.175521896225602214e+00,0.000000000000000000e+00
1.206000000000000000e+03,1.365217377723705328e+00,0.000000000000000000e+00
1.207000000000000000e+03,1.249262183506425705e+00,0.000000000000000000e+00
1.208000000000000000e+03,7.039842801659584870e-01,0.000000000000000000e+00
1.209000000000000000e+03,-2.345375863734282529e-01,0.000000000000000000e+00
1.210000000000000000e+03,-7.095180016904050202e-01,0.000000000000000000e+00
1.211000000000000000e+03,-9.417019795244243596e-01,0.000000000000000000e+00
1.212000000000000000e+03,-7.984369762341645416e-01,0.000000000000000000e+00
1.213000000000000000e+03,-9.701966451163818173e-01,0.000000000000000000e+00
1.214000000000000000e+03,-7.524365242548771704e-01,0.000000000000000000e+00
1.215000000000000000e+03,-7.831120963722086881e-01,0.000000000000000000e+00
1.216000000000000000e+03,-7.592321769130681020e-01,0.000000000000000000e+00
1.217000000000000000e+03,-4.268801617671139081e-01,0.000000000000000000e+00
1.218000000000000000e+03,-6.254844822807534843e-01,0.000000000000000000e+00
1.219000000000000000e+03,-5.673754609438005359e-01,0.000000000000000000e+00
1.220000000000000000e+03,-2.229831964975060310e-01,0.000000000000000000e+00
1.221000000000000000e+03,-4.748739660396980033e-01,0.000000000000000000e+00
1.222000000000000000e+03,-8.852362256394687157e-02,0.000000000000000000e+00
1.223000000000000000e+03,-3.864527942355809875e-01,0.000000000000000000e+00
1.224000000000000000e+03,-2.020858440301719072e-01,0.000000000000000000e+00
1.225000000000000000e+03,7.418610915048696498e-03,0.000000000000000000e+00
1.226000000000000000e+03,-2.065391624790198846e-02,0.000000000000000000e+00
1.227000000000000000e+03,-3.140871605690663815e-01,0.000000000000000000e+00
1.228000000000000000e+03,2.082819623361042150e-01,0.000000000000000000e+00
1.229000000000000000e+03,6.354501016906329014e-02,0.000000000000000000e+00
1.230000000000000000e+03,4.444632393683224936e-01,0.000000000000000000e+00
1.231000000000000000e+03,8.527453004238405576e-01,0.000000000000000000e+00
1.232000000000000000e+03,6.474706207911192779e-01,0.000000000000000000e+00
1.233000000000000000e+03,3.196534557667402021e-01,0.000000000000000000e+00
1.234000000000000000e+03,1.101498324186332561e-01,0.000000000000000000e+00
1.235000000000000000e+03,-4.536090579893665709e-01,0.000000000000000000e+00
1.236000000000000000e+03,-1.021863113263177802e-01,0.000000000000000000e+00
1.237000000000000000e+03,-5.806049299544541187e-01,0.000000000000000000e+00
1.238000000000000000e+03,1.025248255859772389e-01,0.000000000000000000e+00
1.239000000000000000e+03,-9.997978595250714973e-01,0.000000000000000000e+00
1.240000000000000000e+03,2.675013032301323701e+00,0.000000000000000000e+00
1.241000000000000000e+03,5.100816210073733536e+00,0.000000000000000000e+00
1.242000000000000000e+03,-1.728837005018287742e+00,1.000000000000000000e+00
1.243000000000000000e+03,-4.542091815037003766e-01,0.000000000000000000e+00
1.244000000000000000e+03,-1.098479858104942197e+00,0.000000000000000000e+00
1.245000000000000000e+03,-4.245839961430985521e-01,0.000000000000000000e+00
1.246000000000000000e+03,-6.387227398779541376e-01,0.000000000000000000e+00
1.247000000000000000e+03,-4.029594195370703180e-01,0.000000000000000000e+00
1.248000000000000000e+03,-3.993498714081947232e-01,0.000000000000000000e+00
1.249000000000000000e+03,-1.993051227036394812e-01,0.000000000000000000e+00
1.250000000000000000e+03,-3.813146444266141688e-01,0.000000000000000000e+00
1.251000000000000000e+03,4.328855542653277655e-01,0.000000000000000000e+00
1.252000000000000000e+03,1.558390344377367509e-01,0.000000000000000000e+00
1.253000000000000000e+03,8.028488378907591150e-01,0.000000000000000000e+00
1.254000000000000000e+03,1.307482999263946732e+00,0.000000000000000000e+00
1.255000000000000000e+03,1.250816412973745573e+00,0.000000000000000000e+00
1.256000000000000000e+03,1.411556582021008754e+00,0.000000000000000000e+00
1.257000000000000000e+03,4.733956914467679078e-01,0.000000000000000000e+00
1.258000000000000000e+03,-3.564142811615038653e-01,0.000000000000000000e+00
1.259000000000000000e+03,-5.525588538777107539e-01,0.000000000000000000e+00
1.260000000000000000e+03,-1.087214426810415357e+00,0.000000000000000000e+00
1.261000000000000000e+03,-6.901021566921772266e-01,0.000000000000000000e+00
1.262000000000000000e+03,-7.485117662792574178e-01,0.000000000000000000e+00
1.263000000000000000e+03,-7.702526573802385146e-01,0.000000000000000000e+00
1.264000000000000000e+03,-5.412799772040173263e-01,0.000000000000000000e+00
1.265000000000000000e+03,-6.149006858758935268e-01,0.000000000000000000e+00
1.266000000000000000e+03,-3.293721292111526644e-01,0.000000000000000000e+00
1.267000000000000000e+03,-5.506425852046429315e-01,0.000000000000000000e+00
1.268000000000000000e+03,-2.735100169747610166e-01,0.000000000000000000e+00
1.269000000000000000e+03,-2.184075100045609619e-01,0.000000000000000000e+00
1.270000000000000000e+03,-3.425187329576119821e-01,0.000000000000000000e+00
1.271000000000000000e+03,5.409692401704553968e-03,0.000000000000000000e+00
1.272000000000000000e+03,-2.675595831051207352e-01,0.000000000000000000e+00
1.273000000000000000e+03,-3.460302823882116519e-02,0.000000000000000000e+00
1.274000000000000000e+03,-8.074651460980632189e-02,0.000000000000000000e+00
1.275000000000000000e+03,1.681987745741633788e-02,0.000000000000000000e+00
1.276000000000000000e+03,2.985586931423194965e-02,0.000000000000000000e+00
1.277000000000000000e+03,-1.036753440842447249e-01,0.000000000000000000e+00
1.278000000000000000e+03,4.220642423062306303e-01,0.000000000000000000e+00
1.279000000000000000e+03,4.519763550262577700e-01,0.000000000000000000e+00
1.280000000000000000e+03,6.995187299097173073e-01,0.000000000000000000e+00
1.281000000000000000e+03,8.699166959222508488e-01,0.000000000000000000e+00
1.282000000000000000e+03,5.149824570888312802e-01,0.000000000000000000e+00
1.283000000000000000e+03,-5.796115892572136635e-02,0.000000000000000000e+00
1.284000000000000000e+03,-1.909132414077506223e-01,0.000000000000000000e+00
1.285000000000000000e+03,-1.495082578032145004e-01,0.000000000000000000e+00
1.286000000000000000e+03,-2.527757759881228417e-01,0.000000000000000000e+00
1.287000000000000000e+03,-1.268164846531200929e-01,0.000000000000000000e+00
1.288000000000000000e+03,-3.461611012691385159e-01,0.000000000000000000e+00
1.289000000000000000e+03,5.204019858726182113e-01,0.000000000000000000e+00
1.290000000000000000e+03,5.860445340336380760e+00,0.000000000000000000e+00
1.291000000000000000e+03,6.440589816539329937e-02,1.000000000000000000e+00
1.292000000000000000e+03,-1.292362651082949787e+00,0.000000000000000000e+00
1.293000000000000000e+03,-5.035307957844252780e-01,0.000000000000000000e+00
1.294000000000000000e+03,-8.140351473118470071e-01,0.000000000000000000e+00
1.295000000000000000e+03,-5.725719708059295865e-01,0.000000000000000000e+00
1.296000000000000000e+03,-6.184156139809210417e-01,0.000000000000000000e+00
1.297000000000000000e+03,-2.464933526790239748e-01,0.000000000000000000e+00
1.298000000000000000e+03,-2.490734452564867529e-01,0.000000000000000000e+00
1.299000000000000000e+03,-6.646985949761746726e-02,0.000000000000000000e+00
1.300000000000000000e+03,-1.153785497102404051e-01,0.000000000000000000e+00
1.301000000000000000e+03,2.528187617906598739e-01,0.000000000000000000e+00
1.302000000000000000e+03,6.844145462134220148e-01,0.000000000000000000e+00
1.303000000000000000e+03,9.723372140852621914e-01,0.000000000000000000e+00
1.304000000000000000e+03,1.274999194201819952e+00,0.000000000000000000e+00
1.305000000000000000e+03,1.213775484943924177e+00,0.000000000000000000e+00
1.306000000000000000e+03,7.378636645934429916e-01,0.000000000000000000e+00
1.307000000000000000e+03,-2.961716671890219366e-01,0.000000000000000000e+00
1.308000000000000000e+03,-6.646154154242092105e-01,0.000000000000000000e+00
1.309000000000000000e+03,-1.129187895392165020e+00,0.000000000000000000e+00
1.310000000000000000e+03,-9.549515635933857327e-01,0.000000000000000000e+00
1.311000000000000000e+03,-1.012926978213357643e+00,0.000000000000000000e+00
1.312000000000000000e+03,-6.517502390997332862e-01,0.000000000000000000e+00
1.313000000000000000e+03,-9.747403485923711308e-01,0.000000000000000000e+00
1.314000000000000000e+03,-7.493552057089568619e-01,0.000000000000000000e+00
1.315000000000000000e+03,-7.184813590409546702e-01,0.000000000000000000e+00
1.316000000000000000e+03,-5.095412002600977486e-01,0.000000000000000000e+00
1.317000000000000000e+03,-4.212950937069066537e-01,0.000000000000000000e+00
1.318000000000000000e+03,-3.328735546712298099e-01,0.000000000000000000e+00
1.319000000000000000e+03,-4.186409274563307470e-01,0.000000000000000000e+00
1.320000000000000000e+03,-3.400011134946410163e-01,0.000000000000000000e+00
1.321000000000000000e+03,-2.768091519972841752e-01,0.000000000000000000e+00
1.322000000000000000e+03,-2.428972027303300807e-01,0.000000000000000000e+00
1.323000000000000000e+03,-3.255183305454266429e-02,0.000000000000000000e+00
1.324000000000000000e+03,-1.042933332406137115e-01,0.000000000000000000e+00
1.325000000000000000e+03,-7.353278112695506297e-02,0.000000000000000000e+00
1.326000000000000000e+03,-5.008103740792935188e-02,0.000000000000000000e+00
1.327000000000000000e+03,4.177475089709508510e-02,0.000000000000000000e+00
1.328000000000000000e+03,2.010696302708432914e-01,0.000000000000000000e+00
1.329000000000000000e+03,7.030390226162056555e-01,0.000000000000000000e+00
1.330000000000000000e+03,8.085761071013537471e-01,0.000000000000000000e+00
1.331000000000000000e+03,2.804276614728316575e-01,0.000000000000000000e+00
1.332000000000000000e+03,1.420954555640774677e-02,0.000000000000000000e+00
1.333000000000000000e+03,-4.145075543334199031e-01,0.000000000000000000e+00
1.334000000000000000e+03,-9.384800742950609453e-03,0.000000000000000000e+00
1.335000000000000000e+03,-6.542987126402691755e-01,0.000000000000000000e+00
1.336000000000000000e+03,1.941227868742903540e-01,0.000000000000000000e+00
1.337000000000000000e+03,-8.727803478083880906e-01,0.000000000000000000e+00
1.338000000000000000e+03,2.030882577204905282e+00,0.000000000000000000e+00
1.339000000000000000e+03,5.009002056287064519e+00,0.000000000000000000e+00
1.340000000000000000e+03,-1.502214926900398595e+00,1.000000000000000000e+00
1.341000000000000000e+03,-6.243304913596851025e-01,0.000000000000000000e+00
1.342000000000000000e+03,-7.410105129325676998e-01,0.000000000000000000e+00
1.343000000000000000e+03,-3.674274357466290053e-01,0.000000000000000000e+00
1.344000000000000000e+03,-3.983853739580136555e-01,0.000000000000000000e+00
1.345000000000000000e+03,-2.815718117104127893e-01,0.000000000000000000e+00
1.346000000000000000e+03,-2.032930306243541096e-01,0.000000000000000000e+00
1.347000000000000000e+03,-7.677613968965761593e-02,0.000000000000000000e+00
1.348000000000000000e+03,1.926802487518328860e-02,0.000000000000000000e+00
1.349000000000000000e+03,1.988070097038570072e-01,0.000000000000000000e+00
1.350000000000000000e+03,4.497166298285010244e-01,0.000000000000000000e+00
1.351000000000000000e+03,9.343621490385072281e-01,0.000000000000000000e+00
1.352000000000000000e+03,1.176879310683871749e+00,0.000000000000000000e+00
1.353000000000000000e+03,1.372163054780716873e+00,0.000000000000000000e+00
1.354000000000000000e+03,1.384616090020184043e+00,0.000000000000000000e+00
1.355000000000000000e+03,6.178248230708631716e-01,0.000000000000000000e+00
1.356000000000000000e+03,-1.766879713857361922e-01,0.000000000000000000e+00
1.357000000000000000e+03,-6.194784975796603366e-01,0.000000000000000000e+00
1.358000000000000000e+03,-7.879336270046243262e-01,0.000000000000000000e+00
1.359000000000000000e+03,-8.939809124793922646e-01,0.000000000000000000e+00
1.360000000000000000e+03,-8.494125421626392836e-01,0.000000000000000000e+00
1.361000000000000000e+03,-7.443540453840400417e-01,0.000000000000000000e+00
1.362000000000000000e+03,-6.509006485830042266e-01,0.000000000000000000e+00
1.363000000000000000e+03,-5.421695741218698350e-01,0.000000000000000000e+00
1.364000000000000000e+03,-4.830142600245458939e-01,0.000000000000000000e+00
1.365000000000000000e+03,-6.190856848140806612e-01,0.000000000000000000e+00
1.366000000000000000e+03,-3.283409403860756970e-01,0.000000000000000000e+00
1.367000000000000000e+03,-3.206292164301848824e-01,0.000000000000000000e+00
1.368000000000000000e+03,-3.164951982679087283e-01,0.000000000000000000e+00
1.369000000000000000e+03,-4.627466467657741916e-02,0.000000000000000000e+00
1.370000000000000000e+03,-2.037879091840587298e-01,0.000000000000000000e+00
1.371000000000000000e+03,-1.707842265315405172e-01,0.000000000000000000e+00
1.372000000000000000e+03,-6.515713649115072691e-03,0.000000000000000000e+00
1.373000000000000000e+03,-2.508199462015645032e-01,0.000000000000000000e+00
1.374000000000000000e+03,6.060964274439594596e-02,0.000000000000000000e+00
1.375000000000000000e+03,-5.802627362042973858e-02,0.000000000000000000e+00
1.376000000000000000e+03,-1.632919364889145672e-02,0.000000000000000000e+00
1.377000000000000000e+03,1.763475684210890071e-01,0.000000000000000000e+00
1.378000000000000000e+03,6.556477448257701512e-01,0.000000000000000000e+00
1.379000000000000000e+03,4.592268001257749366e-01,0.000000000000000000e+00
1.380000000000000000e+03,8.613686519847237877e-01,0.000000000000000000e+00
1.381000000000000000e+03,1.277238497433518527e-01,0.000000000000000000e+00
1.382000000000000000e+03,-1.657303718357887035e-01,0.000000000000000000e+00
1.383000000000000000e+03,-3.347455476389685769e-01,0.000000000000000000e+00
1.384000000000000000e+03,-1.786508254077929514e-01,0.000000000000000000e+00
1.385000000000000000e+03,-3.999465013902328558e-01,0.000000000000000000e+00
1.386000000000000000e+03,1.377151534127285526e-02,0.000000000000000000e+00
1.387000000000000000e+03,-7.553563020299275399e-01,0.000000000000000000e+00
1.388000000000000000e+03,4.404138208235782059e+00,0.000000000000000000e+00
1.389000000000000000e+03,3.402438688665959443e+00,1.000000000000000000e+00
1.390000000000000000e+03,-1.873357981888105428e+00,0.000000000000000000e+00
1.391000000000000000e+03,-4.519930218583587123e-01,0.000000000000000000e+00
1.392000000000000000e+03,-1.005442421857098978e+00,0.000000000000000000e+00
1.393000000000000000e+03,-3.960276604699938807e-01,0.000000000000000000e+00
1.394000000000000000e+03,-6.756338400741069838e-01,0.000000000000000000e+00
1.395000000000000000e+03,-2.723887741732108347e-01,0.000000000000000000e+00
1.396000000000000000e+03,-4.482082491855987616e-01,0.000000000000000000e+00
1.397000000000000000e+03,-1.101038237384005108e-01,0.000000000000000000e+00
1.398000000000000000e+03,-9.738416995034503143e-02,0.000000000000000000e+00
1.399000000000000000e+03,2.807810852670009627e-01,0.000000000000000000e+00
1.400000000000000000e+03,4.362805770708405584e-01,0.000000000000000000e+00
1.401000000000000000e+03,1.010090836185071117e+00,0.000000000000000000e+00
1.402000000000000000e+03,1.106471504460847077e+00,0.000000000000000000e+00
1.403000000000000000e+03,1.322293398860862057e+00,0.000000000000000000e+00
1.404000000000000000e+03,9.670444801805635482e-01,0.000000000000000000e+00
1.405000000000000000e+03,2.225607832525181295e-01,0.000000000000000000e+00
1.406000000000000000e+03,-6.216195219962553642e-01,0.000000000000000000e+00
1.407000000000000000e+03,-7.240257203493324356e-01,0.000000000000000000e+00
1.408000000000000000e+03,-1.163778226254735149e+00,0.000000000000000000e+00
1.409000000000000000e+03,-8.266376040154241878e-01,0.000000000000000000e+00
1.410000000000000000e+03,-8.495790014351620734e-01,0.000000000000000000e+00
1.411000000000000000e+03,-6.958504716220167419e-01,0.000000000000000000e+00
1.412000000000000000e+03,-7.326321685931983518e-01,0.000000000000000000e+00
1.413000000000000000e+03,-5.089597826794119984e-01,0.000000000000000000e+00
1.414000000000000000e+03,-5.543251154849762052e-01,0.000000000000000000e+00
1.415000000000000000e+03,-5.621571665826241571e-01,0.000000000000000000e+00
1.416000000000000000e+03,-3.453520155907854328e-01,0.000000000000000000e+00
1.417000000000000000e+03,-4.400061402426023727e-01,0.000000000000000000e+00
1.418000000000000000e+03,-2.524035986502764506e-01,0.000000000000000000e+00
1.419000000000000000e+03,-1.956541522487372509e-01,0.000000000000000000e+00
1.420000000000000000e+03,-2.591393021360793858e-01,0.000000000000000000e+00
1.421000000000000000e+03,-9.494791444911174216e-02,0.000000000000000000e+00
1.422000000000000000e+03,5.672457124684851526e-03,0.000000000000000000e+00
1.423000000000000000e+03,4.021090131338612289e-02,0.000000000000000000e+00
1.424000000000000000e+03,2.465015837130509965e-02,0.000000000000000000e+00
1.425000000000000000e+03,-1.051496436834932491e-02,0.000000000000000000e+00
1.426000000000000000e+03,3.445683574647927516e-01,0.000000000000000000e+00
1.427000000000000000e+03,3.006174897840356297e-01,0.000000000000000000e+00
1.428000000000000000e+03,7.085701885669754008e-01,0.000000000000000000e+00
1.429000000000000000e+03,9.069165632388397347e-01,0.000000000000000000e+00
1.430000000000000000e+03,6.046371360494315894e-01,0.000000000000000000e+00
1.431000000000000000e+03,9.014142858070393893e-02,0.000000000000000000e+00
1.432000000000000000e+03,-8.803521717777711142e-02,0.000000000000000000e+00
1.433000000000000000e+03,-3.209217237806904488e-01,0.000000000000000000e+00
1.434000000000000000e+03,-2.978605642108049234e-01,0.000000000000000000e+00
1.435000000000000000e+03,-2.121485021668495785e-01,0.000000000000000000e+00
1.436000000000000000e+03,-4.186726717885050353e-01,0.000000000000000000e+00
1.437000000000000000e+03,9.074479163508418489e-02,0.000000000000000000e+00
1.438000000000000000e+03,5.941318724703602783e+00,0.000000000000000000e+00
1.439000000000000000e+03,7.045353180670018700e-01,1.000000000000000000e+00
1.440000000000000000e+03,-1.515444374367795444e+00,0.000000000000000000e+00
1.441000000000000000e+03,-4.980785968417455467e-01,0.000000000000000000e+00
1.442000000000000000e+03,-1.048083805535016344e+00,0.000000000000000000e+00
1.443000000000000000e+03,-3.966873108602043119e-01,0.000000000000000000e+00
1.444000000000000000e+03,-7.001881064311006320e-01,0.000000000000000000e+00
1.445000000000000000e+03,-1.607167885270906482e-01,0.000000000000000000e+00
1.446000000000000000e+03,-5.162243945530593514e-01,0.000000000000000000e+00
1.447000000000000000e+03,-1.416252439935841712e-01,0.000000000000000000e+00
1.448000000000000000e+03,-9.272398939627522763e-03,0.000000000000000000e+00
1.449000000000000000e+03,3.188558282105885544e-01,0.000000000000000000e+00
1.450000000000000000e+03,4.883310730885160877e-01,0.000000000000000000e+00
1.451000000000000000e+03,1.029304276668257412e+00,0.000000000000000000e+00
1.452000000000000000e+03,1.229830741916695613e+00,0.000000000000000000e+00
1.453000000000000000e+03,1.417572699716417306e+00,0.000000000000000000e+00
1.454000000000000000e+03,8.043971878185923741e-01,0.000000000000000000e+00
1.455000000000000000e+03,8.865578705159814915e-03,0.000000000000000000e+00
1.456000000000000000e+03,-7.458056657426921365e-01,0.000000000000000000e+00
1.457000000000000000e+03,-9.673520217465031434e-01,0.000000000000000000e+00
1.458000000000000000e+03,-9.698404699341544033e-01,0.000000000000000000e+00
1.459000000000000000e+03,-9.031914092869753885e-01,0.000000000000000000e+00
1.460000000000000000e+03,-8.298496469759550909e-01,0.000000000000000000e+00
1.461000000000000000e+03,-7.104927888426815219e-01,0.000000000000000000e+00
1.462000000000000000e+03,-7.512482988524454841e-01,0.000000000000000000e+00
1.463000000000000000e+03,-5.066965580451046058e-01,0.000000000000000000e+00
1.464000000000000000e+03,-6.044906016453496234e-01,0.000000000000000000e+00
1.465000000000000000e+03,-4.782821462808898305e-01,0.000000000000000000e+00
1.466000000000000000e+03,-4.012762081969589167e-01,0.000000000000000000e+00
1.467000000000000000e+03,-3.843790963440963937e-01,0.000000000000000000e+00
1.468000000000000000e+03,-1.958375191010334193e-01,0.000000000000000000e+00
1.469000000000000000e+03,-1.104867707388238612e-01,0.000000000000000000e+00
1.470000000000000000e+03,-8.721506321247333993e-02,0.000000000000000000e+00
1.471000000000000000e+03,-1.446592128775699981e-01,0.000000000000000000e+00
1.472000000000000000e+03,-1.379848544906270291e-01,0.000000000000000000e+00
1.473000000000000000e+03,-1.419574027134077876e-01,0.000000000000000000e+00
1.474000000000000000e+03,9.350413153528250310e-02,0.000000000000000000e+00
1.475000000000000000e+03,2.224638768884857828e-02,0.000000000000000000e+00
1.476000000000000000e+03,9.093682370991295477e-03,0.000000000000000000e+00
1.477000000000000000e+03,3.678409477714874587e-01,0.000000000000000000e+00
1.478000000000000000e+03,4.837403972006013020e-01,0.000000000000000000e+00
1.479000000000000000e+03,8.780123887398466609e-01,0.000000000000000000e+00
1.480000000000000000e+03,7.367050402976519363e-01,0.000000000000000000e+00
1.481000000000000000e+03,7.806959004892813359e-02,0.000000000000000000e+00
1.482000000000000000e+03,-1.923903275857671499e-02,0.000000000000000000e+00
1.483000000000000000e+03,-3.522815344904422497e-01,0.000000000000000000e+00
1.484000000000000000e+03,-2.110428984648665407e-01,0.000000000000000000e+00
1.485000000000000000e+03,-4.551737291829568988e-01,0.000000000000000000e+00
1.486000000000000000e+03,-1.830438249395805253e-02,0.000000000000000000e+00
1.487000000000000000e+03,-6.361647333503935853e-01,0.000000000000000000e+00
1.488000000000000000e+03,4.790745824746237780e+00,0.000000000000000000e+00
1.489000000000000000e+03,2.272807789991970751e+00,1.000000000000000000e+00
1.490000000000000000e+03,-1.886633398588342558e+00,0.000000000000000000e+00
1.491000000000000000e+03,-1.272182300210756012e-01,0.000000000000000000e+00
1.492000000000000000e+03,-1.071924668289743643e+00,0.000000000000000000e+00
1.493000000000000000e+03,-2.549101384013536808e-01,0.000000000000000000e+00
1.494000000000000000e+03,-5.546944198422109062e-01,0.000000000000000000e+00
1.495000000000000000e+03,-2.039740739157591132e-01,0.000000000000000000e+00
1.496000000000000000e+03,-1.907361938043261040e-01,0.000000000000000000e+00
1.497000000000000000e+03,6.620982480274061055e-02,0.000000000000000000e+00
1.498000000000000000e+03,-2.233358174542902919e-01,0.000000000000000000e+00
1.499000000000000000e+03,5.855955581520457809e-01,0.000000000000000000e+00
1.500000000000000000e+03,4.481842002515263879e-01,0.000000000000000000e+00
1.501000000000000000e+03,1.030805152120686907e+00,0.000000000000000000e+00
1.502000000000000000e+03,1.076528934513355074e+00,0.000000000000000000e+00
1.503000000000000000e+03,1.546656499663990658e+00,0.000000000000000000e+00
1.504000000000000000e+03,8.686082999477769961e-01,0.000000000000000000e+00
1.505000000000000000e+03,2.234777099792465138e-01,0.000000000000000000e+00
1.506000000000000000e+03,-6.993627051486012158e-01,0.000000000000000000e+00
1.507000000000000000e+03,-8.174625923984035758e-01,0.000000000000000000e+00
1.508000000000000000e+03,-1.109263368179848053e+00,0.000000000000000000e+00
1.509000000000000000e+03,-9.032798809637998527e-01,0.000000000000000000e+00
1.510000000000000000e+03,-1.010348629911769214e+00,0.000000000000000000e+00
1.511000000000000000e+03,-7.316477820487443662e-01,0.000000000000000000e+00
1.512000000000000000e+03,-8.448943081999629179e-01,0.000000000000000000e+00
1.513000000000000000e+03,-6.357888717581544613e-01,0.000000000000000000e+00
1.514000000000000000e+03,-6.704890882302539934e-01,0.000000000000000000e+00
1.515000000000000000e+03,-3.971880523705470512e-01,0.000000000000000000e+00
1.516000000000000000e+03,-7.561589974430031891e-01,0.000000000000000000e+00
1.517000000000000000e+03,-2.436229542306757867e-01,0.000000000000000000e+00
1.518000000000000000e+03,-5.162459606692689773e-01,0.000000000000000000e+00
1.519000000000000000e+03,-1.274432288014301085e-01,0.000000000000000000e+00
1.520000000000000000e+03,-2.270353787617789831e-01,0.000000000000000000e+00
1.521000000000000000e+03,-8.102872414475439933e-02,0.000000000000000000e+00
1.522000000000000000e+03,-1.701278615256266724e-01,0.000000000000000000e+00
1.523000000000000000e+03,1.335466896272220205e-01,0.000000000000000000e+00
1.524000000000000000e+03,-1.536725940946659097e-01,0.000000000000000000e+00
1.525000000000000000e+03,2.137283172222736727e-01,0.000000000000000000e+00
1.526000000000000000e+03,1.275980870357524000e-01,0.000000000000000000e+00
1.527000000000000000e+03,3.909794010875989323e-01,0.000000000000000000e+00
1.528000000000000000e+03,7.855284062573824055e-01,0.000000000000000000e+00
1.529000000000000000e+03,7.685710743245475207e-01,0.000000000000000000e+00
1.530000000000000000e+03,2.260620050142130022e-01,0.000000000000000000e+00
1.531000000000000000e+03,2.668743454309872587e-01,0.000000000000000000e+00
1.532000000000000000e+03,-4.306970796726293793e-01,0.000000000000000000e+00
1.533000000000000000e+03,2.662470189047183924e-02,0.000000000000000000e+00
1.534000000000000000e+03,-5.007020920211109338e-01,0.000000000000000000e+00
1.535000000000000000e+03,1.849230514467241071e-01,0.000000000000000000e+00
1.536000000000000000e+03,-7.960651363232222888e-01,0.000000000000000000e+00
1.537000000000000000e+03,2.724374515535440633e+00,0.000000000000000000e+00
1.538000000000000000e+03,4.739287916790635435e+00,0.000000000000000000e+00
1.539000000000000000e+03,-1.599465739198482783e+00,1.000000000000000000e+00
1.540000000000000000e+03,-4.842555907543438787e-01,0.000000000000000000e+00
1.541000000000000000e+03,-8.337785051925901136e-01,0.000000000000000000e+00
1.542000000000000000e+03,-4.988193349884378347e-01,0.000000000000000000e+00
1.543000000000000000e+03,-5.453002519655874014e-01,0.000000000000000000e+00
1.544000000000000000e+03,-3.130844497350577238e-01,0.000000000000000000e+00
1.545000000000000000e+03,-3.024490241863427853e-01,0.000000000000000000e+00
1.546000000000000000e+03,1.759481762406717512e-02,0.000000000000000000e+00
1.547000000000000000e+03,-7.984950430949586120e-02,0.000000000000000000e+00
1.548000000000000000e+03,2.266728813283188926e-01,0.000000000000000000e+00
1.549000000000000000e+03,4.784268517625059336e-01,0.000000000000000000e+00
1.550000000000000000e+03,7.060726523767660856e-01,0.000000000000000000e+00
1.551000000000000000e+03,1.279980570872751855e+00,0.000000000000000000e+00
1.552000000000000000e+03,1.433893005544426780e+00,0.000000000000000000e+00
1.553000000000000000e+03,1.330800467864394099e+00,0.000000000000000000e+00
1.554000000000000000e+03,4.327374514311411180e-01,0.000000000000000000e+00
1.555000000000000000e+03,-1.939350630304137735e-01,0.000000000000000000e+00
1.556000000000000000e+03,-7.423936208700220307e-01,0.000000000000000000e+00
1.557000000000000000e+03,-9.874989530062063814e-01,0.000000000000000000e+00
1.558000000000000000e+03,-8.296430324231995890e-01,0.000000000000000000e+00
1.559000000000000000e+03,-7.090011147280355086e-01,0.000000000000000000e+00
1.560000000000000000e+03,-7.456253331818087915e-01,0.000000000000000000e+00
1.561000000000000000e+03,-6.243567504694774728e-01,0.000000000000000000e+00
1.562000000000000000e+03,-5.723243676343758857e-01,0.000000000000000000e+00
1.563000000000000000e+03,-4.797983042874484627e-01,0.000000000000000000e+00
1.564000000000000000e+03,-4.755591280999332260e-01,0.000000000000000000e+00
1.565000000000000000e+03,-3.614607854765329309e-01,0.000000000000000000e+00
1.566000000000000000e+03,-4.741095314310496689e-01,0.000000000000000000e+00
1.567000000000000000e+03,-2.436002181228880681e-01,0.000000000000000000e+00
1.568000000000000000e+03,-2.653607158879066619e-01,0.000000000000000000e+00
1.569000000000000000e+03,-5.525952939309605738e-02,0.000000000000000000e+00
1.570000000000000000e+03,-8.104133327478629800e-02,0.000000000000000000e+00
1.571000000000000000e+03,-4.439347643151030781e-02,0.000000000000000000e+00
1.572000000000000000e+03,-1.584487792949022256e-01,0.000000000000000000e+00
1.573000000000000000e+03,1.152166384069356134e-02,0.000000000000000000e+00
1.574000000000000000e+03,-5.018501156246251045e-03,0.000000000000000000e+00
1.575000000000000000e+03,2.210567536174776748e-01,0.000000000000000000e+00
1.576000000000000000e+03,1.616535691820681908e-01,0.000000000000000000e+00
1.577000000000000000e+03,6.653890676056812836e-01,0.000000000000000000e+00
1.578000000000000000e+03,6.646447312801081475e-01,0.000000000000000000e+00
1.579000000000000000e+03,7.529473000149278228e-01,0.000000000000000000e+00
1.580000000000000000e+03,1.173018333808696911e-01,0.000000000000000000e+00
1.581000000000000000e+03,-9.427005240129055982e-03,0.000000000000000000e+00
1.582000000000000000e+03,-4.956752894779462015e-01,0.000000000000000000e+00
1.583000000000000000e+03,-5.780432486338128034e-02,0.000000000000000000e+00
1.584000000000000000e+03,-5.851221401288362323e-01,0.000000000000000000e+00
