timestamp,ecg_measurement,qrs_detected
0.000000000000000000e+00,1.003497630734060619e+00,0.000000000000000000e+00
1.000000000000000000e+00,9.826017666840864972e-01,0.000000000000000000e+00
2.000000000000000000e+00,5.936185574768754886e-02,0.000000000000000000e+00
3.000000000000000000e+00,-7.770492045053573049e-02,0.000000000000000000e+00
4.000000000000000000e+00,-9.383105644081034535e-01,0.000000000000000000e+00
5.000000000000000000e+00,-4.480681153371421921e-01,0.000000000000000000e+00
6.000000000000000000e+00,-9.696738554541133315e-01,0.000000000000000000e+00
7.000000000000000000e+00,-6.545955622107294536e-01,0.000000000000000000e+00
8.000000000000000000e+00,-7.284735044257478753e-01,0.000000000000000000e+00
9.000000000000000000e+00,-8.845275090501343307e-01,0.000000000000000000e+00
1.000000000000000000e+01,-6.674506816899729023e-01,0.000000000000000000e+00
1.100000000000000000e+01,-6.478969562015751693e-01,0.000000000000000000e+00
1.200000000000000000e+01,-7.048333230622702006e-01,0.000000000000000000e+00
1.300000000000000000e+01,-3.246206021504722261e-01,0.000000000000000000e+00
1.400000000000000000e+01,-3.697359088100448110e-01,0.000000000000000000e+00
1.500000000000000000e+01,-4.593855831207364071e-01,0.000000000000000000e+00
1.600000000000000000e+01,-5.822509980506002103e-01,0.000000000000000000e+00
1.700000000000000000e+01,-5.469080875269609621e-01,0.000000000000000000e+00
1.800000000000000000e+01,-4.538361098369154689e-01,0.000000000000000000e+00
1.900000000000000000e+01,-2.131915441842462400e-01,0.000000000000000000e+00
2.000000000000000000e+01,-5.727179289106567595e-01,0.000000000000000000e+00
2.100000000000000000e+01,-3.372399769626960309e-01,0.000000000000000000e+00
2.200000000000000000e+01,-4.221748308247275649e-01,0.000000000000000000e+00
2.300000000000000000e+01,-2.923971023293785998e-01,0.000000000000000000e+00
2.400000000000000000e+01,-1.489191327565973222e-01,0.000000000000000000e+00
2.500000000000000000e+01,-3.554911428090629655e-01,0.000000000000000000e+00
2.600000000000000000e+01,-4.078248524770406447e-01,0.000000000000000000e+00
2.700000000000000000e+01,-4.348508184838111718e-02,0.000000000000000000e+00
2.800000000000000000e+01,-2.487056250938866342e-01,0.000000000000000000e+00
2.900000000000000000e+01,3.105545138012971162e-01,0.000000000000000000e+00
3.000000000000000000e+01,1.182391070139667266e-01,0.000000000000000000e+00
3.100000000000000000e+01,6.841236158552452817e-01,0.000000000000000000e+00
3.200000000000000000e+01,1.728634345352136614e-01,0.000000000000000000e+00
3.300000000000000000e+01,8.003850586064364947e-02,0.000000000000000000e+00
3.400000000000000000e+01,-5.345647550178044272e-01,0.000000000000000000e+00
3.500000000000000000e+01,6.632780990550400657e-02,0.000000000000000000e+00
3.600000000000000000e+01,-5.710139541925910445e-01,0.000000000000000000e+00
3.700000000000000000e+01,1.308303621055275645e+00,0.000000000000000000e+00
3.800000000000000000e+01,-1.960533690701308451e+00,0.000000000000000000e+00
3.900000000000000000e+01,-4.288732420177627347e+00,0.000000000000000000e+00
4.000000000000000000e+01,2.734960712658799920e-01,1.000000000000000000e+00
4.100000000000000000e+01,7.201077318083289880e-01,0.000000000000000000e+00
4.200000000000000000e+01,1.333484471335878441e+00,0.000000000000000000e+00
4.300000000000000000e+01,9.994989388821480247e-01,0.000000000000000000e+00
4.400000000000000000e+01,1.305834740443533981e+00,0.000000000000000000e+00
4.500000000000000000e+01,9.328171891364837043e-01,0.000000000000000000e+00
4.600000000000000000e+01,1.046528242523646401e+00,0.000000000000000000e+00
4.700000000000000000e+01,8.802312715891549288e-01,0.000000000000000000e+00
4.800000000000000000e+01,9.952675401029120739e-01,0.000000000000000000e+00
4.900000000000000000e+01,8.774881006634841496e-01,0.000000000000000000e+00
5.000000000000000000e+01,1.301218263954234455e+00,0.000000000000000000e+00
5.100000000000000000e+01,1.261968349918749732e+00,0.000000000000000000e+00
5.200000000000000000e+01,1.315694624054686734e+00,0.000000000000000000e+00
5.300000000000000000e+01,9.585614462610357878e-01,0.000000000000000000e+00
5.400000000000000000e+01,1.145549112172429940e+00,0.000000000000000000e+00
5.500000000000000000e+01,2.701835607736345901e-01,0.000000000000000000e+00
5.600000000000000000e+01,-1.800770504389107018e-01,0.000000000000000000e+00
5.700000000000000000e+01,-5.842125863838503186e-01,0.000000000000000000e+00
5.800000000000000000e+01,-7.319032978176436277e-01,0.000000000000000000e+00
5.900000000000000000e+01,-8.508248513791717427e-01,0.000000000000000000e+00
6.000000000000000000e+01,-7.032634175899110662e-01,0.000000000000000000e+00
6.100000000000000000e+01,-7.500328032977885417e-01,0.000000000000000000e+00
6.200000000000000000e+01,-7.389903414950363958e-01,0.000000000000000000e+00
6.300000000000000000e+01,-6.301416341700069035e-01,0.000000000000000000e+00
6.400000000000000000e+01,-6.360501747872682188e-01,0.000000000000000000e+00
6.500000000000000000e+01,-5.485071462877741943e-01,0.000000000000000000e+00
6.600000000000000000e+01,-4.010563857215992400e-01,0.000000000000000000e+00
6.700000000000000000e+01,-4.557962171630048909e-01,0.000000000000000000e+00
6.800000000000000000e+01,-4.244119844276113551e-01,0.000000000000000000e+00
6.900000000000000000e+01,-3.761473746652375105e-01,0.000000000000000000e+00
7.000000000000000000e+01,-2.990530355026226328e-01,0.000000000000000000e+00
7.100000000000000000e+01,-2.859618851480752455e-01,0.000000000000000000e+00
7.200000000000000000e+01,-4.190864599843165950e-01,0.000000000000000000e+00
7.300000000000000000e+01,-1.928563645833981099e-01,0.000000000000000000e+00
7.400000000000000000e+01,-3.948651640100992455e-01,0.000000000000000000e+00
7.500000000000000000e+01,-2.704545768440154152e-01,0.000000000000000000e+00
7.600000000000000000e+01,-8.501123119679995788e-02,0.000000000000000000e+00
7.700000000000000000e+01,-2.332998355107595775e-02,0.000000000000000000e+00
7.800000000000000000e+01,-2.409614387648083278e-01,0.000000000000000000e+00
7.900000000000000000e+01,-5.072706349662180897e-02,0.000000000000000000e+00
8.000000000000000000e+01,-1.656902457834145137e-01,0.000000000000000000e+00
8.100000000000000000e+01,-9.839354227706069086e-03,0.000000000000000000e+00
8.200000000000000000e+01,1.089447045048992646e-01,0.000000000000000000e+00
8.300000000000000000e+01,4.676012937940905445e-01,0.000000000000000000e+00
8.400000000000000000e+01,2.998770720018625879e-01,0.000000000000000000e+00
8.500000000000000000e+01,8.716348869199707083e-01,0.000000000000000000e+00
8.600000000000000000e+01,8.628542574727705861e-02,0.000000000000000000e+00
8.700000000000000000e+01,2.435822373499772764e-02,0.000000000000000000e+00
8.800000000000000000e+01,-1.657894619150762083e-01,0.000000000000000000e+00
8.900000000000000000e+01,-5.241247571929096016e-02,0.000000000000000000e+00
9.000000000000000000e+01,-1.091976615829224062e-01,0.000000000000000000e+00
9.100000000000000000e+01,1.337790495493435206e+00,0.000000000000000000e+00
9.200000000000000000e+01,-4.097765242077228365e+00,0.000000000000000000e+00
9.300000000000000000e+01,-2.787854319098865830e+00,1.000000000000000000e+00
9.400000000000000000e+01,9.233426403019729944e-01,0.000000000000000000e+00
9.500000000000000000e+01,8.685619285516030796e-01,0.000000000000000000e+00
9.600000000000000000e+01,1.202378701875107758e+00,0.000000000000000000e+00
9.700000000000000000e+01,1.079356579864053867e+00,0.000000000000000000e+00
9.800000000000000000e+01,1.112563818117848990e+00,0.000000000000000000e+00
9.900000000000000000e+01,1.041199975870436223e+00,0.000000000000000000e+00
1.000000000000000000e+02,1.003324484121673077e+00,0.000000000000000000e+00
1.010000000000000000e+02,7.868281261176970354e-01,0.000000000000000000e+00
1.020000000000000000e+02,1.097098109925830123e+00,0.000000000000000000e+00
1.030000000000000000e+02,8.847222249231051494e-01,0.000000000000000000e+00
1.040000000000000000e+02,1.245904555985418272e+00,0.000000000000000000e+00
1.050000000000000000e+02,1.157760382128807608e+00,0.000000000000000000e+00
1.060000000000000000e+02,1.283675154442442290e+00,0.000000000000000000e+00
1.070000000000000000e+02,1.062317145716179523e+00,0.000000000000000000e+00
1.080000000000000000e+02,7.574828822036876463e-01,0.000000000000000000e+00
1.090000000000000000e+02,5.001640602473533814e-02,0.000000000000000000e+00
1.100000000000000000e+02,-2.635993685561430211e-01,0.000000000000000000e+00
1.110000000000000000e+02,-9.238570172928254332e-01,0.000000000000000000e+00
1.120000000000000000e+02,-6.936378880117619605e-01,0.000000000000000000e+00
1.130000000000000000e+02,-8.534963955549340620e-01,0.000000000000000000e+00
1.140000000000000000e+02,-8.201325702810970952e-01,0.000000000000000000e+00
1.150000000000000000e+02,-8.715877196906531843e-01,0.000000000000000000e+00
1.160000000000000000e+02,-6.136031228515665958e-01,0.000000000000000000e+00
1.170000000000000000e+02,-6.238010788542557306e-01,0.000000000000000000e+00
1.180000000000000000e+02,-5.607246660152692685e-01,0.000000000000000000e+00
1.190000000000000000e+02,-4.665003807035325578e-01,0.000000000000000000e+00
1.200000000000000000e+02,-6.704047314968483162e-01,0.000000000000000000e+00
1.210000000000000000e+02,-2.649757885220418441e-01,0.000000000000000000e+00
1.220000000000000000e+02,-4.866248842621433979e-01,0.000000000000000000e+00
1.230000000000000000e+02,-3.971647373287444660e-01,0.000000000000000000e+00
1.240000000000000000e+02,-4.110564283136082797e-01,0.000000000000000000e+00
1.250000000000000000e+02,-2.943643904868125660e-01,0.000000000000000000e+00
1.260000000000000000e+02,-4.310364119469703437e-01,0.000000000000000000e+00
1.270000000000000000e+02,-2.731617389347906211e-01,0.000000000000000000e+00
1.280000000000000000e+02,-2.619766251120671519e-01,0.000000000000000000e+00
1.290000000000000000e+02,-4.269548133838442228e-01,0.000000000000000000e+00
1.300000000000000000e+02,-2.739979655675209846e-01,0.000000000000000000e+00
1.310000000000000000e+02,-1.793458551258767242e-01,0.000000000000000000e+00
1.320000000000000000e+02,-1.441366246442947752e-01,0.000000000000000000e+00
1.330000000000000000e+02,-4.035060879685126167e-02,0.000000000000000000e+00
1.340000000000000000e+02,-2.170607734900075747e-01,0.000000000000000000e+00
1.350000000000000000e+02,-1.487750383743574878e-01,0.000000000000000000e+00
1.360000000000000000e+02,-1.743337307408730497e-01,0.000000000000000000e+00
1.370000000000000000e+02,1.603526995041232306e-01,0.000000000000000000e+00
1.380000000000000000e+02,1.664576222221075263e-01,0.000000000000000000e+00
1.390000000000000000e+02,2.459069746735743633e-01,0.000000000000000000e+00
1.400000000000000000e+02,2.607398858935132679e-01,0.000000000000000000e+00
1.410000000000000000e+02,6.431073177045808498e-01,0.000000000000000000e+00
1.420000000000000000e+02,3.527035131153189451e-01,0.000000000000000000e+00
1.430000000000000000e+02,-2.370637071589029587e-02,0.000000000000000000e+00
1.440000000000000000e+02,-1.397116184837643438e-02,0.000000000000000000e+00
1.450000000000000000e+02,-2.984707813994171288e-01,0.000000000000000000e+00
1.460000000000000000e+02,-2.184271395237300240e-01,0.000000000000000000e+00
1.470000000000000000e+02,1.400319170959882786e+00,0.000000000000000000e+00
1.480000000000000000e+02,-3.693818772233228742e+00,0.000000000000000000e+00
1.490000000000000000e+02,-3.386950665389424131e+00,0.000000000000000000e+00
1.500000000000000000e+02,1.052968822529972481e+00,1.000000000000000000e+00
1.510000000000000000e+02,8.949665783787449369e-01,0.000000000000000000e+00
1.520000000000000000e+02,1.337684639044173007e+00,0.000000000000000000e+00
1.530000000000000000e+02,8.945519163423856224e-01,0.000000000000000000e+00
1.540000000000000000e+02,1.453972719851681417e+00,0.000000000000000000e+00
1.550000000000000000e+02,8.975660317786919862e-01,0.000000000000000000e+00
1.560000000000000000e+02,1.224940681680574794e+00,0.000000000000000000e+00
1.570000000000000000e+02,8.126688739594359889e-01,0.000000000000000000e+00
1.580000000000000000e+02,1.006313624254607797e+00,0.000000000000000000e+00
1.590000000000000000e+02,1.015911701047572890e+00,0.000000000000000000e+00
1.600000000000000000e+02,1.070136638629733516e+00,0.000000000000000000e+00
1.610000000000000000e+02,1.156739830240203881e+00,0.000000000000000000e+00
1.620000000000000000e+02,1.200289383303770441e+00,0.000000000000000000e+00
1.630000000000000000e+02,1.036911830372636123e+00,0.000000000000000000e+00
1.640000000000000000e+02,8.393416985731657620e-01,0.000000000000000000e+00
1.650000000000000000e+02,1.385762154885741559e-01,0.000000000000000000e+00
1.660000000000000000e+02,-1.777159023784198322e-01,0.000000000000000000e+00
1.670000000000000000e+02,-7.722828725678255735e-01,0.000000000000000000e+00
1.680000000000000000e+02,-7.928309958132657709e-01,0.000000000000000000e+00
1.690000000000000000e+02,-9.692510193519154882e-01,0.000000000000000000e+00
1.700000000000000000e+02,-6.549033556016736757e-01,0.000000000000000000e+00
1.710000000000000000e+02,-7.682088555703462385e-01,0.000000000000000000e+00
1.720000000000000000e+02,-6.326967479614986622e-01,0.000000000000000000e+00
1.730000000000000000e+02,-7.945134759491808696e-01,0.000000000000000000e+00
1.740000000000000000e+02,-4.674351522494211153e-01,0.000000000000000000e+00
1.750000000000000000e+02,-6.223716075801715153e-01,0.000000000000000000e+00
1.760000000000000000e+02,-5.138055940767536356e-01,0.000000000000000000e+00
1.770000000000000000e+02,-5.834660187006731613e-01,0.000000000000000000e+00
1.780000000000000000e+02,-3.234556625807977204e-01,0.000000000000000000e+00
1.790000000000000000e+02,-3.561727011217977745e-01,0.000000000000000000e+00
1.800000000000000000e+02,-5.747149072052996077e-01,0.000000000000000000e+00
1.810000000000000000e+02,-3.478075776165878708e-01,0.000000000000000000e+00
1.820000000000000000e+02,-4.315498201523502719e-01,0.000000000000000000e+00
1.830000000000000000e+02,-4.584826732486745327e-01,0.000000000000000000e+00
1.840000000000000000e+02,-1.738306319796529276e-01,0.000000000000000000e+00
1.850000000000000000e+02,-4.123779396377054707e-01,0.000000000000000000e+00
1.860000000000000000e+02,-1.684465480192167686e-01,0.000000000000000000e+00
1.870000000000000000e+02,-3.512922281675390779e-01,0.000000000000000000e+00
1.880000000000000000e+02,-2.365729459668977977e-02,0.000000000000000000e+00
1.890000000000000000e+02,-2.064923753445558896e-01,0.000000000000000000e+00
1.900000000000000000e+02,-1.757866437643441360e-01,0.000000000000000000e+00
1.910000000000000000e+02,-3.347543519307750320e-02,0.000000000000000000e+00
1.920000000000000000e+02,2.882488194210430787e-01,0.000000000000000000e+00
1.930000000000000000e+02,2.453562895524316889e-01,0.000000000000000000e+00
1.940000000000000000e+02,6.488267234818599905e-01,0.000000000000000000e+00
1.950000000000000000e+02,2.476664722521651207e-01,0.000000000000000000e+00
1.960000000000000000e+02,9.725942368165611807e-02,0.000000000000000000e+00
1.970000000000000000e+02,-2.511077222710087486e-01,0.000000000000000000e+00
1.980000000000000000e+02,1.995162022355051190e-01,0.000000000000000000e+00
1.990000000000000000e+02,-6.360651234805015930e-01,0.000000000000000000e+00
2.000000000000000000e+02,1.537016281272144402e+00,0.000000000000000000e+00
2.010000000000000000e+02,-1.776404013278930494e+00,0.000000000000000000e+00
2.020000000000000000e+02,-4.966787648526853616e+00,0.000000000000000000e+00
2.030000000000000000e+02,4.583407666143687886e-01,1.000000000000000000e+00
2.040000000000000000e+02,6.310647853763458048e-01,0.000000000000000000e+00
2.050000000000000000e+02,1.331995298638805281e+00,0.000000000000000000e+00
2.060000000000000000e+02,9.337595058672976123e-01,0.000000000000000000e+00
2.070000000000000000e+02,1.190400663758002020e+00,0.000000000000000000e+00
2.080000000000000000e+02,1.150547432087607014e+00,0.000000000000000000e+00
2.090000000000000000e+02,1.231662760442469917e+00,0.000000000000000000e+00
2.100000000000000000e+02,8.144054724088592989e-01,0.000000000000000000e+00
2.110000000000000000e+02,1.207372475177749704e+00,0.000000000000000000e+00
2.120000000000000000e+02,8.766394170322103774e-01,0.000000000000000000e+00
2.130000000000000000e+02,1.177506774330489892e+00,0.000000000000000000e+00
2.140000000000000000e+02,1.051510085827511709e+00,0.000000000000000000e+00
2.150000000000000000e+02,1.401809325653141647e+00,0.000000000000000000e+00
2.160000000000000000e+02,8.916670773402982642e-01,0.000000000000000000e+00
2.170000000000000000e+02,9.956485167218522836e-01,0.000000000000000000e+00
2.180000000000000000e+02,2.603971200960221721e-01,0.000000000000000000e+00
2.190000000000000000e+02,-1.546166938348010889e-01,0.000000000000000000e+00
2.200000000000000000e+02,-6.324330500817112455e-01,0.000000000000000000e+00
2.210000000000000000e+02,-7.256444595595957781e-01,0.000000000000000000e+00
2.220000000000000000e+02,-7.868636034318658989e-01,0.000000000000000000e+00
2.230000000000000000e+02,-8.343546088959050699e-01,0.000000000000000000e+00
2.240000000000000000e+02,-6.454109250636776984e-01,0.000000000000000000e+00
2.250000000000000000e+02,-6.635654702188007459e-01,0.000000000000000000e+00
2.260000000000000000e+02,-7.877542353508354411e-01,0.000000000000000000e+00
2.270000000000000000e+02,-5.716788011697805372e-01,0.000000000000000000e+00
2.280000000000000000e+02,-6.594827970650183335e-01,0.000000000000000000e+00
2.290000000000000000e+02,-2.248220251663293479e-01,0.000000000000000000e+00
2.300000000000000000e+02,-5.348875813251179334e-01,0.000000000000000000e+00
2.310000000000000000e+02,-3.711235464634137782e-01,0.000000000000000000e+00
2.320000000000000000e+02,-4.875447147204187703e-01,0.000000000000000000e+00
2.330000000000000000e+02,-3.795708546095200031e-01,0.000000000000000000e+00
2.340000000000000000e+02,-6.023172119936955893e-01,0.000000000000000000e+00
2.350000000000000000e+02,-2.351837993456142029e-01,0.000000000000000000e+00
2.360000000000000000e+02,-4.450785405855963717e-01,0.000000000000000000e+00
2.370000000000000000e+02,-1.996402243662084297e-01,0.000000000000000000e+00
2.380000000000000000e+02,-4.305883925919916644e-01,0.000000000000000000e+00
2.390000000000000000e+02,-7.509613562758274408e-02,0.000000000000000000e+00
2.400000000000000000e+02,-3.746795106123410601e-01,0.000000000000000000e+00
2.410000000000000000e+02,-4.269342951500646605e-02,0.000000000000000000e+00
2.420000000000000000e+02,-3.311658596037467261e-01,0.000000000000000000e+00
2.430000000000000000e+02,-3.391484637531784474e-03,0.000000000000000000e+00
2.440000000000000000e+02,-1.131791080688999418e-01,0.000000000000000000e+00
2.450000000000000000e+02,2.454495892579099114e-01,0.000000000000000000e+00
2.460000000000000000e+02,6.120685207465226263e-02,0.000000000000000000e+00
2.470000000000000000e+02,9.502749921329745053e-01,0.000000000000000000e+00
2.480000000000000000e+02,2.731372542748731758e-01,0.000000000000000000e+00
2.490000000000000000e+02,1.028883121955610491e-01,0.000000000000000000e+00
2.500000000000000000e+02,-5.549732769108378649e-01,0.000000000000000000e+00
2.510000000000000000e+02,1.480351222066237371e-01,0.000000000000000000e+00
2.520000000000000000e+02,-4.974681603664551366e-01,0.000000000000000000e+00
2.530000000000000000e+02,1.615478119090242082e+00,0.000000000000000000e+00
2.540000000000000000e+02,-2.112478701205640963e+00,0.000000000000000000e+00
2.550000000000000000e+02,-4.366107377190933114e+00,0.000000000000000000e+00
2.560000000000000000e+02,3.490832122277717775e-01,1.000000000000000000e+00
2.570000000000000000e+02,7.193317365669921193e-01,0.000000000000000000e+00
2.580000000000000000e+02,1.394632445113751951e+00,0.000000000000000000e+00
2.590000000000000000e+02,1.106303186292843410e+00,0.000000000000000000e+00
2.600000000000000000e+02,1.211136131513072201e+00,0.000000000000000000e+00
2.610000000000000000e+02,8.412462568869073509e-01,0.000000000000000000e+00
2.620000000000000000e+02,1.309902982083401835e+00,0.000000000000000000e+00
2.630000000000000000e+02,8.554097593770509933e-01,0.000000000000000000e+00
2.640000000000000000e+02,1.126253893451869104e+00,0.000000000000000000e+00
2.650000000000000000e+02,9.100972876621190588e-01,0.000000000000000000e+00
2.660000000000000000e+02,1.152819269133364077e+00,0.000000000000000000e+00
2.670000000000000000e+02,1.127960371659738836e+00,0.000000000000000000e+00
2.680000000000000000e+02,1.397474962697257572e+00,0.000000000000000000e+00
2.690000000000000000e+02,1.097988623144847686e+00,0.000000000000000000e+00
2.700000000000000000e+02,8.138675872589371529e-01,0.000000000000000000e+00
2.710000000000000000e+02,3.558154746623858333e-01,0.000000000000000000e+00
2.720000000000000000e+02,-4.629785595818324689e-02,0.000000000000000000e+00
2.730000000000000000e+02,-6.608863418370136689e-01,0.000000000000000000e+00
2.740000000000000000e+02,-8.108448288561221906e-01,0.000000000000000000e+00
2.750000000000000000e+02,-8.415129586991936250e-01,0.000000000000000000e+00
2.760000000000000000e+02,-8.454623369534506327e-01,0.000000000000000000e+00
2.770000000000000000e+02,-8.470130237698173525e-01,0.000000000000000000e+00
2.780000000000000000e+02,-6.810860913436376229e-01,0.000000000000000000e+00
2.790000000000000000e+02,-6.119834700334525479e-01,0.000000000000000000e+00
2.800000000000000000e+02,-6.812395871118047674e-01,0.000000000000000000e+00
2.810000000000000000e+02,-4.560444044103431072e-01,0.000000000000000000e+00
2.820000000000000000e+02,-4.396608930267862925e-01,0.000000000000000000e+00
2.830000000000000000e+02,-3.601324370063830327e-01,0.000000000000000000e+00
2.840000000000000000e+02,-4.089760138862141292e-01,0.000000000000000000e+00
2.850000000000000000e+02,-4.172966458088970820e-01,0.000000000000000000e+00
2.860000000000000000e+02,-4.188276478042938233e-01,0.000000000000000000e+00
2.870000000000000000e+02,-4.257743642729773237e-01,0.000000000000000000e+00
2.880000000000000000e+02,-3.576824602588570268e-01,0.000000000000000000e+00
2.890000000000000000e+02,-1.541822621213497779e-01,0.000000000000000000e+00
2.900000000000000000e+02,-4.094795882717396363e-01,0.000000000000000000e+00
2.910000000000000000e+02,-3.620282059068857805e-01,0.000000000000000000e+00
2.920000000000000000e+02,-2.615163272049484400e-01,0.000000000000000000e+00
2.930000000000000000e+02,-2.467184962445941876e-01,0.000000000000000000e+00
2.940000000000000000e+02,-1.738160845550558997e-01,0.000000000000000000e+00
2.950000000000000000e+02,-5.026697012879467047e-02,0.000000000000000000e+00
2.960000000000000000e+02,-6.606791451196351861e-02,0.000000000000000000e+00
2.970000000000000000e+02,-6.666629918767312535e-02,0.000000000000000000e+00
2.980000000000000000e+02,-8.162667816061598691e-02,0.000000000000000000e+00
2.990000000000000000e+02,4.192159308933772754e-01,0.000000000000000000e+00
3.000000000000000000e+02,1.594456278219984202e-01,0.000000000000000000e+00
3.010000000000000000e+02,9.044374138177242450e-01,0.000000000000000000e+00
3.020000000000000000e+02,1.605801813221237329e-01,0.000000000000000000e+00
3.030000000000000000e+02,-5.132215216524321777e-02,0.000000000000000000e+00
3.040000000000000000e+02,-4.548989908839659035e-01,0.000000000000000000e+00
3.050000000000000000e+02,1.194982889275350013e-01,0.000000000000000000e+00
3.060000000000000000e+02,-2.746368439846609832e-01,0.000000000000000000e+00
3.070000000000000000e+02,1.162920603554448373e+00,0.000000000000000000e+00
3.080000000000000000e+02,-3.992658711553363826e+00,0.000000000000000000e+00
3.090000000000000000e+02,-2.728761088844760430e+00,1.000000000000000000e+00
3.100000000000000000e+02,1.031969592855394469e+00,0.000000000000000000e+00
3.110000000000000000e+02,6.822564415786794845e-01,0.000000000000000000e+00
3.120000000000000000e+02,1.427159989257008377e+00,0.000000000000000000e+00
3.130000000000000000e+02,9.419330653526292174e-01,0.000000000000000000e+00
3.140000000000000000e+02,1.113775292202317857e+00,0.000000000000000000e+00
3.150000000000000000e+02,9.777686788363785242e-01,0.000000000000000000e+00
3.160000000000000000e+02,1.100564378613766436e+00,0.000000000000000000e+00
3.170000000000000000e+02,8.840484592169877143e-01,0.000000000000000000e+00
3.180000000000000000e+02,8.517538076459274521e-01,0.000000000000000000e+00
3.190000000000000000e+02,1.046453596716610646e+00,0.000000000000000000e+00
3.200000000000000000e+02,1.006257275190073353e+00,0.000000000000000000e+00
3.210000000000000000e+02,1.258881881121964641e+00,0.000000000000000000e+00
3.220000000000000000e+02,1.347162252506250546e+00,0.000000000000000000e+00
3.230000000000000000e+02,8.990214630011587049e-01,0.000000000000000000e+00
3.240000000000000000e+02,8.552635397479416701e-01,0.000000000000000000e+00
3.250000000000000000e+02,-1.413642027594624040e-01,0.000000000000000000e+00
3.260000000000000000e+02,-2.538903287270785070e-01,0.000000000000000000e+00
3.270000000000000000e+02,-8.302238359681411994e-01,0.000000000000000000e+00
3.280000000000000000e+02,-8.527916727055649959e-01,0.000000000000000000e+00
3.290000000000000000e+02,-1.065181375765275495e+00,0.000000000000000000e+00
3.300000000000000000e+02,-7.580759775160600400e-01,0.000000000000000000e+00
3.310000000000000000e+02,-9.203809306038718274e-01,0.000000000000000000e+00
3.320000000000000000e+02,-4.905073779006533519e-01,0.000000000000000000e+00
3.330000000000000000e+02,-7.688894957747164360e-01,0.000000000000000000e+00
3.340000000000000000e+02,-6.280228253800396176e-01,0.000000000000000000e+00
3.350000000000000000e+02,-7.220426611674251038e-01,0.000000000000000000e+00
3.360000000000000000e+02,-3.650209809618096268e-01,0.000000000000000000e+00
3.370000000000000000e+02,-4.537780770503311856e-01,0.000000000000000000e+00
3.380000000000000000e+02,-4.283269147718949399e-01,0.000000000000000000e+00
3.390000000000000000e+02,-4.316806384083681780e-01,0.000000000000000000e+00
3.400000000000000000e+02,-5.541591662332622237e-01,0.000000000000000000e+00
3.410000000000000000e+02,-3.416199286579802430e-01,0.000000000000000000e+00
3.420000000000000000e+02,-4.068166377702197578e-01,0.000000000000000000e+00
3.430000000000000000e+02,-3.240494111036072433e-01,0.000000000000000000e+00
3.440000000000000000e+02,-3.028719891819353083e-01,0.000000000000000000e+00
3.450000000000000000e+02,-2.789436950450933650e-01,0.000000000000000000e+00
3.460000000000000000e+02,-1.331350715354398251e-01,0.000000000000000000e+00
3.470000000000000000e+02,-1.447159685912092764e-01,0.000000000000000000e+00
3.480000000000000000e+02,-1.490350008717134522e-01,0.000000000000000000e+00
3.490000000000000000e+02,-1.134107288332639740e-01,0.000000000000000000e+00
3.500000000000000000e+02,-2.149302429112739943e-01,0.000000000000000000e+00
3.510000000000000000e+02,6.133708978216187435e-02,0.000000000000000000e+00
3.520000000000000000e+02,6.056696804547442164e-02,0.000000000000000000e+00
3.530000000000000000e+02,-6.999623021453472982e-02,0.000000000000000000e+00
3.540000000000000000e+02,1.582167935329482078e-01,0.000000000000000000e+00
3.550000000000000000e+02,1.379363542445695978e-01,0.000000000000000000e+00
3.560000000000000000e+02,3.254876604794691430e-01,0.000000000000000000e+00
3.570000000000000000e+02,6.529159478654990023e-01,0.000000000000000000e+00
3.580000000000000000e+02,7.029907922845108903e-01,0.000000000000000000e+00
3.590000000000000000e+02,3.238693995358250810e-02,0.000000000000000000e+00
3.600000000000000000e+02,-2.343058210762079957e-02,0.000000000000000000e+00
3.610000000000000000e+02,-1.570261925193449509e-02,0.000000000000000000e+00
3.620000000000000000e+02,-3.215032336804481972e-01,0.000000000000000000e+00
3.630000000000000000e+02,7.310822725175935011e-01,0.000000000000000000e+00
3.640000000000000000e+02,-1.119570143960191104e-02,0.000000000000000000e+00
3.650000000000000000e+02,-5.185676990534936692e+00,0.000000000000000000e+00
3.660000000000000000e+02,-7.668637198937106048e-01,1.000000000000000000e+00
3.670000000000000000e+02,8.704273777082010000e-01,0.000000000000000000e+00
3.680000000000000000e+02,1.085726516546985820e+00,0.000000000000000000e+00
3.690000000000000000e+02,1.256506666714714449e+00,0.000000000000000000e+00
3.700000000000000000e+02,1.116257070190123324e+00,0.000000000000000000e+00
3.710000000000000000e+02,1.112564032106844847e+00,0.000000000000000000e+00
3.720000000000000000e+02,1.021102866487365368e+00,0.000000000000000000e+00
3.730000000000000000e+02,1.016738585697792630e+00,0.000000000000000000e+00
3.740000000000000000e+02,7.698859654999288260e-01,0.000000000000000000e+00
3.750000000000000000e+02,1.116766605583682237e+00,0.000000000000000000e+00
3.760000000000000000e+02,1.093812780416375308e+00,0.000000000000000000e+00
3.770000000000000000e+02,9.662909713677632073e-01,0.000000000000000000e+00
3.780000000000000000e+02,1.168972506402039313e+00,0.000000000000000000e+00
3.790000000000000000e+02,1.125308997499379293e+00,0.000000000000000000e+00
3.800000000000000000e+02,9.798028070120669009e-01,0.000000000000000000e+00
3.810000000000000000e+02,5.660156513631754427e-01,0.000000000000000000e+00
3.820000000000000000e+02,1.049979202340692169e-01,0.000000000000000000e+00
3.830000000000000000e+02,-4.528287970766723403e-01,0.000000000000000000e+00
3.840000000000000000e+02,-6.955932944697849063e-01,0.000000000000000000e+00
3.850000000000000000e+02,-8.594450148451064919e-01,0.000000000000000000e+00
3.860000000000000000e+02,-6.282474737910042073e-01,0.000000000000000000e+00
3.870000000000000000e+02,-6.459203845225877094e-01,0.000000000000000000e+00
3.880000000000000000e+02,-8.175542608393497890e-01,0.000000000000000000e+00
3.890000000000000000e+02,-5.701305812424112274e-01,0.000000000000000000e+00
3.900000000000000000e+02,-6.107277376071421626e-01,0.000000000000000000e+00
3.910000000000000000e+02,-5.522332034927621702e-01,0.000000000000000000e+00
3.920000000000000000e+02,-3.793715069976001941e-01,0.000000000000000000e+00
3.930000000000000000e+02,-3.722430402921134140e-01,0.000000000000000000e+00
3.940000000000000000e+02,-4.355060906412334121e-01,0.000000000000000000e+00
3.950000000000000000e+02,-3.970605875551527220e-01,0.000000000000000000e+00
3.960000000000000000e+02,-3.518592754625584629e-01,0.000000000000000000e+00
3.970000000000000000e+02,-3.359534200699254014e-01,0.000000000000000000e+00
3.980000000000000000e+02,-3.817263446550688277e-01,0.000000000000000000e+00
3.990000000000000000e+02,-2.911632932432139387e-01,0.000000000000000000e+00
4.000000000000000000e+02,-2.190789396211645645e-01,0.000000000000000000e+00
4.010000000000000000e+02,-4.003868479923048396e-01,0.000000000000000000e+00
4.020000000000000000e+02,-9.535367889290378984e-02,0.000000000000000000e+00
4.030000000000000000e+02,-2.511344699327012209e-01,0.000000000000000000e+00
4.040000000000000000e+02,-2.840412945816109258e-01,0.000000000000000000e+00
4.050000000000000000e+02,-1.092984813411437550e-01,0.000000000000000000e+00
4.060000000000000000e+02,-1.694908772015120968e-01,0.000000000000000000e+00
4.070000000000000000e+02,-7.880287093629194384e-02,0.000000000000000000e+00
4.080000000000000000e+02,3.128192112304845757e-02,0.000000000000000000e+00
4.090000000000000000e+02,2.483461342072760814e-01,0.000000000000000000e+00
4.100000000000000000e+02,3.637659488157489740e-01,0.000000000000000000e+00
4.110000000000000000e+02,6.824998271170257258e-01,0.000000000000000000e+00
4.120000000000000000e+02,3.086837701005177084e-02,0.000000000000000000e+00
4.130000000000000000e+02,-3.336787103036883972e-02,0.000000000000000000e+00
4.140000000000000000e+02,-1.619921628823288995e-01,0.000000000000000000e+00
4.150000000000000000e+02,-3.135880022670087947e-02,0.000000000000000000e+00
4.160000000000000000e+02,-2.995736001683306851e-03,0.000000000000000000e+00
4.170000000000000000e+02,1.565483832146901788e+00,0.000000000000000000e+00
4.180000000000000000e+02,-4.524008352163489732e+00,0.000000000000000000e+00
4.190000000000000000e+02,-2.909989760724133401e+00,1.000000000000000000e+00
4.200000000000000000e+02,9.257629830607299048e-01,0.000000000000000000e+00
4.210000000000000000e+02,9.620701349535338842e-01,0.000000000000000000e+00
4.220000000000000000e+02,1.289964115376953213e+00,0.000000000000000000e+00
4.230000000000000000e+02,1.112918302817281546e+00,0.000000000000000000e+00
4.240000000000000000e+02,1.295109822832697599e+00,0.000000000000000000e+00
4.250000000000000000e+02,7.532398267055230301e-01,0.000000000000000000e+00
4.260000000000000000e+02,1.125958987941675149e+00,0.000000000000000000e+00
4.270000000000000000e+02,9.044008383530535156e-01,0.000000000000000000e+00
4.280000000000000000e+02,1.078878216622904285e+00,0.000000000000000000e+00
4.290000000000000000e+02,1.004358428994453378e+00,0.000000000000000000e+00
4.300000000000000000e+02,1.107911124743961473e+00,0.000000000000000000e+00
4.310000000000000000e+02,1.307725869171369792e+00,0.000000000000000000e+00
4.320000000000000000e+02,1.085701182436564993e+00,0.000000000000000000e+00
4.330000000000000000e+02,9.330923647264912635e-01,0.000000000000000000e+00
4.340000000000000000e+02,7.447657636935810510e-01,0.000000000000000000e+00
4.350000000000000000e+02,9.919524120337146200e-02,0.000000000000000000e+00
4.360000000000000000e+02,-5.217870090902886338e-01,0.000000000000000000e+00
4.370000000000000000e+02,-8.022073960760048861e-01,0.000000000000000000e+00
4.380000000000000000e+02,-7.501772091476290871e-01,0.000000000000000000e+00
4.390000000000000000e+02,-9.329929469277640219e-01,0.000000000000000000e+00
4.400000000000000000e+02,-7.283126497500055363e-01,0.000000000000000000e+00
4.410000000000000000e+02,-8.844669311331112560e-01,0.000000000000000000e+00
4.420000000000000000e+02,-5.516283924185080290e-01,0.000000000000000000e+00
4.430000000000000000e+02,-7.557824725511225195e-01,0.000000000000000000e+00
4.440000000000000000e+02,-5.596677411287087622e-01,0.000000000000000000e+00
4.450000000000000000e+02,-4.184404671399774012e-01,0.000000000000000000e+00
4.460000000000000000e+02,-4.710553624113336668e-01,0.000000000000000000e+00
4.470000000000000000e+02,-4.840585158715609571e-01,0.000000000000000000e+00
4.480000000000000000e+02,-3.864439168934270530e-01,0.000000000000000000e+00
4.490000000000000000e+02,-3.680714369884782178e-01,0.000000000000000000e+00
4.500000000000000000e+02,-3.881518629928433772e-01,0.000000000000000000e+00
4.510000000000000000e+02,-3.958241566615323670e-01,0.000000000000000000e+00
4.520000000000000000e+02,-4.436865163604784001e-01,0.000000000000000000e+00
4.530000000000000000e+02,-3.466769106687689339e-01,0.000000000000000000e+00
4.540000000000000000e+02,-2.510679894280751778e-01,0.000000000000000000e+00
4.550000000000000000e+02,-3.731586046176131877e-01,0.000000000000000000e+00
4.560000000000000000e+02,-2.628919536597945639e-01,0.000000000000000000e+00
4.570000000000000000e+02,-2.992535003473157373e-01,0.000000000000000000e+00
4.580000000000000000e+02,-2.130958991677958658e-01,0.000000000000000000e+00
4.590000000000000000e+02,-1.507078679391281317e-01,0.000000000000000000e+00
4.600000000000000000e+02,-1.049261853331827921e-01,0.000000000000000000e+00
4.610000000000000000e+02,-1.034980624338899396e-01,0.000000000000000000e+00
4.620000000000000000e+02,2.230762746621738346e-01,0.000000000000000000e+00
4.630000000000000000e+02,2.663541045531681029e-01,0.000000000000000000e+00
4.640000000000000000e+02,7.064229150230563192e-01,0.000000000000000000e+00
4.650000000000000000e+02,1.328232853571327809e-01,0.000000000000000000e+00
4.660000000000000000e+02,7.644767565009866206e-02,0.000000000000000000e+00
4.670000000000000000e+02,-2.731550459813205101e-01,0.000000000000000000e+00
4.680000000000000000e+02,1.158088893333873021e-01,0.000000000000000000e+00
4.690000000000000000e+02,-5.033309445371693114e-01,0.000000000000000000e+00
4.700000000000000000e+02,1.323812772734087373e+00,0.000000000000000000e+00
4.710000000000000000e+02,-2.837003600062721009e+00,0.000000000000000000e+00
4.720000000000000000e+02,-3.793761082542693952e+00,0.000000000000000000e+00
4.730000000000000000e+02,6.281223616399730370e-01,1.000000000000000000e+00
4.740000000000000000e+02,7.811583245356463756e-01,0.000000000000000000e+00
4.750000000000000000e+02,1.183766844973695109e+00,0.000000000000000000e+00
4.760000000000000000e+02,1.054997502453537406e+00,0.000000000000000000e+00
4.770000000000000000e+02,1.125441005121046389e+00,0.000000000000000000e+00
4.780000000000000000e+02,9.481145633117287197e-01,0.000000000000000000e+00
4.790000000000000000e+02,1.036629760316614801e+00,0.000000000000000000e+00
4.800000000000000000e+02,8.521930719153182343e-01,0.000000000000000000e+00
4.810000000000000000e+02,9.770979557093741885e-01,0.000000000000000000e+00
4.820000000000000000e+02,8.174776222627087030e-01,0.000000000000000000e+00
4.830000000000000000e+02,1.177845639930607868e+00,0.000000000000000000e+00
4.840000000000000000e+02,1.012717427735915443e+00,0.000000000000000000e+00
4.850000000000000000e+02,1.417574527188764533e+00,0.000000000000000000e+00
4.860000000000000000e+02,9.275766477466236282e-01,0.000000000000000000e+00
4.870000000000000000e+02,9.325527962558602946e-01,0.000000000000000000e+00
4.880000000000000000e+02,1.542419367514921980e-01,0.000000000000000000e+00
4.890000000000000000e+02,-1.926829999467498111e-01,0.000000000000000000e+00
4.900000000000000000e+02,-7.722256906870518245e-01,0.000000000000000000e+00
4.910000000000000000e+02,-6.764337858335118803e-01,0.000000000000000000e+00
4.920000000000000000e+02,-7.450513747303957324e-01,0.000000000000000000e+00
4.930000000000000000e+02,-9.226325135834321234e-01,0.000000000000000000e+00
4.940000000000000000e+02,-8.008375354731539497e-01,0.000000000000000000e+00
4.950000000000000000e+02,-5.755160531125729229e-01,0.000000000000000000e+00
4.960000000000000000e+02,-6.560701083727767946e-01,0.000000000000000000e+00
4.970000000000000000e+02,-6.066312414160721644e-01,0.000000000000000000e+00
4.980000000000000000e+02,-5.941567640203821998e-01,0.000000000000000000e+00
4.990000000000000000e+02,-5.423152344899241362e-01,0.000000000000000000e+00
5.000000000000000000e+02,-2.389482478074969052e-01,0.000000000000000000e+00
5.010000000000000000e+02,-3.954800165042376414e-01,0.000000000000000000e+00
5.020000000000000000e+02,-3.907411203292020518e-01,0.000000000000000000e+00
5.030000000000000000e+02,-1.446730934833073967e-01,0.000000000000000000e+00
5.040000000000000000e+02,-4.406630851791648595e-01,0.000000000000000000e+00
5.050000000000000000e+02,-3.404977372449732309e-01,0.000000000000000000e+00
5.060000000000000000e+02,-3.340412597774856107e-01,0.000000000000000000e+00
5.070000000000000000e+02,-1.814272380802239293e-01,0.000000000000000000e+00
5.080000000000000000e+02,-2.791205484282934801e-01,0.000000000000000000e+00
5.090000000000000000e+02,-1.657835830623899942e-01,0.000000000000000000e+00
5.100000000000000000e+02,-1.529818190892955065e-01,0.000000000000000000e+00
5.110000000000000000e+02,-2.377261676020535064e-01,0.000000000000000000e+00
5.120000000000000000e+02,2.046150940329376222e-02,0.000000000000000000e+00
5.130000000000000000e+02,-1.855846021653460853e-01,0.000000000000000000e+00
5.140000000000000000e+02,-2.899701199617462158e-02,0.000000000000000000e+00
5.150000000000000000e+02,9.666853513242591733e-02,0.000000000000000000e+00
5.160000000000000000e+02,1.936633813102318080e-01,0.000000000000000000e+00
5.170000000000000000e+02,-8.855527918748219707e-02,0.000000000000000000e+00
5.180000000000000000e+02,4.370643870539704379e-01,0.000000000000000000e+00
5.190000000000000000e+02,3.314035006791134497e-01,0.000000000000000000e+00
5.200000000000000000e+02,8.549630067789175669e-01,0.000000000000000000e+00
5.210000000000000000e+02,2.639823998025000451e-01,0.000000000000000000e+00
5.220000000000000000e+02,-5.760892212714323335e-02,0.000000000000000000e+00
5.230000000000000000e+02,-8.239819652770476177e-02,0.000000000000000000e+00
5.240000000000000000e+02,9.588919915966631971e-03,0.000000000000000000e+00
5.250000000000000000e+02,-2.321816232157273840e-01,0.000000000000000000e+00
5.260000000000000000e+02,1.250512800439057326e+00,0.000000000000000000e+00
5.270000000000000000e+02,-4.277374337891943767e+00,0.000000000000000000e+00
5.280000000000000000e+02,-2.586791118714355520e+00,1.000000000000000000e+00
5.290000000000000000e+02,1.136339602307685048e+00,0.000000000000000000e+00
5.300000000000000000e+02,7.978992390010309910e-01,0.000000000000000000e+00
5.310000000000000000e+02,1.357528656735330408e+00,0.000000000000000000e+00
5.320000000000000000e+02,9.788050247673600879e-01,0.000000000000000000e+00
5.330000000000000000e+02,1.234073507569115158e+00,0.000000000000000000e+00
5.340000000000000000e+02,9.874013097093364832e-01,0.000000000000000000e+00
5.350000000000000000e+02,1.151310825823552930e+00,0.000000000000000000e+00
5.360000000000000000e+02,9.119832834896062224e-01,0.000000000000000000e+00
5.370000000000000000e+02,1.032563972380549755e+00,0.000000000000000000e+00
5.380000000000000000e+02,9.035756654752433725e-01,0.000000000000000000e+00
5.390000000000000000e+02,1.241628348145936034e+00,0.000000000000000000e+00
5.400000000000000000e+02,1.154535866088578500e+00,0.000000000000000000e+00
5.410000000000000000e+02,1.260429209173583587e+00,0.000000000000000000e+00
5.420000000000000000e+02,9.695366820188501267e-01,0.000000000000000000e+00
5.430000000000000000e+02,8.838798331571434685e-01,0.000000000000000000e+00
5.440000000000000000e+02,2.854497736904473837e-02,0.000000000000000000e+00
5.450000000000000000e+02,-3.426810955886824273e-01,0.000000000000000000e+00
5.460000000000000000e+02,-8.757809897673591859e-01,0.000000000000000000e+00
5.470000000000000000e+02,-7.627671411397918266e-01,0.000000000000000000e+00
5.480000000000000000e+02,-9.235704270126759985e-01,0.000000000000000000e+00
5.490000000000000000e+02,-5.916477352949022217e-01,0.000000000000000000e+00
5.500000000000000000e+02,-1.004977326335770638e+00,0.000000000000000000e+00
5.510000000000000000e+02,-6.283858688138105331e-01,0.000000000000000000e+00
5.520000000000000000e+02,-6.082453042496871465e-01,0.000000000000000000e+00
5.530000000000000000e+02,-6.043789009485770469e-01,0.000000000000000000e+00
5.540000000000000000e+02,-7.479596448398427855e-01,0.000000000000000000e+00
5.550000000000000000e+02,-4.546414170604924920e-01,0.000000000000000000e+00
5.560000000000000000e+02,-5.786152386781678869e-01,0.000000000000000000e+00
5.570000000000000000e+02,-3.998534827530856317e-01,0.000000000000000000e+00
5.580000000000000000e+02,-4.017907027834173306e-01,0.000000000000000000e+00
5.590000000000000000e+02,-4.346782024937385080e-01,0.000000000000000000e+00
5.600000000000000000e+02,-2.137444889189479558e-01,0.000000000000000000e+00
5.610000000000000000e+02,-4.234867610086932577e-01,0.000000000000000000e+00
5.620000000000000000e+02,-4.349008258052346476e-01,0.000000000000000000e+00
5.630000000000000000e+02,-2.782893378306046661e-01,0.000000000000000000e+00
5.640000000000000000e+02,-3.966261381841737488e-01,0.000000000000000000e+00
5.650000000000000000e+02,-1.906084864992758920e-01,0.000000000000000000e+00
5.660000000000000000e+02,-3.380935723122855396e-01,0.000000000000000000e+00
5.670000000000000000e+02,1.491848240411905620e-02,0.000000000000000000e+00
5.680000000000000000e+02,-6.846263568079584416e-02,0.000000000000000000e+00
5.690000000000000000e+02,-1.263742641430812552e-01,0.000000000000000000e+00
5.700000000000000000e+02,-1.559592150441412028e-01,0.000000000000000000e+00
5.710000000000000000e+02,1.072564332734615017e-02,0.000000000000000000e+00
5.720000000000000000e+02,-1.509784229083910127e-02,0.000000000000000000e+00
5.730000000000000000e+02,1.116716716158480532e-01,0.000000000000000000e+00
5.740000000000000000e+02,3.284377352199119304e-01,0.000000000000000000e+00
5.750000000000000000e+02,6.399092120587278609e-01,0.000000000000000000e+00
5.760000000000000000e+02,5.245557585076724427e-01,0.000000000000000000e+00
5.770000000000000000e+02,2.013948404531162306e-01,0.000000000000000000e+00
5.780000000000000000e+02,-2.256773920712724368e-01,0.000000000000000000e+00
5.790000000000000000e+02,1.377944508193136575e-02,0.000000000000000000e+00
5.800000000000000000e+02,-3.377560504559014576e-01,0.000000000000000000e+00
5.810000000000000000e+02,6.530842754764616398e-01,0.000000000000000000e+00
5.820000000000000000e+02,3.614202730778985906e-01,0.000000000000000000e+00
5.830000000000000000e+02,-5.350736208888267953e+00,0.000000000000000000e+00
5.840000000000000000e+02,-1.227062580317217932e+00,1.000000000000000000e+00
5.850000000000000000e+02,1.113670628970707899e+00,0.000000000000000000e+00
5.860000000000000000e+02,1.065980343376473405e+00,0.000000000000000000e+00
5.870000000000000000e+02,1.131014274208077763e+00,0.000000000000000000e+00
5.880000000000000000e+02,1.249230593179761817e+00,0.000000000000000000e+00
5.890000000000000000e+02,1.017474967968850619e+00,0.000000000000000000e+00
5.900000000000000000e+02,1.059934313705984454e+00,0.000000000000000000e+00
5.910000000000000000e+02,1.020922702216710887e+00,0.000000000000000000e+00
5.920000000000000000e+02,9.873384106821403439e-01,0.000000000000000000e+00
5.930000000000000000e+02,9.479394923645628745e-01,0.000000000000000000e+00
5.940000000000000000e+02,1.131498041577046587e+00,0.000000000000000000e+00
5.950000000000000000e+02,1.196300416033510228e+00,0.000000000000000000e+00
5.960000000000000000e+02,1.236161956497423109e+00,0.000000000000000000e+00
5.970000000000000000e+02,1.001420072603242728e+00,0.000000000000000000e+00
5.980000000000000000e+02,9.568355062697998514e-01,0.000000000000000000e+00
5.990000000000000000e+02,6.819235156294518596e-01,0.000000000000000000e+00
6.000000000000000000e+02,1.296503760619890228e-02,0.000000000000000000e+00
6.010000000000000000e+02,-5.052104784730019338e-01,0.000000000000000000e+00
6.020000000000000000e+02,-7.339931221894717694e-01,0.000000000000000000e+00
6.030000000000000000e+02,-8.240816291055762521e-01,0.000000000000000000e+00
6.040000000000000000e+02,-8.435512393112983842e-01,0.000000000000000000e+00
6.050000000000000000e+02,-7.194175845527888136e-01,0.000000000000000000e+00
6.060000000000000000e+02,-7.187791936203626886e-01,0.000000000000000000e+00
6.070000000000000000e+02,-5.553873613914607210e-01,0.000000000000000000e+00
6.080000000000000000e+02,-7.601053770047292435e-01,0.000000000000000000e+00
6.090000000000000000e+02,-5.097901832370835828e-01,0.000000000000000000e+00
6.100000000000000000e+02,-5.247197864784061139e-01,0.000000000000000000e+00
6.110000000000000000e+02,-3.394412676207833601e-01,0.000000000000000000e+00
6.120000000000000000e+02,-4.560007064726540049e-01,0.000000000000000000e+00
6.130000000000000000e+02,-3.238524445320969947e-01,0.000000000000000000e+00
6.140000000000000000e+02,-6.372525190847341259e-01,0.000000000000000000e+00
6.150000000000000000e+02,-2.314541736600903565e-01,0.000000000000000000e+00
6.160000000000000000e+02,-5.080498491673894890e-01,0.000000000000000000e+00
6.170000000000000000e+02,-5.148314761469352518e-01,0.000000000000000000e+00
6.180000000000000000e+02,-1.850659117029462286e-01,0.000000000000000000e+00
6.190000000000000000e+02,-4.826369491199236084e-01,0.000000000000000000e+00
6.200000000000000000e+02,-2.734993369648049399e-01,0.000000000000000000e+00
6.210000000000000000e+02,-3.592784985649549179e-01,0.000000000000000000e+00
6.220000000000000000e+02,-1.787981723749108576e-01,0.000000000000000000e+00
6.230000000000000000e+02,-3.249489206925299523e-01,0.000000000000000000e+00
6.240000000000000000e+02,-6.019842657959574572e-02,0.000000000000000000e+00
6.250000000000000000e+02,-8.279346194227747702e-02,0.000000000000000000e+00
6.260000000000000000e+02,2.301307041730847880e-01,0.000000000000000000e+00
6.270000000000000000e+02,1.121004336170612903e-01,0.000000000000000000e+00
6.280000000000000000e+02,2.702882833528330586e-01,0.000000000000000000e+00
6.290000000000000000e+02,5.816705971888437299e-01,0.000000000000000000e+00
6.300000000000000000e+02,-1.704548300062752042e-01,0.000000000000000000e+00
6.310000000000000000e+02,-1.788996958675868887e-01,0.000000000000000000e+00
6.320000000000000000e+02,-1.920327824157094451e-02,0.000000000000000000e+00
6.330000000000000000e+02,-4.939364284027292218e-01,0.000000000000000000e+00
6.340000000000000000e+02,8.192008800034156213e-01,0.000000000000000000e+00
6.350000000000000000e+02,-5.578563457921011798e-02,0.000000000000000000e+00
6.360000000000000000e+02,-5.462440183080503608e+00,0.000000000000000000e+00
6.370000000000000000e+02,-7.027140901046271537e-01,1.000000000000000000e+00
6.380000000000000000e+02,8.085720014580318749e-01,0.000000000000000000e+00
6.390000000000000000e+02,1.161187142487082768e+00,0.000000000000000000e+00
6.400000000000000000e+02,1.110585818699103555e+00,0.000000000000000000e+00
6.410000000000000000e+02,1.299249913047055394e+00,0.000000000000000000e+00
6.420000000000000000e+02,1.078936661735705460e+00,0.000000000000000000e+00
6.430000000000000000e+02,1.044961880704826207e+00,0.000000000000000000e+00
6.440000000000000000e+02,1.094650826215416650e+00,0.000000000000000000e+00
6.450000000000000000e+02,9.965436660342457120e-01,0.000000000000000000e+00
6.460000000000000000e+02,1.016873658632572841e+00,0.000000000000000000e+00
6.470000000000000000e+02,1.008070001936814730e+00,0.000000000000000000e+00
6.480000000000000000e+02,1.327978020371898493e+00,0.000000000000000000e+00
6.490000000000000000e+02,1.162135985983476782e+00,0.000000000000000000e+00
6.500000000000000000e+02,1.252756823968772748e+00,0.000000000000000000e+00
6.510000000000000000e+02,9.723283746047276521e-01,0.000000000000000000e+00
6.520000000000000000e+02,4.770430198573935021e-01,0.000000000000000000e+00
6.530000000000000000e+02,-3.705740015561711370e-02,0.000000000000000000e+00
6.540000000000000000e+02,-5.407503443657554199e-01,0.000000000000000000e+00
6.550000000000000000e+02,-6.834925577825270437e-01,0.000000000000000000e+00
6.560000000000000000e+02,-8.238111059791176638e-01,0.000000000000000000e+00
6.570000000000000000e+02,-7.547182170383953670e-01,0.000000000000000000e+00
6.580000000000000000e+02,-7.651305307967845026e-01,0.000000000000000000e+00
6.590000000000000000e+02,-7.482124088025678965e-01,0.000000000000000000e+00
6.600000000000000000e+02,-7.207625032462574577e-01,0.000000000000000000e+00
6.610000000000000000e+02,-5.611804544320971866e-01,0.000000000000000000e+00
6.620000000000000000e+02,-6.537753832258610398e-01,0.000000000000000000e+00
6.630000000000000000e+02,-3.919537197662109063e-01,0.000000000000000000e+00
6.640000000000000000e+02,-5.862510184544516001e-01,0.000000000000000000e+00
6.650000000000000000e+02,-2.200405716597285954e-01,0.000000000000000000e+00
6.660000000000000000e+02,-5.281330703039445185e-01,0.000000000000000000e+00
6.670000000000000000e+02,-2.577636765203825120e-01,0.000000000000000000e+00
6.680000000000000000e+02,-4.504628929087871048e-01,0.000000000000000000e+00
6.690000000000000000e+02,-3.378697341648489449e-01,0.000000000000000000e+00
6.700000000000000000e+02,-3.843773633977565773e-01,0.000000000000000000e+00
6.710000000000000000e+02,-2.786868096642459158e-01,0.000000000000000000e+00
6.720000000000000000e+02,-2.939186294409393274e-01,0.000000000000000000e+00
6.730000000000000000e+02,-1.249177022249254448e-01,0.000000000000000000e+00
6.740000000000000000e+02,-2.887393383083032283e-01,0.000000000000000000e+00
6.750000000000000000e+02,-1.378464861521165319e-01,0.000000000000000000e+00
6.760000000000000000e+02,-5.548376986841053321e-02,0.000000000000000000e+00
6.770000000000000000e+02,-1.154841183943457333e-01,0.000000000000000000e+00
6.780000000000000000e+02,-3.417305215683509589e-02,0.000000000000000000e+00
6.790000000000000000e+02,-4.850306235099668267e-02,0.000000000000000000e+00
6.800000000000000000e+02,7.549381132982616038e-02,0.000000000000000000e+00
6.810000000000000000e+02,4.190395138909102091e-01,0.000000000000000000e+00
6.820000000000000000e+02,2.387447795451708710e-01,0.000000000000000000e+00
6.830000000000000000e+02,8.367223675416773920e-01,0.000000000000000000e+00
6.840000000000000000e+02,1.108761872699815104e-01,0.000000000000000000e+00
6.850000000000000000e+02,1.272392605586665781e-01,0.000000000000000000e+00
6.860000000000000000e+02,-8.292558915082749726e-02,0.000000000000000000e+00
6.870000000000000000e+02,2.241030340783609423e-02,0.000000000000000000e+00
6.880000000000000000e+02,-2.394033104712847415e-01,0.000000000000000000e+00
6.890000000000000000e+02,1.292172539871839110e+00,0.000000000000000000e+00
6.900000000000000000e+02,-3.555992487431164584e+00,0.000000000000000000e+00
6.910000000000000000e+02,-2.956947324282109602e+00,0.000000000000000000e+00
6.920000000000000000e+02,9.061580539065917650e-01,1.000000000000000000e+00
6.930000000000000000e+02,7.001248251278446855e-01,0.000000000000000000e+00
6.940000000000000000e+02,1.354291645174512393e+00,0.000000000000000000e+00
6.950000000000000000e+02,9.425737030974770114e-01,0.000000000000000000e+00
6.960000000000000000e+02,1.175551779001417829e+00,0.000000000000000000e+00
6.970000000000000000e+02,1.046207946277580181e+00,0.000000000000000000e+00
6.980000000000000000e+02,1.111818355463093821e+00,0.000000000000000000e+00
6.990000000000000000e+02,9.132752110411570534e-01,0.000000000000000000e+00
7.000000000000000000e+02,1.006692110076613744e+00,0.000000000000000000e+00
7.010000000000000000e+02,8.890723174246842886e-01,0.000000000000000000e+00
7.020000000000000000e+02,1.106112221670794593e+00,0.000000000000000000e+00
7.030000000000000000e+02,1.171364747037286991e+00,0.000000000000000000e+00
7.040000000000000000e+02,1.226144191454437760e+00,0.000000000000000000e+00
7.050000000000000000e+02,1.031989150258493249e+00,0.000000000000000000e+00
7.060000000000000000e+02,6.625087296594263098e-01,0.000000000000000000e+00
7.070000000000000000e+02,2.822977581955375403e-01,0.000000000000000000e+00
7.080000000000000000e+02,-4.944898419801644351e-01,0.000000000000000000e+00
7.090000000000000000e+02,-6.450207046958367219e-01,0.000000000000000000e+00
7.100000000000000000e+02,-9.272618597115374062e-01,0.000000000000000000e+00
7.110000000000000000e+02,-8.383340986069027778e-01,0.000000000000000000e+00
7.120000000000000000e+02,-9.188223590696568133e-01,0.000000000000000000e+00
7.130000000000000000e+02,-7.320961503572370743e-01,0.000000000000000000e+00
7.140000000000000000e+02,-7.133111261462964370e-01,0.000000000000000000e+00
7.150000000000000000e+02,-7.321440815014780279e-01,0.000000000000000000e+00
7.160000000000000000e+02,-7.258736630911856169e-01,0.000000000000000000e+00
7.170000000000000000e+02,-5.533442985832471850e-01,0.000000000000000000e+00
7.180000000000000000e+02,-5.292870332689576518e-01,0.000000000000000000e+00
7.190000000000000000e+02,-4.997466513209506966e-01,0.000000000000000000e+00
7.200000000000000000e+02,-4.111992433687384207e-01,0.000000000000000000e+00
7.210000000000000000e+02,-3.971129331439455790e-01,0.000000000000000000e+00
7.220000000000000000e+02,-4.374271743682492386e-01,0.000000000000000000e+00
7.230000000000000000e+02,-4.705116250962664282e-01,0.000000000000000000e+00
7.240000000000000000e+02,-4.911006808683817670e-01,0.000000000000000000e+00
7.250000000000000000e+02,-2.765146781075318860e-01,0.000000000000000000e+00
7.260000000000000000e+02,-3.752377035748368783e-01,0.000000000000000000e+00
7.270000000000000000e+02,-3.160313305337448253e-01,0.000000000000000000e+00
7.280000000000000000e+02,-2.813643705894799951e-01,0.000000000000000000e+00
7.290000000000000000e+02,-1.616631761724645067e-01,0.000000000000000000e+00
7.300000000000000000e+02,-1.899253268366470904e-01,0.000000000000000000e+00
7.310000000000000000e+02,-2.453253287633841428e-01,0.000000000000000000e+00
7.320000000000000000e+02,-2.622047260580807199e-02,0.000000000000000000e+00
7.330000000000000000e+02,-8.548304561927687339e-02,0.000000000000000000e+00
7.340000000000000000e+02,7.187231577602959387e-02,0.000000000000000000e+00
7.350000000000000000e+02,3.409328612438958794e-01,0.000000000000000000e+00
7.360000000000000000e+02,2.954573520693319910e-01,0.000000000000000000e+00
7.370000000000000000e+02,8.321406934930567489e-01,0.000000000000000000e+00
7.380000000000000000e+02,3.438452773951217178e-01,0.000000000000000000e+00
7.390000000000000000e+02,8.166103134734448155e-02,0.000000000000000000e+00
7.400000000000000000e+02,-2.143501339436154340e-01,0.000000000000000000e+00
7.410000000000000000e+02,1.933654312777192130e-01,0.000000000000000000e+00
7.420000000000000000e+02,-4.509023343411899254e-01,0.000000000000000000e+00
7.430000000000000000e+02,1.303829974809479708e+00,0.000000000000000000e+00
7.440000000000000000e+02,-2.114499190975148046e+00,0.000000000000000000e+00
7.450000000000000000e+02,-4.394192411482977789e+00,0.000000000000000000e+00
7.460000000000000000e+02,6.445694985208589856e-01,1.000000000000000000e+00
7.470000000000000000e+02,8.391246494213674412e-01,0.000000000000000000e+00
7.480000000000000000e+02,1.374848196019542446e+00,0.000000000000000000e+00
7.490000000000000000e+02,9.972529358765915841e-01,0.000000000000000000e+00
7.500000000000000000e+02,1.322947675264912748e+00,0.000000000000000000e+00
7.510000000000000000e+02,1.027794230629682781e+00,0.000000000000000000e+00
7.520000000000000000e+02,1.230140209946007701e+00,0.000000000000000000e+00
7.530000000000000000e+02,7.479030876045470455e-01,0.000000000000000000e+00
7.540000000000000000e+02,1.143867524367450095e+00,0.000000000000000000e+00
7.550000000000000000e+02,9.906470168997651982e-01,0.000000000000000000e+00
7.560000000000000000e+02,1.185150584627398418e+00,0.000000000000000000e+00
7.570000000000000000e+02,1.003637779137364960e+00,0.000000000000000000e+00
7.580000000000000000e+02,1.243655423907922053e+00,0.000000000000000000e+00
7.590000000000000000e+02,1.073059546762330507e+00,0.000000000000000000e+00
7.600000000000000000e+02,8.121401315529631626e-01,0.000000000000000000e+00
7.610000000000000000e+02,3.693497349783791406e-01,0.000000000000000000e+00
7.620000000000000000e+02,-1.327679987252820548e-01,0.000000000000000000e+00
7.630000000000000000e+02,-6.426670402912103564e-01,0.000000000000000000e+00
7.640000000000000000e+02,-9.263244961477076211e-01,0.000000000000000000e+00
7.650000000000000000e+02,-9.102820951258275839e-01,0.000000000000000000e+00
7.660000000000000000e+02,-8.908559051014504071e-01,0.000000000000000000e+00
7.670000000000000000e+02,-7.614025740488502558e-01,0.000000000000000000e+00
7.680000000000000000e+02,-8.343393746147755863e-01,0.000000000000000000e+00
7.690000000000000000e+02,-6.344361592907060698e-01,0.000000000000000000e+00
7.700000000000000000e+02,-7.193646435691337659e-01,0.000000000000000000e+00
7.710000000000000000e+02,-5.848726602550587961e-01,0.000000000000000000e+00
7.720000000000000000e+02,-4.841733000193195191e-01,0.000000000000000000e+00
7.730000000000000000e+02,-5.081731037168352172e-01,0.000000000000000000e+00
7.740000000000000000e+02,-4.472225556850190076e-01,0.000000000000000000e+00
7.750000000000000000e+02,-4.647190157195525972e-01,0.000000000000000000e+00
7.760000000000000000e+02,-3.518044738974892005e-01,0.000000000000000000e+00
7.770000000000000000e+02,-4.719854833558951301e-01,0.000000000000000000e+00
7.780000000000000000e+02,-2.713114786873211393e-01,0.000000000000000000e+00
7.790000000000000000e+02,-4.029998064113530232e-01,0.000000000000000000e+00
7.800000000000000000e+02,-2.554965461336827226e-01,0.000000000000000000e+00
7.810000000000000000e+02,-3.385135392244084107e-01,0.000000000000000000e+00
7.820000000000000000e+02,-1.858416276527104505e-01,0.000000000000000000e+00
7.830000000000000000e+02,-1.645190519813043706e-01,0.000000000000000000e+00
7.840000000000000000e+02,-2.853021864251070183e-01,0.000000000000000000e+00
7.850000000000000000e+02,-1.426302591636756378e-01,0.000000000000000000e+00
7.860000000000000000e+02,-1.605372021843108621e-01,0.000000000000000000e+00
7.870000000000000000e+02,-8.264672579920392947e-02,0.000000000000000000e+00
7.880000000000000000e+02,4.454311700768627535e-02,0.000000000000000000e+00
7.890000000000000000e+02,1.239504010285123400e-02,0.000000000000000000e+00
7.900000000000000000e+02,3.615978563415029462e-02,0.000000000000000000e+00
7.910000000000000000e+02,3.686795432500605818e-01,0.000000000000000000e+00
7.920000000000000000e+02,4.021991140912898888e-01,0.000000000000000000e+00
7.930000000000000000e+02,8.664357137912341855e-01,0.000000000000000000e+00
7.940000000000000000e+02,1.869367431789027978e-01,0.000000000000000000e+00
7.950000000000000000e+02,-4.508293415051321112e-02,0.000000000000000000e+00
7.960000000000000000e+02,-4.650652227693057722e-02,0.000000000000000000e+00
7.970000000000000000e+02,-8.586636133594008347e-02,0.000000000000000000e+00
7.980000000000000000e+02,2.713900742750788991e-02,0.000000000000000000e+00
7.990000000000000000e+02,1.562943866679195493e+00,0.000000000000000000e+00
8.000000000000000000e+02,-4.535201725685313434e+00,0.000000000000000000e+00
8.010000000000000000e+02,-2.967293074098271699e+00,1.000000000000000000e+00
8.020000000000000000e+02,1.108148108955395061e+00,0.000000000000000000e+00
8.030000000000000000e+02,8.971455442323068574e-01,0.000000000000000000e+00
8.040000000000000000e+02,1.507915880029978117e+00,0.000000000000000000e+00
8.050000000000000000e+02,9.555967182571138974e-01,0.000000000000000000e+00
8.060000000000000000e+02,1.268392850508965441e+00,0.000000000000000000e+00
8.070000000000000000e+02,9.246387720453067560e-01,0.000000000000000000e+00
8.080000000000000000e+02,1.165107272980335562e+00,0.000000000000000000e+00
8.090000000000000000e+02,8.819039381627976626e-01,0.000000000000000000e+00
8.100000000000000000e+02,1.121923372143787789e+00,0.000000000000000000e+00
8.110000000000000000e+02,8.998219881941935672e-01,0.000000000000000000e+00
8.120000000000000000e+02,1.308450363404208394e+00,0.000000000000000000e+00
8.130000000000000000e+02,1.026795392363233805e+00,0.000000000000000000e+00
8.140000000000000000e+02,1.267766380503745793e+00,0.000000000000000000e+00
8.150000000000000000e+02,8.879525249449383706e-01,0.000000000000000000e+00
8.160000000000000000e+02,8.312013935354500838e-01,0.000000000000000000e+00
8.170000000000000000e+02,7.434118287984073370e-02,0.000000000000000000e+00
8.180000000000000000e+02,-2.153800439848254367e-01,0.000000000000000000e+00
8.190000000000000000e+02,-6.712524490159836876e-01,0.000000000000000000e+00
8.200000000000000000e+02,-8.267383577318021537e-01,0.000000000000000000e+00
8.210000000000000000e+02,-8.386670595108224324e-01,0.000000000000000000e+00
8.220000000000000000e+02,-8.544071556226912056e-01,0.000000000000000000e+00
8.230000000000000000e+02,-7.112940749217547820e-01,0.000000000000000000e+00
8.240000000000000000e+02,-7.387770428060711492e-01,0.000000000000000000e+00
8.250000000000000000e+02,-5.966676331690332624e-01,0.000000000000000000e+00
8.260000000000000000e+02,-6.531810228399790308e-01,0.000000000000000000e+00
8.270000000000000000e+02,-6.251580656528459290e-01,0.000000000000000000e+00
8.280000000000000000e+02,-4.032982298513992925e-01,0.000000000000000000e+00
8.290000000000000000e+02,-6.547338613778911354e-01,0.000000000000000000e+00
8.300000000000000000e+02,-2.502140481875685385e-01,0.000000000000000000e+00
8.310000000000000000e+02,-4.956287858749945374e-01,0.000000000000000000e+00
8.320000000000000000e+02,-4.073906707786739134e-01,0.000000000000000000e+00
8.330000000000000000e+02,-4.019791945048066806e-01,0.000000000000000000e+00
8.340000000000000000e+02,-3.070703793581628371e-01,0.000000000000000000e+00
8.350000000000000000e+02,-5.007149148944907147e-01,0.000000000000000000e+00
8.360000000000000000e+02,-3.050982759240066788e-01,0.000000000000000000e+00
8.370000000000000000e+02,-2.954180093294064835e-01,0.000000000000000000e+00
8.380000000000000000e+02,-2.247567120422858111e-01,0.000000000000000000e+00
8.390000000000000000e+02,-2.860949667210493930e-01,0.000000000000000000e+00
8.400000000000000000e+02,-1.041477717284898519e-01,0.000000000000000000e+00
8.410000000000000000e+02,-3.109338366467077064e-01,0.000000000000000000e+00
8.420000000000000000e+02,4.599517886288916890e-01,0.000000000000000000e+00
8.430000000000000000e+02,-7.006200492035398464e-02,0.000000000000000000e+00
8.440000000000000000e+02,5.739657751224851445e-01,0.000000000000000000e+00
8.450000000000000000e+02,1.743625794045918220e-01,0.000000000000000000e+00
8.460000000000000000e+02,1.536509366500070362e-01,0.000000000000000000e+00
8.470000000000000000e+02,-5.639105213214853363e-01,0.000000000000000000e+00
8.480000000000000000e+02,1.540138250029143840e-01,0.000000000000000000e+00
8.490000000000000000e+02,-6.609190070336049549e-01,0.000000000000000000e+00
8.500000000000000000e+02,1.233193361255181086e+00,0.000000000000000000e+00
8.510000000000000000e+02,-9.563758597978772036e-01,0.000000000000000000e+00
8.520000000000000000e+02,-5.165236654253131832e+00,0.000000000000000000e+00
8.530000000000000000e+02,-2.006611148755789442e-01,1.000000000000000000e+00
8.540000000000000000e+02,8.199289244963634538e-01,0.000000000000000000e+00
8.550000000000000000e+02,1.364668449109619486e+00,0.000000000000000000e+00
8.560000000000000000e+02,9.162270548159288097e-01,0.000000000000000000e+00
8.570000000000000000e+02,1.305627386033142878e+00,0.000000000000000000e+00
8.580000000000000000e+02,9.973768101153187571e-01,0.000000000000000000e+00
8.590000000000000000e+02,1.154109725777015649e+00,0.000000000000000000e+00
8.600000000000000000e+02,1.003078249683919010e+00,0.000000000000000000e+00
8.610000000000000000e+02,1.018401056214461642e+00,0.000000000000000000e+00
8.620000000000000000e+02,9.926078374572007146e-01,0.000000000000000000e+00
8.630000000000000000e+02,1.154974333884159821e+00,0.000000000000000000e+00
8.640000000000000000e+02,1.196595268426436043e+00,0.000000000000000000e+00
8.650000000000000000e+02,1.296705472539551485e+00,0.000000000000000000e+00
8.660000000000000000e+02,1.110779936348116781e+00,0.000000000000000000e+00
8.670000000000000000e+02,9.529977765485151409e-01,0.000000000000000000e+00
8.680000000000000000e+02,4.942127262379323871e-01,0.000000000000000000e+00
8.690000000000000000e+02,-1.104233631309676222e-01,0.000000000000000000e+00
8.700000000000000000e+02,-4.649813689215082646e-01,0.000000000000000000e+00
8.710000000000000000e+02,-7.190723270784659116e-01,0.000000000000000000e+00
8.720000000000000000e+02,-7.664232479343365823e-01,0.000000000000000000e+00
8.730000000000000000e+02,-8.096471269392226944e-01,0.000000000000000000e+00
8.740000000000000000e+02,-7.363208130894061121e-01,0.000000000000000000e+00
8.750000000000000000e+02,-8.094403000805037163e-01,0.000000000000000000e+00
8.760000000000000000e+02,-6.388880804817225201e-01,0.000000000000000000e+00
8.770000000000000000e+02,-5.272414438140506920e-01,0.000000000000000000e+00
8.780000000000000000e+02,-6.409996141766991506e-01,0.000000000000000000e+00
8.790000000000000000e+02,-4.748697242606643720e-01,0.000000000000000000e+00
8.800000000000000000e+02,-5.653494128526922458e-01,0.000000000000000000e+00
8.810000000000000000e+02,-3.661086827483672757e-01,0.000000000000000000e+00
8.820000000000000000e+02,-5.481824292437567081e-01,0.000000000000000000e+00
8.830000000000000000e+02,-3.642236953532485555e-01,0.000000000000000000e+00
8.840000000000000000e+02,-4.626946851921544535e-01,0.000000000000000000e+00
8.850000000000000000e+02,-4.667566948356590140e-01,0.000000000000000000e+00
8.860000000000000000e+02,-3.234031205057064096e-01,0.000000000000000000e+00
8.870000000000000000e+02,-3.209998566128228759e-01,0.000000000000000000e+00
8.880000000000000000e+02,-3.398463212965436853e-01,0.000000000000000000e+00
8.890000000000000000e+02,-2.383038983291323465e-01,0.000000000000000000e+00
8.900000000000000000e+02,-2.703158561281750472e-01,0.000000000000000000e+00
8.910000000000000000e+02,-9.424903960111449819e-02,0.000000000000000000e+00
8.920000000000000000e+02,-1.642709131787688515e-01,0.000000000000000000e+00
8.930000000000000000e+02,-5.594600486305581488e-02,0.000000000000000000e+00
8.940000000000000000e+02,-6.113289268613347066e-02,0.000000000000000000e+00
8.950000000000000000e+02,1.582501627321762083e-01,0.000000000000000000e+00
8.960000000000000000e+02,2.380436038805218424e-01,0.000000000000000000e+00
8.970000000000000000e+02,5.508546977271776557e-01,0.000000000000000000e+00
8.980000000000000000e+02,6.917019647463268361e-01,0.000000000000000000e+00
8.990000000000000000e+02,1.227759104046128036e-01,0.000000000000000000e+00
9.000000000000000000e+02,-2.850487826215352682e-01,0.000000000000000000e+00
9.010000000000000000e+02,3.605220492133128646e-02,0.000000000000000000e+00
9.020000000000000000e+02,-2.948282683114572533e-01,0.000000000000000000e+00
9.030000000000000000e+02,4.472780907790800398e-01,0.000000000000000000e+00
9.040000000000000000e+02,4.962949972566408352e-01,0.000000000000000000e+00
9.050000000000000000e+02,-4.523568588035336013e+00,0.000000000000000000e+00
9.060000000000000000e+02,-1.544810301676594610e+00,1.000000000000000000e+00
9.070000000000000000e+02,9.417124161407205429e-01,0.000000000000000000e+00
9.080000000000000000e+02,1.014246280177508730e+00,0.000000000000000000e+00
9.090000000000000000e+02,1.246281225898332234e+00,0.000000000000000000e+00
9.100000000000000000e+02,1.148275809583882090e+00,0.000000000000000000e+00
9.110000000000000000e+02,9.628457103072914913e-01,0.000000000000000000e+00
9.120000000000000000e+02,1.079936241251619355e+00,0.000000000000000000e+00
9.130000000000000000e+02,9.232955921872391114e-01,0.000000000000000000e+00
9.140000000000000000e+02,9.293432127382679209e-01,0.000000000000000000e+00
9.150000000000000000e+02,9.685974765253284602e-01,0.000000000000000000e+00
9.160000000000000000e+02,1.020213408740938688e+00,0.000000000000000000e+00
9.170000000000000000e+02,1.094667300386962250e+00,0.000000000000000000e+00
9.180000000000000000e+02,1.231716407084283649e+00,0.000000000000000000e+00
9.190000000000000000e+02,1.143505989649152399e+00,0.000000000000000000e+00
9.200000000000000000e+02,1.074160167833722035e+00,0.000000000000000000e+00
9.210000000000000000e+02,5.487293183587881318e-01,0.000000000000000000e+00
9.220000000000000000e+02,1.134469046298844097e-01,0.000000000000000000e+00
9.230000000000000000e+02,-5.670671294559869180e-01,0.000000000000000000e+00
9.240000000000000000e+02,-7.366050648798687650e-01,0.000000000000000000e+00
9.250000000000000000e+02,-8.136312316676175271e-01,0.000000000000000000e+00
9.260000000000000000e+02,-1.007512074712655581e+00,0.000000000000000000e+00
9.270000000000000000e+02,-6.654254488974923332e-01,0.000000000000000000e+00
9.280000000000000000e+02,-8.059268749734715964e-01,0.000000000000000000e+00
9.290000000000000000e+02,-5.966657890309853274e-01,0.000000000000000000e+00
9.300000000000000000e+02,-7.681366403093298212e-01,0.000000000000000000e+00
9.310000000000000000e+02,-4.740649008092570060e-01,0.000000000000000000e+00
9.320000000000000000e+02,-6.818572346272442353e-01,0.000000000000000000e+00
9.330000000000000000e+02,-3.629101819642159277e-01,0.000000000000000000e+00
9.340000000000000000e+02,-3.740704210742938352e-01,0.000000000000000000e+00
9.350000000000000000e+02,-5.604801985633521832e-01,0.000000000000000000e+00
9.360000000000000000e+02,-2.852082196718664919e-01,0.000000000000000000e+00
9.370000000000000000e+02,-4.929651648239150585e-01,0.000000000000000000e+00
9.380000000000000000e+02,-3.655453057915729609e-01,0.000000000000000000e+00
9.390000000000000000e+02,-4.264177800796223328e-01,0.000000000000000000e+00
9.400000000000000000e+02,-2.372787110367638452e-01,0.000000000000000000e+00
9.410000000000000000e+02,-3.447824657693129291e-01,0.000000000000000000e+00
9.420000000000000000e+02,-2.606600039193174290e-01,0.000000000000000000e+00
9.430000000000000000e+02,-2.679807942784622754e-01,0.000000000000000000e+00
9.440000000000000000e+02,-1.596121548868531526e-01,0.000000000000000000e+00
9.450000000000000000e+02,-8.072577106357806120e-02,0.000000000000000000e+00
9.460000000000000000e+02,-1.296293142980280144e-01,0.000000000000000000e+00
9.470000000000000000e+02,3.290151376919518873e-03,0.000000000000000000e+00
9.480000000000000000e+02,-4.668218298533504534e-02,0.000000000000000000e+00
9.490000000000000000e+02,9.399780373785644738e-03,0.000000000000000000e+00
9.500000000000000000e+02,4.243420732541025830e-05,0.000000000000000000e+00
9.510000000000000000e+02,3.840541201405231475e-01,0.000000000000000000e+00
9.520000000000000000e+02,3.883687324942803887e-01,0.000000000000000000e+00
9.530000000000000000e+02,7.908330010713728875e-01,0.000000000000000000e+00
9.540000000000000000e+02,2.176573317853772171e-01,0.000000000000000000e+00
9.550000000000000000e+02,-2.426292080025604578e-02,0.000000000000000000e+00
9.560000000000000000e+02,-1.503903784816462696e-01,0.000000000000000000e+00
9.570000000000000000e+02,1.356124860360177070e-02,0.000000000000000000e+00
9.580000000000000000e+02,-1.648566928458279623e-01,0.000000000000000000e+00
9.590000000000000000e+02,1.121635784343479436e+00,0.000000000000000000e+00
9.600000000000000000e+02,-4.364836726496473140e+00,0.000000000000000000e+00
9.610000000000000000e+02,-2.401983646625807545e+00,1.000000000000000000e+00
9.620000000000000000e+02,1.033350785503478475e+00,0.000000000000000000e+00
9.630000000000000000e+02,8.879016883616200895e-01,0.000000000000000000e+00
9.640000000000000000e+02,1.185722705617745287e+00,0.000000000000000000e+00
9.650000000000000000e+02,1.062562326978752747e+00,0.000000000000000000e+00
9.660000000000000000e+02,1.187081170497124250e+00,0.000000000000000000e+00
9.670000000000000000e+02,9.645038069839990680e-01,0.000000000000000000e+00
9.680000000000000000e+02,9.744147075198614782e-01,0.000000000000000000e+00
9.690000000000000000e+02,1.020028286378457771e+00,0.000000000000000000e+00
9.700000000000000000e+02,9.135243353719277870e-01,0.000000000000000000e+00
9.710000000000000000e+02,1.013065403216169003e+00,0.000000000000000000e+00
9.720000000000000000e+02,1.145351582519980926e+00,0.000000000000000000e+00
9.730000000000000000e+02,1.133597608900235310e+00,0.000000000000000000e+00
9.740000000000000000e+02,1.043925936062885196e+00,0.000000000000000000e+00
9.750000000000000000e+02,1.008047599254348725e+00,0.000000000000000000e+00
9.760000000000000000e+02,7.333576978981417582e-01,0.000000000000000000e+00
9.770000000000000000e+02,2.316770187226676048e-01,0.000000000000000000e+00
9.780000000000000000e+02,-3.628266729769332177e-01,0.000000000000000000e+00
9.790000000000000000e+02,-6.615741061054672967e-01,0.000000000000000000e+00
9.800000000000000000e+02,-7.582114878028960447e-01,0.000000000000000000e+00
9.810000000000000000e+02,-8.364575804566181105e-01,0.000000000000000000e+00
9.820000000000000000e+02,-7.401059597790008437e-01,0.000000000000000000e+00
9.830000000000000000e+02,-8.169159613202073844e-01,0.000000000000000000e+00
9.840000000000000000e+02,-5.575703383111786371e-01,0.000000000000000000e+00
9.850000000000000000e+02,-6.959438858642422732e-01,0.000000000000000000e+00
9.860000000000000000e+02,-4.867524017271418479e-01,0.000000000000000000e+00
9.870000000000000000e+02,-6.564573073071530152e-01,0.000000000000000000e+00
9.880000000000000000e+02,-2.483284404198209394e-01,0.000000000000000000e+00
9.890000000000000000e+02,-4.748878438949096226e-01,0.000000000000000000e+00
9.900000000000000000e+02,-3.569302575545292844e-01,0.000000000000000000e+00
9.910000000000000000e+02,-4.804696617398329095e-01,0.000000000000000000e+00
9.920000000000000000e+02,-3.915398882458389074e-01,0.000000000000000000e+00
9.930000000000000000e+02,-3.747179392313207402e-01,0.000000000000000000e+00
9.940000000000000000e+02,-2.843446409181886181e-01,0.000000000000000000e+00
9.950000000000000000e+02,-3.011949998223045211e-01,0.000000000000000000e+00
9.960000000000000000e+02,-3.274835149102994225e-01,0.000000000000000000e+00
9.970000000000000000e+02,-3.745958296934622789e-01,0.000000000000000000e+00
9.980000000000000000e+02,-2.385224469341460929e-01,0.000000000000000000e+00
9.990000000000000000e+02,-8.142180457362917234e-02,0.000000000000000000e+00
1.000000000000000000e+03,-1.845445860376546121e-01,0.000000000000000000e+00
1.001000000000000000e+03,-1.046771034024592123e-01,0.000000000000000000e+00
1.002000000000000000e+03,1.513342378506663810e-01,0.000000000000000000e+00
1.003000000000000000e+03,2.695098309526434699e-01,0.000000000000000000e+00
1.004000000000000000e+03,4.200167724405364789e-01,0.000000000000000000e+00
1.005000000000000000e+03,6.293283195742546132e-01,0.000000000000000000e+00
1.006000000000000000e+03,-4.137605611382558918e-02,0.000000000000000000e+00
1.007000000000000000e+03,-1.290329249442712378e-01,0.000000000000000000e+00
1.008000000000000000e+03,-2.041323990224328255e-01,0.000000000000000000e+00
1.009000000000000000e+03,-3.042863461046176332e-01,0.000000000000000000e+00
1.010000000000000000e+03,1.637943480816421993e-01,0.000000000000000000e+00
1.011000000000000000e+03,1.148604828408760214e+00,0.000000000000000000e+00
1.012000000000000000e+03,-4.975644671459511059e+00,0.000000000000000000e+00
1.013000000000000000e+03,-2.193302463165949678e+00,1.000000000000000000e+00
1.014000000000000000e+03,9.622065521198995830e-01,0.000000000000000000e+00
1.015000000000000000e+03,9.075687550530607828e-01,0.000000000000000000e+00
1.016000000000000000e+03,1.128679190223396134e+00,0.000000000000000000e+00
1.017000000000000000e+03,1.145671805356001327e+00,0.000000000000000000e+00
1.018000000000000000e+03,1.144879843450486101e+00,0.000000000000000000e+00
1.019000000000000000e+03,1.160559322223030154e+00,0.000000000000000000e+00
1.020000000000000000e+03,1.128753840051245350e+00,0.000000000000000000e+00
1.021000000000000000e+03,9.550789203277757489e-01,0.000000000000000000e+00
1.022000000000000000e+03,8.619384744794243991e-01,0.000000000000000000e+00
1.023000000000000000e+03,1.121149571037693082e+00,0.000000000000000000e+00
1.024000000000000000e+03,1.071946953104925715e+00,0.000000000000000000e+00
1.025000000000000000e+03,1.279439293384608156e+00,0.000000000000000000e+00
1.026000000000000000e+03,1.094866693225574616e+00,0.000000000000000000e+00
1.027000000000000000e+03,1.132567165122786657e+00,0.000000000000000000e+00
1.028000000000000000e+03,5.458069110553334102e-01,0.000000000000000000e+00
1.029000000000000000e+03,1.201467558332665504e-02,0.000000000000000000e+00
1.030000000000000000e+03,-3.742856821061779082e-01,0.000000000000000000e+00
1.031000000000000000e+03,-7.777025003138391401e-01,0.000000000000000000e+00
1.032000000000000000e+03,-8.642763111237171669e-01,0.000000000000000000e+00
1.033000000000000000e+03,-7.279555068509869775e-01,0.000000000000000000e+00
1.034000000000000000e+03,-8.718951742887118828e-01,0.000000000000000000e+00
1.035000000000000000e+03,-6.448142381319719174e-01,0.000000000000000000e+00
1.036000000000000000e+03,-7.702721797695933903e-01,0.000000000000000000e+00
1.037000000000000000e+03,-4.944783194629624457e-01,0.000000000000000000e+00
1.038000000000000000e+03,-5.273392306338159363e-01,0.000000000000000000e+00
1.039000000000000000e+03,-5.933942859864258512e-01,0.000000000000000000e+00
1.040000000000000000e+03,-4.287526179223096201e-01,0.000000000000000000e+00
1.041000000000000000e+03,-3.359330296134665494e-01,0.000000000000000000e+00
1.042000000000000000e+03,-3.794351717143446545e-01,0.000000000000000000e+00
1.043000000000000000e+03,-5.550438888948713290e-01,0.000000000000000000e+00
1.044000000000000000e+03,-3.539850043438657612e-01,0.000000000000000000e+00
1.045000000000000000e+03,-3.033843082439757755e-01,0.000000000000000000e+00
1.046000000000000000e+03,-3.834110283439714495e-01,0.000000000000000000e+00
1.047000000000000000e+03,-3.963178721009806282e-01,0.000000000000000000e+00
1.048000000000000000e+03,-2.667627005234018411e-01,0.000000000000000000e+00
1.049000000000000000e+03,-2.159460881197217408e-01,0.000000000000000000e+00
1.050000000000000000e+03,-5.213572642185723000e-02,0.000000000000000000e+00
1.051000000000000000e+03,-3.318340566702557837e-01,0.000000000000000000e+00
1.052000000000000000e+03,-1.135276292699591433e-01,0.000000000000000000e+00
1.053000000000000000e+03,-6.080013844726070427e-02,0.000000000000000000e+00
1.054000000000000000e+03,1.304290868090092204e-01,0.000000000000000000e+00
1.055000000000000000e+03,1.322253701153949523e-01,0.000000000000000000e+00
1.056000000000000000e+03,4.258191292071259459e-01,0.000000000000000000e+00
1.057000000000000000e+03,6.248191587090848875e-01,0.000000000000000000e+00
1.058000000000000000e+03,5.653782743197995758e-02,0.000000000000000000e+00
1.059000000000000000e+03,-7.508729048814077878e-02,0.000000000000000000e+00
1.060000000000000000e+03,-2.196087631068012747e-01,0.000000000000000000e+00
1.061000000000000000e+03,-2.528080359136761213e-01,0.000000000000000000e+00
1.062000000000000000e+03,-6.564697885738131344e-02,0.000000000000000000e+00
1.063000000000000000e+03,1.308539288700743874e+00,0.000000000000000000e+00
1.064000000000000000e+03,-4.287551381886917312e+00,0.000000000000000000e+00
1.065000000000000000e+03,-2.659643880132925187e+00,1.000000000000000000e+00
1.066000000000000000e+03,9.137683402935536936e-01,0.000000000000000000e+00
1.067000000000000000e+03,7.924296214333332866e-01,0.000000000000000000e+00
1.068000000000000000e+03,1.322578031953415056e+00,0.000000000000000000e+00
1.069000000000000000e+03,9.625915545836677412e-01,0.000000000000000000e+00
1.070000000000000000e+03,1.237382222863243841e+00,0.000000000000000000e+00
1.071000000000000000e+03,9.408839264511744682e-01,0.000000000000000000e+00
1.072000000000000000e+03,1.122875861023642008e+00,0.000000000000000000e+00
1.073000000000000000e+03,8.141325777336206881e-01,0.000000000000000000e+00
1.074000000000000000e+03,1.010478816362681664e+00,0.000000000000000000e+00
1.075000000000000000e+03,9.239542841617849334e-01,0.000000000000000000e+00
1.076000000000000000e+03,1.167899695179880126e+00,0.000000000000000000e+00
1.077000000000000000e+03,1.081414927479535049e+00,0.000000000000000000e+00
1.078000000000000000e+03,1.309822058920320220e+00,0.000000000000000000e+00
1.079000000000000000e+03,1.042304275770905564e+00,0.000000000000000000e+00
1.080000000000000000e+03,5.764155953028460289e-01,0.000000000000000000e+00
1.081000000000000000e+03,1.379546382420799855e-01,0.000000000000000000e+00
1.082000000000000000e+03,-4.342506980381790060e-01,0.000000000000000000e+00
1.083000000000000000e+03,-7.465812798094999536e-01,0.000000000000000000e+00
1.084000000000000000e+03,-7.708495018830102685e-01,0.000000000000000000e+00
1.085000000000000000e+03,-9.406567387823068227e-01,0.000000000000000000e+00
1.086000000000000000e+03,-8.767315754440045961e-01,0.000000000000000000e+00
1.087000000000000000e+03,-8.587623515386371142e-01,0.000000000000000000e+00
1.088000000000000000e+03,-6.587904253881839978e-01,0.000000000000000000e+00
1.089000000000000000e+03,-6.798346163748724136e-01,0.000000000000000000e+00
1.090000000000000000e+03,-5.323747698052706534e-01,0.000000000000000000e+00
1.091000000000000000e+03,-4.781175752998754747e-01,0.000000000000000000e+00
1.092000000000000000e+03,-4.479254549200680224e-01,0.000000000000000000e+00
1.093000000000000000e+03,-3.704739791926322523e-01,0.000000000000000000e+00
1.094000000000000000e+03,-3.788418097136582174e-01,0.000000000000000000e+00
1.095000000000000000e+03,-5.520961868259486316e-01,0.000000000000000000e+00
1.096000000000000000e+03,-2.571789018725733622e-01,0.000000000000000000e+00
1.097000000000000000e+03,-3.701521405505684981e-01,0.000000000000000000e+00
1.098000000000000000e+03,-2.795163103920794145e-01,0.000000000000000000e+00
1.099000000000000000e+03,-3.053005672024849404e-01,0.000000000000000000e+00
1.100000000000000000e+03,-4.134756705929413800e-01,0.000000000000000000e+00
1.101000000000000000e+03,-1.490611972134421592e-01,0.000000000000000000e+00
1.102000000000000000e+03,-2.866331481241202739e-01,0.000000000000000000e+00
1.103000000000000000e+03,8.681742887269434245e-03,0.000000000000000000e+00
1.104000000000000000e+03,-1.880875476340220231e-01,0.000000000000000000e+00
1.105000000000000000e+03,-4.598688783100489397e-02,0.000000000000000000e+00
1.106000000000000000e+03,-9.005444136555257328e-02,0.000000000000000000e+00
1.107000000000000000e+03,2.342935765028605344e-01,0.000000000000000000e+00
1.108000000000000000e+03,2.603060024668323313e-01,0.000000000000000000e+00
1.109000000000000000e+03,6.772189012048724921e-01,0.000000000000000000e+00
1.110000000000000000e+03,6.686340998300454030e-01,0.000000000000000000e+00
1.111000000000000000e+03,-8.921197394967721184e-02,0.000000000000000000e+00
1.112000000000000000e+03,-1.028590353486090875e-01,0.000000000000000000e+00
1.113000000000000000e+03,-7.316689377898830116e-02,0.000000000000000000e+00
1.114000000000000000e+03,-4.336784324325321793e-01,0.000000000000000000e+00
1.115000000000000000e+03,9.051576111972242655e-01,0.000000000000000000e+00
1.116000000000000000e+03,-5.938180250210733924e-01,0.000000000000000000e+00
1.117000000000000000e+03,-4.855075157768380834e+00,0.000000000000000000e+00
1.118000000000000000e+03,-2.610916085034682421e-01,1.000000000000000000e+00
1.119000000000000000e+03,7.761377265869822129e-01,0.000000000000000000e+00
1.120000000000000000e+03,1.241711746192878163e+00,0.000000000000000000e+00
1.121000000000000000e+03,1.001006962374004550e+00,0.000000000000000000e+00
1.122000000000000000e+03,1.224730898613044738e+00,0.000000000000000000e+00
1.123000000000000000e+03,1.005164185260428056e+00,0.000000000000000000e+00
1.124000000000000000e+03,1.169379726428170674e+00,0.000000000000000000e+00
1.125000000000000000e+03,9.442550066879109583e-01,0.000000000000000000e+00
1.126000000000000000e+03,1.003697756456578327e+00,0.000000000000000000e+00
1.127000000000000000e+03,9.719147679735421486e-01,0.000000000000000000e+00
1.128000000000000000e+03,1.216811707478846483e+00,0.000000000000000000e+00
1.129000000000000000e+03,1.080801089302422913e+00,0.000000000000000000e+00
1.130000000000000000e+03,1.356936082142470523e+00,0.000000000000000000e+00
1.131000000000000000e+03,1.117123514563706621e+00,0.000000000000000000e+00
1.132000000000000000e+03,1.206690855986665367e+00,0.000000000000000000e+00
1.133000000000000000e+03,2.520919627498510174e-01,0.000000000000000000e+00
1.134000000000000000e+03,4.696876767832304511e-02,0.000000000000000000e+00
1.135000000000000000e+03,-6.304301857481727778e-01,0.000000000000000000e+00
1.136000000000000000e+03,-8.240150129047187910e-01,0.000000000000000000e+00
1.137000000000000000e+03,-9.619462660683036903e-01,0.000000000000000000e+00
1.138000000000000000e+03,-7.870253961750277583e-01,0.000000000000000000e+00
1.139000000000000000e+03,-7.124991189836253902e-01,0.000000000000000000e+00
1.140000000000000000e+03,-7.286124893995734597e-01,0.000000000000000000e+00
1.141000000000000000e+03,-7.745793936151270653e-01,0.000000000000000000e+00
1.142000000000000000e+03,-6.598650633246709862e-01,0.000000000000000000e+00
1.143000000000000000e+03,-5.188379988937933396e-01,0.000000000000000000e+00
1.144000000000000000e+03,-3.791487594956587937e-01,0.000000000000000000e+00
1.145000000000000000e+03,-5.349187543643201259e-01,0.000000000000000000e+00
1.146000000000000000e+03,-2.223259566312244806e-01,0.000000000000000000e+00
1.147000000000000000e+03,-6.946605371411542773e-01,0.000000000000000000e+00
1.148000000000000000e+03,-1.164793289855166475e-01,0.000000000000000000e+00
1.149000000000000000e+03,-5.459892200152385300e-01,0.000000000000000000e+00
1.150000000000000000e+03,-2.260325375624179234e-01,0.000000000000000000e+00
1.151000000000000000e+03,-3.213866874160474785e-01,0.000000000000000000e+00
1.152000000000000000e+03,-2.494468479007998785e-01,0.000000000000000000e+00
1.153000000000000000e+03,-2.858791954351154740e-01,0.000000000000000000e+00
1.154000000000000000e+03,-2.025173714998693419e-01,0.000000000000000000e+00
1.155000000000000000e+03,-2.512908322280595907e-01,0.000000000000000000e+00
1.156000000000000000e+03,-1.106448981082082950e-01,0.000000000000000000e+00
1.157000000000000000e+03,-1.830769572213585550e-01,0.000000000000000000e+00
1.158000000000000000e+03,8.581813325518343472e-02,0.000000000000000000e+00
1.159000000000000000e+03,-1.675329833622683784e-01,0.000000000000000000e+00
1.160000000000000000e+03,2.201778806935621516e-02,0.000000000000000000e+00
1.161000000000000000e+03,-1.659573478260826795e-01,0.000000000000000000e+00
1.162000000000000000e+03,2.615309698825562523e-01,0.000000000000000000e+00
1.163000000000000000e+03,2.068642379664647757e-01,0.000000000000000000e+00
1.164000000000000000e+03,8.563397306210975835e-01,0.000000000000000000e+00
1.165000000000000000e+03,3.188884929124440881e-01,0.000000000000000000e+00
1.166000000000000000e+03,5.799688235217589916e-02,0.000000000000000000e+00
1.167000000000000000e+03,-5.280572814002334470e-01,0.000000000000000000e+00
1.168000000000000000e+03,2.982387576235910331e-01,0.000000000000000000e+00
1.169000000000000000e+03,-6.876576222546827433e-01,0.000000000000000000e+00
1.170000000000000000e+03,1.237980539764455878e+00,0.000000000000000000e+00
1.171000000000000000e+03,-1.743095728181426551e+00,0.000000000000000000e+00
1.172000000000000000e+03,-4.828103976602952763e+00,0.000000000000000000e+00
1.173000000000000000e+03,3.385281161170370923e-01,1.000000000000000000e+00
1.174000000000000000e+03,7.761154400841625556e-01,0.000000000000000000e+00
1.175000000000000000e+03,1.207259131850334066e+00,0.000000000000000000e+00
1.176000000000000000e+03,9.523396717561281033e-01,0.000000000000000000e+00
1.177000000000000000e+03,1.090024616109871447e+00,0.000000000000000000e+00
1.178000000000000000e+03,1.148938118164587019e+00,0.000000000000000000e+00
1.179000000000000000e+03,9.161824368389210882e-01,0.000000000000000000e+00
1.180000000000000000e+03,8.591342285978108562e-01,0.000000000000000000e+00
1.181000000000000000e+03,1.012786299640932475e+00,0.000000000000000000e+00
1.182000000000000000e+03,9.351195138396821704e-01,0.000000000000000000e+00
1.183000000000000000e+03,9.894458437088726743e-01,0.000000000000000000e+00
1.184000000000000000e+03,1.231237392287982901e+00,0.000000000000000000e+00
1.185000000000000000e+03,1.193665907847717866e+00,0.000000000000000000e+00
1.186000000000000000e+03,1.042478917192654508e+00,0.000000000000000000e+00
1.187000000000000000e+03,8.395722414493627106e-01,0.000000000000000000e+00
1.188000000000000000e+03,3.390392275971363945e-01,0.000000000000000000e+00
1.189000000000000000e+03,-1.632288001830639046e-01,0.000000000000000000e+00
1.190000000000000000e+03,-5.525351835604964679e-01,0.000000000000000000e+00
1.191000000000000000e+03,-7.699857767438821332e-01,0.000000000000000000e+00
1.192000000000000000e+03,-8.764774212917303409e-01,0.000000000000000000e+00
1.193000000000000000e+03,-9.427630373256672414e-01,0.000000000000000000e+00
1.194000000000000000e+03,-7.441228738536004306e-01,0.000000000000000000e+00
1.195000000000000000e+03,-7.889214810869544792e-01,0.000000000000000000e+00
1.196000000000000000e+03,-6.348797569312248923e-01,0.000000000000000000e+00
1.197000000000000000e+03,-6.104753404285997442e-01,0.000000000000000000e+00
1.198000000000000000e+03,-5.187203048181905363e-01,0.000000000000000000e+00
1.199000000000000000e+03,-5.819449464437910224e-01,0.000000000000000000e+00
1.200000000000000000e+03,-3.998941600461372037e-01,0.000000000000000000e+00
1.201000000000000000e+03,-5.770088747695812925e-01,0.000000000000000000e+00
1.202000000000000000e+03,-2.520694314075948572e-01,0.000000000000000000e+00
1.203000000000000000e+03,-4.004204363005465783e-01,0.000000000000000000e+00
1.204000000000000000e+03,-3.684881322572260975e-01,0.000000000000000000e+00
1.205000000000000000e+03,-5.062847603031683796e-01,0.000000000000000000e+00
1.206000000000000000e+03,-2.108941932516162077e-01,0.000000000000000000e+00
1.207000000000000000e+03,-4.267617318692448758e-01,0.000000000000000000e+00
1.208000000000000000e+03,-1.325095331324468440e-01,0.000000000000000000e+00
1.209000000000000000e+03,-3.879368563575755213e-01,0.000000000000000000e+00
1.210000000000000000e+03,-9.521641869094737975e-02,0.000000000000000000e+00
1.211000000000000000e+03,-1.746089255454250089e-01,0.000000000000000000e+00
1.212000000000000000e+03,-1.378085399462646576e-01,0.000000000000000000e+00
1.213000000000000000e+03,-5.831577845116568681e-02,0.000000000000000000e+00
1.214000000000000000e+03,-1.432723795636917444e-02,0.000000000000000000e+00
1.215000000000000000e+03,-5.548536596838506141e-02,0.000000000000000000e+00
1.216000000000000000e+03,3.595158256046043221e-01,0.000000000000000000e+00
1.217000000000000000e+03,1.946877552014161794e-01,0.000000000000000000e+00
1.218000000000000000e+03,9.696851436512193834e-01,0.000000000000000000e+00
1.219000000000000000e+03,1.104860493326720317e-01,0.000000000000000000e+00
1.220000000000000000e+03,1.137853637568896487e-01,0.000000000000000000e+00
1.221000000000000000e+03,-2.823938330196550939e-01,0.000000000000000000e+00
1.222000000000000000e+03,2.247808908659403582e-01,0.000000000000000000e+00
1.223000000000000000e+03,-4.787630635471576968e-01,0.000000000000000000e+00
1.224000000000000000e+03,1.822385751907796170e+00,0.000000000000000000e+00
1.225000000000000000e+03,-3.564177275343625162e+00,0.000000000000000000e+00
1.226000000000000000e+03,-3.846119416726299090e+00,0.000000000000000000e+00
1.227000000000000000e+03,7.938621994349378541e-01,1.000000000000000000e+00
1.228000000000000000e+03,8.399647745576847013e-01,0.000000000000000000e+00
1.229000000000000000e+03,1.415793243616003227e+00,0.000000000000000000e+00
1.230000000000000000e+03,1.039031972263245951e+00,0.000000000000000000e+00
1.231000000000000000e+03,1.167126980975224271e+00,0.000000000000000000e+00
1.232000000000000000e+03,1.083849928250660177e+00,0.000000000000000000e+00
1.233000000000000000e+03,1.250003399632179102e+00,0.000000000000000000e+00
1.234000000000000000e+03,8.569633476802540617e-01,0.000000000000000000e+00
1.235000000000000000e+03,1.070146365170522529e+00,0.000000000000000000e+00
1.236000000000000000e+03,1.004916940935895564e+00,0.000000000000000000e+00
1.237000000000000000e+03,1.185241761426377938e+00,0.000000000000000000e+00
1.238000000000000000e+03,1.173689824087015721e+00,0.000000000000000000e+00
1.239000000000000000e+03,1.298808285128179918e+00,0.000000000000000000e+00
1.240000000000000000e+03,9.981626865739906540e-01,0.000000000000000000e+00
1.241000000000000000e+03,7.426769295946871186e-01,0.000000000000000000e+00
1.242000000000000000e+03,2.289243602026542757e-01,0.000000000000000000e+00
1.243000000000000000e+03,-2.667636483469228992e-01,0.000000000000000000e+00
1.244000000000000000e+03,-6.028518428346356650e-01,0.000000000000000000e+00
1.245000000000000000e+03,-7.152791809512945020e-01,0.000000000000000000e+00
1.246000000000000000e+03,-7.925407454812837260e-01,0.000000000000000000e+00
1.247000000000000000e+03,-7.116000495651538804e-01,0.000000000000000000e+00
1.248000000000000000e+03,-7.874209001189572676e-01,0.000000000000000000e+00
1.249000000000000000e+03,-7.079621086939693608e-01,0.000000000000000000e+00
1.250000000000000000e+03,-6.354415980345200499e-01,0.000000000000000000e+00
1.251000000000000000e+03,-5.333957088786054346e-01,0.000000000000000000e+00
1.252000000000000000e+03,-5.701912637962479602e-01,0.000000000000000000e+00
1.253000000000000000e+03,-4.356724982144233316e-01,0.000000000000000000e+00
1.254000000000000000e+03,-4.770273891230137342e-01,0.000000000000000000e+00
1.255000000000000000e+03,-2.919745369781959199e-01,0.000000000000000000e+00
1.256000000000000000e+03,-5.394257806034038483e-01,0.000000000000000000e+00
1.257000000000000000e+03,-3.612517870735514336e-01,0.000000000000000000e+00
1.258000000000000000e+03,-4.680874512390809650e-01,0.000000000000000000e+00
1.259000000000000000e+03,-3.425364078216404651e-01,0.000000000000000000e+00
1.260000000000000000e+03,-3.630065976566906327e-01,0.000000000000000000e+00
1.261000000000000000e+03,-3.557332883334603513e-01,0.000000000000000000e+00
1.262000000000000000e+03,-3.125393932578267586e-01,0.000000000000000000e+00
1.263000000000000000e+03,-2.560004452459092028e-01,0.000000000000000000e+00
1.264000000000000000e+03,-2.536374257683979283e-01,0.000000000000000000e+00
1.265000000000000000e+03,-2.025771333812362851e-01,0.000000000000000000e+00
1.266000000000000000e+03,-1.768357553247914271e-01,0.000000000000000000e+00
1.267000000000000000e+03,-1.229326900260870187e-01,0.000000000000000000e+00
1.268000000000000000e+03,1.677639607447163062e-01,0.000000000000000000e+00
1.269000000000000000e+03,2.412840925804322356e-01,0.000000000000000000e+00
1.270000000000000000e+03,2.350633136244012766e-01,0.000000000000000000e+00
1.271000000000000000e+03,7.038796410579860607e-01,0.000000000000000000e+00
1.272000000000000000e+03,-1.781217443209153622e-02,0.000000000000000000e+00
1.273000000000000000e+03,-2.567042161726694194e-01,0.000000000000000000e+00
1.274000000000000000e+03,-1.527299069366262196e-01,0.000000000000000000e+00
1.275000000000000000e+03,-2.703688540745339264e-01,0.000000000000000000e+00
1.276000000000000000e+03,7.684260892574742985e-02,0.000000000000000000e+00
1.277000000000000000e+03,7.869302746811128735e-01,0.000000000000000000e+00
1.278000000000000000e+03,-4.808178993572484572e+00,0.000000000000000000e+00
1.279000000000000000e+03,-1.829779047410933890e+00,1.000000000000000000e+00
1.280000000000000000e+03,9.315418595792732681e-01,0.000000000000000000e+00
1.281000000000000000e+03,1.034520153228118078e+00,0.000000000000000000e+00
1.282000000000000000e+03,1.063127104506691900e+00,0.000000000000000000e+00
1.283000000000000000e+03,1.065413561353500960e+00,0.000000000000000000e+00
1.284000000000000000e+03,1.111700919912432139e+00,0.000000000000000000e+00
1.285000000000000000e+03,1.006735929394247719e+00,0.000000000000000000e+00
1.286000000000000000e+03,1.051869116627376810e+00,0.000000000000000000e+00
1.287000000000000000e+03,9.347549793170515375e-01,0.000000000000000000e+00
1.288000000000000000e+03,9.670780452953259276e-01,0.000000000000000000e+00
1.289000000000000000e+03,1.007532405572090672e+00,0.000000000000000000e+00
1.290000000000000000e+03,1.189878074149690157e+00,0.000000000000000000e+00
1.291000000000000000e+03,1.170794176275990806e+00,0.000000000000000000e+00
1.292000000000000000e+03,1.225029401924329298e+00,0.000000000000000000e+00
1.293000000000000000e+03,9.902762350800594637e-01,0.000000000000000000e+00
1.294000000000000000e+03,5.749267895962991703e-01,0.000000000000000000e+00
1.295000000000000000e+03,7.730716023697736805e-02,0.000000000000000000e+00
1.296000000000000000e+03,-4.602600347922353174e-01,0.000000000000000000e+00
1.297000000000000000e+03,-6.787064323279041744e-01,0.000000000000000000e+00
1.298000000000000000e+03,-6.819651345997553848e-01,0.000000000000000000e+00
1.299000000000000000e+03,-8.950852955065714545e-01,0.000000000000000000e+00
1.300000000000000000e+03,-8.094990005787814358e-01,0.000000000000000000e+00
1.301000000000000000e+03,-6.544464684268862520e-01,0.000000000000000000e+00
1.302000000000000000e+03,-6.632363132972931563e-01,0.000000000000000000e+00
1.303000000000000000e+03,-7.642632945459089111e-01,0.000000000000000000e+00
1.304000000000000000e+03,-5.565089849408543232e-01,0.000000000000000000e+00
1.305000000000000000e+03,-4.900944520774759838e-01,0.000000000000000000e+00
1.306000000000000000e+03,-4.323497258116923425e-01,0.000000000000000000e+00
1.307000000000000000e+03,-4.004782900605762808e-01,0.000000000000000000e+00
1.308000000000000000e+03,-3.161855943706414207e-01,0.000000000000000000e+00
1.309000000000000000e+03,-4.500518017938399118e-01,0.000000000000000000e+00
1.310000000000000000e+03,-2.874511859360329158e-01,0.000000000000000000e+00
1.311000000000000000e+03,-2.787163200139738950e-01,0.000000000000000000e+00
1.312000000000000000e+03,-3.174180261945891979e-01,0.000000000000000000e+00
1.313000000000000000e+03,-3.371813846118630331e-01,0.000000000000000000e+00
1.314000000000000000e+03,-2.584470778955468284e-01,0.000000000000000000e+00
1.315000000000000000e+03,-3.070516697799721140e-01,0.000000000000000000e+00
1.316000000000000000e+03,-1.033966930674475732e-01,0.000000000000000000e+00
1.317000000000000000e+03,-2.777029958455962122e-01,0.000000000000000000e+00
1.318000000000000000e+03,-4.671888443529632201e-02,0.000000000000000000e+00
1.319000000000000000e+03,-2.032494877067601569e-01,0.000000000000000000e+00
1.320000000000000000e+03,-8.168147012388151870e-03,0.000000000000000000e+00
1.321000000000000000e+03,-1.454659258489124363e-01,0.000000000000000000e+00
1.322000000000000000e+03,3.377263311029357062e-01,0.000000000000000000e+00
1.323000000000000000e+03,2.612952005808492073e-01,0.000000000000000000e+00
1.324000000000000000e+03,6.733075620628489188e-01,0.000000000000000000e+00
1.325000000000000000e+03,3.786641553839732999e-01,0.000000000000000000e+00
1.326000000000000000e+03,1.251673715540998211e-01,0.000000000000000000e+00
1.327000000000000000e+03,-1.413478782018873503e-01,0.000000000000000000e+00
1.328000000000000000e+03,3.529767385918218536e-02,0.000000000000000000e+00
1.329000000000000000e+03,-5.103013329948575816e-01,0.000000000000000000e+00
1.330000000000000000e+03,1.028540589255836357e+00,0.000000000000000000e+00
1.331000000000000000e+03,-5.721745017668470323e-01,0.000000000000000000e+00
1.332000000000000000e+03,-4.928282736768729855e+00,0.000000000000000000e+00
1.333000000000000000e+03,-3.799429650021454719e-01,1.000000000000000000e+00
1.334000000000000000e+03,9.725195632257035427e-01,0.000000000000000000e+00
1.335000000000000000e+03,1.064228199447020851e+00,0.000000000000000000e+00
1.336000000000000000e+03,1.142879891518465030e+00,0.000000000000000000e+00
1.337000000000000000e+03,1.119009151815232528e+00,0.000000000000000000e+00
1.338000000000000000e+03,1.197596890421286142e+00,0.000000000000000000e+00
1.339000000000000000e+03,1.020381976011583314e+00,0.000000000000000000e+00
1.340000000000000000e+03,1.065377301271228205e+00,0.000000000000000000e+00
1.341000000000000000e+03,8.690313418323837302e-01,0.000000000000000000e+00
1.342000000000000000e+03,1.045317863959944527e+00,0.000000000000000000e+00
1.343000000000000000e+03,1.056782062585180038e+00,0.000000000000000000e+00
1.344000000000000000e+03,1.205796277719126230e+00,0.000000000000000000e+00
1.345000000000000000e+03,1.093924680600948163e+00,0.000000000000000000e+00
1.346000000000000000e+03,1.188630720866459711e+00,0.000000000000000000e+00
1.347000000000000000e+03,9.730263605087179357e-01,0.000000000000000000e+00
1.348000000000000000e+03,4.152185686897424399e-01,0.000000000000000000e+00
1.349000000000000000e+03,-6.781922818103194688e-03,0.000000000000000000e+00
1.350000000000000000e+03,-5.036396730207250982e-01,0.000000000000000000e+00
1.351000000000000000e+03,-8.651827350879128797e-01,0.000000000000000000e+00
1.352000000000000000e+03,-8.243125702456043369e-01,0.000000000000000000e+00
1.353000000000000000e+03,-7.590785475854610054e-01,0.000000000000000000e+00
1.354000000000000000e+03,-7.448747320381234882e-01,0.000000000000000000e+00
1.355000000000000000e+03,-7.364376320831591549e-01,0.000000000000000000e+00
1.356000000000000000e+03,-6.318299717546804750e-01,0.000000000000000000e+00
1.357000000000000000e+03,-6.720148668353085331e-01,0.000000000000000000e+00
1.358000000000000000e+03,-4.927630557736834005e-01,0.000000000000000000e+00
1.359000000000000000e+03,-6.076752860106543475e-01,0.000000000000000000e+00
1.360000000000000000e+03,-3.911563031936273194e-01,0.000000000000000000e+00
1.361000000000000000e+03,-4.175956457760784946e-01,0.000000000000000000e+00
1.362000000000000000e+03,-3.454809600716908791e-01,0.000000000000000000e+00
1.363000000000000000e+03,-3.962630940046687478e-01,0.000000000000000000e+00
1.364000000000000000e+03,-4.105509391206102476e-01,0.000000000000000000e+00
1.365000000000000000e+03,-3.790100304748683091e-01,0.000000000000000000e+00
1.366000000000000000e+03,-3.237228249279700543e-01,0.000000000000000000e+00
1.367000000000000000e+03,-2.013032845370166801e-01,0.000000000000000000e+00
1.368000000000000000e+03,-3.744949293384546851e-01,0.000000000000000000e+00
1.369000000000000000e+03,-1.100848520907642125e-01,0.000000000000000000e+00
1.370000000000000000e+03,-2.586407970782686472e-01,0.000000000000000000e+00
1.371000000000000000e+03,-2.484491125124723698e-01,0.000000000000000000e+00
1.372000000000000000e+03,-8.277506889917908561e-02,0.000000000000000000e+00
1.373000000000000000e+03,-4.786908307699395265e-02,0.000000000000000000e+00
1.374000000000000000e+03,-5.969525112824804192e-02,0.000000000000000000e+00
1.375000000000000000e+03,-5.784715926378545398e-02,0.000000000000000000e+00
1.376000000000000000e+03,-2.244678379176746896e-02,0.000000000000000000e+00
1.377000000000000000e+03,2.064600693296044301e-02,0.000000000000000000e+00
1.378000000000000000e+03,3.801011780170518994e-01,0.000000000000000000e+00
1.379000000000000000e+03,2.711581452424393635e-01,0.000000000000000000e+00
1.380000000000000000e+03,8.709795527427888207e-01,0.000000000000000000e+00
1.381000000000000000e+03,2.351605667271311206e-01,0.000000000000000000e+00
1.382000000000000000e+03,-6.117825672985630070e-02,0.000000000000000000e+00
1.383000000000000000e+03,-2.003583074580200241e-01,0.000000000000000000e+00
1.384000000000000000e+03,9.748003847110062181e-02,0.000000000000000000e+00
1.385000000000000000e+03,-5.350126340490807264e-01,0.000000000000000000e+00
1.386000000000000000e+03,1.486708310081169548e+00,0.000000000000000000e+00
1.387000000000000000e+03,-3.334508595678226328e+00,0.000000000000000000e+00
1.388000000000000000e+03,-3.897738171950565711e+00,0.000000000000000000e+00
1.389000000000000000e+03,9.294450443269647311e-01,1.000000000000000000e+00
1.390000000000000000e+03,8.001550973128480626e-01,0.000000000000000000e+00
1.391000000000000000e+03,1.389288566061528396e+00,0.000000000000000000e+00
1.392000000000000000e+03,8.327157205786787086e-01,0.000000000000000000e+00
1.393000000000000000e+03,1.331163828176679109e+00,0.000000000000000000e+00
1.394000000000000000e+03,8.410608751013113338e-01,0.000000000000000000e+00
1.395000000000000000e+03,1.197595898385700242e+00,0.000000000000000000e+00
1.396000000000000000e+03,7.462905887948034778e-01,0.000000000000000000e+00
1.397000000000000000e+03,9.406641194076059698e-01,0.000000000000000000e+00
1.398000000000000000e+03,8.998198379100799116e-01,0.000000000000000000e+00
1.399000000000000000e+03,1.056837326627634965e+00,0.000000000000000000e+00
1.400000000000000000e+03,1.014320901321937196e+00,0.000000000000000000e+00
1.401000000000000000e+03,1.321296608273917261e+00,0.000000000000000000e+00
1.402000000000000000e+03,8.957827078534188470e-01,0.000000000000000000e+00
1.403000000000000000e+03,9.150516694646402271e-01,0.000000000000000000e+00
1.404000000000000000e+03,8.212294712669469809e-02,0.000000000000000000e+00
1.405000000000000000e+03,-1.808573373641888526e-01,0.000000000000000000e+00
1.406000000000000000e+03,-7.723184275166806723e-01,0.000000000000000000e+00
1.407000000000000000e+03,-7.215157610728575310e-01,0.000000000000000000e+00
1.408000000000000000e+03,-8.873049224453295469e-01,0.000000000000000000e+00
1.409000000000000000e+03,-7.805528580665290761e-01,0.000000000000000000e+00
1.410000000000000000e+03,-8.455337266732625423e-01,0.000000000000000000e+00
1.411000000000000000e+03,-6.676331635332747316e-01,0.000000000000000000e+00
1.412000000000000000e+03,-5.914407016153720997e-01,0.000000000000000000e+00
1.413000000000000000e+03,-6.721390113720258075e-01,0.000000000000000000e+00
1.414000000000000000e+03,-4.558429167342260002e-01,0.000000000000000000e+00
1.415000000000000000e+03,-5.269533347637924692e-01,0.000000000000000000e+00
1.416000000000000000e+03,-4.213293712831818749e-01,0.000000000000000000e+00
1.417000000000000000e+03,-3.726795305251205948e-01,0.000000000000000000e+00
1.418000000000000000e+03,-4.045881294805637185e-01,0.000000000000000000e+00
1.419000000000000000e+03,-3.944191667194824058e-01,0.000000000000000000e+00
1.420000000000000000e+03,-4.091301647778957107e-01,0.000000000000000000e+00
1.421000000000000000e+03,-4.005652093287611071e-01,0.000000000000000000e+00
1.422000000000000000e+03,-4.461632334296810054e-01,0.000000000000000000e+00
1.423000000000000000e+03,-3.741536079132561365e-01,0.000000000000000000e+00
1.424000000000000000e+03,-1.945375820773626308e-01,0.000000000000000000e+00
1.425000000000000000e+03,-2.386258192425397273e-01,0.000000000000000000e+00
1.426000000000000000e+03,-1.614445729819269371e-01,0.000000000000000000e+00
1.427000000000000000e+03,-3.061465096554677467e-01,0.000000000000000000e+00
1.428000000000000000e+03,-1.253300764469263695e-01,0.000000000000000000e+00
1.429000000000000000e+03,-5.055797534419795985e-02,0.000000000000000000e+00
1.430000000000000000e+03,1.465664927636831372e-01,0.000000000000000000e+00
1.431000000000000000e+03,-1.214654603325535237e-01,0.000000000000000000e+00
1.432000000000000000e+03,9.930535725342443110e-02,0.000000000000000000e+00
1.433000000000000000e+03,2.261251956926542683e-01,0.000000000000000000e+00
1.434000000000000000e+03,8.013314231734383064e-01,0.000000000000000000e+00
1.435000000000000000e+03,4.682179817954654211e-01,0.000000000000000000e+00
1.436000000000000000e+03,3.869629302792698677e-02,0.000000000000000000e+00
1.437000000000000000e+03,-2.088456205281888078e-01,0.000000000000000000e+00
1.438000000000000000e+03,2.349277362092444255e-01,0.000000000000000000e+00
1.439000000000000000e+03,-5.671060121717820257e-01,0.000000000000000000e+00
1.440000000000000000e+03,1.126531534702557957e+00,0.000000000000000000e+00
1.441000000000000000e+03,-5.575269848055733890e-01,0.000000000000000000e+00
1.442000000000000000e+03,-5.367398934591594895e+00,0.000000000000000000e+00
1.443000000000000000e+03,-2.908364733656931822e-01,1.000000000000000000e+00
1.444000000000000000e+03,6.855200176963872627e-01,0.000000000000000000e+00
1.445000000000000000e+03,1.240115897502359843e+00,0.000000000000000000e+00
1.446000000000000000e+03,1.065797234045621877e+00,0.000000000000000000e+00
1.447000000000000000e+03,1.314653178369351361e+00,0.000000000000000000e+00
1.448000000000000000e+03,1.166655120610232688e+00,0.000000000000000000e+00
1.449000000000000000e+03,1.096215255821580303e+00,0.000000000000000000e+00
1.450000000000000000e+03,1.043500351285695515e+00,0.000000000000000000e+00
1.451000000000000000e+03,1.289648961610767364e+00,0.000000000000000000e+00
1.452000000000000000e+03,1.018531513170635394e+00,0.000000000000000000e+00
1.453000000000000000e+03,1.094103588939022487e+00,0.000000000000000000e+00
1.454000000000000000e+03,1.125722093737081986e+00,0.000000000000000000e+00
1.455000000000000000e+03,1.335277600161926204e+00,0.000000000000000000e+00
1.456000000000000000e+03,8.656930127261037722e-01,0.000000000000000000e+00
1.457000000000000000e+03,1.035542977168703471e+00,0.000000000000000000e+00
1.458000000000000000e+03,3.171551805079405595e-01,0.000000000000000000e+00
1.459000000000000000e+03,1.361309569114291934e-02,0.000000000000000000e+00
1.460000000000000000e+03,-5.023996419055180018e-01,0.000000000000000000e+00
1.461000000000000000e+03,-7.463087268874373237e-01,0.000000000000000000e+00
1.462000000000000000e+03,-8.697689576107935361e-01,0.000000000000000000e+00
1.463000000000000000e+03,-8.228186940657649107e-01,0.000000000000000000e+00
1.464000000000000000e+03,-9.553268859501905519e-01,0.000000000000000000e+00
1.465000000000000000e+03,-5.737199658764816634e-01,0.000000000000000000e+00
1.466000000000000000e+03,-8.798259021350927078e-01,0.000000000000000000e+00
1.467000000000000000e+03,-6.035424334071916030e-01,0.000000000000000000e+00
1.468000000000000000e+03,-4.834693240610120069e-01,0.000000000000000000e+00
1.469000000000000000e+03,-7.469644462412705632e-01,0.000000000000000000e+00
1.470000000000000000e+03,-4.390242666473274102e-01,0.000000000000000000e+00
1.471000000000000000e+03,-5.299579594864539667e-01,0.000000000000000000e+00
1.472000000000000000e+03,-5.606137232676753346e-01,0.000000000000000000e+00
1.473000000000000000e+03,-3.533838230309207518e-01,0.000000000000000000e+00
1.474000000000000000e+03,-5.843223076235412039e-01,0.000000000000000000e+00
1.475000000000000000e+03,-2.710694887379228590e-01,0.000000000000000000e+00
1.476000000000000000e+03,-6.111677848573980887e-01,0.000000000000000000e+00
1.477000000000000000e+03,-2.523175339462883637e-01,0.000000000000000000e+00
1.478000000000000000e+03,-4.127088845794831262e-01,0.000000000000000000e+00
1.479000000000000000e+03,-2.769421753330298941e-01,0.000000000000000000e+00
1.480000000000000000e+03,-3.301752779767190837e-01,0.000000000000000000e+00
1.481000000000000000e+03,-8.437060139050361895e-02,0.000000000000000000e+00
1.482000000000000000e+03,-2.370094021804521056e-01,0.000000000000000000e+00
1.483000000000000000e+03,4.903686230792650425e-02,0.000000000000000000e+00
1.484000000000000000e+03,-1.614385714904054223e-03,0.000000000000000000e+00
1.485000000000000000e+03,1.137114664550544219e-01,0.000000000000000000e+00
1.486000000000000000e+03,2.730081085656646533e-01,0.000000000000000000e+00
1.487000000000000000e+03,7.570315729649881309e-01,0.000000000000000000e+00
1.488000000000000000e+03,-4.443734945762626599e-03,0.000000000000000000e+00
1.489000000000000000e+03,1.790332720680854264e-02,0.000000000000000000e+00
1.490000000000000000e+03,-3.716098396810140758e-01,0.000000000000000000e+00
1.491000000000000000e+03,1.692681900757531943e-01,0.000000000000000000e+00
1.492000000000000000e+03,-4.546054877370443448e-01,0.000000000000000000e+00
1.493000000000000000e+03,1.596124916521645343e+00,0.000000000000000000e+00
1.494000000000000000e+03,-3.809332434545801949e+00,0.000000000000000000e+00
1.495000000000000000e+03,-3.253995364378468924e+00,0.000000000000000000e+00
1.496000000000000000e+03,7.593509922932183409e-01,1.000000000000000000e+00
1.497000000000000000e+03,7.754713818053921015e-01,0.000000000000000000e+00
1.498000000000000000e+03,1.514693485093520753e+00,0.000000000000000000e+00
1.499000000000000000e+03,9.950272154429059546e-01,0.000000000000000000e+00
1.500000000000000000e+03,1.291160908899553705e+00,0.000000000000000000e+00
1.501000000000000000e+03,8.539048478137792886e-01,0.000000000000000000e+00
1.502000000000000000e+03,1.010682267477546636e+00,0.000000000000000000e+00
1.503000000000000000e+03,1.178928929420409055e+00,0.000000000000000000e+00
1.504000000000000000e+03,1.115804124405709974e+00,0.000000000000000000e+00
1.505000000000000000e+03,1.063479320915110105e+00,0.000000000000000000e+00
1.506000000000000000e+03,1.209467690432423082e+00,0.000000000000000000e+00
1.507000000000000000e+03,1.004616319416296477e+00,0.000000000000000000e+00
1.508000000000000000e+03,1.500067752166555746e+00,0.000000000000000000e+00
1.509000000000000000e+03,1.002241953850853129e+00,0.000000000000000000e+00
1.510000000000000000e+03,7.456626635147900473e-01,0.000000000000000000e+00
1.511000000000000000e+03,1.902861756131597193e-01,0.000000000000000000e+00
1.512000000000000000e+03,-2.096569070960403181e-01,0.000000000000000000e+00
1.513000000000000000e+03,-5.868514250710541447e-01,0.000000000000000000e+00
1.514000000000000000e+03,-7.301212936325612857e-01,0.000000000000000000e+00
1.515000000000000000e+03,-7.209435433689087569e-01,0.000000000000000000e+00
1.516000000000000000e+03,-7.211085669045705915e-01,0.000000000000000000e+00
1.517000000000000000e+03,-7.586122106849910729e-01,0.000000000000000000e+00
1.518000000000000000e+03,-6.498830179816912356e-01,0.000000000000000000e+00
1.519000000000000000e+03,-4.305116565526879713e-01,0.000000000000000000e+00
1.520000000000000000e+03,-6.137653276921718470e-01,0.000000000000000000e+00
1.521000000000000000e+03,-4.713360525916093779e-01,0.000000000000000000e+00
1.522000000000000000e+03,-4.602611024153739905e-01,0.000000000000000000e+00
1.523000000000000000e+03,-6.736430354176883295e-01,0.000000000000000000e+00
1.524000000000000000e+03,-1.718421355808449347e-01,0.000000000000000000e+00
1.525000000000000000e+03,-3.113314079488286867e-01,0.000000000000000000e+00
1.526000000000000000e+03,-3.898847240831599392e-01,0.000000000000000000e+00
1.527000000000000000e+03,-5.544134064327719269e-01,0.000000000000000000e+00
1.528000000000000000e+03,-3.697438369132738378e-01,0.000000000000000000e+00
1.529000000000000000e+03,-3.353392203120426074e-01,0.000000000000000000e+00
1.530000000000000000e+03,-2.211859922695890990e-01,0.000000000000000000e+00
1.531000000000000000e+03,-4.464216801830959702e-01,0.000000000000000000e+00
1.532000000000000000e+03,-1.825223836843996861e-01,0.000000000000000000e+00
1.533000000000000000e+03,-3.130238770274307858e-01,0.000000000000000000e+00
1.534000000000000000e+03,-2.001503359709981555e-02,0.000000000000000000e+00
1.535000000000000000e+03,-2.625301738264677609e-01,0.000000000000000000e+00
1.536000000000000000e+03,5.216636984622458062e-02,0.000000000000000000e+00
1.537000000000000000e+03,-1.612245185179036200e-01,0.000000000000000000e+00
1.538000000000000000e+03,3.353659158831805986e-01,0.000000000000000000e+00
1.539000000000000000e+03,3.583665712893178146e-01,0.000000000000000000e+00
1.540000000000000000e+03,6.664586922745419084e-01,0.000000000000000000e+00
1.541000000000000000e+03,-2.055085653018110838e-04,0.000000000000000000e+00
1.542000000000000000e+03,-4.822624872483778635e-02,0.000000000000000000e+00
1.543000000000000000e+03,-1.206940870925192755e-01,0.000000000000000000e+00
1.544000000000000000e+03,-1.116157874364590574e-01,0.000000000000000000e+00
1.545000000000000000e+03,-3.280001664550694085e-01,0.000000000000000000e+00
1.546000000000000000e+03,1.349985176510753559e+00,0.000000000000000000e+00
1.547000000000000000e+03,-3.826570731281364601e+00,0.000000000000000000e+00
1.548000000000000000e+03,-2.937710666385437985e+00,0.000000000000000000e+00
1.549000000000000000e+03,1.024931662630410356e+00,1.000000000000000000e+00
1.550000000000000000e+03,5.769644325974405685e-01,0.000000000000000000e+00
1.551000000000000000e+03,1.342796541551900313e+00,0.000000000000000000e+00
1.552000000000000000e+03,9.966913604241429692e-01,0.000000000000000000e+00
1.553000000000000000e+03,1.098947016034752089e+00,0.000000000000000000e+00
1.554000000000000000e+03,8.518539137619701718e-01,0.000000000000000000e+00
1.555000000000000000e+03,1.033303789162685282e+00,0.000000000000000000e+00
1.556000000000000000e+03,8.813267560303300607e-01,0.000000000000000000e+00
1.557000000000000000e+03,1.106046446800737604e+00,0.000000000000000000e+00
1.558000000000000000e+03,1.051051067439572551e+00,0.000000000000000000e+00
1.559000000000000000e+03,1.260344011648074192e+00,0.000000000000000000e+00
1.560000000000000000e+03,1.168769349819888337e+00,0.000000000000000000e+00
1.561000000000000000e+03,1.198344379888722111e+00,0.000000000000000000e+00
1.562000000000000000e+03,1.012768110405861011e+00,0.000000000000000000e+00
1.563000000000000000e+03,8.697733157448959140e-01,0.000000000000000000e+00
1.564000000000000000e+03,1.220590953075095242e-01,0.000000000000000000e+00
1.565000000000000000e+03,-2.422543528795740031e-01,0.000000000000000000e+00
1.566000000000000000e+03,-7.285524700554785182e-01,0.000000000000000000e+00
1.567000000000000000e+03,-7.407822840546748333e-01,0.000000000000000000e+00
1.568000000000000000e+03,-7.740346302587549632e-01,0.000000000000000000e+00
1.569000000000000000e+03,-7.717524176692208693e-01,0.000000000000000000e+00
1.570000000000000000e+03,-6.819801045636798564e-01,0.000000000000000000e+00
1.571000000000000000e+03,-5.009288122845718672e-01,0.000000000000000000e+00
1.572000000000000000e+03,-6.625756077334237215e-01,0.000000000000000000e+00
1.573000000000000000e+03,-4.129031259358153516e-01,0.000000000000000000e+00
1.574000000000000000e+03,-5.230088779747618100e-01,0.000000000000000000e+00
1.575000000000000000e+03,-3.369472965794600983e-01,0.000000000000000000e+00
1.576000000000000000e+03,-4.326429855827755300e-01,0.000000000000000000e+00
1.577000000000000000e+03,-2.590181209130620332e-01,0.000000000000000000e+00
1.578000000000000000e+03,-4.852123332275988798e-01,0.000000000000000000e+00
1.579000000000000000e+03,-3.151190530095100972e-01,0.000000000000000000e+00
1.580000000000000000e+03,-4.321404368364269444e-01,0.000000000000000000e+00
1.581000000000000000e+03,-1.662931232189454045e-01,0.000000000000000000e+00
1.582000000000000000e+03,-5.359473646633098332e-01,0.000000000000000000e+00
1.583000000000000000e+03,-2.399789873756813241e-01,0.000000000000000000e+00
1.584000000000000000e+03,-2.115468036472881452e-01,0.000000000000000000e+00
1.585000000000000000e+03,-2.190352362873065895e-01,0.000000000000000000e+00
1.586000000000000000e+03,-2.023078754328962447e-01,0.000000000000000000e+00
