timestamp,ecg_measurement,qrs_detected
0.000000000000000000e+00,-4.030230679330909282e+00,0.000000000000000000e+00
1.000000000000000000e+00,6.831135596217280392e-01,0.000000000000000000e+00
2.000000000000000000e+00,8.202260669308081287e-01,0.000000000000000000e+00
3.000000000000000000e+00,1.180951681963357425e+00,0.000000000000000000e+00
4.000000000000000000e+00,1.048620548823677057e+00,0.000000000000000000e+00
5.000000000000000000e+00,1.184837200795243239e+00,0.000000000000000000e+00
6.000000000000000000e+00,9.311447040521920737e-01,0.000000000000000000e+00
7.000000000000000000e+00,1.147419750219327517e+00,0.000000000000000000e+00
8.000000000000000000e+00,7.324541103661170727e-01,0.000000000000000000e+00
9.000000000000000000e+00,1.028415123206272597e+00,0.000000000000000000e+00
1.000000000000000000e+01,9.918262968945712466e-01,0.000000000000000000e+00
1.100000000000000000e+01,1.119477627430688349e+00,0.000000000000000000e+00
1.200000000000000000e+01,1.056200105319602178e+00,0.000000000000000000e+00
1.300000000000000000e+01,1.405755035332509451e+00,0.000000000000000000e+00
1.400000000000000000e+01,1.225999057597860098e+00,0.000000000000000000e+00
1.500000000000000000e+01,8.466466417646153486e-01,0.000000000000000000e+00
1.600000000000000000e+01,1.062435874268800734e-01,0.000000000000000000e+00
1.700000000000000000e+01,-3.191410684347920634e-01,1.000000000000000000e+00
1.800000000000000000e+01,-5.828967093666026500e-01,0.000000000000000000e+00
1.900000000000000000e+01,-7.788567345709358491e-01,0.000000000000000000e+00
2.000000000000000000e+01,-9.150380353624353313e-01,0.000000000000000000e+00
2.100000000000000000e+01,-7.823572500055349099e-01,0.000000000000000000e+00
2.200000000000000000e+01,-7.870609921717504065e-01,0.000000000000000000e+00
2.300000000000000000e+01,-5.474008707988999856e-01,0.000000000000000000e+00
2.400000000000000000e+01,-5.510237352998098581e-01,0.000000000000000000e+00
2.500000000000000000e+01,-5.507315249059148154e-01,0.000000000000000000e+00
2.600000000000000000e+01,-5.346549154579524066e-01,0.000000000000000000e+00
2.700000000000000000e+01,-5.015316626722866600e-01,0.000000000000000000e+00
2.800000000000000000e+01,-3.632292953418233550e-01,0.000000000000000000e+00
2.900000000000000000e+01,-4.087539116989917232e-01,0.000000000000000000e+00
3.000000000000000000e+01,-3.997643952057275962e-01,0.000000000000000000e+00
3.100000000000000000e+01,-3.736587055983734418e-01,0.000000000000000000e+00
3.200000000000000000e+01,-3.702664078891442778e-01,0.000000000000000000e+00
3.300000000000000000e+01,-2.880156965517160494e-01,0.000000000000000000e+00
3.400000000000000000e+01,-4.001332399477531276e-01,0.000000000000000000e+00
3.500000000000000000e+01,-3.644937564090541260e-01,0.000000000000000000e+00
3.600000000000000000e+01,-2.160691803156114532e-01,0.000000000000000000e+00
3.700000000000000000e+01,-2.451939772526012251e-01,0.000000000000000000e+00
3.800000000000000000e+01,-8.591518674759775209e-02,0.000000000000000000e+00
3.900000000000000000e+01,-1.393746094056652063e-01,0.000000000000000000e+00
4.000000000000000000e+01,3.386038340829733428e-02,0.000000000000000000e+00
4.100000000000000000e+01,9.590286659823201235e-03,0.000000000000000000e+00
4.200000000000000000e+01,-2.251080602462009889e-02,0.000000000000000000e+00
4.300000000000000000e+01,2.302485692754002444e-01,0.000000000000000000e+00
4.400000000000000000e+01,1.873538381735358194e-01,0.000000000000000000e+00
4.500000000000000000e+01,6.352348811287725772e-01,0.000000000000000000e+00
4.600000000000000000e+01,8.514702884057478993e-01,0.000000000000000000e+00
4.700000000000000000e+01,5.888437215650316886e-02,0.000000000000000000e+00
4.800000000000000000e+01,6.688807238545710701e-03,0.000000000000000000e+00
4.900000000000000000e+01,1.753138037860660706e-02,0.000000000000000000e+00
5.000000000000000000e+01,-7.182476036976333245e-02,0.000000000000000000e+00
5.100000000000000000e+01,2.200779234331149137e-01,0.000000000000000000e+00
5.200000000000000000e+01,9.698427513331109306e-01,0.000000000000000000e+00
5.300000000000000000e+01,-4.572627035532389250e+00,0.000000000000000000e+00
5.400000000000000000e+01,-2.050289319990381998e+00,1.000000000000000000e+00
5.500000000000000000e+01,1.047516022480677655e+00,0.000000000000000000e+00
5.600000000000000000e+01,1.022937932418583884e+00,0.000000000000000000e+00
5.700000000000000000e+01,1.452020194325322588e+00,0.000000000000000000e+00
5.800000000000000000e+01,1.138956373923637910e+00,0.000000000000000000e+00
5.900000000000000000e+01,1.186581814183534034e+00,0.000000000000000000e+00
6.000000000000000000e+01,1.079003524480421472e+00,0.000000000000000000e+00
6.100000000000000000e+01,1.052786655765275414e+00,0.000000000000000000e+00
6.200000000000000000e+01,9.558003301348692027e-01,0.000000000000000000e+00
6.300000000000000000e+01,1.030456661235838789e+00,0.000000000000000000e+00
6.400000000000000000e+01,9.500727718784592879e-01,0.000000000000000000e+00
6.500000000000000000e+01,1.119256081881205400e+00,0.000000000000000000e+00
6.600000000000000000e+01,1.368862255249545523e+00,0.000000000000000000e+00
6.700000000000000000e+01,1.226047925146179107e+00,0.000000000000000000e+00
6.800000000000000000e+01,9.160787238349068495e-01,0.000000000000000000e+00
6.900000000000000000e+01,7.151941881696636250e-01,0.000000000000000000e+00
7.000000000000000000e+01,3.283937465226834107e-02,0.000000000000000000e+00
7.100000000000000000e+01,-3.991355507587530660e-01,0.000000000000000000e+00
7.200000000000000000e+01,-6.800931889369080663e-01,0.000000000000000000e+00
7.300000000000000000e+01,-8.547166179010847742e-01,0.000000000000000000e+00
7.400000000000000000e+01,-8.519019821305916507e-01,0.000000000000000000e+00
7.500000000000000000e+01,-8.722669938198506223e-01,0.000000000000000000e+00
7.600000000000000000e+01,-6.400928409417316889e-01,0.000000000000000000e+00
7.700000000000000000e+01,-7.251023692317288827e-01,0.000000000000000000e+00
7.800000000000000000e+01,-6.786795423679241601e-01,0.000000000000000000e+00
7.900000000000000000e+01,-5.310362577802719697e-01,0.000000000000000000e+00
8.000000000000000000e+01,-6.203818485401721983e-01,0.000000000000000000e+00
8.100000000000000000e+01,-3.849422108072643733e-01,0.000000000000000000e+00
8.200000000000000000e+01,-5.380196605405664911e-01,0.000000000000000000e+00
8.300000000000000000e+01,-4.079325323167403150e-01,0.000000000000000000e+00
8.400000000000000000e+01,-4.656780540792214151e-01,0.000000000000000000e+00
8.500000000000000000e+01,-4.692736351348377188e-01,0.000000000000000000e+00
8.600000000000000000e+01,-4.918500519926000680e-01,0.000000000000000000e+00
8.700000000000000000e+01,-3.888824222572620504e-01,0.000000000000000000e+00
8.800000000000000000e+01,-4.793807382888786162e-01,0.000000000000000000e+00
8.900000000000000000e+01,-3.775883723351682320e-01,0.000000000000000000e+00
9.000000000000000000e+01,-4.546073840574346159e-01,0.000000000000000000e+00
9.100000000000000000e+01,-3.360663716101885967e-01,0.000000000000000000e+00
9.200000000000000000e+01,-3.571083439780929902e-01,0.000000000000000000e+00
9.300000000000000000e+01,-1.317093798933334781e-01,0.000000000000000000e+00
9.400000000000000000e+01,-2.066921618775298397e-01,0.000000000000000000e+00
9.500000000000000000e+01,-1.422057942729120228e-01,0.000000000000000000e+00
9.600000000000000000e+01,-1.408724320494513516e-01,0.000000000000000000e+00
9.700000000000000000e+01,-6.070423421517950890e-02,0.000000000000000000e+00
9.800000000000000000e+01,-3.499182731794597823e-02,0.000000000000000000e+00
9.900000000000000000e+01,2.238214479775358368e-01,0.000000000000000000e+00
1.000000000000000000e+02,1.992919021321805650e-01,0.000000000000000000e+00
1.010000000000000000e+02,7.558556014810052792e-01,0.000000000000000000e+00
1.020000000000000000e+02,1.725190393523602927e-01,0.000000000000000000e+00
1.030000000000000000e+02,1.268566148738349275e-01,0.000000000000000000e+00
1.040000000000000000e+02,-3.318263176846199536e-01,0.000000000000000000e+00
1.050000000000000000e+02,7.892190223878157995e-02,0.000000000000000000e+00
1.060000000000000000e+02,-4.262740760577393706e-01,0.000000000000000000e+00
1.070000000000000000e+02,1.632864422599456411e+00,0.000000000000000000e+00
1.080000000000000000e+02,-2.857420081342158191e+00,0.000000000000000000e+00
1.090000000000000000e+02,-4.339643006756471522e+00,0.000000000000000000e+00
1.100000000000000000e+02,7.462877907962532920e-01,1.000000000000000000e+00
1.110000000000000000e+02,8.337590535782423151e-01,0.000000000000000000e+00
1.120000000000000000e+02,1.389737117873571792e+00,0.000000000000000000e+00
1.130000000000000000e+02,1.060075546788877610e+00,0.000000000000000000e+00
1.140000000000000000e+02,1.261803615058495920e+00,0.000000000000000000e+00
1.150000000000000000e+02,9.580170435806463214e-01,0.000000000000000000e+00
1.160000000000000000e+02,1.335284553471430158e+00,0.000000000000000000e+00
1.170000000000000000e+02,8.366830174424694233e-01,0.000000000000000000e+00
1.180000000000000000e+02,1.056375675256197688e+00,0.000000000000000000e+00
1.190000000000000000e+02,1.078997761425823931e+00,0.000000000000000000e+00
1.200000000000000000e+02,1.232320411412896943e+00,0.000000000000000000e+00
1.210000000000000000e+02,1.046345492355512885e+00,0.000000000000000000e+00
1.220000000000000000e+02,1.298531633293852128e+00,0.000000000000000000e+00
1.230000000000000000e+02,9.178709678113186055e-01,0.000000000000000000e+00
1.240000000000000000e+02,8.546398837001621951e-01,0.000000000000000000e+00
1.250000000000000000e+02,2.522015689869380184e-01,0.000000000000000000e+00
1.260000000000000000e+02,-9.758802920238415779e-02,0.000000000000000000e+00
1.270000000000000000e+02,-7.576338959791395489e-01,0.000000000000000000e+00
1.280000000000000000e+02,-6.981059127827503596e-01,0.000000000000000000e+00
1.290000000000000000e+02,-7.184343803886751312e-01,0.000000000000000000e+00
1.300000000000000000e+02,-6.459668830785844085e-01,0.000000000000000000e+00
1.310000000000000000e+02,-7.631878052363629816e-01,0.000000000000000000e+00
1.320000000000000000e+02,-5.814582398830120402e-01,0.000000000000000000e+00
1.330000000000000000e+02,-8.015990332467158863e-01,0.000000000000000000e+00
1.340000000000000000e+02,-4.085752903266448577e-01,0.000000000000000000e+00
1.350000000000000000e+02,-3.758484306839628974e-01,0.000000000000000000e+00
1.360000000000000000e+02,-4.606778677730157256e-01,0.000000000000000000e+00
1.370000000000000000e+02,-4.914863795958460679e-01,0.000000000000000000e+00
1.380000000000000000e+02,-3.630163397227072486e-01,0.000000000000000000e+00
1.390000000000000000e+02,-4.469705444825400331e-01,0.000000000000000000e+00
1.400000000000000000e+02,-2.522556522330927642e-01,0.000000000000000000e+00
1.410000000000000000e+02,-3.788447698090574023e-01,0.000000000000000000e+00
1.420000000000000000e+02,-3.830591122303733109e-01,0.000000000000000000e+00
1.430000000000000000e+02,-3.583078504693554267e-01,0.000000000000000000e+00
1.440000000000000000e+02,-2.186087507611176317e-01,0.000000000000000000e+00
1.450000000000000000e+02,-3.849281368544973381e-01,0.000000000000000000e+00
1.460000000000000000e+02,-3.024274263492233716e-01,0.000000000000000000e+00
1.470000000000000000e+02,-2.921634355340861355e-01,0.000000000000000000e+00
1.480000000000000000e+02,-7.425007655841306398e-02,0.000000000000000000e+00
1.490000000000000000e+02,-1.692272309268093022e-01,0.000000000000000000e+00
1.500000000000000000e+02,2.876735721443371419e-01,0.000000000000000000e+00
1.510000000000000000e+02,3.759662575011853136e-02,0.000000000000000000e+00
1.520000000000000000e+02,5.681547655271543817e-01,0.000000000000000000e+00
1.530000000000000000e+02,1.830944561061897957e-01,0.000000000000000000e+00
1.540000000000000000e+02,7.311983424401585253e-03,0.000000000000000000e+00
1.550000000000000000e+02,-5.256124473083539916e-01,0.000000000000000000e+00
1.560000000000000000e+02,2.465279081560880214e-01,0.000000000000000000e+00
1.570000000000000000e+02,-6.774158652782379386e-01,0.000000000000000000e+00
1.580000000000000000e+02,1.461815764998872114e+00,0.000000000000000000e+00
1.590000000000000000e+02,-1.392071092665113197e+00,0.000000000000000000e+00
1.600000000000000000e+02,-5.111265597247400372e+00,0.000000000000000000e+00
1.610000000000000000e+02,-4.648790460811006581e-02,1.000000000000000000e+00
1.620000000000000000e+02,6.185037039450567153e-01,0.000000000000000000e+00
1.630000000000000000e+02,1.385963679707527207e+00,0.000000000000000000e+00
1.640000000000000000e+02,1.011633915381899174e+00,0.000000000000000000e+00
1.650000000000000000e+02,1.237696070444559204e+00,0.000000000000000000e+00
1.660000000000000000e+02,9.962844231784997451e-01,0.000000000000000000e+00
1.670000000000000000e+02,1.088731295037669966e+00,0.000000000000000000e+00
1.680000000000000000e+02,9.394115230326876009e-01,0.000000000000000000e+00
1.690000000000000000e+02,1.048629424031120916e+00,0.000000000000000000e+00
1.700000000000000000e+02,8.724847757804471415e-01,0.000000000000000000e+00
1.710000000000000000e+02,1.088200353869774428e+00,0.000000000000000000e+00
1.720000000000000000e+02,1.200306866162520025e+00,0.000000000000000000e+00
1.730000000000000000e+02,1.243176120832820031e+00,0.000000000000000000e+00
1.740000000000000000e+02,1.038859322587685430e+00,0.000000000000000000e+00
1.750000000000000000e+02,8.516911062291894208e-01,0.000000000000000000e+00
1.760000000000000000e+02,2.619126232613296912e-01,0.000000000000000000e+00
1.770000000000000000e+02,-2.887696778954265686e-01,0.000000000000000000e+00
1.780000000000000000e+02,-5.739083441438699307e-01,0.000000000000000000e+00
1.790000000000000000e+02,-7.387337077325901724e-01,0.000000000000000000e+00
1.800000000000000000e+02,-8.203603408064820135e-01,0.000000000000000000e+00
1.810000000000000000e+02,-7.589233619130055786e-01,0.000000000000000000e+00
1.820000000000000000e+02,-6.480274943580865976e-01,0.000000000000000000e+00
1.830000000000000000e+02,-7.148788505930282478e-01,0.000000000000000000e+00
1.840000000000000000e+02,-6.217561980854438008e-01,0.000000000000000000e+00
1.850000000000000000e+02,-4.520496511559601305e-01,0.000000000000000000e+00
1.860000000000000000e+02,-4.594780223720518197e-01,0.000000000000000000e+00
1.870000000000000000e+02,-4.300542120680332925e-01,0.000000000000000000e+00
1.880000000000000000e+02,-3.622102396644902855e-01,0.000000000000000000e+00
1.890000000000000000e+02,-3.366118750859803388e-01,0.000000000000000000e+00
1.900000000000000000e+02,-4.348790878341267652e-01,0.000000000000000000e+00
1.910000000000000000e+02,-3.356790876556663417e-01,0.000000000000000000e+00
1.920000000000000000e+02,-4.500315452749850675e-01,0.000000000000000000e+00
1.930000000000000000e+02,-3.829867369733870319e-01,0.000000000000000000e+00
1.940000000000000000e+02,-3.146311497413883385e-01,0.000000000000000000e+00
1.950000000000000000e+02,-4.576300469809211346e-01,0.000000000000000000e+00
1.960000000000000000e+02,-2.461133345863954214e-01,0.000000000000000000e+00
1.970000000000000000e+02,-2.238754545123201878e-01,0.000000000000000000e+00
1.980000000000000000e+02,-1.711461452407813111e-01,0.000000000000000000e+00
1.990000000000000000e+02,-2.119518409978273232e-01,0.000000000000000000e+00
2.000000000000000000e+02,-2.021460328945748619e-01,0.000000000000000000e+00
2.010000000000000000e+02,-9.397702082060707673e-02,0.000000000000000000e+00
2.020000000000000000e+02,-4.448668233490742779e-02,0.000000000000000000e+00
2.030000000000000000e+02,3.231124551562439967e-02,0.000000000000000000e+00
2.040000000000000000e+02,1.155464134071214760e-01,0.000000000000000000e+00
2.050000000000000000e+02,2.432771617495921856e-01,0.000000000000000000e+00
2.060000000000000000e+02,5.699658271142599153e-01,0.000000000000000000e+00
2.070000000000000000e+02,5.371862501012800717e-01,0.000000000000000000e+00
2.080000000000000000e+02,2.162575119696970652e-02,0.000000000000000000e+00
2.090000000000000000e+02,-1.107717695735514762e-01,0.000000000000000000e+00
2.100000000000000000e+02,1.230709306840977874e-01,0.000000000000000000e+00
2.110000000000000000e+02,-3.949663596551246103e-01,0.000000000000000000e+00
2.120000000000000000e+02,7.051714266987880730e-01,0.000000000000000000e+00
2.130000000000000000e+02,-3.975145574831516759e-01,0.000000000000000000e+00
2.140000000000000000e+02,-4.887011775191335339e+00,0.000000000000000000e+00
2.150000000000000000e+02,-5.485074140483803262e-01,1.000000000000000000e+00
2.160000000000000000e+02,8.744331820950848044e-01,0.000000000000000000e+00
2.170000000000000000e+02,1.183643299395084059e+00,0.000000000000000000e+00
2.180000000000000000e+02,1.164239630162587691e+00,0.000000000000000000e+00
2.190000000000000000e+02,1.167660543146413765e+00,0.000000000000000000e+00
2.200000000000000000e+02,1.009216447661233973e+00,0.000000000000000000e+00
2.210000000000000000e+02,1.077138560176451598e+00,0.000000000000000000e+00
2.220000000000000000e+02,9.473847909691811564e-01,0.000000000000000000e+00
2.230000000000000000e+02,1.055598501953065149e+00,0.000000000000000000e+00
2.240000000000000000e+02,8.865542074392320782e-01,0.000000000000000000e+00
2.250000000000000000e+02,1.055019947411919512e+00,0.000000000000000000e+00
2.260000000000000000e+02,1.103511411796890940e+00,0.000000000000000000e+00
2.270000000000000000e+02,1.305172931404873005e+00,0.000000000000000000e+00
2.280000000000000000e+02,1.118614837760491643e+00,0.000000000000000000e+00
2.290000000000000000e+02,1.024363000424350689e+00,0.000000000000000000e+00
2.300000000000000000e+02,3.757066229921292577e-01,0.000000000000000000e+00
2.310000000000000000e+02,-8.939454032006192985e-02,0.000000000000000000e+00
2.320000000000000000e+02,-4.933147160323009817e-01,0.000000000000000000e+00
2.330000000000000000e+02,-7.485473594569711508e-01,0.000000000000000000e+00
2.340000000000000000e+02,-8.777489794753529084e-01,0.000000000000000000e+00
2.350000000000000000e+02,-7.903220061459104162e-01,0.000000000000000000e+00
2.360000000000000000e+02,-8.004919798710159462e-01,0.000000000000000000e+00
2.370000000000000000e+02,-6.683561054969167081e-01,0.000000000000000000e+00
2.380000000000000000e+02,-6.721684928836081374e-01,0.000000000000000000e+00
2.390000000000000000e+02,-4.660237965872930932e-01,0.000000000000000000e+00
2.400000000000000000e+02,-5.472248076726664578e-01,0.000000000000000000e+00
2.410000000000000000e+02,-4.911217531153599380e-01,0.000000000000000000e+00
2.420000000000000000e+02,-4.643799443619154310e-01,0.000000000000000000e+00
2.430000000000000000e+02,-3.816870351376620007e-01,0.000000000000000000e+00
2.440000000000000000e+02,-4.353145662641883518e-01,0.000000000000000000e+00
2.450000000000000000e+02,-4.124489087413090727e-01,0.000000000000000000e+00
2.460000000000000000e+02,-4.666397253345476726e-01,0.000000000000000000e+00
2.470000000000000000e+02,-3.523484147225401375e-01,0.000000000000000000e+00
2.480000000000000000e+02,-3.878504918308257610e-01,0.000000000000000000e+00
2.490000000000000000e+02,-2.190402645489046007e-01,0.000000000000000000e+00
2.500000000000000000e+02,-3.246126174622799287e-01,0.000000000000000000e+00
2.510000000000000000e+02,-2.156500063231328035e-01,0.000000000000000000e+00
2.520000000000000000e+02,-2.373834193206399434e-01,0.000000000000000000e+00
2.530000000000000000e+02,-1.599809326244699403e-01,0.000000000000000000e+00
2.540000000000000000e+02,-1.670403816530130758e-01,0.000000000000000000e+00
2.550000000000000000e+02,-1.283541406892429459e-01,0.000000000000000000e+00
2.560000000000000000e+02,-9.539572223996446720e-02,0.000000000000000000e+00
2.570000000000000000e+02,3.922911625723128973e-03,0.000000000000000000e+00
2.580000000000000000e+02,-4.978496613671085785e-02,0.000000000000000000e+00
2.590000000000000000e+02,2.106317457330597887e-01,0.000000000000000000e+00
2.600000000000000000e+02,2.448646319800196203e-01,0.000000000000000000e+00
2.610000000000000000e+02,5.180708797049753400e-01,0.000000000000000000e+00
2.620000000000000000e+02,5.503314797956523341e-01,0.000000000000000000e+00
2.630000000000000000e+02,1.137629546700745509e-01,0.000000000000000000e+00
2.640000000000000000e+02,-2.066906537736540872e-01,0.000000000000000000e+00
2.650000000000000000e+02,9.004318830780242214e-03,0.000000000000000000e+00
2.660000000000000000e+02,-3.941459635148767404e-01,0.000000000000000000e+00
2.670000000000000000e+02,5.642251857977146345e-01,0.000000000000000000e+00
2.680000000000000000e+02,-1.019280711727684890e-01,0.000000000000000000e+00
2.690000000000000000e+02,-5.161665583389708267e+00,0.000000000000000000e+00
2.700000000000000000e+02,-8.265887443693613612e-01,1.000000000000000000e+00
2.710000000000000000e+02,9.214527716111847733e-01,0.000000000000000000e+00
2.720000000000000000e+02,1.212998904506727982e+00,0.000000000000000000e+00
2.730000000000000000e+02,1.046421783138560713e+00,0.000000000000000000e+00
2.740000000000000000e+02,1.207989490510987585e+00,0.000000000000000000e+00
2.750000000000000000e+02,1.191204940769392318e+00,0.000000000000000000e+00
2.760000000000000000e+02,1.045384442459142305e+00,0.000000000000000000e+00
2.770000000000000000e+02,1.102382438087906591e+00,0.000000000000000000e+00
2.780000000000000000e+02,8.876316148985471388e-01,0.000000000000000000e+00
2.790000000000000000e+02,1.045585265211854908e+00,0.000000000000000000e+00
2.800000000000000000e+02,1.019480893890648998e+00,0.000000000000000000e+00
2.810000000000000000e+02,1.229085867666902310e+00,0.000000000000000000e+00
2.820000000000000000e+02,1.085450725830095164e+00,0.000000000000000000e+00
2.830000000000000000e+02,1.338925912642742189e+00,0.000000000000000000e+00
2.840000000000000000e+02,1.007141093087345673e+00,0.000000000000000000e+00
2.850000000000000000e+02,4.444755594547350475e-01,0.000000000000000000e+00
2.860000000000000000e+02,2.836943440317807666e-02,0.000000000000000000e+00
2.870000000000000000e+02,-4.932601026551846068e-01,0.000000000000000000e+00
2.880000000000000000e+02,-7.483554834058213645e-01,0.000000000000000000e+00
2.890000000000000000e+02,-7.802091246562042892e-01,0.000000000000000000e+00
2.900000000000000000e+02,-9.063060976561782001e-01,0.000000000000000000e+00
2.910000000000000000e+02,-7.488608865572085049e-01,0.000000000000000000e+00
2.920000000000000000e+02,-6.713797498384980189e-01,0.000000000000000000e+00
2.930000000000000000e+02,-6.788199018433129783e-01,0.000000000000000000e+00
2.940000000000000000e+02,-4.952570268068890447e-01,0.000000000000000000e+00
2.950000000000000000e+02,-6.036331261184698649e-01,0.000000000000000000e+00
2.960000000000000000e+02,-5.953677650619976225e-01,0.000000000000000000e+00
2.970000000000000000e+02,-4.388390796655803339e-01,0.000000000000000000e+00
2.980000000000000000e+02,-4.280414980330624064e-01,0.000000000000000000e+00
2.990000000000000000e+02,-5.646130322947425784e-01,0.000000000000000000e+00
3.000000000000000000e+02,-3.533199370716072485e-01,0.000000000000000000e+00
3.010000000000000000e+02,-4.967953685261830010e-01,0.000000000000000000e+00
3.020000000000000000e+02,-4.826233359613152918e-01,0.000000000000000000e+00
3.030000000000000000e+02,-4.045065607701655575e-01,0.000000000000000000e+00
3.040000000000000000e+02,-3.724634016953317084e-01,0.000000000000000000e+00
3.050000000000000000e+02,-2.784555565451423687e-01,0.000000000000000000e+00
3.060000000000000000e+02,-4.321625803965526424e-01,0.000000000000000000e+00
3.070000000000000000e+02,-2.262791325473900161e-01,0.000000000000000000e+00
3.080000000000000000e+02,-2.980079608537701263e-01,0.000000000000000000e+00
3.090000000000000000e+02,2.093924660219740816e-02,0.000000000000000000e+00
3.100000000000000000e+02,-1.581906696066515128e-01,0.000000000000000000e+00
3.110000000000000000e+02,-2.983951885009524657e-02,0.000000000000000000e+00
3.120000000000000000e+02,-1.723276408655022643e-02,0.000000000000000000e+00
3.130000000000000000e+02,6.703733490480602575e-02,0.000000000000000000e+00
3.140000000000000000e+02,1.298969976436277207e-01,0.000000000000000000e+00
3.150000000000000000e+02,2.472100727602460357e-01,0.000000000000000000e+00
3.160000000000000000e+02,5.170274202682325626e-01,0.000000000000000000e+00
3.170000000000000000e+02,5.900182143204339980e-01,0.000000000000000000e+00
3.180000000000000000e+02,3.208562658618761554e-01,0.000000000000000000e+00
3.190000000000000000e+02,-3.039193975163656525e-01,0.000000000000000000e+00
3.200000000000000000e+02,1.275016204432158351e-01,0.000000000000000000e+00
3.210000000000000000e+02,-4.278950671024216446e-01,0.000000000000000000e+00
3.220000000000000000e+02,7.171639970578939094e-01,0.000000000000000000e+00
3.230000000000000000e+02,1.579303518504435733e-01,0.000000000000000000e+00
3.240000000000000000e+02,-5.382270606975565919e+00,0.000000000000000000e+00
3.250000000000000000e+02,-1.061592160486070302e+00,1.000000000000000000e+00
3.260000000000000000e+02,1.118343599949841227e+00,0.000000000000000000e+00
3.270000000000000000e+02,1.220692217423759107e+00,0.000000000000000000e+00
3.280000000000000000e+02,1.167500629688458691e+00,0.000000000000000000e+00
3.290000000000000000e+02,1.283347646011360199e+00,0.000000000000000000e+00
3.300000000000000000e+02,1.162149964748883324e+00,0.000000000000000000e+00
3.310000000000000000e+02,1.140122324354693184e+00,0.000000000000000000e+00
3.320000000000000000e+02,9.677096917509293572e-01,0.000000000000000000e+00
3.330000000000000000e+02,1.067842020879293363e+00,0.000000000000000000e+00
3.340000000000000000e+02,1.023309547890362436e+00,0.000000000000000000e+00
3.350000000000000000e+02,1.129461653729146864e+00,0.000000000000000000e+00
3.360000000000000000e+02,1.161273235122693093e+00,0.000000000000000000e+00
3.370000000000000000e+02,1.292846635728629012e+00,0.000000000000000000e+00
3.380000000000000000e+02,1.109026961772279218e+00,0.000000000000000000e+00
3.390000000000000000e+02,9.559397449698814331e-01,0.000000000000000000e+00
3.400000000000000000e+02,5.038951465510644878e-01,0.000000000000000000e+00
3.410000000000000000e+02,-3.488802851876817573e-02,0.000000000000000000e+00
3.420000000000000000e+02,-5.000255949477503403e-01,0.000000000000000000e+00
3.430000000000000000e+02,-7.123223249605484808e-01,0.000000000000000000e+00
3.440000000000000000e+02,-9.787219616501534603e-01,0.000000000000000000e+00
3.450000000000000000e+02,-6.106678710741613170e-01,0.000000000000000000e+00
3.460000000000000000e+02,-6.544794062137540003e-01,0.000000000000000000e+00
3.470000000000000000e+02,-6.472918024735241360e-01,0.000000000000000000e+00
3.480000000000000000e+02,-6.650358971211497439e-01,0.000000000000000000e+00
3.490000000000000000e+02,-4.815905444288731685e-01,0.000000000000000000e+00
3.500000000000000000e+02,-6.419962491886734846e-01,0.000000000000000000e+00
3.510000000000000000e+02,-2.993564680673703182e-01,0.000000000000000000e+00
3.520000000000000000e+02,-4.315983636039526505e-01,0.000000000000000000e+00
3.530000000000000000e+02,-3.430141635339560291e-01,0.000000000000000000e+00
3.540000000000000000e+02,-4.480758908978301203e-01,0.000000000000000000e+00
3.550000000000000000e+02,-4.168183188041882370e-01,0.000000000000000000e+00
3.560000000000000000e+02,-2.699631792262358054e-01,0.000000000000000000e+00
3.570000000000000000e+02,-4.895079255047156686e-01,0.000000000000000000e+00
3.580000000000000000e+02,-3.339411090989353181e-01,0.000000000000000000e+00
3.590000000000000000e+02,-2.739373441038994161e-01,0.000000000000000000e+00
3.600000000000000000e+02,-3.433583760004652596e-01,0.000000000000000000e+00
3.610000000000000000e+02,-3.509156587306823116e-01,0.000000000000000000e+00
3.620000000000000000e+02,-3.529538686075214260e-01,0.000000000000000000e+00
3.630000000000000000e+02,-2.276830784625699308e-02,0.000000000000000000e+00
3.640000000000000000e+02,-4.630689723373337396e-01,0.000000000000000000e+00
3.650000000000000000e+02,-8.470383031157462106e-02,0.000000000000000000e+00
3.660000000000000000e+02,1.057138585445408091e-01,0.000000000000000000e+00
3.670000000000000000e+02,1.223950107281325528e-01,0.000000000000000000e+00
3.680000000000000000e+02,1.098508193606980710e-01,0.000000000000000000e+00
3.690000000000000000e+02,6.996534723275893430e-01,0.000000000000000000e+00
3.700000000000000000e+02,8.997364398147518483e-02,0.000000000000000000e+00
3.710000000000000000e+02,-1.541578415832905724e-01,0.000000000000000000e+00
3.720000000000000000e+02,-4.117518478967175932e-01,0.000000000000000000e+00
3.730000000000000000e+02,3.941790938497970881e-02,0.000000000000000000e+00
3.740000000000000000e+02,-4.882653552428239396e-01,0.000000000000000000e+00
3.750000000000000000e+02,1.662227946713150439e+00,0.000000000000000000e+00
3.760000000000000000e+02,-3.496293637669376064e+00,0.000000000000000000e+00
3.770000000000000000e+02,-3.992303871036986251e+00,0.000000000000000000e+00
3.780000000000000000e+02,6.280085396903822836e-01,1.000000000000000000e+00
3.790000000000000000e+02,6.111575708774500404e-01,0.000000000000000000e+00
3.800000000000000000e+02,1.382536755923138960e+00,0.000000000000000000e+00
3.810000000000000000e+02,9.188724818503445357e-01,0.000000000000000000e+00
3.820000000000000000e+02,1.180859793398842061e+00,0.000000000000000000e+00
3.830000000000000000e+02,8.882931520675765302e-01,0.000000000000000000e+00
3.840000000000000000e+02,1.017532177568264862e+00,0.000000000000000000e+00
3.850000000000000000e+02,8.486862207761870502e-01,0.000000000000000000e+00
3.860000000000000000e+02,1.151363637346638491e+00,0.000000000000000000e+00
3.870000000000000000e+02,8.828768254456619280e-01,0.000000000000000000e+00
3.880000000000000000e+02,1.169704927308205411e+00,0.000000000000000000e+00
3.890000000000000000e+02,1.111860486472972642e+00,0.000000000000000000e+00
3.900000000000000000e+02,1.296493696693899134e+00,0.000000000000000000e+00
3.910000000000000000e+02,9.961064922843014813e-01,0.000000000000000000e+00
3.920000000000000000e+02,8.159619099233529349e-01,0.000000000000000000e+00
3.930000000000000000e+02,8.872768662422976516e-02,0.000000000000000000e+00
3.940000000000000000e+02,-2.102926349112590465e-01,0.000000000000000000e+00
3.950000000000000000e+02,-7.811441166272544701e-01,0.000000000000000000e+00
3.960000000000000000e+02,-6.987648998388942267e-01,0.000000000000000000e+00
3.970000000000000000e+02,-8.359101015392572664e-01,0.000000000000000000e+00
3.980000000000000000e+02,-6.398434748532710881e-01,0.000000000000000000e+00
3.990000000000000000e+02,-7.637808266033662141e-01,0.000000000000000000e+00
4.000000000000000000e+02,-6.630201152205451587e-01,0.000000000000000000e+00
4.010000000000000000e+02,-6.821718983545488335e-01,0.000000000000000000e+00
4.020000000000000000e+02,-4.397256719255244750e-01,0.000000000000000000e+00
4.030000000000000000e+02,-5.256052598238534213e-01,0.000000000000000000e+00
4.040000000000000000e+02,-3.268923395677993948e-01,0.000000000000000000e+00
4.050000000000000000e+02,-4.675402929827835452e-01,0.000000000000000000e+00
4.060000000000000000e+02,-2.996058026301514632e-01,0.000000000000000000e+00
4.070000000000000000e+02,-4.074429558240110216e-01,0.000000000000000000e+00
4.080000000000000000e+02,-4.421457543741207363e-01,0.000000000000000000e+00
4.090000000000000000e+02,-2.769211368031227471e-01,0.000000000000000000e+00
4.100000000000000000e+02,-2.405771343399615292e-01,0.000000000000000000e+00
4.110000000000000000e+02,-3.458987137733107731e-01,0.000000000000000000e+00
4.120000000000000000e+02,-1.978976540991238264e-01,0.000000000000000000e+00
4.130000000000000000e+02,-2.957656793884006485e-01,0.000000000000000000e+00
4.140000000000000000e+02,-1.874808417558598284e-01,0.000000000000000000e+00
4.150000000000000000e+02,-1.991022144146716299e-01,0.000000000000000000e+00
4.160000000000000000e+02,-1.228979176653178240e-01,0.000000000000000000e+00
4.170000000000000000e+02,-3.362732443587457265e-02,0.000000000000000000e+00
4.180000000000000000e+02,-1.545937946634979854e-01,0.000000000000000000e+00
4.190000000000000000e+02,-8.920168656543679686e-02,0.000000000000000000e+00
4.200000000000000000e+02,1.850078881937680664e-01,0.000000000000000000e+00
4.210000000000000000e+02,2.372637155598200931e-01,0.000000000000000000e+00
4.220000000000000000e+02,5.603830322696987665e-01,0.000000000000000000e+00
4.230000000000000000e+02,6.485981382374020887e-01,0.000000000000000000e+00
4.240000000000000000e+02,3.994613531186595734e-03,0.000000000000000000e+00
4.250000000000000000e+02,-5.932210816647057877e-02,0.000000000000000000e+00
4.260000000000000000e+02,7.924963127466900029e-03,0.000000000000000000e+00
4.270000000000000000e+02,-2.901349565780632633e-01,0.000000000000000000e+00
4.280000000000000000e+02,4.588973398310667862e-01,0.000000000000000000e+00
4.290000000000000000e+02,2.708107261099901852e-01,0.000000000000000000e+00
4.300000000000000000e+02,-4.751431925261003109e+00,0.000000000000000000e+00
4.310000000000000000e+02,-1.178736972879139921e+00,1.000000000000000000e+00
4.320000000000000000e+02,1.045766271927015989e+00,0.000000000000000000e+00
4.330000000000000000e+02,9.352285581881131238e-01,0.000000000000000000e+00
4.340000000000000000e+02,1.126265508679492378e+00,0.000000000000000000e+00
4.350000000000000000e+02,1.109043600453307965e+00,0.000000000000000000e+00
4.360000000000000000e+02,1.006278016969045952e+00,0.000000000000000000e+00
4.370000000000000000e+02,1.055053236730153055e+00,0.000000000000000000e+00
4.380000000000000000e+02,9.382447154850726001e-01,0.000000000000000000e+00
4.390000000000000000e+02,8.917374474663630757e-01,0.000000000000000000e+00
4.400000000000000000e+02,8.796215491540251286e-01,0.000000000000000000e+00
4.410000000000000000e+02,1.148351799420157082e+00,0.000000000000000000e+00
4.420000000000000000e+02,1.279582722777309112e+00,0.000000000000000000e+00
4.430000000000000000e+02,1.195025364930576428e+00,0.000000000000000000e+00
4.440000000000000000e+02,1.204151675505713115e+00,0.000000000000000000e+00
4.450000000000000000e+02,9.800282927555435952e-01,0.000000000000000000e+00
4.460000000000000000e+02,7.291048873285542742e-01,0.000000000000000000e+00
4.470000000000000000e+02,-1.879300993341528336e-01,0.000000000000000000e+00
4.480000000000000000e+02,-5.514533851914913409e-01,0.000000000000000000e+00
4.490000000000000000e+02,-7.638039905591007539e-01,0.000000000000000000e+00
4.500000000000000000e+02,-7.186282215045449728e-01,0.000000000000000000e+00
4.510000000000000000e+02,-8.431008723138467831e-01,0.000000000000000000e+00
4.520000000000000000e+02,-7.732910203287415296e-01,0.000000000000000000e+00
4.530000000000000000e+02,-7.924081664505152611e-01,0.000000000000000000e+00
4.540000000000000000e+02,-5.974684387066288016e-01,0.000000000000000000e+00
4.550000000000000000e+02,-6.945520539892517942e-01,0.000000000000000000e+00
4.560000000000000000e+02,-4.828318686301081297e-01,0.000000000000000000e+00
4.570000000000000000e+02,-4.556464891530503381e-01,0.000000000000000000e+00
4.580000000000000000e+02,-3.895032633232808350e-01,0.000000000000000000e+00
4.590000000000000000e+02,-4.524981012789104362e-01,0.000000000000000000e+00
4.600000000000000000e+02,-4.427753039943222446e-01,0.000000000000000000e+00
4.610000000000000000e+02,-3.142768628462005998e-01,0.000000000000000000e+00
4.620000000000000000e+02,-2.563229132861368775e-01,0.000000000000000000e+00
4.630000000000000000e+02,-4.696198175648174655e-01,0.000000000000000000e+00
4.640000000000000000e+02,-8.050484589574065375e-02,0.000000000000000000e+00
4.650000000000000000e+02,-3.854289355993201216e-01,0.000000000000000000e+00
4.660000000000000000e+02,-1.759195348831187611e-01,0.000000000000000000e+00
4.670000000000000000e+02,-4.001237168331936433e-01,0.000000000000000000e+00
4.680000000000000000e+02,-1.826274308009719072e-01,0.000000000000000000e+00
4.690000000000000000e+02,-1.565443722700433360e-01,0.000000000000000000e+00
4.700000000000000000e+02,2.375014856223850793e-02,0.000000000000000000e+00
4.710000000000000000e+02,-1.908159971072145022e-01,0.000000000000000000e+00
4.720000000000000000e+02,-3.161403306926018585e-03,0.000000000000000000e+00
4.730000000000000000e+02,-1.389408686189275710e-01,0.000000000000000000e+00
4.740000000000000000e+02,1.143825642964947376e-01,0.000000000000000000e+00
4.750000000000000000e+02,3.933140067360111486e-02,0.000000000000000000e+00
4.760000000000000000e+02,3.951108173186976269e-01,0.000000000000000000e+00
4.770000000000000000e+02,1.897478049604364447e-01,0.000000000000000000e+00
4.780000000000000000e+02,8.226597064809604287e-01,0.000000000000000000e+00
4.790000000000000000e+02,3.330899480782686384e-01,0.000000000000000000e+00
4.800000000000000000e+02,1.584629413460310610e-01,0.000000000000000000e+00
4.810000000000000000e+02,-3.267603767524470681e-01,0.000000000000000000e+00
4.820000000000000000e+02,2.600430908572761157e-01,0.000000000000000000e+00
4.830000000000000000e+02,-4.637538679721861512e-01,0.000000000000000000e+00
4.840000000000000000e+02,1.160220193233285624e+00,0.000000000000000000e+00
4.850000000000000000e+02,-1.692872021801668625e+00,0.000000000000000000e+00
4.860000000000000000e+02,-4.898867048417629988e+00,0.000000000000000000e+00
4.870000000000000000e+02,2.316633961920472884e-01,1.000000000000000000e+00
4.880000000000000000e+02,8.115968360059038211e-01,0.000000000000000000e+00
4.890000000000000000e+02,1.322646794813978621e+00,0.000000000000000000e+00
4.900000000000000000e+02,8.889913679889366316e-01,0.000000000000000000e+00
4.910000000000000000e+02,1.183754000664996031e+00,0.000000000000000000e+00
4.920000000000000000e+02,9.780906881976640932e-01,0.000000000000000000e+00
4.930000000000000000e+02,1.052707787105061188e+00,0.000000000000000000e+00
4.940000000000000000e+02,9.878900213246870621e-01,0.000000000000000000e+00
4.950000000000000000e+02,8.220772779211736880e-01,0.000000000000000000e+00
4.960000000000000000e+02,8.905280039981455786e-01,0.000000000000000000e+00
4.970000000000000000e+02,1.265176423647412784e+00,0.000000000000000000e+00
4.980000000000000000e+02,1.109502228863169071e+00,0.000000000000000000e+00
4.990000000000000000e+02,1.232842744791392109e+00,0.000000000000000000e+00
5.000000000000000000e+02,1.045727000057250278e+00,0.000000000000000000e+00
5.010000000000000000e+02,8.128178853747719534e-01,0.000000000000000000e+00
5.020000000000000000e+02,3.321925260444449357e-01,0.000000000000000000e+00
5.030000000000000000e+02,-2.934061490815677575e-01,0.000000000000000000e+00
5.040000000000000000e+02,-5.871183457050458410e-01,0.000000000000000000e+00
5.050000000000000000e+02,-7.487282151906766714e-01,0.000000000000000000e+00
5.060000000000000000e+02,-8.563919255113775497e-01,0.000000000000000000e+00
5.070000000000000000e+02,-8.498467284910355968e-01,0.000000000000000000e+00
5.080000000000000000e+02,-8.714412012209429292e-01,0.000000000000000000e+00
5.090000000000000000e+02,-6.424989214722639508e-01,0.000000000000000000e+00
5.100000000000000000e+02,-7.048608532127619286e-01,0.000000000000000000e+00
5.110000000000000000e+02,-6.585106993589588953e-01,0.000000000000000000e+00
5.120000000000000000e+02,-7.178616961344765901e-01,0.000000000000000000e+00
5.130000000000000000e+02,-4.593932430477769557e-01,0.000000000000000000e+00
5.140000000000000000e+02,-5.100769808619447510e-01,0.000000000000000000e+00
5.150000000000000000e+02,-5.398729025289795702e-01,0.000000000000000000e+00
5.160000000000000000e+02,-3.803352568758045504e-01,0.000000000000000000e+00
5.170000000000000000e+02,-4.710181144366659134e-01,0.000000000000000000e+00
5.180000000000000000e+02,-4.465164985508774942e-01,0.000000000000000000e+00
5.190000000000000000e+02,-5.520125762978047579e-01,0.000000000000000000e+00
5.200000000000000000e+02,-3.783097434895893452e-01,0.000000000000000000e+00
5.210000000000000000e+02,-4.047371755226854551e-01,0.000000000000000000e+00
5.220000000000000000e+02,-2.580085059387446367e-01,0.000000000000000000e+00
5.230000000000000000e+02,-3.909958033606218408e-01,0.000000000000000000e+00
5.240000000000000000e+02,-1.578530464219611018e-01,0.000000000000000000e+00
5.250000000000000000e+02,-3.348587860995593801e-01,0.000000000000000000e+00
5.260000000000000000e+02,-9.667342930757905073e-02,0.000000000000000000e+00
5.270000000000000000e+02,-2.543772252237844200e-01,0.000000000000000000e+00
5.280000000000000000e+02,7.572215572270521444e-02,0.000000000000000000e+00
5.290000000000000000e+02,-6.272796885334808170e-02,0.000000000000000000e+00
5.300000000000000000e+02,2.703611095308873224e-01,0.000000000000000000e+00
5.310000000000000000e+02,1.397999988187149656e-01,0.000000000000000000e+00
5.320000000000000000e+02,8.098218890910127143e-01,0.000000000000000000e+00
5.330000000000000000e+02,1.860638642371061913e-01,0.000000000000000000e+00
5.340000000000000000e+02,1.619027256236728607e-01,0.000000000000000000e+00
5.350000000000000000e+02,-2.673536287936327804e-01,0.000000000000000000e+00
5.360000000000000000e+02,6.674830912326437660e-02,0.000000000000000000e+00
5.370000000000000000e+02,-4.447412725804902878e-01,0.000000000000000000e+00
5.380000000000000000e+02,1.375557484193112634e+00,0.000000000000000000e+00
5.390000000000000000e+02,-2.097592841885530301e+00,0.000000000000000000e+00
5.400000000000000000e+02,-4.808172749994006345e+00,0.000000000000000000e+00
5.410000000000000000e+02,4.674897111137112926e-01,1.000000000000000000e+00
5.420000000000000000e+02,8.346354017333168507e-01,0.000000000000000000e+00
5.430000000000000000e+02,1.373347981727053524e+00,0.000000000000000000e+00
5.440000000000000000e+02,1.001955342210242073e+00,0.000000000000000000e+00
5.450000000000000000e+02,1.356779557740307895e+00,0.000000000000000000e+00
5.460000000000000000e+02,1.115756062150579542e+00,0.000000000000000000e+00
5.470000000000000000e+02,1.263798762357324801e+00,0.000000000000000000e+00
5.480000000000000000e+02,9.680953722501718373e-01,0.000000000000000000e+00
5.490000000000000000e+02,1.075394012083201289e+00,0.000000000000000000e+00
5.500000000000000000e+02,1.009355885034357136e+00,0.000000000000000000e+00
5.510000000000000000e+02,1.301797537237423974e+00,0.000000000000000000e+00
5.520000000000000000e+02,1.156825080112615201e+00,0.000000000000000000e+00
5.530000000000000000e+02,1.268468860238045615e+00,0.000000000000000000e+00
5.540000000000000000e+02,1.027539103313284796e+00,0.000000000000000000e+00
5.550000000000000000e+02,9.608373148141081677e-01,0.000000000000000000e+00
5.560000000000000000e+02,3.323157912859610041e-01,0.000000000000000000e+00
5.570000000000000000e+02,-1.554743860592641413e-01,0.000000000000000000e+00
5.580000000000000000e+02,-5.287682004364238075e-01,0.000000000000000000e+00
5.590000000000000000e+02,-5.110946757191018319e-01,0.000000000000000000e+00
5.600000000000000000e+02,-8.903232931104988479e-01,0.000000000000000000e+00
5.610000000000000000e+02,-7.353633686797017566e-01,0.000000000000000000e+00
5.620000000000000000e+02,-6.229190586957188414e-01,0.000000000000000000e+00
5.630000000000000000e+02,-5.789759343724688589e-01,0.000000000000000000e+00
5.640000000000000000e+02,-6.067516618595366618e-01,0.000000000000000000e+00
5.650000000000000000e+02,-4.451111440665729280e-01,0.000000000000000000e+00
5.660000000000000000e+02,-4.041919677508631903e-01,0.000000000000000000e+00
5.670000000000000000e+02,-4.920652927817920630e-01,0.000000000000000000e+00
5.680000000000000000e+02,-4.534205476586604666e-01,0.000000000000000000e+00
5.690000000000000000e+02,-2.439706464665700736e-01,0.000000000000000000e+00
5.700000000000000000e+02,-4.228263737726823956e-01,0.000000000000000000e+00
5.710000000000000000e+02,-3.091744922950882546e-01,0.000000000000000000e+00
5.720000000000000000e+02,-2.874680130307489812e-01,0.000000000000000000e+00
5.730000000000000000e+02,-4.340249626019545559e-01,0.000000000000000000e+00
5.740000000000000000e+02,-3.545586074279704625e-01,0.000000000000000000e+00
5.750000000000000000e+02,-3.884092433280361689e-01,0.000000000000000000e+00
5.760000000000000000e+02,-3.370363164453371585e-01,0.000000000000000000e+00
5.770000000000000000e+02,-1.886828224936910048e-01,0.000000000000000000e+00
5.780000000000000000e+02,-2.550576213157015326e-01,0.000000000000000000e+00
5.790000000000000000e+02,-2.105842297974424571e-01,0.000000000000000000e+00
5.800000000000000000e+02,-3.494590112231667212e-02,0.000000000000000000e+00
5.810000000000000000e+02,-1.624204873637754565e-01,0.000000000000000000e+00
5.820000000000000000e+02,2.029385915682651031e-01,0.000000000000000000e+00
5.830000000000000000e+02,3.946810380640475985e-03,0.000000000000000000e+00
5.840000000000000000e+02,7.249803105176527707e-01,0.000000000000000000e+00
5.850000000000000000e+02,2.500586701962569935e-01,0.000000000000000000e+00
5.860000000000000000e+02,-1.533139862443959160e-02,0.000000000000000000e+00
5.870000000000000000e+02,-2.607798260644312305e-01,0.000000000000000000e+00
5.880000000000000000e+02,7.566193173838511865e-02,0.000000000000000000e+00
5.890000000000000000e+02,-5.524953011261496405e-01,0.000000000000000000e+00
5.900000000000000000e+02,1.183670123897876181e+00,0.000000000000000000e+00
5.910000000000000000e+02,-1.104586444119090238e+00,0.000000000000000000e+00
5.920000000000000000e+02,-5.269319661047272341e+00,0.000000000000000000e+00
5.930000000000000000e+02,2.085020856005496883e-03,1.000000000000000000e+00
5.940000000000000000e+02,6.220049398373374006e-01,0.000000000000000000e+00
5.950000000000000000e+02,1.280954451265301719e+00,0.000000000000000000e+00
5.960000000000000000e+02,1.123069001062527494e+00,0.000000000000000000e+00
5.970000000000000000e+02,1.217883059392369516e+00,0.000000000000000000e+00
5.980000000000000000e+02,9.882958386201716738e-01,0.000000000000000000e+00
5.990000000000000000e+02,1.160321154816318145e+00,0.000000000000000000e+00
6.000000000000000000e+02,1.042407463863008532e+00,0.000000000000000000e+00
6.010000000000000000e+02,1.111108398511878592e+00,0.000000000000000000e+00
6.020000000000000000e+02,9.436108970879937274e-01,0.000000000000000000e+00
6.030000000000000000e+02,1.216868178223094121e+00,0.000000000000000000e+00
6.040000000000000000e+02,1.052680569663468679e+00,0.000000000000000000e+00
6.050000000000000000e+02,1.381002152207239542e+00,0.000000000000000000e+00
6.060000000000000000e+02,1.092066733847895987e+00,0.000000000000000000e+00
6.070000000000000000e+02,1.062310399578679787e+00,0.000000000000000000e+00
6.080000000000000000e+02,3.770123752539434880e-01,0.000000000000000000e+00
6.090000000000000000e+02,4.682365698895462193e-04,0.000000000000000000e+00
6.100000000000000000e+02,-6.774120958090303901e-01,0.000000000000000000e+00
6.110000000000000000e+02,-5.933691645686148819e-01,0.000000000000000000e+00
6.120000000000000000e+02,-8.293122860368531413e-01,0.000000000000000000e+00
6.130000000000000000e+02,-7.200205467632586620e-01,0.000000000000000000e+00
6.140000000000000000e+02,-8.380673755773365707e-01,0.000000000000000000e+00
6.150000000000000000e+02,-6.900550126770058634e-01,0.000000000000000000e+00
6.160000000000000000e+02,-8.049953414673544083e-01,0.000000000000000000e+00
6.170000000000000000e+02,-3.956941576957068163e-01,0.000000000000000000e+00
6.180000000000000000e+02,-6.334957212998153508e-01,0.000000000000000000e+00
6.190000000000000000e+02,-5.228818756868905959e-01,0.000000000000000000e+00
6.200000000000000000e+02,-4.715025543033695699e-01,0.000000000000000000e+00
6.210000000000000000e+02,-2.977749717758959580e-01,0.000000000000000000e+00
6.220000000000000000e+02,-6.055004919214405090e-01,0.000000000000000000e+00
6.230000000000000000e+02,-4.019731036151981129e-01,0.000000000000000000e+00
6.240000000000000000e+02,-5.861224398666434743e-01,0.000000000000000000e+00
6.250000000000000000e+02,-2.940058322226714038e-01,0.000000000000000000e+00
6.260000000000000000e+02,-4.740487644461375827e-01,0.000000000000000000e+00
6.270000000000000000e+02,-3.677306680569603636e-01,0.000000000000000000e+00
6.280000000000000000e+02,-4.740220318472391781e-01,0.000000000000000000e+00
6.290000000000000000e+02,-1.597616179822249627e-01,0.000000000000000000e+00
6.300000000000000000e+02,-4.850590091456782327e-01,0.000000000000000000e+00
6.310000000000000000e+02,-2.287378844777554765e-01,0.000000000000000000e+00
6.320000000000000000e+02,-3.427795004779816135e-01,0.000000000000000000e+00
6.330000000000000000e+02,2.945859781603886451e-02,0.000000000000000000e+00
6.340000000000000000e+02,-2.724088944427994763e-01,0.000000000000000000e+00
6.350000000000000000e+02,2.111661644140289118e-01,0.000000000000000000e+00
6.360000000000000000e+02,1.272370188414905512e-01,0.000000000000000000e+00
6.370000000000000000e+02,6.592926913485627205e-01,0.000000000000000000e+00
6.380000000000000000e+02,1.841116519024286191e-01,0.000000000000000000e+00
6.390000000000000000e+02,4.141258285649678655e-02,0.000000000000000000e+00
6.400000000000000000e+02,-3.334307449413650981e-01,0.000000000000000000e+00
6.410000000000000000e+02,7.120214902208026053e-02,0.000000000000000000e+00
6.420000000000000000e+02,-5.896083407470507076e-01,0.000000000000000000e+00
6.430000000000000000e+02,1.308788531272498501e+00,0.000000000000000000e+00
6.440000000000000000e+02,-2.518098610331532594e+00,0.000000000000000000e+00
6.450000000000000000e+02,-4.085418100054210022e+00,0.000000000000000000e+00
6.460000000000000000e+02,4.260811110798327084e-01,1.000000000000000000e+00
6.470000000000000000e+02,8.938152367382781183e-01,0.000000000000000000e+00
6.480000000000000000e+02,1.257556523366421652e+00,0.000000000000000000e+00
6.490000000000000000e+02,8.969947780476197341e-01,0.000000000000000000e+00
6.500000000000000000e+02,1.225805606935320036e+00,0.000000000000000000e+00
6.510000000000000000e+02,9.050758949338061354e-01,0.000000000000000000e+00
6.520000000000000000e+02,1.113851140485014435e+00,0.000000000000000000e+00
6.530000000000000000e+02,7.519801091689845007e-01,0.000000000000000000e+00
6.540000000000000000e+02,9.711874031322005330e-01,0.000000000000000000e+00
6.550000000000000000e+02,9.339745576422299189e-01,0.000000000000000000e+00
6.560000000000000000e+02,1.184136866900122875e+00,0.000000000000000000e+00
6.570000000000000000e+02,1.168431034042971772e+00,0.000000000000000000e+00
6.580000000000000000e+02,1.172622213021571103e+00,0.000000000000000000e+00
6.590000000000000000e+02,1.226036818452723942e+00,0.000000000000000000e+00
6.600000000000000000e+02,7.377130424198946601e-01,0.000000000000000000e+00
6.610000000000000000e+02,2.229699337040910445e-01,0.000000000000000000e+00
6.620000000000000000e+02,-1.410328161090590449e-01,0.000000000000000000e+00
6.630000000000000000e+02,-7.322286148610377410e-01,0.000000000000000000e+00
6.640000000000000000e+02,-8.572282235265696881e-01,0.000000000000000000e+00
6.650000000000000000e+02,-7.505080320851542641e-01,0.000000000000000000e+00
6.660000000000000000e+02,-8.011515899817113207e-01,0.000000000000000000e+00
6.670000000000000000e+02,-8.273894137214545808e-01,0.000000000000000000e+00
6.680000000000000000e+02,-6.335349576029517538e-01,0.000000000000000000e+00
6.690000000000000000e+02,-5.879019759447305926e-01,0.000000000000000000e+00
6.700000000000000000e+02,-6.038554410526736360e-01,0.000000000000000000e+00
6.710000000000000000e+02,-5.313056339553460239e-01,0.000000000000000000e+00
6.720000000000000000e+02,-4.127731470330892605e-01,0.000000000000000000e+00
6.730000000000000000e+02,-4.041912836251847496e-01,0.000000000000000000e+00
6.740000000000000000e+02,-5.179246099747708554e-01,0.000000000000000000e+00
6.750000000000000000e+02,-3.651156384549278378e-01,0.000000000000000000e+00
6.760000000000000000e+02,-2.541425434114664150e-01,0.000000000000000000e+00
6.770000000000000000e+02,-3.457204462288895330e-01,0.000000000000000000e+00
6.780000000000000000e+02,-3.603497835470385602e-01,0.000000000000000000e+00
6.790000000000000000e+02,-2.494704810950045815e-01,0.000000000000000000e+00
6.800000000000000000e+02,-2.479278045615615766e-01,0.000000000000000000e+00
6.810000000000000000e+02,-3.228682453370269045e-01,0.000000000000000000e+00
6.820000000000000000e+02,-2.607236732963624237e-01,0.000000000000000000e+00
6.830000000000000000e+02,-7.701077428765745747e-02,0.000000000000000000e+00
6.840000000000000000e+02,-1.423078373363927673e-01,0.000000000000000000e+00
6.850000000000000000e+02,1.862903764027546262e-03,0.000000000000000000e+00
6.860000000000000000e+02,-4.349419381761667619e-02,0.000000000000000000e+00
6.870000000000000000e+02,-1.075100416340493414e-01,0.000000000000000000e+00
6.880000000000000000e+02,4.095900047893456103e-02,0.000000000000000000e+00
6.890000000000000000e+02,1.110346715295539542e-02,0.000000000000000000e+00
6.900000000000000000e+02,3.473269630904388672e-01,0.000000000000000000e+00
6.910000000000000000e+02,4.130354912723534500e-01,0.000000000000000000e+00
6.920000000000000000e+02,7.643704452670124772e-01,0.000000000000000000e+00
6.930000000000000000e+02,2.133386579194423149e-01,0.000000000000000000e+00
6.940000000000000000e+02,8.680365239541232292e-02,0.000000000000000000e+00
6.950000000000000000e+02,-6.801137600090402524e-02,0.000000000000000000e+00
6.960000000000000000e+02,4.195510051156913639e-02,0.000000000000000000e+00
6.970000000000000000e+02,-1.804239121288868097e-01,0.000000000000000000e+00
6.980000000000000000e+02,1.388253246039145461e+00,0.000000000000000000e+00
6.990000000000000000e+02,-3.692420884602785058e+00,0.000000000000000000e+00
7.000000000000000000e+02,-3.304783359465681247e+00,0.000000000000000000e+00
7.010000000000000000e+02,1.038732226888652965e+00,1.000000000000000000e+00
7.020000000000000000e+02,9.865387929162874325e-01,0.000000000000000000e+00
7.030000000000000000e+02,1.402163431007866778e+00,0.000000000000000000e+00
7.040000000000000000e+02,1.088265534642873122e+00,0.000000000000000000e+00
7.050000000000000000e+02,1.323737517629876015e+00,0.000000000000000000e+00
7.060000000000000000e+02,1.000868309191537797e+00,0.000000000000000000e+00
7.070000000000000000e+02,1.185280394061709819e+00,0.000000000000000000e+00
7.080000000000000000e+02,1.002614874547330892e+00,0.000000000000000000e+00
7.090000000000000000e+02,1.203057373504330174e+00,0.000000000000000000e+00
7.100000000000000000e+02,9.583868366732222199e-01,0.000000000000000000e+00
7.110000000000000000e+02,1.298194030838881519e+00,0.000000000000000000e+00
7.120000000000000000e+02,1.106517451494797077e+00,0.000000000000000000e+00
7.130000000000000000e+02,1.306273244884577966e+00,0.000000000000000000e+00
7.140000000000000000e+02,1.091689876151881400e+00,0.000000000000000000e+00
7.150000000000000000e+02,7.793546989934037050e-01,0.000000000000000000e+00
7.160000000000000000e+02,1.082057790612087622e-01,0.000000000000000000e+00
7.170000000000000000e+02,-2.487115831155639334e-01,0.000000000000000000e+00
7.180000000000000000e+02,-6.577608216665804530e-01,0.000000000000000000e+00
7.190000000000000000e+02,-6.555704357887899292e-01,0.000000000000000000e+00
7.200000000000000000e+02,-9.082509435425987210e-01,0.000000000000000000e+00
7.210000000000000000e+02,-7.178080069006081976e-01,0.000000000000000000e+00
7.220000000000000000e+02,-7.351642902859281126e-01,0.000000000000000000e+00
7.230000000000000000e+02,-5.855998209106595409e-01,0.000000000000000000e+00
7.240000000000000000e+02,-7.316494223142100406e-01,0.000000000000000000e+00
7.250000000000000000e+02,-5.078565695408628899e-01,0.000000000000000000e+00
7.260000000000000000e+02,-5.164260733127838954e-01,0.000000000000000000e+00
7.270000000000000000e+02,-3.241504222815191349e-01,0.000000000000000000e+00
7.280000000000000000e+02,-5.488610213206276400e-01,0.000000000000000000e+00
7.290000000000000000e+02,-4.615323947957909456e-01,0.000000000000000000e+00
7.300000000000000000e+02,-3.586114402598502560e-01,0.000000000000000000e+00
7.310000000000000000e+02,-3.892814173031414748e-01,0.000000000000000000e+00
7.320000000000000000e+02,-4.241444435729043727e-01,0.000000000000000000e+00
7.330000000000000000e+02,-3.939200409783849000e-01,0.000000000000000000e+00
7.340000000000000000e+02,-4.899818644432472614e-01,0.000000000000000000e+00
7.350000000000000000e+02,-2.795206893588053076e-01,0.000000000000000000e+00
7.360000000000000000e+02,-4.360447580121700750e-01,0.000000000000000000e+00
7.370000000000000000e+02,-2.380030680018264122e-01,0.000000000000000000e+00
7.380000000000000000e+02,-3.562862563781641345e-01,0.000000000000000000e+00
7.390000000000000000e+02,-2.487944889465724396e-01,0.000000000000000000e+00
7.400000000000000000e+02,-2.312243112898315911e-01,0.000000000000000000e+00
7.410000000000000000e+02,-6.347263945693165828e-03,0.000000000000000000e+00
7.420000000000000000e+02,-2.482611050318276336e-01,0.000000000000000000e+00
7.430000000000000000e+02,2.214332143104502382e-01,0.000000000000000000e+00
7.440000000000000000e+02,1.516071275896198611e-01,0.000000000000000000e+00
7.450000000000000000e+02,7.714135405598884221e-01,0.000000000000000000e+00
7.460000000000000000e+02,1.079419987854940699e-01,0.000000000000000000e+00
7.470000000000000000e+02,1.821077585834853657e-02,0.000000000000000000e+00
7.480000000000000000e+02,-4.197256810587698395e-01,0.000000000000000000e+00
7.490000000000000000e+02,2.021114711764003535e-01,0.000000000000000000e+00
7.500000000000000000e+02,-6.287283893331951923e-01,0.000000000000000000e+00
7.510000000000000000e+02,1.463685070744690897e+00,0.000000000000000000e+00
7.520000000000000000e+02,-3.353112707962570216e+00,0.000000000000000000e+00
7.530000000000000000e+02,-4.109407927298796892e+00,0.000000000000000000e+00
7.540000000000000000e+02,8.096536978035584475e-01,1.000000000000000000e+00
7.550000000000000000e+02,8.508161625754503410e-01,0.000000000000000000e+00
7.560000000000000000e+02,1.325093652533498423e+00,0.000000000000000000e+00
7.570000000000000000e+02,9.836655733381237665e-01,0.000000000000000000e+00
7.580000000000000000e+02,1.399523013009441819e+00,0.000000000000000000e+00
7.590000000000000000e+02,1.012107383603592980e+00,0.000000000000000000e+00
7.600000000000000000e+02,1.152427117225482300e+00,0.000000000000000000e+00
7.610000000000000000e+02,8.674015703868733773e-01,0.000000000000000000e+00
7.620000000000000000e+02,1.055527781445721791e+00,0.000000000000000000e+00
7.630000000000000000e+02,1.058537898935570487e+00,0.000000000000000000e+00
7.640000000000000000e+02,1.302182926407864594e+00,0.000000000000000000e+00
7.650000000000000000e+02,1.165669794897155720e+00,0.000000000000000000e+00
7.660000000000000000e+02,1.226506878564914471e+00,0.000000000000000000e+00
7.670000000000000000e+02,9.921799483294536648e-01,0.000000000000000000e+00
7.680000000000000000e+02,7.861648331697425052e-01,0.000000000000000000e+00
7.690000000000000000e+02,1.333261437878810463e-01,0.000000000000000000e+00
7.700000000000000000e+02,-2.321586963781702984e-01,0.000000000000000000e+00
7.710000000000000000e+02,-5.560313728744102901e-01,0.000000000000000000e+00
7.720000000000000000e+02,-8.624389900739134474e-01,0.000000000000000000e+00
7.730000000000000000e+02,-8.623664145602423226e-01,0.000000000000000000e+00
7.740000000000000000e+02,-6.851615475375844033e-01,0.000000000000000000e+00
7.750000000000000000e+02,-7.499557655725856975e-01,0.000000000000000000e+00
7.760000000000000000e+02,-7.338111598795526991e-01,0.000000000000000000e+00
7.770000000000000000e+02,-6.986769455599144418e-01,0.000000000000000000e+00
7.780000000000000000e+02,-4.569487841311950516e-01,0.000000000000000000e+00
7.790000000000000000e+02,-4.443737381004509435e-01,0.000000000000000000e+00
7.800000000000000000e+02,-4.397270496927580541e-01,0.000000000000000000e+00
7.810000000000000000e+02,-4.750480420987453489e-01,0.000000000000000000e+00
7.820000000000000000e+02,-4.266149988936893678e-01,0.000000000000000000e+00
7.830000000000000000e+02,-3.875360744368552823e-01,0.000000000000000000e+00
7.840000000000000000e+02,-3.096776309279541395e-01,0.000000000000000000e+00
7.850000000000000000e+02,-5.058015661025181409e-01,0.000000000000000000e+00
7.860000000000000000e+02,-3.345541839729145872e-01,0.000000000000000000e+00
7.870000000000000000e+02,-3.361338306721869396e-01,0.000000000000000000e+00
7.880000000000000000e+02,-4.263002560620026693e-01,0.000000000000000000e+00
7.890000000000000000e+02,-2.510651847178868024e-01,0.000000000000000000e+00
7.900000000000000000e+02,-3.411796609154491566e-01,0.000000000000000000e+00
7.910000000000000000e+02,-1.841566632867757125e-01,0.000000000000000000e+00
7.920000000000000000e+02,-3.268352053380114142e-01,0.000000000000000000e+00
7.930000000000000000e+02,-2.949069350574160323e-03,0.000000000000000000e+00
7.940000000000000000e+02,-2.962217148633544683e-01,0.000000000000000000e+00
7.950000000000000000e+02,2.299312202101860825e-01,0.000000000000000000e+00
7.960000000000000000e+02,-1.417657364024833659e-02,0.000000000000000000e+00
7.970000000000000000e+02,4.802445909489060916e-01,0.000000000000000000e+00
7.980000000000000000e+02,3.215333974956902097e-01,0.000000000000000000e+00
7.990000000000000000e+02,2.836676632912561377e-02,0.000000000000000000e+00
8.000000000000000000e+02,-3.817506298503160478e-01,0.000000000000000000e+00
8.010000000000000000e+02,5.337861902497167965e-02,0.000000000000000000e+00
8.020000000000000000e+02,-6.221701667610685105e-01,0.000000000000000000e+00
8.030000000000000000e+02,1.517639049676014373e+00,0.000000000000000000e+00
8.040000000000000000e+02,-1.333586729455932263e+00,0.000000000000000000e+00
8.050000000000000000e+02,-5.167548830726844677e+00,0.000000000000000000e+00
8.060000000000000000e+02,-1.370402167789730452e-01,1.000000000000000000e+00
8.070000000000000000e+02,9.316477994871341650e-01,0.000000000000000000e+00
8.080000000000000000e+02,1.497502351446692082e+00,0.000000000000000000e+00
8.090000000000000000e+02,9.422887839351610229e-01,0.000000000000000000e+00
8.100000000000000000e+02,1.318857004464843996e+00,0.000000000000000000e+00
8.110000000000000000e+02,8.517181125265707031e-01,0.000000000000000000e+00
8.120000000000000000e+02,1.146718774983400913e+00,0.000000000000000000e+00
8.130000000000000000e+02,1.119830378058480402e+00,0.000000000000000000e+00
8.140000000000000000e+02,1.122746119035860080e+00,0.000000000000000000e+00
8.150000000000000000e+02,1.034596531339613490e+00,0.000000000000000000e+00
8.160000000000000000e+02,1.156673388514999790e+00,0.000000000000000000e+00
8.170000000000000000e+02,1.219840988041129171e+00,0.000000000000000000e+00
8.180000000000000000e+02,1.421398775984227481e+00,0.000000000000000000e+00
8.190000000000000000e+02,9.840764697333793665e-01,0.000000000000000000e+00
8.200000000000000000e+02,9.867654541469113028e-01,0.000000000000000000e+00
8.210000000000000000e+02,4.154526677646774857e-01,0.000000000000000000e+00
8.220000000000000000e+02,-1.268163204851022186e-01,0.000000000000000000e+00
8.230000000000000000e+02,-5.771275621376469322e-01,0.000000000000000000e+00
8.240000000000000000e+02,-6.291814203038698095e-01,0.000000000000000000e+00
8.250000000000000000e+02,-8.279716994921371143e-01,0.000000000000000000e+00
8.260000000000000000e+02,-6.914518847016721814e-01,0.000000000000000000e+00
8.270000000000000000e+02,-8.539172290726394499e-01,0.000000000000000000e+00
8.280000000000000000e+02,-4.831315962125627972e-01,0.000000000000000000e+00
8.290000000000000000e+02,-6.990435092384190696e-01,0.000000000000000000e+00
8.300000000000000000e+02,-4.153228369067967773e-01,0.000000000000000000e+00
8.310000000000000000e+02,-5.970460680767690764e-01,0.000000000000000000e+00
8.320000000000000000e+02,-3.579664788558031829e-01,0.000000000000000000e+00
8.330000000000000000e+02,-6.227284861771666957e-01,0.000000000000000000e+00
8.340000000000000000e+02,-2.889078912391434550e-01,0.000000000000000000e+00
8.350000000000000000e+02,-5.136011223454508556e-01,0.000000000000000000e+00
8.360000000000000000e+02,-2.935869945932033098e-01,0.000000000000000000e+00
8.370000000000000000e+02,-4.126005938140209772e-01,0.000000000000000000e+00
8.380000000000000000e+02,-3.440167181399522711e-01,0.000000000000000000e+00
8.390000000000000000e+02,-3.223391418680160436e-01,0.000000000000000000e+00
8.400000000000000000e+02,-3.180453703999806536e-01,0.000000000000000000e+00
8.410000000000000000e+02,-3.123215973264327205e-01,0.000000000000000000e+00
8.420000000000000000e+02,-4.357524315826416528e-01,0.000000000000000000e+00
8.430000000000000000e+02,-2.993408847305627507e-01,0.000000000000000000e+00
8.440000000000000000e+02,-5.822342220724530809e-02,0.000000000000000000e+00
8.450000000000000000e+02,-2.614768900792924788e-01,0.000000000000000000e+00
8.460000000000000000e+02,-1.228587182889555873e-01,0.000000000000000000e+00
8.470000000000000000e+02,-1.479245928393648490e-01,0.000000000000000000e+00
8.480000000000000000e+02,2.979124731491951672e-01,0.000000000000000000e+00
8.490000000000000000e+02,2.896881008783636080e-01,0.000000000000000000e+00
8.500000000000000000e+02,6.463103174696070985e-01,0.000000000000000000e+00
8.510000000000000000e+02,2.856964374741486137e-02,0.000000000000000000e+00
8.520000000000000000e+02,-1.533575161445462909e-01,0.000000000000000000e+00
8.530000000000000000e+02,-1.207359609036230547e-01,0.000000000000000000e+00
8.540000000000000000e+02,6.301677108534319005e-02,0.000000000000000000e+00
8.550000000000000000e+02,-2.616010319034828280e-01,0.000000000000000000e+00
8.560000000000000000e+02,1.131731525313429021e+00,0.000000000000000000e+00
8.570000000000000000e+02,-3.714620476085708223e+00,0.000000000000000000e+00
8.580000000000000000e+02,-2.979508153956089700e+00,0.000000000000000000e+00
8.590000000000000000e+02,9.496830951749534178e-01,1.000000000000000000e+00
8.600000000000000000e+02,9.100123613917765475e-01,0.000000000000000000e+00
8.610000000000000000e+02,1.240594319864058992e+00,0.000000000000000000e+00
8.620000000000000000e+02,1.038272573622568418e+00,0.000000000000000000e+00
8.630000000000000000e+02,1.299226162075280078e+00,0.000000000000000000e+00
8.640000000000000000e+02,9.048413452365500209e-01,0.000000000000000000e+00
8.650000000000000000e+02,1.086601563768361034e+00,0.000000000000000000e+00
8.660000000000000000e+02,8.370367728841250354e-01,0.000000000000000000e+00
8.670000000000000000e+02,1.018808420660847647e+00,0.000000000000000000e+00
8.680000000000000000e+02,1.027611438759838958e+00,0.000000000000000000e+00
8.690000000000000000e+02,1.251218642089936273e+00,0.000000000000000000e+00
8.700000000000000000e+02,1.207000170164580055e+00,0.000000000000000000e+00
8.710000000000000000e+02,1.222570430858713086e+00,0.000000000000000000e+00
8.720000000000000000e+02,1.021506290652740567e+00,0.000000000000000000e+00
8.730000000000000000e+02,7.833771050148320425e-01,0.000000000000000000e+00
8.740000000000000000e+02,2.690568200516785594e-02,0.000000000000000000e+00
8.750000000000000000e+02,-2.904505864440413698e-01,0.000000000000000000e+00
8.760000000000000000e+02,-6.955552610632287358e-01,0.000000000000000000e+00
8.770000000000000000e+02,-7.441243526723263502e-01,0.000000000000000000e+00
8.780000000000000000e+02,-9.146520645053732856e-01,0.000000000000000000e+00
8.790000000000000000e+02,-7.511715158568639250e-01,0.000000000000000000e+00
8.800000000000000000e+02,-7.517836879909750580e-01,0.000000000000000000e+00
8.810000000000000000e+02,-5.995503936377031273e-01,0.000000000000000000e+00
8.820000000000000000e+02,-7.143252691923089870e-01,0.000000000000000000e+00
8.830000000000000000e+02,-5.390490827461907886e-01,0.000000000000000000e+00
8.840000000000000000e+02,-4.551785461735011196e-01,0.000000000000000000e+00
8.850000000000000000e+02,-3.936011092313397297e-01,0.000000000000000000e+00
8.860000000000000000e+02,-5.546698904410681807e-01,0.000000000000000000e+00
8.870000000000000000e+02,-3.872434298513002804e-01,0.000000000000000000e+00
8.880000000000000000e+02,-5.455264432870491342e-01,0.000000000000000000e+00
8.890000000000000000e+02,-2.199219987947049482e-01,0.000000000000000000e+00
8.900000000000000000e+02,-3.471301544952744011e-01,0.000000000000000000e+00
8.910000000000000000e+02,-3.906453319718263817e-01,0.000000000000000000e+00
8.920000000000000000e+02,-4.059775602079616630e-01,0.000000000000000000e+00
8.930000000000000000e+02,-2.815274856677326132e-01,0.000000000000000000e+00
8.940000000000000000e+02,-3.110349267324456490e-01,0.000000000000000000e+00
8.950000000000000000e+02,-2.756183281464897883e-01,0.000000000000000000e+00
8.960000000000000000e+02,-1.722173085695024586e-01,0.000000000000000000e+00
8.970000000000000000e+02,-1.458371185857519903e-01,0.000000000000000000e+00
8.980000000000000000e+02,-2.219463594744150725e-01,0.000000000000000000e+00
8.990000000000000000e+02,1.537674941719386346e-01,0.000000000000000000e+00
9.000000000000000000e+02,-7.376793660446255563e-02,0.000000000000000000e+00
9.010000000000000000e+02,1.002122820125159186e-01,0.000000000000000000e+00
9.020000000000000000e+02,-3.720921857271175526e-02,0.000000000000000000e+00
9.030000000000000000e+02,3.025726625323508778e-01,0.000000000000000000e+00
9.040000000000000000e+02,3.142020601293255555e-01,0.000000000000000000e+00
9.050000000000000000e+02,1.001224462845281105e+00,0.000000000000000000e+00
9.060000000000000000e+02,1.425331944360270497e-01,0.000000000000000000e+00
9.070000000000000000e+02,1.495163132433409703e-01,0.000000000000000000e+00
9.080000000000000000e+02,-2.410394496770904282e-01,0.000000000000000000e+00
9.090000000000000000e+02,1.504963048969454043e-01,0.000000000000000000e+00
9.100000000000000000e+02,-2.127707171670113473e-01,0.000000000000000000e+00
9.110000000000000000e+02,1.470871313200857511e+00,0.000000000000000000e+00
9.120000000000000000e+02,-3.421656219240976071e+00,0.000000000000000000e+00
9.130000000000000000e+02,-3.563308659120246080e+00,0.000000000000000000e+00
9.140000000000000000e+02,9.191128500908273269e-01,1.000000000000000000e+00
9.150000000000000000e+02,9.431427765730278079e-01,0.000000000000000000e+00
9.160000000000000000e+02,1.370565996905563022e+00,0.000000000000000000e+00
9.170000000000000000e+02,9.764362472015838401e-01,0.000000000000000000e+00
9.180000000000000000e+02,1.364640532996678646e+00,0.000000000000000000e+00
9.190000000000000000e+02,9.545878404146180829e-01,0.000000000000000000e+00
9.200000000000000000e+02,1.201823735578541941e+00,0.000000000000000000e+00
9.210000000000000000e+02,9.112477934530623935e-01,0.000000000000000000e+00
9.220000000000000000e+02,9.422332067403835776e-01,0.000000000000000000e+00
9.230000000000000000e+02,9.094455051531588063e-01,0.000000000000000000e+00
9.240000000000000000e+02,1.272987122532657223e+00,0.000000000000000000e+00
9.250000000000000000e+02,1.145093973612603122e+00,0.000000000000000000e+00
9.260000000000000000e+02,1.382660726424689956e+00,0.000000000000000000e+00
9.270000000000000000e+02,1.047036728101827574e+00,0.000000000000000000e+00
9.280000000000000000e+02,7.924123113374913485e-01,0.000000000000000000e+00
9.290000000000000000e+02,6.643900916193204442e-02,0.000000000000000000e+00
9.300000000000000000e+02,-2.610252833998887856e-01,0.000000000000000000e+00
9.310000000000000000e+02,-7.588734281761081446e-01,0.000000000000000000e+00
9.320000000000000000e+02,-7.267350199057163174e-01,0.000000000000000000e+00
9.330000000000000000e+02,-9.353540019370853997e-01,0.000000000000000000e+00
9.340000000000000000e+02,-6.957132190328313426e-01,0.000000000000000000e+00
9.350000000000000000e+02,-8.957539171152251178e-01,0.000000000000000000e+00
9.360000000000000000e+02,-6.512130653008688652e-01,0.000000000000000000e+00
9.370000000000000000e+02,-7.779040603296135670e-01,0.000000000000000000e+00
9.380000000000000000e+02,-5.735397246973834573e-01,0.000000000000000000e+00
9.390000000000000000e+02,-5.989771827108838487e-01,0.000000000000000000e+00
9.400000000000000000e+02,-4.649799633531231380e-01,0.000000000000000000e+00
9.410000000000000000e+02,-5.224554934596716826e-01,0.000000000000000000e+00
9.420000000000000000e+02,-4.439504934992404839e-01,0.000000000000000000e+00
9.430000000000000000e+02,-5.215718752260426472e-01,0.000000000000000000e+00
9.440000000000000000e+02,-3.234444475665737007e-01,0.000000000000000000e+00
9.450000000000000000e+02,-5.746688452944657133e-01,0.000000000000000000e+00
9.460000000000000000e+02,-3.591855210022705802e-01,0.000000000000000000e+00
9.470000000000000000e+02,-6.089369186122791655e-01,0.000000000000000000e+00
9.480000000000000000e+02,-3.483635250598888788e-01,0.000000000000000000e+00
9.490000000000000000e+02,-4.138005565221589133e-01,0.000000000000000000e+00
9.500000000000000000e+02,-3.027396797431388675e-01,0.000000000000000000e+00
9.510000000000000000e+02,-2.847587900681001760e-01,0.000000000000000000e+00
9.520000000000000000e+02,-2.188777535166710753e-01,0.000000000000000000e+00
9.530000000000000000e+02,-2.512312160039340547e-01,0.000000000000000000e+00
9.540000000000000000e+02,-5.244426309573576445e-02,0.000000000000000000e+00
9.550000000000000000e+02,-2.204843339190736273e-01,0.000000000000000000e+00
9.560000000000000000e+02,2.829163750224583107e-01,0.000000000000000000e+00
9.570000000000000000e+02,6.129138651165543655e-02,0.000000000000000000e+00
9.580000000000000000e+02,6.534672914754366957e-01,0.000000000000000000e+00
9.590000000000000000e+02,1.675937640875860279e-01,0.000000000000000000e+00
9.600000000000000000e+02,1.300007296265996704e-01,0.000000000000000000e+00
9.610000000000000000e+02,-3.014590473194324605e-01,0.000000000000000000e+00
9.620000000000000000e+02,1.694257225278286705e-01,0.000000000000000000e+00
9.630000000000000000e+02,-5.974770658405093027e-01,0.000000000000000000e+00
9.640000000000000000e+02,1.515329584072659497e+00,0.000000000000000000e+00
9.650000000000000000e+02,-2.119868689534845529e+00,0.000000000000000000e+00
9.660000000000000000e+02,-4.829800841067759087e+00,0.000000000000000000e+00
9.670000000000000000e+02,4.012306929090155294e-01,1.000000000000000000e+00
9.680000000000000000e+02,7.691831083949139947e-01,0.000000000000000000e+00
9.690000000000000000e+02,1.510167483395098653e+00,0.000000000000000000e+00
9.700000000000000000e+02,1.168393849298909437e+00,0.000000000000000000e+00
9.710000000000000000e+02,1.300168617819047245e+00,0.000000000000000000e+00
9.720000000000000000e+02,1.014608259310922467e+00,0.000000000000000000e+00
9.730000000000000000e+02,1.263425316320350378e+00,0.000000000000000000e+00
9.740000000000000000e+02,1.024369072970346073e+00,0.000000000000000000e+00
9.750000000000000000e+02,1.166696130845243040e+00,0.000000000000000000e+00
9.760000000000000000e+02,8.264841239698427211e-01,0.000000000000000000e+00
9.770000000000000000e+02,1.361053122385504244e+00,0.000000000000000000e+00
9.780000000000000000e+02,1.275062246051651638e+00,0.000000000000000000e+00
9.790000000000000000e+02,1.256212924564975131e+00,0.000000000000000000e+00
9.800000000000000000e+02,1.084680588821677949e+00,0.000000000000000000e+00
9.810000000000000000e+02,7.338228727592399636e-01,0.000000000000000000e+00
9.820000000000000000e+02,4.194226833372246555e-01,0.000000000000000000e+00
9.830000000000000000e+02,-1.626367455417662422e-01,0.000000000000000000e+00
9.840000000000000000e+02,-5.327852067566053451e-01,0.000000000000000000e+00
9.850000000000000000e+02,-7.984047445998089243e-01,0.000000000000000000e+00
9.860000000000000000e+02,-7.774798714513548870e-01,0.000000000000000000e+00
9.870000000000000000e+02,-5.673534556339270285e-01,0.000000000000000000e+00
9.880000000000000000e+02,-6.982813386868242933e-01,0.000000000000000000e+00
9.890000000000000000e+02,-7.743850264662115457e-01,0.000000000000000000e+00
9.900000000000000000e+02,-4.750010165439496057e-01,0.000000000000000000e+00
9.910000000000000000e+02,-5.034309399418114284e-01,0.000000000000000000e+00
9.920000000000000000e+02,-5.208075444662125797e-01,0.000000000000000000e+00
9.930000000000000000e+02,-2.721905944906234942e-01,0.000000000000000000e+00
9.940000000000000000e+02,-4.845508040740016398e-01,0.000000000000000000e+00
9.950000000000000000e+02,-4.206999244138500127e-01,0.000000000000000000e+00
9.960000000000000000e+02,-2.253830146036883975e-01,0.000000000000000000e+00
9.970000000000000000e+02,-3.640228775976836473e-01,0.000000000000000000e+00
9.980000000000000000e+02,-5.452163049949263485e-01,0.000000000000000000e+00
9.990000000000000000e+02,-1.990195431028255191e-01,0.000000000000000000e+00
1.000000000000000000e+03,-3.693095819849188666e-01,0.000000000000000000e+00
1.001000000000000000e+03,-4.205775490443678932e-01,0.000000000000000000e+00
1.002000000000000000e+03,-3.803514086921114812e-01,0.000000000000000000e+00
1.003000000000000000e+03,-3.311586752367909892e-01,0.000000000000000000e+00
1.004000000000000000e+03,-4.411391795636397939e-01,0.000000000000000000e+00
1.005000000000000000e+03,-7.316348266280527091e-02,0.000000000000000000e+00
1.006000000000000000e+03,-1.131802999865528653e-01,0.000000000000000000e+00
1.007000000000000000e+03,1.110290915731474044e-02,0.000000000000000000e+00
1.008000000000000000e+03,-2.415583724633606211e-02,0.000000000000000000e+00
1.009000000000000000e+03,3.936254880290824265e-01,0.000000000000000000e+00
1.010000000000000000e+03,5.131795316753542391e-01,0.000000000000000000e+00
1.011000000000000000e+03,-4.067116699741037816e-02,0.000000000000000000e+00
1.012000000000000000e+03,-1.875036226926598548e-01,0.000000000000000000e+00
1.013000000000000000e+03,-5.129641934375868406e-02,0.000000000000000000e+00
1.014000000000000000e+03,-4.749602228268548498e-01,0.000000000000000000e+00
1.015000000000000000e+03,4.248717647789501117e-01,0.000000000000000000e+00
1.016000000000000000e+03,7.484291507216371819e-01,0.000000000000000000e+00
1.017000000000000000e+03,-5.241060357173166651e+00,0.000000000000000000e+00
1.018000000000000000e+03,-1.681797694773225382e+00,1.000000000000000000e+00
1.019000000000000000e+03,8.402474708423188776e-01,0.000000000000000000e+00
1.020000000000000000e+03,1.133503584034732725e+00,0.000000000000000000e+00
1.021000000000000000e+03,1.087501950267899975e+00,0.000000000000000000e+00
1.022000000000000000e+03,1.167268585279731319e+00,0.000000000000000000e+00
1.023000000000000000e+03,1.065405800375297529e+00,0.000000000000000000e+00
1.024000000000000000e+03,9.370815560829458546e-01,0.000000000000000000e+00
1.025000000000000000e+03,9.177200961353779718e-01,0.000000000000000000e+00
1.026000000000000000e+03,1.053529601002751948e+00,0.000000000000000000e+00
1.027000000000000000e+03,9.990327299363020996e-01,0.000000000000000000e+00
1.028000000000000000e+03,1.037680968167597806e+00,0.000000000000000000e+00
1.029000000000000000e+03,9.907168399784715973e-01,0.000000000000000000e+00
1.030000000000000000e+03,1.228860040695198164e+00,0.000000000000000000e+00
1.031000000000000000e+03,1.207777769987004257e+00,0.000000000000000000e+00
1.032000000000000000e+03,1.022680524257978174e+00,0.000000000000000000e+00
1.033000000000000000e+03,4.802474479959584763e-01,0.000000000000000000e+00
1.034000000000000000e+03,-5.203472113232231883e-02,0.000000000000000000e+00
1.035000000000000000e+03,-3.859783587501806612e-01,0.000000000000000000e+00
1.036000000000000000e+03,-7.754492085537910695e-01,0.000000000000000000e+00
1.037000000000000000e+03,-7.773882360465418362e-01,0.000000000000000000e+00
1.038000000000000000e+03,-8.009039629492943346e-01,0.000000000000000000e+00
1.039000000000000000e+03,-8.671565565244656604e-01,0.000000000000000000e+00
1.040000000000000000e+03,-6.575526397404765078e-01,0.000000000000000000e+00
1.041000000000000000e+03,-7.028039825810139529e-01,0.000000000000000000e+00
1.042000000000000000e+03,-5.329497228733145464e-01,0.000000000000000000e+00
1.043000000000000000e+03,-6.560609415463644067e-01,0.000000000000000000e+00
1.044000000000000000e+03,-5.254129502556632580e-01,0.000000000000000000e+00
1.045000000000000000e+03,-4.664881772292916451e-01,0.000000000000000000e+00
1.046000000000000000e+03,-3.422616285600457720e-01,0.000000000000000000e+00
1.047000000000000000e+03,-5.554487829565663004e-01,0.000000000000000000e+00
1.048000000000000000e+03,-5.987861371450834413e-01,0.000000000000000000e+00
1.049000000000000000e+03,-2.360439876248939528e-01,0.000000000000000000e+00
1.050000000000000000e+03,-4.219339730408397382e-01,0.000000000000000000e+00
1.051000000000000000e+03,-4.694948818910312793e-01,0.000000000000000000e+00
1.052000000000000000e+03,-2.832917650803637444e-01,0.000000000000000000e+00
1.053000000000000000e+03,-4.383401504339167198e-01,0.000000000000000000e+00
1.054000000000000000e+03,-3.177566658435680980e-01,0.000000000000000000e+00
1.055000000000000000e+03,-2.240648256651170123e-01,0.000000000000000000e+00
1.056000000000000000e+03,-2.564101509815719382e-01,0.000000000000000000e+00
1.057000000000000000e+03,-8.206993376017249209e-02,0.000000000000000000e+00
1.058000000000000000e+03,-1.878104444252748917e-01,0.000000000000000000e+00
1.059000000000000000e+03,6.204404011316441009e-02,0.000000000000000000e+00
1.060000000000000000e+03,1.342435088032097601e-01,0.000000000000000000e+00
1.061000000000000000e+03,3.841190494255919408e-01,0.000000000000000000e+00
1.062000000000000000e+03,6.788834186732782827e-01,0.000000000000000000e+00
1.063000000000000000e+03,3.145722681132380183e-01,0.000000000000000000e+00
1.064000000000000000e+03,2.942171963080086328e-01,0.000000000000000000e+00
1.065000000000000000e+03,-2.479877872990517984e-01,0.000000000000000000e+00
1.066000000000000000e+03,3.610520925335969356e-01,0.000000000000000000e+00
1.067000000000000000e+03,-4.400884344019520000e-01,0.000000000000000000e+00
1.068000000000000000e+03,8.335509037304597024e-01,0.000000000000000000e+00
1.069000000000000000e+03,-9.315469939035878610e-01,0.000000000000000000e+00
1.070000000000000000e+03,-4.328838295175506445e+00,0.000000000000000000e+00
1.071000000000000000e+03,-2.149576574302763943e-01,1.000000000000000000e+00
1.072000000000000000e+03,8.827731091357730042e-01,0.000000000000000000e+00
1.073000000000000000e+03,1.077595109419570152e+00,0.000000000000000000e+00
1.074000000000000000e+03,1.159510722983540632e+00,0.000000000000000000e+00
1.075000000000000000e+03,1.573568677174422170e+00,0.000000000000000000e+00
1.076000000000000000e+03,8.980147086874140649e-01,0.000000000000000000e+00
1.077000000000000000e+03,1.062037431353020533e+00,0.000000000000000000e+00
1.078000000000000000e+03,9.696181891862990510e-01,0.000000000000000000e+00
1.079000000000000000e+03,1.091895815644939205e+00,0.000000000000000000e+00
1.080000000000000000e+03,7.837098369875954429e-01,0.000000000000000000e+00
1.081000000000000000e+03,1.286681891181419513e+00,0.000000000000000000e+00
1.082000000000000000e+03,1.108749723933337483e+00,0.000000000000000000e+00
1.083000000000000000e+03,1.334154155318042934e+00,0.000000000000000000e+00
1.084000000000000000e+03,1.199631619035228969e+00,0.000000000000000000e+00
1.085000000000000000e+03,9.855621617577424720e-01,0.000000000000000000e+00
1.086000000000000000e+03,5.530844889002145548e-01,0.000000000000000000e+00
1.087000000000000000e+03,-8.033706752803088103e-02,0.000000000000000000e+00
1.088000000000000000e+03,-5.694158010012480009e-01,0.000000000000000000e+00
1.089000000000000000e+03,-6.605856146119941652e-01,0.000000000000000000e+00
1.090000000000000000e+03,-8.376937930085232020e-01,0.000000000000000000e+00
1.091000000000000000e+03,-5.726582212990143361e-01,0.000000000000000000e+00
1.092000000000000000e+03,-7.148816029471101174e-01,0.000000000000000000e+00
1.093000000000000000e+03,-5.481308576858734405e-01,0.000000000000000000e+00
1.094000000000000000e+03,-6.634133375537832888e-01,0.000000000000000000e+00
1.095000000000000000e+03,-5.484233420522142133e-01,0.000000000000000000e+00
1.096000000000000000e+03,-5.299979806987388242e-01,0.000000000000000000e+00
1.097000000000000000e+03,-3.277180013324306751e-01,0.000000000000000000e+00
1.098000000000000000e+03,-4.043102604429432700e-01,0.000000000000000000e+00
1.099000000000000000e+03,-4.000591245191811307e-01,0.000000000000000000e+00
1.100000000000000000e+03,-3.938124964692058527e-01,0.000000000000000000e+00
1.101000000000000000e+03,-3.450928599494575977e-01,0.000000000000000000e+00
1.102000000000000000e+03,-4.255514042136530617e-01,0.000000000000000000e+00
1.103000000000000000e+03,-4.656374000426373172e-01,0.000000000000000000e+00
1.104000000000000000e+03,-2.000358541690609726e-01,0.000000000000000000e+00
1.105000000000000000e+03,-4.182335758388863733e-01,0.000000000000000000e+00
1.106000000000000000e+03,-2.325644483038979971e-01,0.000000000000000000e+00
1.107000000000000000e+03,-2.320143938565295827e-01,0.000000000000000000e+00
1.108000000000000000e+03,-3.813734271105573281e-01,0.000000000000000000e+00
1.109000000000000000e+03,6.567292200800160969e-03,0.000000000000000000e+00
1.110000000000000000e+03,-1.330741034964779412e-01,0.000000000000000000e+00
1.111000000000000000e+03,-2.458849184500561946e-01,0.000000000000000000e+00
1.112000000000000000e+03,-1.629030976571122225e-01,0.000000000000000000e+00
1.113000000000000000e+03,-8.733715959185521516e-02,0.000000000000000000e+00
1.114000000000000000e+03,3.990193986146740035e-01,0.000000000000000000e+00
1.115000000000000000e+03,1.764830155796656697e-01,0.000000000000000000e+00
1.116000000000000000e+03,8.335373566268230450e-01,0.000000000000000000e+00
1.117000000000000000e+03,3.513719670057751515e-02,0.000000000000000000e+00
1.118000000000000000e+03,1.751336499111310480e-02,0.000000000000000000e+00
1.119000000000000000e+03,-4.817996385764690692e-01,0.000000000000000000e+00
1.120000000000000000e+03,1.616175262409765556e-01,0.000000000000000000e+00
1.121000000000000000e+03,-3.211449466479439629e-01,0.000000000000000000e+00
1.122000000000000000e+03,1.029161163298064396e+00,0.000000000000000000e+00
1.123000000000000000e+03,-3.385631786674100585e+00,0.000000000000000000e+00
1.124000000000000000e+03,-3.604506315172250730e+00,0.000000000000000000e+00
1.125000000000000000e+03,8.340501543888702018e-01,1.000000000000000000e+00
1.126000000000000000e+03,6.886221616715156868e-01,0.000000000000000000e+00
1.127000000000000000e+03,1.310870211354252080e+00,0.000000000000000000e+00
1.128000000000000000e+03,1.172641209472902846e+00,0.000000000000000000e+00
1.129000000000000000e+03,1.170222652715100731e+00,0.000000000000000000e+00
1.130000000000000000e+03,8.955629935472633196e-01,0.000000000000000000e+00
1.131000000000000000e+03,1.193248664152070759e+00,0.000000000000000000e+00
1.132000000000000000e+03,8.880773178573428961e-01,0.000000000000000000e+00
1.133000000000000000e+03,1.042703665186865303e+00,0.000000000000000000e+00
1.134000000000000000e+03,9.302291181393614883e-01,0.000000000000000000e+00
1.135000000000000000e+03,1.083519742240470096e+00,0.000000000000000000e+00
1.136000000000000000e+03,1.163325024137295216e+00,0.000000000000000000e+00
1.137000000000000000e+03,1.441538939594843249e+00,0.000000000000000000e+00
1.138000000000000000e+03,7.195070541874821757e-01,0.000000000000000000e+00
1.139000000000000000e+03,8.335836043691383646e-01,0.000000000000000000e+00
1.140000000000000000e+03,-7.239279333351864021e-02,0.000000000000000000e+00
1.141000000000000000e+03,-3.198786971980810967e-01,0.000000000000000000e+00
1.142000000000000000e+03,-7.293650056895930600e-01,0.000000000000000000e+00
1.143000000000000000e+03,-9.605177380287915900e-01,0.000000000000000000e+00
1.144000000000000000e+03,-8.295320288643203144e-01,0.000000000000000000e+00
1.145000000000000000e+03,-8.686722821776545755e-01,0.000000000000000000e+00
1.146000000000000000e+03,-8.474409640635943708e-01,0.000000000000000000e+00
1.147000000000000000e+03,-6.425385771552198921e-01,0.000000000000000000e+00
1.148000000000000000e+03,-8.614120018022928260e-01,0.000000000000000000e+00
1.149000000000000000e+03,-3.828824173936120068e-01,0.000000000000000000e+00
1.150000000000000000e+03,-7.909605613825146930e-01,0.000000000000000000e+00
1.151000000000000000e+03,-2.872267715669291621e-01,0.000000000000000000e+00
1.152000000000000000e+03,-6.695922422129139129e-01,0.000000000000000000e+00
1.153000000000000000e+03,-2.674400697116080527e-01,0.000000000000000000e+00
1.154000000000000000e+03,-6.026980461143849332e-01,0.000000000000000000e+00
1.155000000000000000e+03,-1.900908177431374357e-01,0.000000000000000000e+00
1.156000000000000000e+03,-4.451094023159171131e-01,0.000000000000000000e+00
1.157000000000000000e+03,-3.654841921117678027e-01,0.000000000000000000e+00
1.158000000000000000e+03,-5.423031964980469244e-01,0.000000000000000000e+00
1.159000000000000000e+03,-1.915760259115806829e-01,0.000000000000000000e+00
1.160000000000000000e+03,-5.271301722082083474e-01,0.000000000000000000e+00
1.161000000000000000e+03,-1.158662686463362290e-01,0.000000000000000000e+00
1.162000000000000000e+03,-3.805808230348098897e-01,0.000000000000000000e+00
1.163000000000000000e+03,-3.663517748051764444e-02,0.000000000000000000e+00
1.164000000000000000e+03,-3.817332582183953216e-01,0.000000000000000000e+00
1.165000000000000000e+03,5.925129282887742210e-02,0.000000000000000000e+00
1.166000000000000000e+03,-1.416132939529217150e-01,0.000000000000000000e+00
1.167000000000000000e+03,1.168085339134948691e-01,0.000000000000000000e+00
1.168000000000000000e+03,2.635712002009673594e-01,0.000000000000000000e+00
1.169000000000000000e+03,7.537838500303489786e-01,0.000000000000000000e+00
1.170000000000000000e+03,2.559884061137177036e-01,0.000000000000000000e+00
1.171000000000000000e+03,-3.260467710923296326e-03,0.000000000000000000e+00
1.172000000000000000e+03,-2.364060463816124447e-01,0.000000000000000000e+00
1.173000000000000000e+03,3.023103103234190403e-01,0.000000000000000000e+00
1.174000000000000000e+03,-4.465669398706890725e-01,0.000000000000000000e+00
1.175000000000000000e+03,1.342897406685582773e+00,0.000000000000000000e+00
1.176000000000000000e+03,-1.121611483396504294e+00,0.000000000000000000e+00
1.177000000000000000e+03,-5.113050451471672808e+00,0.000000000000000000e+00
1.178000000000000000e+03,-7.995227157056643275e-02,1.000000000000000000e+00
1.179000000000000000e+03,9.202856509113847006e-01,0.000000000000000000e+00
1.180000000000000000e+03,1.371509012309169773e+00,0.000000000000000000e+00
1.181000000000000000e+03,1.279137791088028386e+00,0.000000000000000000e+00
1.182000000000000000e+03,1.238681133211477547e+00,0.000000000000000000e+00
1.183000000000000000e+03,1.156785812966993010e+00,0.000000000000000000e+00
1.184000000000000000e+03,1.211190508320299619e+00,0.000000000000000000e+00
1.185000000000000000e+03,1.202628212697242516e+00,0.000000000000000000e+00
1.186000000000000000e+03,9.762952357914433943e-01,0.000000000000000000e+00
1.187000000000000000e+03,1.049892392308793942e+00,0.000000000000000000e+00
1.188000000000000000e+03,1.264163145107743524e+00,0.000000000000000000e+00
1.189000000000000000e+03,1.267363702505788892e+00,0.000000000000000000e+00
1.190000000000000000e+03,1.186905258113826411e+00,0.000000000000000000e+00
1.191000000000000000e+03,1.263730571885435472e+00,0.000000000000000000e+00
1.192000000000000000e+03,9.099734223229596353e-01,0.000000000000000000e+00
1.193000000000000000e+03,3.902903686253434423e-01,0.000000000000000000e+00
1.194000000000000000e+03,2.658467357688952537e-02,0.000000000000000000e+00
1.195000000000000000e+03,-4.255888995245833972e-01,0.000000000000000000e+00
1.196000000000000000e+03,-7.394945247492349383e-01,0.000000000000000000e+00
1.197000000000000000e+03,-8.888860168066687883e-01,0.000000000000000000e+00
1.198000000000000000e+03,-6.613238401821539547e-01,0.000000000000000000e+00
1.199000000000000000e+03,-6.669758328039654405e-01,0.000000000000000000e+00
1.200000000000000000e+03,-7.125994798359437388e-01,0.000000000000000000e+00
1.201000000000000000e+03,-6.533470128377565356e-01,0.000000000000000000e+00
1.202000000000000000e+03,-7.609897089401782555e-01,0.000000000000000000e+00
1.203000000000000000e+03,-4.261250573769100880e-01,0.000000000000000000e+00
1.204000000000000000e+03,-5.358351499480311642e-01,0.000000000000000000e+00
1.205000000000000000e+03,-5.970362780210891618e-01,0.000000000000000000e+00
1.206000000000000000e+03,-4.736666694534008015e-01,0.000000000000000000e+00
1.207000000000000000e+03,-1.817405683511951198e-01,0.000000000000000000e+00
1.208000000000000000e+03,-4.481891670788619719e-01,0.000000000000000000e+00
1.209000000000000000e+03,-4.630591666625626934e-01,0.000000000000000000e+00
1.210000000000000000e+03,-3.444929052346916154e-01,0.000000000000000000e+00
1.211000000000000000e+03,-3.893237462198339549e-01,0.000000000000000000e+00
1.212000000000000000e+03,-4.867968864199414547e-01,0.000000000000000000e+00
1.213000000000000000e+03,-2.055086859452407155e-01,0.000000000000000000e+00
1.214000000000000000e+03,-4.106795654257468509e-01,0.000000000000000000e+00
1.215000000000000000e+03,-8.652091713698900621e-02,0.000000000000000000e+00
1.216000000000000000e+03,-2.704175623406834261e-01,0.000000000000000000e+00
1.217000000000000000e+03,-2.419633077278154354e-01,0.000000000000000000e+00
1.218000000000000000e+03,-3.516079733916639000e-02,0.000000000000000000e+00
1.219000000000000000e+03,4.091373194732514373e-01,0.000000000000000000e+00
1.220000000000000000e+03,-5.744574705809928072e-02,0.000000000000000000e+00
1.221000000000000000e+03,6.549506414821488764e-01,0.000000000000000000e+00
1.222000000000000000e+03,7.536297101183739300e-02,0.000000000000000000e+00
1.223000000000000000e+03,-2.723349939284525623e-01,0.000000000000000000e+00
1.224000000000000000e+03,-3.441390556701897085e-01,0.000000000000000000e+00
1.225000000000000000e+03,4.456254570493457107e-02,0.000000000000000000e+00
1.226000000000000000e+03,-5.817607055585515274e-01,0.000000000000000000e+00
1.227000000000000000e+03,1.602170359332390381e+00,0.000000000000000000e+00
1.228000000000000000e+03,-3.152129917820488902e+00,0.000000000000000000e+00
1.229000000000000000e+03,-4.170917008586424224e+00,0.000000000000000000e+00
1.230000000000000000e+03,5.383145868540342160e-01,1.000000000000000000e+00
1.231000000000000000e+03,7.269981997573250476e-01,0.000000000000000000e+00
1.232000000000000000e+03,1.424342084732569402e+00,0.000000000000000000e+00
1.233000000000000000e+03,1.119406258201404825e+00,0.000000000000000000e+00
1.234000000000000000e+03,1.335469523189427354e+00,0.000000000000000000e+00
1.235000000000000000e+03,1.039313455205281400e+00,0.000000000000000000e+00
1.236000000000000000e+03,1.020417533795160869e+00,0.000000000000000000e+00
1.237000000000000000e+03,7.996340024005791358e-01,0.000000000000000000e+00
1.238000000000000000e+03,1.246333590708507133e+00,0.000000000000000000e+00
1.239000000000000000e+03,9.651794258962235196e-01,0.000000000000000000e+00
1.240000000000000000e+03,1.124994145025041581e+00,0.000000000000000000e+00
1.241000000000000000e+03,1.180827531869901081e+00,0.000000000000000000e+00
1.242000000000000000e+03,1.335934534443946831e+00,0.000000000000000000e+00
1.243000000000000000e+03,9.635976535690655709e-01,0.000000000000000000e+00
1.244000000000000000e+03,8.291866560652052520e-01,0.000000000000000000e+00
1.245000000000000000e+03,3.402003740141965604e-01,0.000000000000000000e+00
1.246000000000000000e+03,-1.864310212687449453e-01,0.000000000000000000e+00
1.247000000000000000e+03,-6.266900939841171247e-01,0.000000000000000000e+00
1.248000000000000000e+03,-8.573813344904120948e-01,0.000000000000000000e+00
1.249000000000000000e+03,-6.783699490788925868e-01,0.000000000000000000e+00
1.250000000000000000e+03,-5.356236259290950708e-01,0.000000000000000000e+00
1.251000000000000000e+03,-7.183517573656980071e-01,0.000000000000000000e+00
1.252000000000000000e+03,-7.195431595163582772e-01,0.000000000000000000e+00
1.253000000000000000e+03,-6.617878724383869926e-01,0.000000000000000000e+00
1.254000000000000000e+03,-6.215585126156067952e-01,0.000000000000000000e+00
1.255000000000000000e+03,-3.591940124913903798e-01,0.000000000000000000e+00
1.256000000000000000e+03,-3.881612578013947656e-01,0.000000000000000000e+00
1.257000000000000000e+03,-4.381559138971256595e-01,0.000000000000000000e+00
1.258000000000000000e+03,-4.266157485596472898e-01,0.000000000000000000e+00
1.259000000000000000e+03,-3.033198593339610505e-01,0.000000000000000000e+00
1.260000000000000000e+03,-3.821646007639464826e-01,0.000000000000000000e+00
1.261000000000000000e+03,-5.511059493646900398e-01,0.000000000000000000e+00
1.262000000000000000e+03,-2.287324419435039224e-01,0.000000000000000000e+00
1.263000000000000000e+03,-3.655574110926103071e-01,0.000000000000000000e+00
1.264000000000000000e+03,-3.750917964768329949e-01,0.000000000000000000e+00
1.265000000000000000e+03,-2.828559105171729593e-01,0.000000000000000000e+00
1.266000000000000000e+03,-2.493120802850846696e-01,0.000000000000000000e+00
1.267000000000000000e+03,-5.610111050823694129e-02,0.000000000000000000e+00
1.268000000000000000e+03,-3.504687031755729376e-01,0.000000000000000000e+00
1.269000000000000000e+03,-8.820121694496470266e-02,0.000000000000000000e+00
1.270000000000000000e+03,-1.118415316780266289e-01,0.000000000000000000e+00
1.271000000000000000e+03,4.668086734577744923e-02,0.000000000000000000e+00
1.272000000000000000e+03,2.844066630526487227e-01,0.000000000000000000e+00
1.273000000000000000e+03,6.823849570727201774e-01,0.000000000000000000e+00
1.274000000000000000e+03,9.351117587554229338e-02,0.000000000000000000e+00
1.275000000000000000e+03,7.238744163378187102e-02,0.000000000000000000e+00
1.276000000000000000e+03,-3.859099335632071304e-01,0.000000000000000000e+00
1.277000000000000000e+03,-1.072382799196704151e-01,0.000000000000000000e+00
1.278000000000000000e+03,-4.044998526440617415e-01,0.000000000000000000e+00
1.279000000000000000e+03,1.543404401848571750e+00,0.000000000000000000e+00
1.280000000000000000e+03,-3.308059037963633653e+00,0.000000000000000000e+00
1.281000000000000000e+03,-3.697387761756948610e+00,0.000000000000000000e+00
1.282000000000000000e+03,6.962269024566940523e-01,1.000000000000000000e+00
1.283000000000000000e+03,8.681650216703222789e-01,0.000000000000000000e+00
1.284000000000000000e+03,1.291079521876681957e+00,0.000000000000000000e+00
1.285000000000000000e+03,1.174458754745121736e+00,0.000000000000000000e+00
1.286000000000000000e+03,1.398140918676471944e+00,0.000000000000000000e+00
1.287000000000000000e+03,5.945650481160553724e-01,0.000000000000000000e+00
1.288000000000000000e+03,1.320988545910085854e+00,0.000000000000000000e+00
1.289000000000000000e+03,1.081923199635239419e+00,0.000000000000000000e+00
1.290000000000000000e+03,9.283347563494750432e-01,0.000000000000000000e+00
1.291000000000000000e+03,8.932745707267781832e-01,0.000000000000000000e+00
1.292000000000000000e+03,1.229182797358614243e+00,0.000000000000000000e+00
1.293000000000000000e+03,1.226297297442957790e+00,0.000000000000000000e+00
1.294000000000000000e+03,1.111823369318112098e+00,0.000000000000000000e+00
1.295000000000000000e+03,9.712646663265577240e-01,0.000000000000000000e+00
1.296000000000000000e+03,7.702439501339948258e-01,0.000000000000000000e+00
1.297000000000000000e+03,1.482460137420185120e-01,0.000000000000000000e+00
1.298000000000000000e+03,-2.851834324712714808e-01,0.000000000000000000e+00
1.299000000000000000e+03,-6.338946550418380621e-01,0.000000000000000000e+00
1.300000000000000000e+03,-6.815526298352163614e-01,0.000000000000000000e+00
1.301000000000000000e+03,-8.132798033670505244e-01,0.000000000000000000e+00
1.302000000000000000e+03,-9.607244786841466766e-01,0.000000000000000000e+00
1.303000000000000000e+03,-7.478853866921763016e-01,0.000000000000000000e+00
1.304000000000000000e+03,-3.805452452949076858e-01,0.000000000000000000e+00
1.305000000000000000e+03,-5.975606598126494973e-01,0.000000000000000000e+00
1.306000000000000000e+03,-6.403544291337567307e-01,0.000000000000000000e+00
1.307000000000000000e+03,-5.132729644487025178e-01,0.000000000000000000e+00
1.308000000000000000e+03,-2.949708225081729140e-01,0.000000000000000000e+00
1.309000000000000000e+03,-5.951466904255677814e-01,0.000000000000000000e+00
1.310000000000000000e+03,-3.768299802387419239e-01,0.000000000000000000e+00
1.311000000000000000e+03,-2.593599522571350402e-01,0.000000000000000000e+00
1.312000000000000000e+03,-3.843107053519566052e-01,0.000000000000000000e+00
1.313000000000000000e+03,-4.377028123926287595e-01,0.000000000000000000e+00
1.314000000000000000e+03,-2.878430779951524077e-01,0.000000000000000000e+00
1.315000000000000000e+03,-3.887776005588101103e-01,0.000000000000000000e+00
1.316000000000000000e+03,-2.801418314228824036e-01,0.000000000000000000e+00
1.317000000000000000e+03,-3.405162822010839307e-01,0.000000000000000000e+00
1.318000000000000000e+03,-1.498318027214081416e-01,0.000000000000000000e+00
1.319000000000000000e+03,-2.447644464016792698e-01,0.000000000000000000e+00
1.320000000000000000e+03,-1.576005475390363508e-01,0.000000000000000000e+00
1.321000000000000000e+03,-7.262982713222271292e-02,0.000000000000000000e+00
1.322000000000000000e+03,-8.618374833145872604e-02,0.000000000000000000e+00
1.323000000000000000e+03,-1.623655203848687889e-01,0.000000000000000000e+00
1.324000000000000000e+03,2.235314624108243053e-01,0.000000000000000000e+00
1.325000000000000000e+03,-1.694213725512224156e-01,0.000000000000000000e+00
1.326000000000000000e+03,4.250275544135401762e-01,0.000000000000000000e+00
1.327000000000000000e+03,3.689261279871873245e-01,0.000000000000000000e+00
1.328000000000000000e+03,7.084984718712115104e-01,0.000000000000000000e+00
1.329000000000000000e+03,2.404776446005407187e-01,0.000000000000000000e+00
1.330000000000000000e+03,4.099303360099695870e-02,0.000000000000000000e+00
1.331000000000000000e+03,-2.518993131936334562e-01,0.000000000000000000e+00
1.332000000000000000e+03,-1.427518692739735973e-01,0.000000000000000000e+00
1.333000000000000000e+03,2.377758272509686577e-01,0.000000000000000000e+00
1.334000000000000000e+03,1.047762232841084273e+00,0.000000000000000000e+00
1.335000000000000000e+03,-4.855640205862229664e+00,0.000000000000000000e+00
1.336000000000000000e+03,-2.023225190874154755e+00,1.000000000000000000e+00
1.337000000000000000e+03,1.023052430966038484e+00,0.000000000000000000e+00
1.338000000000000000e+03,1.119716672898016352e+00,0.000000000000000000e+00
1.339000000000000000e+03,1.226405195710584817e+00,0.000000000000000000e+00
1.340000000000000000e+03,1.038353727320916686e+00,0.000000000000000000e+00
1.341000000000000000e+03,1.192753458743674555e+00,0.000000000000000000e+00
1.342000000000000000e+03,1.257918667919305733e+00,0.000000000000000000e+00
1.343000000000000000e+03,1.162335863356104060e+00,0.000000000000000000e+00
1.344000000000000000e+03,1.069667640071186199e+00,0.000000000000000000e+00
1.345000000000000000e+03,7.633819176205001167e-01,0.000000000000000000e+00
1.346000000000000000e+03,1.163793361100231794e+00,0.000000000000000000e+00
1.347000000000000000e+03,1.452424085993377467e+00,0.000000000000000000e+00
1.348000000000000000e+03,1.058410469265746556e+00,0.000000000000000000e+00
1.349000000000000000e+03,1.245482676072024564e+00,0.000000000000000000e+00
1.350000000000000000e+03,9.257039332250524000e-01,0.000000000000000000e+00
1.351000000000000000e+03,6.491190247658531476e-01,0.000000000000000000e+00
1.352000000000000000e+03,2.724649566146343793e-01,0.000000000000000000e+00
1.353000000000000000e+03,-4.121969169974811220e-01,0.000000000000000000e+00
1.354000000000000000e+03,-8.491847659857436614e-01,0.000000000000000000e+00
1.355000000000000000e+03,-9.385395013570764222e-01,0.000000000000000000e+00
1.356000000000000000e+03,-5.182482660264593477e-01,0.000000000000000000e+00
1.357000000000000000e+03,-8.934478772517451262e-01,0.000000000000000000e+00
1.358000000000000000e+03,-7.457413678796526169e-01,0.000000000000000000e+00
1.359000000000000000e+03,-7.423313387778590622e-01,0.000000000000000000e+00
1.360000000000000000e+03,-6.017833837844988043e-01,0.000000000000000000e+00
1.361000000000000000e+03,-5.583926392671922923e-01,0.000000000000000000e+00
1.362000000000000000e+03,-5.881701831114792833e-01,0.000000000000000000e+00
1.363000000000000000e+03,-3.294669883420044409e-01,0.000000000000000000e+00
1.364000000000000000e+03,-3.077355642883616293e-01,0.000000000000000000e+00
1.365000000000000000e+03,-4.998169010068886919e-01,0.000000000000000000e+00
1.366000000000000000e+03,-4.015919252552868079e-01,0.000000000000000000e+00
1.367000000000000000e+03,-3.487952585352383506e-01,0.000000000000000000e+00
1.368000000000000000e+03,-3.847595507245099578e-01,0.000000000000000000e+00
1.369000000000000000e+03,-5.314857977558223867e-01,0.000000000000000000e+00
1.370000000000000000e+03,-2.582376940616735173e-01,0.000000000000000000e+00
1.371000000000000000e+03,-3.898140927649341725e-01,0.000000000000000000e+00
1.372000000000000000e+03,-2.961589531774353468e-01,0.000000000000000000e+00
1.373000000000000000e+03,-3.630650519651651975e-01,0.000000000000000000e+00
1.374000000000000000e+03,-1.058192526947401013e-01,0.000000000000000000e+00
1.375000000000000000e+03,-2.470565477469344740e-01,0.000000000000000000e+00
1.376000000000000000e+03,-5.994947475835865625e-02,0.000000000000000000e+00
1.377000000000000000e+03,-3.995699210353911290e-01,0.000000000000000000e+00
1.378000000000000000e+03,4.246663135934950059e-04,0.000000000000000000e+00
1.379000000000000000e+03,-1.394587161534782127e-01,0.000000000000000000e+00
1.380000000000000000e+03,1.618058801534784097e-01,0.000000000000000000e+00
1.381000000000000000e+03,6.355994434317768782e-02,0.000000000000000000e+00
1.382000000000000000e+03,4.177330142593557172e-01,0.000000000000000000e+00
1.383000000000000000e+03,5.770215726253198341e-01,0.000000000000000000e+00
1.384000000000000000e+03,-9.587287380367657402e-03,0.000000000000000000e+00
1.385000000000000000e+03,-2.929867514405113949e-01,0.000000000000000000e+00
1.386000000000000000e+03,-5.704810345120135684e-02,0.000000000000000000e+00
1.387000000000000000e+03,-5.996207553031560611e-01,0.000000000000000000e+00
1.388000000000000000e+03,9.958203962605236548e-01,0.000000000000000000e+00
1.389000000000000000e+03,-9.009999338818551751e-01,0.000000000000000000e+00
1.390000000000000000e+03,-5.228539057702511705e+00,0.000000000000000000e+00
1.391000000000000000e+03,-3.385307863951918517e-01,1.000000000000000000e+00
1.392000000000000000e+03,7.930041798218430138e-01,0.000000000000000000e+00
1.393000000000000000e+03,1.432725596575770810e+00,0.000000000000000000e+00
1.394000000000000000e+03,9.118897631832970641e-01,0.000000000000000000e+00
1.395000000000000000e+03,1.282935685909275314e+00,0.000000000000000000e+00
1.396000000000000000e+03,1.101833935935447650e+00,0.000000000000000000e+00
1.397000000000000000e+03,1.076165421865924232e+00,0.000000000000000000e+00
1.398000000000000000e+03,8.875093389676099731e-01,0.000000000000000000e+00
1.399000000000000000e+03,1.101183066363928154e+00,0.000000000000000000e+00
1.400000000000000000e+03,9.582158471362269836e-01,0.000000000000000000e+00
1.401000000000000000e+03,1.008472979821495530e+00,0.000000000000000000e+00
1.402000000000000000e+03,1.111817616484044091e+00,0.000000000000000000e+00
1.403000000000000000e+03,1.383019747800384947e+00,0.000000000000000000e+00
1.404000000000000000e+03,1.000039265210255657e+00,0.000000000000000000e+00
1.405000000000000000e+03,9.522613046273517012e-01,0.000000000000000000e+00
1.406000000000000000e+03,4.088426204302921807e-01,0.000000000000000000e+00
1.407000000000000000e+03,-1.076293527491027462e-02,0.000000000000000000e+00
1.408000000000000000e+03,-5.410029702173332344e-01,0.000000000000000000e+00
1.409000000000000000e+03,-6.463207989563370948e-01,0.000000000000000000e+00
1.410000000000000000e+03,-6.269990785921725207e-01,0.000000000000000000e+00
1.411000000000000000e+03,-8.086808529608952023e-01,0.000000000000000000e+00
1.412000000000000000e+03,-7.371130937088143931e-01,0.000000000000000000e+00
1.413000000000000000e+03,-7.713068467360275626e-01,0.000000000000000000e+00
1.414000000000000000e+03,-7.240717928550340909e-01,0.000000000000000000e+00
1.415000000000000000e+03,-3.087628960680700585e-01,0.000000000000000000e+00
1.416000000000000000e+03,-6.860855980514022345e-01,0.000000000000000000e+00
1.417000000000000000e+03,-4.748598943647830972e-01,0.000000000000000000e+00
1.418000000000000000e+03,-3.795239886436023169e-01,0.000000000000000000e+00
1.419000000000000000e+03,-4.159326073455194006e-01,0.000000000000000000e+00
1.420000000000000000e+03,-5.859018222058717251e-01,0.000000000000000000e+00
1.421000000000000000e+03,-5.189816633371379107e-01,0.000000000000000000e+00
1.422000000000000000e+03,-2.523750282248615404e-02,0.000000000000000000e+00
1.423000000000000000e+03,-4.124562808948972759e-01,0.000000000000000000e+00
1.424000000000000000e+03,-4.345856192371010396e-01,0.000000000000000000e+00
1.425000000000000000e+03,-4.394794744661734143e-01,0.000000000000000000e+00
1.426000000000000000e+03,-3.273269471991511192e-01,0.000000000000000000e+00
1.427000000000000000e+03,-4.774333965955649961e-01,0.000000000000000000e+00
1.428000000000000000e+03,-2.242891627605459182e-01,0.000000000000000000e+00
1.429000000000000000e+03,1.319598345884248798e-02,0.000000000000000000e+00
1.430000000000000000e+03,-2.826307776443208186e-01,0.000000000000000000e+00
1.431000000000000000e+03,-7.599479801065478490e-02,0.000000000000000000e+00
1.432000000000000000e+03,-1.868212137292000335e-02,0.000000000000000000e+00
1.433000000000000000e+03,1.487244494857730415e-01,0.000000000000000000e+00
1.434000000000000000e+03,2.604505882974673600e-02,0.000000000000000000e+00
1.435000000000000000e+03,4.702095679439594611e-01,0.000000000000000000e+00
1.436000000000000000e+03,5.928456219763842405e-01,0.000000000000000000e+00
1.437000000000000000e+03,2.594518612488304343e-02,0.000000000000000000e+00
1.438000000000000000e+03,-2.199481845734255481e-01,0.000000000000000000e+00
1.439000000000000000e+03,-3.596483265543967689e-02,0.000000000000000000e+00
1.440000000000000000e+03,-2.892229277057631331e-01,0.000000000000000000e+00
1.441000000000000000e+03,4.101962619527534382e-01,0.000000000000000000e+00
1.442000000000000000e+03,3.180807520870219118e-01,0.000000000000000000e+00
1.443000000000000000e+03,-5.321774523965047798e+00,0.000000000000000000e+00
1.444000000000000000e+03,-1.482749488968441609e+00,1.000000000000000000e+00
1.445000000000000000e+03,1.012723774598440762e+00,0.000000000000000000e+00
1.446000000000000000e+03,1.206396166555410598e+00,0.000000000000000000e+00
1.447000000000000000e+03,1.188508438985318216e+00,0.000000000000000000e+00
1.448000000000000000e+03,1.183695627636657255e+00,0.000000000000000000e+00
1.449000000000000000e+03,1.113220570825769418e+00,0.000000000000000000e+00
1.450000000000000000e+03,1.053994971863447594e+00,0.000000000000000000e+00
1.451000000000000000e+03,1.115430480022439941e+00,0.000000000000000000e+00
1.452000000000000000e+03,9.267256144514143257e-01,0.000000000000000000e+00
1.453000000000000000e+03,1.101901098328728734e+00,0.000000000000000000e+00
1.454000000000000000e+03,1.010356437364360760e+00,0.000000000000000000e+00
1.455000000000000000e+03,1.007458082282739475e+00,0.000000000000000000e+00
1.456000000000000000e+03,1.241127058676001704e+00,0.000000000000000000e+00
1.457000000000000000e+03,1.155864266509301297e+00,0.000000000000000000e+00
1.458000000000000000e+03,1.037431971106324458e+00,0.000000000000000000e+00
1.459000000000000000e+03,4.866764536494823656e-01,0.000000000000000000e+00
1.460000000000000000e+03,-4.532849226047527824e-02,0.000000000000000000e+00
1.461000000000000000e+03,-4.004904559849553070e-01,0.000000000000000000e+00
1.462000000000000000e+03,-6.404708573362279944e-01,0.000000000000000000e+00
1.463000000000000000e+03,-7.626700893361562095e-01,0.000000000000000000e+00
1.464000000000000000e+03,-6.514035951098438026e-01,0.000000000000000000e+00
1.465000000000000000e+03,-6.976988618596090541e-01,0.000000000000000000e+00
1.466000000000000000e+03,-5.610276502692584932e-01,0.000000000000000000e+00
1.467000000000000000e+03,-7.371952180236551744e-01,0.000000000000000000e+00
1.468000000000000000e+03,-3.112770079831302383e-01,0.000000000000000000e+00
1.469000000000000000e+03,-4.511331830601796322e-01,0.000000000000000000e+00
1.470000000000000000e+03,-5.092940747057115303e-01,0.000000000000000000e+00
1.471000000000000000e+03,-3.708337102098116511e-01,0.000000000000000000e+00
1.472000000000000000e+03,-1.156973477715425025e-01,0.000000000000000000e+00
1.473000000000000000e+03,-3.450490748712992106e-01,0.000000000000000000e+00
1.474000000000000000e+03,-4.268376382006454084e-01,0.000000000000000000e+00
1.475000000000000000e+03,-4.240213925087761848e-01,0.000000000000000000e+00
1.476000000000000000e+03,-1.338943981545294981e-01,0.000000000000000000e+00
1.477000000000000000e+03,-3.427671770189030798e-01,0.000000000000000000e+00
1.478000000000000000e+03,-2.768230697242542448e-01,0.000000000000000000e+00
1.479000000000000000e+03,-2.389091350762393151e-01,0.000000000000000000e+00
1.480000000000000000e+03,-1.860244643392212627e-01,0.000000000000000000e+00
1.481000000000000000e+03,-1.787877413737492815e-01,0.000000000000000000e+00
1.482000000000000000e+03,-3.339426962209715577e-01,0.000000000000000000e+00
1.483000000000000000e+03,1.626101945689325048e-02,0.000000000000000000e+00
1.484000000000000000e+03,-1.592621938761955847e-01,0.000000000000000000e+00
1.485000000000000000e+03,-5.847951310835038802e-02,0.000000000000000000e+00
1.486000000000000000e+03,-5.864959449533765912e-02,0.000000000000000000e+00
1.487000000000000000e+03,3.592683152596044538e-01,0.000000000000000000e+00
1.488000000000000000e+03,4.691707153762229576e-01,0.000000000000000000e+00
1.489000000000000000e+03,7.177042916075013768e-01,0.000000000000000000e+00
1.490000000000000000e+03,-4.474935957467580938e-02,0.000000000000000000e+00
1.491000000000000000e+03,-1.719485749998361512e-01,0.000000000000000000e+00
1.492000000000000000e+03,-1.396028036313433918e-01,0.000000000000000000e+00
1.493000000000000000e+03,-5.992238650951133699e-02,0.000000000000000000e+00
1.494000000000000000e+03,1.904131737560617876e-01,0.000000000000000000e+00
1.495000000000000000e+03,4.494982688879188837e-01,0.000000000000000000e+00
1.496000000000000000e+03,-4.925917462450287054e+00,0.000000000000000000e+00
1.497000000000000000e+03,-1.569198275946604770e+00,1.000000000000000000e+00
1.498000000000000000e+03,9.321044494639419975e-01,0.000000000000000000e+00
1.499000000000000000e+03,1.184163081022911790e+00,0.000000000000000000e+00
1.500000000000000000e+03,9.490546421886218997e-01,0.000000000000000000e+00
1.501000000000000000e+03,1.131966403740988669e+00,0.000000000000000000e+00
1.502000000000000000e+03,1.137871781585980679e+00,0.000000000000000000e+00
1.503000000000000000e+03,9.362875017299836511e-01,0.000000000000000000e+00
1.504000000000000000e+03,9.587049502633236964e-01,0.000000000000000000e+00
1.505000000000000000e+03,7.769439154988031504e-01,0.000000000000000000e+00
1.506000000000000000e+03,9.215799598508072066e-01,0.000000000000000000e+00
1.507000000000000000e+03,1.024434464569190961e+00,0.000000000000000000e+00
1.508000000000000000e+03,1.008619387742076379e+00,0.000000000000000000e+00
1.509000000000000000e+03,1.201490809642281166e+00,0.000000000000000000e+00
1.510000000000000000e+03,1.207960218464680491e+00,0.000000000000000000e+00
1.511000000000000000e+03,9.070940005965157926e-01,0.000000000000000000e+00
1.512000000000000000e+03,4.856054092896802676e-01,0.000000000000000000e+00
1.513000000000000000e+03,5.034974168236595882e-02,0.000000000000000000e+00
1.514000000000000000e+03,-5.689519041900470420e-01,0.000000000000000000e+00
1.515000000000000000e+03,-6.411388169932757952e-01,0.000000000000000000e+00
1.516000000000000000e+03,-8.473068203050742042e-01,0.000000000000000000e+00
1.517000000000000000e+03,-8.662489383885180194e-01,0.000000000000000000e+00
1.518000000000000000e+03,-7.573147274045985977e-01,0.000000000000000000e+00
1.519000000000000000e+03,-8.322330379826025082e-01,0.000000000000000000e+00
1.520000000000000000e+03,-8.819070889889581988e-01,0.000000000000000000e+00
1.521000000000000000e+03,-4.936925010218949361e-01,0.000000000000000000e+00
1.522000000000000000e+03,-5.483027016315560331e-01,0.000000000000000000e+00
1.523000000000000000e+03,-6.076473363839982600e-01,0.000000000000000000e+00
1.524000000000000000e+03,-4.884995730445197415e-01,0.000000000000000000e+00
1.525000000000000000e+03,-5.663388055636243701e-01,0.000000000000000000e+00
1.526000000000000000e+03,-3.323095816325625784e-01,0.000000000000000000e+00
1.527000000000000000e+03,-3.064491927402694382e-01,0.000000000000000000e+00
1.528000000000000000e+03,-5.504753194208141798e-01,0.000000000000000000e+00
1.529000000000000000e+03,-4.786321982711224665e-01,0.000000000000000000e+00
1.530000000000000000e+03,-3.022746527482514933e-01,0.000000000000000000e+00
1.531000000000000000e+03,-3.773120431385809659e-01,0.000000000000000000e+00
1.532000000000000000e+03,-1.021342426908521256e-01,0.000000000000000000e+00
1.533000000000000000e+03,-5.926338542178728463e-01,0.000000000000000000e+00
1.534000000000000000e+03,-8.228059594683351241e-02,0.000000000000000000e+00
1.535000000000000000e+03,-1.296645554645913245e-01,0.000000000000000000e+00
1.536000000000000000e+03,-1.251804134766180132e-01,0.000000000000000000e+00
1.537000000000000000e+03,-2.910192847824789597e-01,0.000000000000000000e+00
1.538000000000000000e+03,-1.074459402854928136e-01,0.000000000000000000e+00
1.539000000000000000e+03,-3.177895396547774504e-02,0.000000000000000000e+00
1.540000000000000000e+03,2.522879282358038155e-01,0.000000000000000000e+00
1.541000000000000000e+03,2.156737836977623279e-01,0.000000000000000000e+00
1.542000000000000000e+03,5.979630606326269415e-01,0.000000000000000000e+00
1.543000000000000000e+03,3.815226607804314551e-01,0.000000000000000000e+00
1.544000000000000000e+03,2.400416396318816592e-01,0.000000000000000000e+00
1.545000000000000000e+03,-3.284043391144442769e-01,0.000000000000000000e+00
1.546000000000000000e+03,1.184315532725682407e-01,0.000000000000000000e+00
1.547000000000000000e+03,-8.639793175561406857e-02,0.000000000000000000e+00
1.548000000000000000e+03,1.766493171971965093e-01,0.000000000000000000e+00
1.549000000000000000e+03,4.067258540696074842e-01,0.000000000000000000e+00
1.550000000000000000e+03,-5.131217746257105361e+00,0.000000000000000000e+00
1.551000000000000000e+03,-1.152537012506819725e+00,1.000000000000000000e+00
1.552000000000000000e+03,8.506332138628560635e-01,0.000000000000000000e+00
1.553000000000000000e+03,1.350190297919789062e+00,0.000000000000000000e+00
1.554000000000000000e+03,1.344438562860539976e+00,0.000000000000000000e+00
1.555000000000000000e+03,1.022641732870174902e+00,0.000000000000000000e+00
1.556000000000000000e+03,1.282952337513240781e+00,0.000000000000000000e+00
1.557000000000000000e+03,1.285326974564487523e+00,0.000000000000000000e+00
1.558000000000000000e+03,8.321094946464265840e-01,0.000000000000000000e+00
1.559000000000000000e+03,8.807837166392878947e-01,0.000000000000000000e+00
1.560000000000000000e+03,1.189928379061564012e+00,0.000000000000000000e+00
1.561000000000000000e+03,1.101654608702663518e+00,0.000000000000000000e+00
1.562000000000000000e+03,1.126265402459134535e+00,0.000000000000000000e+00
1.563000000000000000e+03,1.093297947231980816e+00,0.000000000000000000e+00
1.564000000000000000e+03,1.201790680204525064e+00,0.000000000000000000e+00
1.565000000000000000e+03,1.158046376523938159e+00,0.000000000000000000e+00
1.566000000000000000e+03,7.189125934554002617e-01,0.000000000000000000e+00
1.567000000000000000e+03,1.356747495421741813e-02,0.000000000000000000e+00
1.568000000000000000e+03,-4.452871761141646290e-01,0.000000000000000000e+00
1.569000000000000000e+03,-4.523529680223309923e-01,0.000000000000000000e+00
1.570000000000000000e+03,-1.011537495087591942e+00,0.000000000000000000e+00
1.571000000000000000e+03,-7.887662047033421331e-01,0.000000000000000000e+00
1.572000000000000000e+03,-6.679048174475347155e-01,0.000000000000000000e+00
1.573000000000000000e+03,-7.887036202844861510e-01,0.000000000000000000e+00
1.574000000000000000e+03,-7.766944635697362598e-01,0.000000000000000000e+00
1.575000000000000000e+03,-3.960735260048404704e-01,0.000000000000000000e+00
1.576000000000000000e+03,-5.385573775540014596e-01,0.000000000000000000e+00
1.577000000000000000e+03,-3.268744530675642412e-01,0.000000000000000000e+00
1.578000000000000000e+03,-4.461027277795751034e-01,0.000000000000000000e+00
1.579000000000000000e+03,-4.129133695230706724e-01,0.000000000000000000e+00
1.580000000000000000e+03,-4.970425401643054908e-01,0.000000000000000000e+00
1.581000000000000000e+03,-3.778951085924750486e-02,0.000000000000000000e+00
1.582000000000000000e+03,-4.805726575216113794e-01,0.000000000000000000e+00
1.583000000000000000e+03,-2.978072729978326616e-01,0.000000000000000000e+00
1.584000000000000000e+03,-3.371963990122693877e-01,0.000000000000000000e+00
1.585000000000000000e+03,-2.713228144683688670e-01,0.000000000000000000e+00
1.586000000000000000e+03,-5.342517317401414001e-01,0.000000000000000000e+00
