timestamp,ecg_measurement,qrs_detected
0.000000000000000000e+00,2.954085552211427323e-01,0.000000000000000000e+00
1.000000000000000000e+00,4.184237685871479706e-01,0.000000000000000000e+00
2.000000000000000000e+00,4.218854805841217304e-01,0.000000000000000000e+00
3.000000000000000000e+00,-1.436580819930106667e-01,0.000000000000000000e+00
4.000000000000000000e+00,5.661587201457125851e-02,0.000000000000000000e+00
5.000000000000000000e+00,-2.115585948918924653e-01,0.000000000000000000e+00
6.000000000000000000e+00,-1.839329776549092355e-01,0.000000000000000000e+00
7.000000000000000000e+00,-2.267962668383120273e-01,0.000000000000000000e+00
8.000000000000000000e+00,-6.642759730015337927e-02,0.000000000000000000e+00
9.000000000000000000e+00,-2.192758054197609385e-01,0.000000000000000000e+00
1.000000000000000000e+01,-2.308991964766448357e-01,0.000000000000000000e+00
1.100000000000000000e+01,9.024377081053522875e-01,0.000000000000000000e+00
1.200000000000000000e+01,5.808293834910561948e+00,0.000000000000000000e+00
1.300000000000000000e+01,1.198332663917625052e+00,1.000000000000000000e+00
1.400000000000000000e+01,-1.812481327678732157e+00,0.000000000000000000e+00
1.500000000000000000e+01,-7.899938378691766516e-01,0.000000000000000000e+00
1.600000000000000000e+01,-1.320035670728552546e+00,0.000000000000000000e+00
1.700000000000000000e+01,-9.102244290662823145e-01,0.000000000000000000e+00
1.800000000000000000e+01,-1.025508957807285126e+00,0.000000000000000000e+00
1.900000000000000000e+01,-4.372422430754743794e-01,0.000000000000000000e+00
2.000000000000000000e+01,-6.445961233659895928e-01,0.000000000000000000e+00
2.100000000000000000e+01,-4.945834995662178879e-01,0.000000000000000000e+00
2.200000000000000000e+01,-5.956166614988755992e-01,0.000000000000000000e+00
2.300000000000000000e+01,-2.750992703378125626e-01,0.000000000000000000e+00
2.400000000000000000e+01,-2.419651044071748081e-01,0.000000000000000000e+00
2.500000000000000000e+01,-5.900091382945811536e-02,0.000000000000000000e+00
2.600000000000000000e+01,-1.133518818640005532e-01,0.000000000000000000e+00
2.700000000000000000e+01,8.971452261324613930e-02,0.000000000000000000e+00
2.800000000000000000e+01,1.434882728151767872e-01,0.000000000000000000e+00
2.900000000000000000e+01,2.753698959862633799e-01,0.000000000000000000e+00
3.000000000000000000e+01,1.583818252347461986e-01,0.000000000000000000e+00
3.100000000000000000e+01,-2.970027687117099760e-02,0.000000000000000000e+00
3.200000000000000000e+01,-1.546591840769907522e-01,0.000000000000000000e+00
3.300000000000000000e+01,-4.197173516018597172e-02,0.000000000000000000e+00
3.400000000000000000e+01,-1.428838085189489959e-01,0.000000000000000000e+00
3.500000000000000000e+01,-1.046158405367660221e-01,0.000000000000000000e+00
3.600000000000000000e+01,-2.310410371474406754e-01,0.000000000000000000e+00
3.700000000000000000e+01,-1.054346078902599348e-01,0.000000000000000000e+00
3.800000000000000000e+01,-8.097667671128629119e-02,0.000000000000000000e+00
3.900000000000000000e+01,-1.884248698758487009e-02,0.000000000000000000e+00
4.000000000000000000e+01,1.114864890960638316e-01,0.000000000000000000e+00
4.100000000000000000e+01,7.266629220461438832e-02,0.000000000000000000e+00
4.200000000000000000e+01,1.880933415376483953e-01,0.000000000000000000e+00
4.300000000000000000e+01,2.799480849594552234e-01,0.000000000000000000e+00
4.400000000000000000e+01,3.635332427827075441e-01,0.000000000000000000e+00
4.500000000000000000e+01,9.706546874962980465e-02,0.000000000000000000e+00
4.600000000000000000e+01,5.096369499457509104e-03,0.000000000000000000e+00
4.700000000000000000e+01,7.919031889537925251e-02,0.000000000000000000e+00
4.800000000000000000e+01,-1.724818146074165448e-01,0.000000000000000000e+00
4.900000000000000000e+01,-2.794063116298490246e-01,0.000000000000000000e+00
5.000000000000000000e+01,3.176502873819297967e-02,0.000000000000000000e+00
5.100000000000000000e+01,-1.979132897586519113e-01,0.000000000000000000e+00
5.200000000000000000e+01,-2.860808520153575868e-03,0.000000000000000000e+00
5.300000000000000000e+01,-2.960041594083911431e-01,0.000000000000000000e+00
5.400000000000000000e+01,2.939850436894650976e+00,0.000000000000000000e+00
5.500000000000000000e+01,5.332830908079249532e+00,0.000000000000000000e+00
5.600000000000000000e+01,-1.172846268186694241e+00,1.000000000000000000e+00
5.700000000000000000e+01,-1.165609550319951504e+00,0.000000000000000000e+00
5.800000000000000000e+01,-1.126748273574095238e+00,0.000000000000000000e+00
5.900000000000000000e+01,-7.205438811448638958e-01,0.000000000000000000e+00
6.000000000000000000e+01,-9.079681579812624026e-01,0.000000000000000000e+00
6.100000000000000000e+01,-5.898534912614140646e-01,0.000000000000000000e+00
6.200000000000000000e+01,-5.960390599874344497e-01,0.000000000000000000e+00
6.300000000000000000e+01,-5.770296106835183236e-01,0.000000000000000000e+00
6.400000000000000000e+01,-4.289324941075640107e-01,0.000000000000000000e+00
6.500000000000000000e+01,-2.033126572652932951e-01,0.000000000000000000e+00
6.600000000000000000e+01,-3.135154180274031810e-01,0.000000000000000000e+00
6.700000000000000000e+01,-5.223358410574060334e-02,0.000000000000000000e+00
6.800000000000000000e+01,-1.106485801633157046e-01,0.000000000000000000e+00
6.900000000000000000e+01,3.970185463804666581e-02,0.000000000000000000e+00
7.000000000000000000e+01,2.877642405052869279e-01,0.000000000000000000e+00
7.100000000000000000e+01,1.871638276383842669e-01,0.000000000000000000e+00
7.200000000000000000e+01,2.425063608941136484e-01,0.000000000000000000e+00
7.300000000000000000e+01,1.106511645444384073e-01,0.000000000000000000e+00
7.400000000000000000e+01,-4.297699736764376555e-02,0.000000000000000000e+00
7.500000000000000000e+01,-1.609157988419009783e-02,0.000000000000000000e+00
7.600000000000000000e+01,-2.013015940572297768e-01,0.000000000000000000e+00
7.700000000000000000e+01,-9.165347820673114265e-02,0.000000000000000000e+00
7.800000000000000000e+01,-2.207825979227049651e-01,0.000000000000000000e+00
7.900000000000000000e+01,-9.859080010854986975e-02,0.000000000000000000e+00
8.000000000000000000e+01,-1.424224470403449294e-01,0.000000000000000000e+00
8.100000000000000000e+01,5.793054410684853744e-02,0.000000000000000000e+00
8.200000000000000000e+01,6.134801911244575773e-02,0.000000000000000000e+00
8.300000000000000000e+01,6.424391243807839325e-02,0.000000000000000000e+00
8.400000000000000000e+01,-4.305761440347077168e-02,0.000000000000000000e+00
8.500000000000000000e+01,4.200721531835852063e-01,0.000000000000000000e+00
8.600000000000000000e+01,1.395424541760236226e-01,0.000000000000000000e+00
8.700000000000000000e+01,2.153252174350292203e-01,0.000000000000000000e+00
8.800000000000000000e+01,7.824872864630792735e-02,0.000000000000000000e+00
8.900000000000000000e+01,-4.838775595173409189e-02,0.000000000000000000e+00
9.000000000000000000e+01,-2.587653710854283529e-01,0.000000000000000000e+00
9.100000000000000000e+01,-1.534762878857579005e-01,0.000000000000000000e+00
9.200000000000000000e+01,-2.511131975350995860e-01,0.000000000000000000e+00
9.300000000000000000e+01,-2.317065733190584731e-01,0.000000000000000000e+00
9.400000000000000000e+01,-2.383158087363389244e-01,0.000000000000000000e+00
9.500000000000000000e+01,2.864775845891127069e-03,0.000000000000000000e+00
9.600000000000000000e+01,-1.474972176954942593e-01,0.000000000000000000e+00
9.700000000000000000e+01,4.013139871748921728e+00,0.000000000000000000e+00
9.800000000000000000e+01,4.233672362093266806e+00,0.000000000000000000e+00
9.900000000000000000e+01,-1.809394487428027887e+00,1.000000000000000000e+00
1.000000000000000000e+02,-8.851273047355676660e-01,0.000000000000000000e+00
1.010000000000000000e+02,-1.200739922469481025e+00,0.000000000000000000e+00
1.020000000000000000e+02,-9.866363833698491570e-01,0.000000000000000000e+00
1.030000000000000000e+02,-9.767297112517059343e-01,0.000000000000000000e+00
1.040000000000000000e+02,-6.778106196391585625e-01,0.000000000000000000e+00
1.050000000000000000e+02,-7.648505435288383003e-01,0.000000000000000000e+00
1.060000000000000000e+02,-3.025058506138105230e-01,0.000000000000000000e+00
1.070000000000000000e+02,-5.214203688349902110e-01,0.000000000000000000e+00
1.080000000000000000e+02,-2.724123268269059706e-01,0.000000000000000000e+00
1.090000000000000000e+02,-2.972368864512434650e-01,0.000000000000000000e+00
1.100000000000000000e+02,-1.477693472469269187e-01,0.000000000000000000e+00
1.110000000000000000e+02,-8.973184153430815990e-02,0.000000000000000000e+00
1.120000000000000000e+02,1.729283077254008261e-01,0.000000000000000000e+00
1.130000000000000000e+02,2.349423782877684830e-01,0.000000000000000000e+00
1.140000000000000000e+02,2.268254041614686800e-01,0.000000000000000000e+00
1.150000000000000000e+02,2.645663048455464406e-01,0.000000000000000000e+00
1.160000000000000000e+02,8.047429102458780736e-02,0.000000000000000000e+00
1.170000000000000000e+02,2.166535873885007575e-03,0.000000000000000000e+00
1.180000000000000000e+02,5.121997422088085672e-02,0.000000000000000000e+00
1.190000000000000000e+02,-2.054666674121845560e-01,0.000000000000000000e+00
1.200000000000000000e+02,-5.849864915202589860e-02,0.000000000000000000e+00
1.210000000000000000e+02,-1.005906972319847298e-01,0.000000000000000000e+00
1.220000000000000000e+02,-8.870028905815835821e-03,0.000000000000000000e+00
1.230000000000000000e+02,-1.732611080747045451e-01,0.000000000000000000e+00
1.240000000000000000e+02,1.322089629810563882e-01,0.000000000000000000e+00
1.250000000000000000e+02,-4.618410912365055604e-02,0.000000000000000000e+00
1.260000000000000000e+02,2.646435265673043880e-01,0.000000000000000000e+00
1.270000000000000000e+02,5.118889392931229992e-02,0.000000000000000000e+00
1.280000000000000000e+02,3.731629561149912844e-01,0.000000000000000000e+00
1.290000000000000000e+02,2.748572978345630302e-01,0.000000000000000000e+00
1.300000000000000000e+02,3.686846008654035001e-01,0.000000000000000000e+00
1.310000000000000000e+02,-5.659589797543811834e-02,0.000000000000000000e+00
1.320000000000000000e+02,1.968599891478357011e-01,0.000000000000000000e+00
1.330000000000000000e+02,-9.052756892037062963e-02,0.000000000000000000e+00
1.340000000000000000e+02,1.127643825106482145e-02,0.000000000000000000e+00
1.350000000000000000e+02,-2.783572144285552663e-01,0.000000000000000000e+00
1.360000000000000000e+02,8.631951142090926732e-02,0.000000000000000000e+00
1.370000000000000000e+02,-2.358454192136248129e-01,0.000000000000000000e+00
1.380000000000000000e+02,-2.771016744496946835e-02,0.000000000000000000e+00
1.390000000000000000e+02,6.388699748117075972e-01,0.000000000000000000e+00
1.400000000000000000e+02,5.700730904735967997e+00,0.000000000000000000e+00
1.410000000000000000e+02,2.082348933554179382e+00,1.000000000000000000e+00
1.420000000000000000e+02,-1.907824370887475807e+00,0.000000000000000000e+00
1.430000000000000000e+02,-6.981600580380920018e-01,0.000000000000000000e+00
1.440000000000000000e+02,-1.247602919134917165e+00,0.000000000000000000e+00
1.450000000000000000e+02,-8.123264861374632773e-01,0.000000000000000000e+00
1.460000000000000000e+02,-1.024778662941269403e+00,0.000000000000000000e+00
1.470000000000000000e+02,-5.316354848808314548e-01,0.000000000000000000e+00
1.480000000000000000e+02,-7.747306343036164389e-01,0.000000000000000000e+00
1.490000000000000000e+02,-5.522750010712996760e-01,0.000000000000000000e+00
1.500000000000000000e+02,-4.683122428469733145e-01,0.000000000000000000e+00
1.510000000000000000e+02,-3.521843761476683987e-01,0.000000000000000000e+00
1.520000000000000000e+02,-4.495866929132560363e-01,0.000000000000000000e+00
1.530000000000000000e+02,1.784488941377014928e-02,0.000000000000000000e+00
1.540000000000000000e+02,-8.733852873357074442e-02,0.000000000000000000e+00
1.550000000000000000e+02,1.072267661755657055e-02,0.000000000000000000e+00
1.560000000000000000e+02,2.317133445440729966e-01,0.000000000000000000e+00
1.570000000000000000e+02,2.529818286858708798e-01,0.000000000000000000e+00
1.580000000000000000e+02,1.646653173704227813e-01,0.000000000000000000e+00
1.590000000000000000e+02,6.962644216866788194e-02,0.000000000000000000e+00
1.600000000000000000e+02,-1.764244922953230876e-01,0.000000000000000000e+00
1.610000000000000000e+02,8.212433553218018156e-02,0.000000000000000000e+00
1.620000000000000000e+02,-2.820994970539327795e-01,0.000000000000000000e+00
1.630000000000000000e+02,-6.906983826861703979e-02,0.000000000000000000e+00
1.640000000000000000e+02,-1.703832236105346232e-01,0.000000000000000000e+00
1.650000000000000000e+02,-3.479127729626147608e-02,0.000000000000000000e+00
1.660000000000000000e+02,-3.850818991492588328e-02,0.000000000000000000e+00
1.670000000000000000e+02,4.123405715217570711e-02,0.000000000000000000e+00
1.680000000000000000e+02,6.170189963431593067e-02,0.000000000000000000e+00
1.690000000000000000e+02,9.595490807314915882e-02,0.000000000000000000e+00
1.700000000000000000e+02,5.796533355949899657e-02,0.000000000000000000e+00
1.710000000000000000e+02,3.119847060229523628e-01,0.000000000000000000e+00
1.720000000000000000e+02,3.718007514671300973e-01,0.000000000000000000e+00
1.730000000000000000e+02,2.136413946935868391e-01,0.000000000000000000e+00
1.740000000000000000e+02,-1.613968097257176271e-01,0.000000000000000000e+00
1.750000000000000000e+02,4.446081441380727445e-02,0.000000000000000000e+00
1.760000000000000000e+02,-2.059969045574787105e-01,0.000000000000000000e+00
1.770000000000000000e+02,-1.655028066435431655e-01,0.000000000000000000e+00
1.780000000000000000e+02,-2.258829916616031663e-01,0.000000000000000000e+00
1.790000000000000000e+02,-4.122382388394334879e-02,0.000000000000000000e+00
1.800000000000000000e+02,-1.550875339076998038e-01,0.000000000000000000e+00
1.810000000000000000e+02,-2.203522877412650849e-01,0.000000000000000000e+00
1.820000000000000000e+02,1.844867464202067486e+00,0.000000000000000000e+00
1.830000000000000000e+02,6.006800805616582473e+00,0.000000000000000000e+00
1.840000000000000000e+02,-2.126733596299085205e-02,1.000000000000000000e+00
1.850000000000000000e+02,-1.389091605891357162e+00,0.000000000000000000e+00
1.860000000000000000e+02,-1.041080950436267694e+00,0.000000000000000000e+00
1.870000000000000000e+02,-1.113583912846421331e+00,0.000000000000000000e+00
1.880000000000000000e+02,-8.071463228643316334e-01,0.000000000000000000e+00
1.890000000000000000e+02,-9.426961925384454988e-01,0.000000000000000000e+00
1.900000000000000000e+02,-7.248960798799248817e-01,0.000000000000000000e+00
1.910000000000000000e+02,-5.604711441489674817e-01,0.000000000000000000e+00
1.920000000000000000e+02,-5.873662243156702045e-01,0.000000000000000000e+00
1.930000000000000000e+02,-4.348491413153631746e-01,0.000000000000000000e+00
1.940000000000000000e+02,-4.282524973485362096e-01,0.000000000000000000e+00
1.950000000000000000e+02,-8.438735545316804199e-02,0.000000000000000000e+00
1.960000000000000000e+02,-2.900095689607609106e-01,0.000000000000000000e+00
1.970000000000000000e+02,-1.270972153335560642e-02,0.000000000000000000e+00
1.980000000000000000e+02,6.973853484653222412e-02,0.000000000000000000e+00
1.990000000000000000e+02,9.022141801766174474e-02,0.000000000000000000e+00
2.000000000000000000e+02,1.789294381090534292e-01,0.000000000000000000e+00
2.010000000000000000e+02,8.821588245279714247e-02,0.000000000000000000e+00
2.020000000000000000e+02,1.170188464089917148e-02,0.000000000000000000e+00
2.030000000000000000e+02,-1.359576539254566951e-01,0.000000000000000000e+00
2.040000000000000000e+02,-1.756626302803245276e-01,0.000000000000000000e+00
2.050000000000000000e+02,-6.317068126783914606e-02,0.000000000000000000e+00
2.060000000000000000e+02,-2.670800308987844041e-01,0.000000000000000000e+00
2.070000000000000000e+02,-2.059063113710210904e-02,0.000000000000000000e+00
2.080000000000000000e+02,-9.541084815070180469e-02,0.000000000000000000e+00
2.090000000000000000e+02,1.035162667132278891e-01,0.000000000000000000e+00
2.100000000000000000e+02,7.538225729836463274e-02,0.000000000000000000e+00
2.110000000000000000e+02,3.866047447665699188e-02,0.000000000000000000e+00
2.120000000000000000e+02,2.161690426216766880e-01,0.000000000000000000e+00
2.130000000000000000e+02,3.341453161992365417e-01,0.000000000000000000e+00
2.140000000000000000e+02,2.387232008566084751e-01,0.000000000000000000e+00
2.150000000000000000e+02,5.196124570702105316e-01,0.000000000000000000e+00
2.160000000000000000e+02,4.986374477706992034e-03,0.000000000000000000e+00
2.170000000000000000e+02,6.301793080728709806e-02,0.000000000000000000e+00
2.180000000000000000e+02,-2.520738142116888195e-02,0.000000000000000000e+00
2.190000000000000000e+02,-1.012720619822611440e-01,0.000000000000000000e+00
2.200000000000000000e+02,-1.201597082615063067e-01,0.000000000000000000e+00
2.210000000000000000e+02,1.608897925203078838e-01,0.000000000000000000e+00
2.220000000000000000e+02,-3.205949449499117532e-01,0.000000000000000000e+00
2.230000000000000000e+02,2.695697913528415784e-02,0.000000000000000000e+00
2.240000000000000000e+02,1.040857183478995085e-01,0.000000000000000000e+00
2.250000000000000000e+02,4.856071522291818710e+00,0.000000000000000000e+00
2.260000000000000000e+02,3.278567770564707384e+00,1.000000000000000000e+00
2.270000000000000000e+02,-1.949267569336382122e+00,0.000000000000000000e+00
2.280000000000000000e+02,-7.399390027228487376e-01,0.000000000000000000e+00
2.290000000000000000e+02,-1.293295655610539274e+00,0.000000000000000000e+00
2.300000000000000000e+02,-7.512933646942592247e-01,0.000000000000000000e+00
2.310000000000000000e+02,-8.703607853629088398e-01,0.000000000000000000e+00
2.320000000000000000e+02,-5.310874568083769898e-01,0.000000000000000000e+00
2.330000000000000000e+02,-7.524349466119431007e-01,0.000000000000000000e+00
2.340000000000000000e+02,-4.047949879237768278e-01,0.000000000000000000e+00
2.350000000000000000e+02,-4.859115206615802762e-01,0.000000000000000000e+00
2.360000000000000000e+02,-2.374271328210112719e-01,0.000000000000000000e+00
2.370000000000000000e+02,-3.384168963344350578e-01,0.000000000000000000e+00
2.380000000000000000e+02,5.355904710045011376e-03,0.000000000000000000e+00
2.390000000000000000e+02,-1.677149514002566899e-01,0.000000000000000000e+00
2.400000000000000000e+02,3.379793077526602185e-01,0.000000000000000000e+00
2.410000000000000000e+02,-7.812152523262272386e-02,0.000000000000000000e+00
2.420000000000000000e+02,3.090251470250686694e-01,0.000000000000000000e+00
2.430000000000000000e+02,1.026386892336397377e-01,0.000000000000000000e+00
2.440000000000000000e+02,1.665175290297527255e-01,0.000000000000000000e+00
2.450000000000000000e+02,-1.717404418924435017e-01,0.000000000000000000e+00
2.460000000000000000e+02,-9.762900559323460514e-02,0.000000000000000000e+00
2.470000000000000000e+02,-3.244669701582262311e-01,0.000000000000000000e+00
2.480000000000000000e+02,-1.993855804887907368e-01,0.000000000000000000e+00
2.490000000000000000e+02,-1.688235362643570325e-01,0.000000000000000000e+00
2.500000000000000000e+02,1.199654248172035143e-01,0.000000000000000000e+00
2.510000000000000000e+02,-9.958442064684670803e-02,0.000000000000000000e+00
2.520000000000000000e+02,1.689553857758759603e-01,0.000000000000000000e+00
2.530000000000000000e+02,1.665133894066376241e-01,0.000000000000000000e+00
2.540000000000000000e+02,1.551242502274336188e-01,0.000000000000000000e+00
2.550000000000000000e+02,4.815023105604540610e-02,0.000000000000000000e+00
2.560000000000000000e+02,2.804700180899477036e-01,0.000000000000000000e+00
2.570000000000000000e+02,2.110557426619499855e-01,0.000000000000000000e+00
2.580000000000000000e+02,9.820562941799158840e-02,0.000000000000000000e+00
2.590000000000000000e+02,7.520468998535209670e-02,0.000000000000000000e+00
2.600000000000000000e+02,2.310362527010898503e-01,0.000000000000000000e+00
2.610000000000000000e+02,-2.990693197016835447e-01,0.000000000000000000e+00
2.620000000000000000e+02,1.299733314120051983e-02,0.000000000000000000e+00
2.630000000000000000e+02,-1.826271049435348182e-01,0.000000000000000000e+00
2.640000000000000000e+02,-1.673151315893775179e-02,0.000000000000000000e+00
2.650000000000000000e+02,-3.557834425188223793e-01,0.000000000000000000e+00
2.660000000000000000e+02,6.828594797946661854e-02,0.000000000000000000e+00
2.670000000000000000e+02,6.891769316744416063e-01,0.000000000000000000e+00
2.680000000000000000e+02,5.667540067528953784e+00,0.000000000000000000e+00
2.690000000000000000e+02,1.434249262786611689e+00,1.000000000000000000e+00
2.700000000000000000e+02,-1.982897171680750414e+00,0.000000000000000000e+00
2.710000000000000000e+02,-7.436743414823251408e-01,0.000000000000000000e+00
2.720000000000000000e+02,-1.417566930526333646e+00,0.000000000000000000e+00
2.730000000000000000e+02,-7.869566344194073304e-01,0.000000000000000000e+00
2.740000000000000000e+02,-9.086822396613400965e-01,0.000000000000000000e+00
2.750000000000000000e+02,-7.436804705090428458e-01,0.000000000000000000e+00
2.760000000000000000e+02,-7.402952687098549589e-01,0.000000000000000000e+00
2.770000000000000000e+02,-4.350680765968639729e-01,0.000000000000000000e+00
2.780000000000000000e+02,-6.407053902045685145e-01,0.000000000000000000e+00
2.790000000000000000e+02,-2.148158606009875904e-01,0.000000000000000000e+00
2.800000000000000000e+02,-2.975447359735461372e-01,0.000000000000000000e+00
2.810000000000000000e+02,-1.350129719988194810e-01,0.000000000000000000e+00
2.820000000000000000e+02,-9.129727306183771374e-02,0.000000000000000000e+00
2.830000000000000000e+02,1.715279595032725146e-01,0.000000000000000000e+00
2.840000000000000000e+02,-1.808528556178756741e-02,0.000000000000000000e+00
2.850000000000000000e+02,3.341297505982038785e-01,0.000000000000000000e+00
2.860000000000000000e+02,4.829261941759413479e-02,0.000000000000000000e+00
2.870000000000000000e+02,3.670706347696819916e-02,0.000000000000000000e+00
2.880000000000000000e+02,6.535802468821871880e-02,0.000000000000000000e+00
2.890000000000000000e+02,-1.489837864394716604e-01,0.000000000000000000e+00
2.900000000000000000e+02,-1.669396050004623433e-01,0.000000000000000000e+00
2.910000000000000000e+02,-1.357794633590089506e-01,0.000000000000000000e+00
2.920000000000000000e+02,-2.131983642840996063e-01,0.000000000000000000e+00
2.930000000000000000e+02,-5.964469173047264039e-02,0.000000000000000000e+00
2.940000000000000000e+02,6.916515829538089077e-02,0.000000000000000000e+00
2.950000000000000000e+02,-4.624701743018460459e-02,0.000000000000000000e+00
2.960000000000000000e+02,1.199283485919204612e-01,0.000000000000000000e+00
2.970000000000000000e+02,1.713767451978142620e-01,0.000000000000000000e+00
2.980000000000000000e+02,9.000264127120544133e-02,0.000000000000000000e+00
2.990000000000000000e+02,3.534383151270779622e-01,0.000000000000000000e+00
3.000000000000000000e+02,3.519428683325408480e-01,0.000000000000000000e+00
3.010000000000000000e+02,1.967827682208068696e-01,0.000000000000000000e+00
3.020000000000000000e+02,3.108246987345575710e-02,0.000000000000000000e+00
3.030000000000000000e+02,-2.469681446834254973e-03,0.000000000000000000e+00
3.040000000000000000e+02,-1.090109172557418155e-01,0.000000000000000000e+00
3.050000000000000000e+02,-1.608871814334241201e-01,0.000000000000000000e+00
3.060000000000000000e+02,-2.581833293349927727e-01,0.000000000000000000e+00
3.070000000000000000e+02,2.946188445686911614e-02,0.000000000000000000e+00
3.080000000000000000e+02,7.598858798669155985e-03,0.000000000000000000e+00
3.090000000000000000e+02,-2.446291016244107885e-01,0.000000000000000000e+00
3.100000000000000000e+02,1.939299506183769228e+00,0.000000000000000000e+00
3.110000000000000000e+02,6.008459318867107157e+00,0.000000000000000000e+00
3.120000000000000000e+02,-2.951705773478482953e-01,1.000000000000000000e+00
3.130000000000000000e+02,-1.580337957830839635e+00,0.000000000000000000e+00
3.140000000000000000e+02,-8.209558152207651061e-01,0.000000000000000000e+00
3.150000000000000000e+02,-1.071683063272248049e+00,0.000000000000000000e+00
3.160000000000000000e+02,-9.409010102429243849e-01,0.000000000000000000e+00
3.170000000000000000e+02,-7.144689288858634413e-01,0.000000000000000000e+00
3.180000000000000000e+02,-7.659879974381308410e-01,0.000000000000000000e+00
3.190000000000000000e+02,-7.432262446451435300e-01,0.000000000000000000e+00
3.200000000000000000e+02,-3.699637738366389761e-01,0.000000000000000000e+00
3.210000000000000000e+02,-4.579324627168710471e-01,0.000000000000000000e+00
3.220000000000000000e+02,-3.068812319655080945e-01,0.000000000000000000e+00
3.230000000000000000e+02,-3.607651734748936745e-01,0.000000000000000000e+00
3.240000000000000000e+02,-3.206343509315726092e-02,0.000000000000000000e+00
3.250000000000000000e+02,1.093730484270589026e-01,0.000000000000000000e+00
3.260000000000000000e+02,6.329749920555426124e-02,0.000000000000000000e+00
3.270000000000000000e+02,2.567207166216002312e-01,0.000000000000000000e+00
3.280000000000000000e+02,2.390549364116105191e-01,0.000000000000000000e+00
3.290000000000000000e+02,2.304460705741735727e-01,0.000000000000000000e+00
3.300000000000000000e+02,7.970459325774301163e-02,0.000000000000000000e+00
3.310000000000000000e+02,-1.432264178933075581e-02,0.000000000000000000e+00
3.320000000000000000e+02,-2.414799020946693797e-02,0.000000000000000000e+00
3.330000000000000000e+02,4.285326125397389413e-03,0.000000000000000000e+00
3.340000000000000000e+02,-1.091866778612894523e-01,0.000000000000000000e+00
3.350000000000000000e+02,-6.837194363313538192e-02,0.000000000000000000e+00
3.360000000000000000e+02,1.643779301795055686e-02,0.000000000000000000e+00
3.370000000000000000e+02,7.172920109143042511e-02,0.000000000000000000e+00
3.380000000000000000e+02,-2.609908807116071219e-02,0.000000000000000000e+00
3.390000000000000000e+02,2.404982794058354856e-01,0.000000000000000000e+00
3.400000000000000000e+02,7.408673998035396335e-02,0.000000000000000000e+00
3.410000000000000000e+02,3.785210561195004320e-01,0.000000000000000000e+00
3.420000000000000000e+02,4.453447949625811697e-01,0.000000000000000000e+00
3.430000000000000000e+02,3.231140510961789114e-01,0.000000000000000000e+00
3.440000000000000000e+02,5.597369852915756033e-02,0.000000000000000000e+00
3.450000000000000000e+02,1.920855127596702572e-01,0.000000000000000000e+00
3.460000000000000000e+02,-1.894715119019794725e-01,0.000000000000000000e+00
3.470000000000000000e+02,-1.063973648514294906e-01,0.000000000000000000e+00
3.480000000000000000e+02,-2.051931222489059015e-01,0.000000000000000000e+00
3.490000000000000000e+02,-1.660660263461574693e-01,0.000000000000000000e+00
3.500000000000000000e+02,-2.376493541969384726e-01,0.000000000000000000e+00
3.510000000000000000e+02,1.038037668134544345e-01,0.000000000000000000e+00
3.520000000000000000e+02,-2.277064640708037491e-01,0.000000000000000000e+00
3.530000000000000000e+02,4.666955129405750746e+00,0.000000000000000000e+00
3.540000000000000000e+02,3.919124158051110474e+00,0.000000000000000000e+00
3.550000000000000000e+02,-1.981550853680933866e+00,1.000000000000000000e+00
3.560000000000000000e+02,-8.681019924768133000e-01,0.000000000000000000e+00
3.570000000000000000e+02,-1.337493405895322951e+00,0.000000000000000000e+00
3.580000000000000000e+02,-7.874902157612292397e-01,0.000000000000000000e+00
3.590000000000000000e+02,-1.101391330057794660e+00,0.000000000000000000e+00
3.600000000000000000e+02,-6.066618733093627203e-01,0.000000000000000000e+00
3.610000000000000000e+02,-8.616515459006495181e-01,0.000000000000000000e+00
3.620000000000000000e+02,-5.863532877857380310e-01,0.000000000000000000e+00
3.630000000000000000e+02,-7.082627169847951487e-01,0.000000000000000000e+00
3.640000000000000000e+02,-4.024552205614042033e-01,0.000000000000000000e+00
3.650000000000000000e+02,-3.968891647840954717e-01,0.000000000000000000e+00
3.660000000000000000e+02,-1.263549703779881517e-01,0.000000000000000000e+00
3.670000000000000000e+02,-3.291721523825624218e-01,0.000000000000000000e+00
3.680000000000000000e+02,2.583936447629695543e-01,0.000000000000000000e+00
3.690000000000000000e+02,-2.200952975042782048e-02,0.000000000000000000e+00
3.700000000000000000e+02,3.405991234723615979e-01,0.000000000000000000e+00
3.710000000000000000e+02,-2.043874043889304382e-02,0.000000000000000000e+00
3.720000000000000000e+02,9.047883625004546349e-02,0.000000000000000000e+00
3.730000000000000000e+02,-3.246097123936312039e-03,0.000000000000000000e+00
3.740000000000000000e+02,-1.335554885484564469e-01,0.000000000000000000e+00
3.750000000000000000e+02,-1.529712756882939950e-01,0.000000000000000000e+00
3.760000000000000000e+02,-1.837116716304981190e-01,0.000000000000000000e+00
3.770000000000000000e+02,-1.938348241803934113e-01,0.000000000000000000e+00
3.780000000000000000e+02,-7.939044836954474438e-02,0.000000000000000000e+00
3.790000000000000000e+02,-2.901915831159555120e-02,0.000000000000000000e+00
3.800000000000000000e+02,2.506471315192615457e-01,0.000000000000000000e+00
3.810000000000000000e+02,6.398906764166485510e-03,0.000000000000000000e+00
3.820000000000000000e+02,1.372719309633069484e-01,0.000000000000000000e+00
3.830000000000000000e+02,1.073506614314235497e-01,0.000000000000000000e+00
3.840000000000000000e+02,3.772397677688794082e-01,0.000000000000000000e+00
3.850000000000000000e+02,2.727690545274713552e-01,0.000000000000000000e+00
3.860000000000000000e+02,5.080041646938925348e-01,0.000000000000000000e+00
3.870000000000000000e+02,-1.128997162432254925e-01,0.000000000000000000e+00
3.880000000000000000e+02,2.485500578020378992e-02,0.000000000000000000e+00
3.890000000000000000e+02,-2.045805605912907055e-01,0.000000000000000000e+00
3.900000000000000000e+02,3.339781875421439505e-02,0.000000000000000000e+00
3.910000000000000000e+02,-1.894454905860562255e-01,0.000000000000000000e+00
3.920000000000000000e+02,9.059505372478315888e-02,0.000000000000000000e+00
3.930000000000000000e+02,-1.545885294609998795e-01,0.000000000000000000e+00
3.940000000000000000e+02,-1.305884485424819719e-01,0.000000000000000000e+00
3.950000000000000000e+02,1.858356652662492170e+00,0.000000000000000000e+00
3.960000000000000000e+02,5.580048446754726221e+00,0.000000000000000000e+00
3.970000000000000000e+02,-1.847900434063084463e-01,1.000000000000000000e+00
3.980000000000000000e+02,-1.466078799357116269e+00,0.000000000000000000e+00
3.990000000000000000e+02,-8.880134548374315484e-01,0.000000000000000000e+00
4.000000000000000000e+02,-9.747333663037309748e-01,0.000000000000000000e+00
4.010000000000000000e+02,-6.574721503721311366e-01,0.000000000000000000e+00
4.020000000000000000e+02,-7.447907577215626684e-01,0.000000000000000000e+00
4.030000000000000000e+02,-6.525969882937047162e-01,0.000000000000000000e+00
4.040000000000000000e+02,-5.283831946324015760e-01,0.000000000000000000e+00
4.050000000000000000e+02,-4.027504363060144255e-01,0.000000000000000000e+00
4.060000000000000000e+02,-3.946715591889197183e-01,0.000000000000000000e+00
4.070000000000000000e+02,-2.655443623919406804e-01,0.000000000000000000e+00
4.080000000000000000e+02,-1.860846393630126994e-01,0.000000000000000000e+00
4.090000000000000000e+02,-1.406023412774680577e-02,0.000000000000000000e+00
4.100000000000000000e+02,1.570753924949714886e-01,0.000000000000000000e+00
4.110000000000000000e+02,2.312024495094552878e-01,0.000000000000000000e+00
4.120000000000000000e+02,2.679113347329543093e-01,0.000000000000000000e+00
4.130000000000000000e+02,2.110976438572530478e-01,0.000000000000000000e+00
4.140000000000000000e+02,2.398841394061939636e-01,0.000000000000000000e+00
4.150000000000000000e+02,2.670760628990863361e-02,0.000000000000000000e+00
4.160000000000000000e+02,-1.291344267772135124e-01,0.000000000000000000e+00
4.170000000000000000e+02,-3.585932469554758417e-01,0.000000000000000000e+00
4.180000000000000000e+02,-2.034066059701474527e-01,0.000000000000000000e+00
4.190000000000000000e+02,-3.331727946045792699e-01,0.000000000000000000e+00
4.200000000000000000e+02,-1.068053257250034388e-01,0.000000000000000000e+00
4.210000000000000000e+02,3.328772137159985434e-02,0.000000000000000000e+00
4.220000000000000000e+02,-1.126690474147469812e-01,0.000000000000000000e+00
4.230000000000000000e+02,3.625575840204045552e-02,0.000000000000000000e+00
4.240000000000000000e+02,1.231219242744770320e-01,0.000000000000000000e+00
4.250000000000000000e+02,2.007083872715345260e-02,0.000000000000000000e+00
4.260000000000000000e+02,9.579600290707372678e-02,0.000000000000000000e+00
4.270000000000000000e+02,1.172987705550743998e-01,0.000000000000000000e+00
4.280000000000000000e+02,2.698270265283579383e-01,0.000000000000000000e+00
4.290000000000000000e+02,5.103147639544695219e-02,0.000000000000000000e+00
4.300000000000000000e+02,-5.718772520756283673e-02,0.000000000000000000e+00
4.310000000000000000e+02,-2.012774381250833147e-02,0.000000000000000000e+00
4.320000000000000000e+02,-1.150047549466701596e-01,0.000000000000000000e+00
4.330000000000000000e+02,-4.693471377009659773e-01,0.000000000000000000e+00
4.340000000000000000e+02,-5.997071183389899446e-02,0.000000000000000000e+00
4.350000000000000000e+02,-1.069102579566431205e-01,0.000000000000000000e+00
4.360000000000000000e+02,1.066589670034025217e-01,0.000000000000000000e+00
4.370000000000000000e+02,-2.543917487500310659e-01,0.000000000000000000e+00
4.380000000000000000e+02,2.972726713754768824e+00,0.000000000000000000e+00
4.390000000000000000e+02,4.081116085591769860e+00,0.000000000000000000e+00
4.400000000000000000e+02,-1.356059608807733685e+00,1.000000000000000000e+00
4.410000000000000000e+02,-8.160385499713784796e-01,0.000000000000000000e+00
4.420000000000000000e+02,-9.967142078029468388e-01,0.000000000000000000e+00
4.430000000000000000e+02,-8.193749307346084310e-01,0.000000000000000000e+00
4.440000000000000000e+02,-5.898759965618828316e-01,0.000000000000000000e+00
4.450000000000000000e+02,-6.253108830864043677e-01,0.000000000000000000e+00
4.460000000000000000e+02,-5.040915741687601592e-01,0.000000000000000000e+00
4.470000000000000000e+02,-5.261184306355386475e-01,0.000000000000000000e+00
4.480000000000000000e+02,-4.284206082541332505e-01,0.000000000000000000e+00
4.490000000000000000e+02,-2.444902441783218527e-01,0.000000000000000000e+00
4.500000000000000000e+02,-1.982470465760322875e-01,0.000000000000000000e+00
4.510000000000000000e+02,-8.318701581347320850e-02,0.000000000000000000e+00
4.520000000000000000e+02,1.876135625821367600e-02,0.000000000000000000e+00
4.530000000000000000e+02,2.119606352012354533e-01,0.000000000000000000e+00
4.540000000000000000e+02,2.567583795589075679e-01,0.000000000000000000e+00
4.550000000000000000e+02,3.107573700542959338e-01,0.000000000000000000e+00
4.560000000000000000e+02,2.936907676250389287e-01,0.000000000000000000e+00
4.570000000000000000e+02,1.421010661724032009e-01,0.000000000000000000e+00
4.580000000000000000e+02,-6.612618993365494691e-02,0.000000000000000000e+00
4.590000000000000000e+02,-1.612884512286503202e-01,0.000000000000000000e+00
4.600000000000000000e+02,-1.715402033218903777e-01,0.000000000000000000e+00
4.610000000000000000e+02,-2.330634116498482566e-01,0.000000000000000000e+00
4.620000000000000000e+02,-3.466486590653954369e-01,0.000000000000000000e+00
4.630000000000000000e+02,-9.115310503299523318e-03,0.000000000000000000e+00
4.640000000000000000e+02,-1.683856438161692171e-01,0.000000000000000000e+00
4.650000000000000000e+02,1.470153963961027821e-01,0.000000000000000000e+00
4.660000000000000000e+02,-8.573069446301326280e-02,0.000000000000000000e+00
4.670000000000000000e+02,-6.593420726563962650e-03,0.000000000000000000e+00
4.680000000000000000e+02,2.189046158673629561e-01,0.000000000000000000e+00
4.690000000000000000e+02,-2.720070290224643750e-02,0.000000000000000000e+00
4.700000000000000000e+02,2.091815922284268325e-01,0.000000000000000000e+00
4.710000000000000000e+02,3.068464582818412056e-01,0.000000000000000000e+00
4.720000000000000000e+02,1.071021580146668262e-01,0.000000000000000000e+00
4.730000000000000000e+02,-6.253597811261903117e-02,0.000000000000000000e+00
4.740000000000000000e+02,1.563934903701641108e-02,0.000000000000000000e+00
4.750000000000000000e+02,-3.264358013181572482e-01,0.000000000000000000e+00
4.760000000000000000e+02,-2.001916655138123724e-01,0.000000000000000000e+00
4.770000000000000000e+02,-9.553753580387959465e-02,0.000000000000000000e+00
4.780000000000000000e+02,-1.320343330993047626e-01,0.000000000000000000e+00
4.790000000000000000e+02,-7.965915325503550304e-02,0.000000000000000000e+00
4.800000000000000000e+02,-2.239954252219933939e-01,0.000000000000000000e+00
4.810000000000000000e+02,2.089102433977322537e+00,0.000000000000000000e+00
4.820000000000000000e+02,5.007553565161624753e+00,0.000000000000000000e+00
4.830000000000000000e+02,-4.223482047054190058e-01,1.000000000000000000e+00
4.840000000000000000e+02,-1.256631535971113989e+00,0.000000000000000000e+00
4.850000000000000000e+02,-9.095197937042310832e-01,0.000000000000000000e+00
4.860000000000000000e+02,-8.932078317284356528e-01,0.000000000000000000e+00
4.870000000000000000e+02,-7.316940915888038299e-01,0.000000000000000000e+00
4.880000000000000000e+02,-5.662529332293138040e-01,0.000000000000000000e+00
4.890000000000000000e+02,-6.482690851007477661e-01,0.000000000000000000e+00
4.900000000000000000e+02,-4.108638163491150075e-01,0.000000000000000000e+00
4.910000000000000000e+02,-3.167568647769449242e-01,0.000000000000000000e+00
4.920000000000000000e+02,-3.257857525925466069e-01,0.000000000000000000e+00
4.930000000000000000e+02,-2.185624492995404677e-01,0.000000000000000000e+00
4.940000000000000000e+02,-1.225806869377801950e-01,0.000000000000000000e+00
4.950000000000000000e+02,-8.212262537702771925e-02,0.000000000000000000e+00
4.960000000000000000e+02,1.818530074771453897e-01,0.000000000000000000e+00
4.970000000000000000e+02,3.056221324705051257e-01,0.000000000000000000e+00
4.980000000000000000e+02,2.683546633744864907e-01,0.000000000000000000e+00
4.990000000000000000e+02,3.060677513357010771e-01,0.000000000000000000e+00
5.000000000000000000e+02,1.591360459284234252e-01,0.000000000000000000e+00
5.010000000000000000e+02,5.584969777718145484e-02,0.000000000000000000e+00
5.020000000000000000e+02,4.045357290653368854e-02,0.000000000000000000e+00
5.030000000000000000e+02,-1.976410948571690196e-01,0.000000000000000000e+00
5.040000000000000000e+02,-1.043876219536537392e-01,0.000000000000000000e+00
5.050000000000000000e+02,-1.040644384632658792e-01,0.000000000000000000e+00
5.060000000000000000e+02,-1.007569323795651645e-01,0.000000000000000000e+00
5.070000000000000000e+02,-1.382901814597297385e-01,0.000000000000000000e+00
5.080000000000000000e+02,-1.500516600398431322e-01,0.000000000000000000e+00
5.090000000000000000e+02,1.095643008714160815e-01,0.000000000000000000e+00
5.100000000000000000e+02,1.175919186527859400e-01,0.000000000000000000e+00
5.110000000000000000e+02,1.703092198797871715e-02,0.000000000000000000e+00
5.120000000000000000e+02,1.523738334181856113e-01,0.000000000000000000e+00
5.130000000000000000e+02,3.211205809110272424e-01,0.000000000000000000e+00
5.140000000000000000e+02,2.535967501672653501e-01,0.000000000000000000e+00
5.150000000000000000e+02,2.726763686468587355e-01,0.000000000000000000e+00
5.160000000000000000e+02,1.080384414263215881e-01,0.000000000000000000e+00
5.170000000000000000e+02,-1.021319130697068145e-01,0.000000000000000000e+00
5.180000000000000000e+02,-1.411782777271495815e-01,0.000000000000000000e+00
5.190000000000000000e+02,-1.968395127285735291e-01,0.000000000000000000e+00
5.200000000000000000e+02,-1.338660904080468395e-01,0.000000000000000000e+00
5.210000000000000000e+02,-2.481094140604313547e-01,0.000000000000000000e+00
5.220000000000000000e+02,-3.383579816441985300e-02,0.000000000000000000e+00
5.230000000000000000e+02,-1.032659505393199728e-01,0.000000000000000000e+00
5.240000000000000000e+02,1.691904535486304040e+00,0.000000000000000000e+00
5.250000000000000000e+02,5.356585972069058066e+00,0.000000000000000000e+00
5.260000000000000000e+02,2.972691132939545705e-02,1.000000000000000000e+00
5.270000000000000000e+02,-1.425406299186541714e+00,0.000000000000000000e+00
5.280000000000000000e+02,-1.071423646778194128e+00,0.000000000000000000e+00
5.290000000000000000e+02,-9.353098983741862105e-01,0.000000000000000000e+00
5.300000000000000000e+02,-8.579776663739131504e-01,0.000000000000000000e+00
5.310000000000000000e+02,-8.539903035644523799e-01,0.000000000000000000e+00
5.320000000000000000e+02,-6.775948230104303915e-01,0.000000000000000000e+00
5.330000000000000000e+02,-7.070814488800809539e-01,0.000000000000000000e+00
5.340000000000000000e+02,-5.288076505976010422e-01,0.000000000000000000e+00
5.350000000000000000e+02,-5.050488943230828642e-01,0.000000000000000000e+00
5.360000000000000000e+02,-2.233096793912546507e-01,0.000000000000000000e+00
5.370000000000000000e+02,-3.383848090553446819e-01,0.000000000000000000e+00
5.380000000000000000e+02,-1.125271293664479727e-01,0.000000000000000000e+00
5.390000000000000000e+02,-1.090103916447603995e-02,0.000000000000000000e+00
5.400000000000000000e+02,7.677968609765797869e-02,0.000000000000000000e+00
5.410000000000000000e+02,2.091588679184107902e-01,0.000000000000000000e+00
5.420000000000000000e+02,2.544702618993042176e-01,0.000000000000000000e+00
5.430000000000000000e+02,1.241423636800811914e-01,0.000000000000000000e+00
5.440000000000000000e+02,-1.708582934783247839e-02,0.000000000000000000e+00
5.450000000000000000e+02,-1.289293627489319916e-01,0.000000000000000000e+00
5.460000000000000000e+02,-1.459505174559142804e-01,0.000000000000000000e+00
5.470000000000000000e+02,-2.143555346727523681e-01,0.000000000000000000e+00
5.480000000000000000e+02,-8.063051769643302114e-02,0.000000000000000000e+00
5.490000000000000000e+02,-2.840896095545114575e-01,0.000000000000000000e+00
5.500000000000000000e+02,-6.462283085121300896e-02,0.000000000000000000e+00
5.510000000000000000e+02,-2.035584670964142584e-01,0.000000000000000000e+00
5.520000000000000000e+02,1.332219412581439090e-02,0.000000000000000000e+00
5.530000000000000000e+02,1.581898950916312274e-01,0.000000000000000000e+00
5.540000000000000000e+02,9.459734785281477543e-02,0.000000000000000000e+00
5.550000000000000000e+02,-6.670699085243844695e-02,0.000000000000000000e+00
5.560000000000000000e+02,2.495831784927529939e-01,0.000000000000000000e+00
5.570000000000000000e+02,2.708931126644693599e-01,0.000000000000000000e+00
5.580000000000000000e+02,4.087862312208450088e-01,0.000000000000000000e+00
5.590000000000000000e+02,-2.278344241518861016e-02,0.000000000000000000e+00
5.600000000000000000e+02,2.665809297850373349e-01,0.000000000000000000e+00
5.610000000000000000e+02,-2.647163316261527677e-01,0.000000000000000000e+00
5.620000000000000000e+02,-1.278427035134536149e-01,0.000000000000000000e+00
5.630000000000000000e+02,-6.806214827993449512e-02,0.000000000000000000e+00
5.640000000000000000e+02,-5.176447379746308697e-02,0.000000000000000000e+00
5.650000000000000000e+02,-1.268305550744568411e-01,0.000000000000000000e+00
5.660000000000000000e+02,1.617430815127152144e-01,0.000000000000000000e+00
5.670000000000000000e+02,2.884164772575146252e-01,0.000000000000000000e+00
5.680000000000000000e+02,5.249659923504964354e+00,0.000000000000000000e+00
5.690000000000000000e+02,2.769246979672709941e+00,1.000000000000000000e+00
5.700000000000000000e+02,-1.974741096162375031e+00,0.000000000000000000e+00
5.710000000000000000e+02,-6.162859020538108412e-01,0.000000000000000000e+00
5.720000000000000000e+02,-1.248113913789980600e+00,0.000000000000000000e+00
5.730000000000000000e+02,-8.966350708261694447e-01,0.000000000000000000e+00
5.740000000000000000e+02,-7.784981697764816744e-01,0.000000000000000000e+00
5.750000000000000000e+02,-6.178793636419691593e-01,0.000000000000000000e+00
5.760000000000000000e+02,-7.402506150787875328e-01,0.000000000000000000e+00
5.770000000000000000e+02,-3.332647408704563774e-01,0.000000000000000000e+00
5.780000000000000000e+02,-4.497413308412837596e-01,0.000000000000000000e+00
5.790000000000000000e+02,-1.814362318038034994e-01,0.000000000000000000e+00
5.800000000000000000e+02,-2.762491783487400210e-01,0.000000000000000000e+00
5.810000000000000000e+02,-9.068609583033510058e-02,0.000000000000000000e+00
5.820000000000000000e+02,-1.622844859608669685e-02,0.000000000000000000e+00
5.830000000000000000e+02,1.196781315629505543e-01,0.000000000000000000e+00
5.840000000000000000e+02,1.864920460123524748e-01,0.000000000000000000e+00
5.850000000000000000e+02,3.101867133200996163e-01,0.000000000000000000e+00
5.860000000000000000e+02,1.574531029191498510e-01,0.000000000000000000e+00
5.870000000000000000e+02,2.114098174333516045e-01,0.000000000000000000e+00
5.880000000000000000e+02,-7.679271783400661022e-02,0.000000000000000000e+00
5.890000000000000000e+02,-7.482017447903273333e-02,0.000000000000000000e+00
5.900000000000000000e+02,-1.696338126881632297e-02,0.000000000000000000e+00
5.910000000000000000e+02,-1.873333480133092532e-01,0.000000000000000000e+00
5.920000000000000000e+02,-1.853860426734302291e-01,0.000000000000000000e+00
5.930000000000000000e+02,-9.185799057226305686e-02,0.000000000000000000e+00
5.940000000000000000e+02,-1.405234561732070786e-01,0.000000000000000000e+00
5.950000000000000000e+02,-9.651900662302519140e-02,0.000000000000000000e+00
5.960000000000000000e+02,8.613405614215502437e-02,0.000000000000000000e+00
5.970000000000000000e+02,-1.419064019589825858e-02,0.000000000000000000e+00
5.980000000000000000e+02,9.990843381686482019e-03,0.000000000000000000e+00
5.990000000000000000e+02,1.419316244532026761e-01,0.000000000000000000e+00
6.000000000000000000e+02,3.010659367029856481e-01,0.000000000000000000e+00
6.010000000000000000e+02,3.597192618441305001e-01,0.000000000000000000e+00
6.020000000000000000e+02,1.160233608291947466e-01,0.000000000000000000e+00
6.030000000000000000e+02,-5.734600658343416008e-02,0.000000000000000000e+00
6.040000000000000000e+02,-1.046563847281114096e-01,0.000000000000000000e+00
6.050000000000000000e+02,-1.468430980460828372e-01,0.000000000000000000e+00
6.060000000000000000e+02,-2.179024321081382276e-01,0.000000000000000000e+00
6.070000000000000000e+02,-1.467661795465906999e-02,0.000000000000000000e+00
6.080000000000000000e+02,-2.922197639448735895e-01,0.000000000000000000e+00
6.090000000000000000e+02,6.039056366395535724e-02,0.000000000000000000e+00
6.100000000000000000e+02,-3.626351874747290038e-01,0.000000000000000000e+00
6.110000000000000000e+02,2.648951944262895264e+00,0.000000000000000000e+00
6.120000000000000000e+02,5.697290861910270898e+00,0.000000000000000000e+00
6.130000000000000000e+02,-8.815793294666509627e-01,1.000000000000000000e+00
6.140000000000000000e+02,-1.203817051379534320e+00,0.000000000000000000e+00
6.150000000000000000e+02,-1.184720693739493180e+00,0.000000000000000000e+00
6.160000000000000000e+02,-1.044354412317016534e+00,0.000000000000000000e+00
6.170000000000000000e+02,-8.440862903342412071e-01,0.000000000000000000e+00
6.180000000000000000e+02,-8.037260810646609244e-01,0.000000000000000000e+00
6.190000000000000000e+02,-7.278634467566806876e-01,0.000000000000000000e+00
6.200000000000000000e+02,-6.380556094393836641e-01,0.000000000000000000e+00
6.210000000000000000e+02,-5.965987401994692352e-01,0.000000000000000000e+00
6.220000000000000000e+02,-3.374898582491323573e-01,0.000000000000000000e+00
6.230000000000000000e+02,-4.175925006811873064e-01,0.000000000000000000e+00
6.240000000000000000e+02,-3.377716693443422180e-01,0.000000000000000000e+00
6.250000000000000000e+02,-4.277550484778906009e-02,0.000000000000000000e+00
6.260000000000000000e+02,5.764805771119178163e-02,0.000000000000000000e+00
6.270000000000000000e+02,6.645371407299048572e-02,0.000000000000000000e+00
6.280000000000000000e+02,1.812299051576840569e-01,0.000000000000000000e+00
6.290000000000000000e+02,2.288958967186966176e-01,0.000000000000000000e+00
6.300000000000000000e+02,1.251128579813500508e-01,0.000000000000000000e+00
6.310000000000000000e+02,5.043373743858218378e-02,0.000000000000000000e+00
6.320000000000000000e+02,3.563047487356211379e-02,0.000000000000000000e+00
6.330000000000000000e+02,-1.157064104100323232e-01,0.000000000000000000e+00
6.340000000000000000e+02,-2.070070344290881881e-01,0.000000000000000000e+00
6.350000000000000000e+02,-3.546327820459239250e-02,0.000000000000000000e+00
6.360000000000000000e+02,-2.765109861925592605e-01,0.000000000000000000e+00
6.370000000000000000e+02,2.538764331834373125e-02,0.000000000000000000e+00
6.380000000000000000e+02,2.877461473090729346e-03,0.000000000000000000e+00
6.390000000000000000e+02,3.399285758169699745e-02,0.000000000000000000e+00
6.400000000000000000e+02,1.687172844563244178e-01,0.000000000000000000e+00
6.410000000000000000e+02,5.469584506671919949e-02,0.000000000000000000e+00
6.420000000000000000e+02,1.757368537432033029e-01,0.000000000000000000e+00
6.430000000000000000e+02,3.756252088446751514e-01,0.000000000000000000e+00
6.440000000000000000e+02,3.619474019054408909e-01,0.000000000000000000e+00
6.450000000000000000e+02,3.061264778886378934e-01,0.000000000000000000e+00
6.460000000000000000e+02,-4.138648878529014447e-02,0.000000000000000000e+00
6.470000000000000000e+02,-1.544341970444921587e-02,0.000000000000000000e+00
6.480000000000000000e+02,3.322340342354231785e-02,0.000000000000000000e+00
6.490000000000000000e+02,-7.499671826892642668e-02,0.000000000000000000e+00
6.500000000000000000e+02,-1.422431360449291082e-01,0.000000000000000000e+00
6.510000000000000000e+02,-5.094933995522746284e-02,0.000000000000000000e+00
6.520000000000000000e+02,-2.514042960900970680e-01,0.000000000000000000e+00
6.530000000000000000e+02,2.259743786811471422e-01,0.000000000000000000e+00
6.540000000000000000e+02,7.827105027688137096e-01,0.000000000000000000e+00
6.550000000000000000e+02,5.656304787664105049e+00,0.000000000000000000e+00
6.560000000000000000e+02,1.497817974422193776e+00,1.000000000000000000e+00
6.570000000000000000e+02,-1.978351491524461325e+00,0.000000000000000000e+00
6.580000000000000000e+02,-6.640645368002193738e-01,0.000000000000000000e+00
6.590000000000000000e+02,-1.215623864330501069e+00,0.000000000000000000e+00
6.600000000000000000e+02,-6.958450860043375874e-01,0.000000000000000000e+00
6.610000000000000000e+02,-8.157430465775296069e-01,0.000000000000000000e+00
6.620000000000000000e+02,-6.223864141919513981e-01,0.000000000000000000e+00
6.630000000000000000e+02,-7.207775026296568965e-01,0.000000000000000000e+00
6.640000000000000000e+02,-4.161142857147850371e-01,0.000000000000000000e+00
6.650000000000000000e+02,-4.903357635748917809e-01,0.000000000000000000e+00
6.660000000000000000e+02,-1.925844972829898194e-01,0.000000000000000000e+00
6.670000000000000000e+02,-2.254323384881418424e-01,0.000000000000000000e+00
6.680000000000000000e+02,-1.500187565550898661e-01,0.000000000000000000e+00
6.690000000000000000e+02,2.941030142359612326e-02,0.000000000000000000e+00
6.700000000000000000e+02,6.807607216420337448e-02,0.000000000000000000e+00
6.710000000000000000e+02,2.212131087339752333e-01,0.000000000000000000e+00
6.720000000000000000e+02,1.955875989967191808e-01,0.000000000000000000e+00
6.730000000000000000e+02,1.194575017859647870e-01,0.000000000000000000e+00
6.740000000000000000e+02,1.800237001571920736e-01,0.000000000000000000e+00
6.750000000000000000e+02,-1.199463717270868035e-01,0.000000000000000000e+00
6.760000000000000000e+02,-1.794805424725624543e-01,0.000000000000000000e+00
6.770000000000000000e+02,-1.853520533391720959e-01,0.000000000000000000e+00
6.780000000000000000e+02,-5.916503943490758434e-04,0.000000000000000000e+00
6.790000000000000000e+02,-2.054508439285669674e-01,0.000000000000000000e+00
6.800000000000000000e+02,2.197603176812714526e-02,0.000000000000000000e+00
6.810000000000000000e+02,8.154079900649174872e-02,0.000000000000000000e+00
6.820000000000000000e+02,1.231594120138419790e-01,0.000000000000000000e+00
6.830000000000000000e+02,1.173583602209576360e-01,0.000000000000000000e+00
6.840000000000000000e+02,8.746772996314691739e-02,0.000000000000000000e+00
6.850000000000000000e+02,5.926591269938914081e-02,0.000000000000000000e+00
6.860000000000000000e+02,1.773903544173834612e-01,0.000000000000000000e+00
6.870000000000000000e+02,8.957152971091691951e-02,0.000000000000000000e+00
6.880000000000000000e+02,3.338280363251271421e-01,0.000000000000000000e+00
6.890000000000000000e+02,1.616505196500567405e-03,0.000000000000000000e+00
6.900000000000000000e+02,-4.345445870362516644e-02,0.000000000000000000e+00
6.910000000000000000e+02,4.506207879313608305e-02,0.000000000000000000e+00
6.920000000000000000e+02,-2.367101165199272383e-01,0.000000000000000000e+00
6.930000000000000000e+02,-2.601004775261519519e-01,0.000000000000000000e+00
6.940000000000000000e+02,-7.504340107364541879e-02,0.000000000000000000e+00
6.950000000000000000e+02,-3.889245392122988587e-01,0.000000000000000000e+00
6.960000000000000000e+02,1.518298910581944994e-01,0.000000000000000000e+00
6.970000000000000000e+02,-2.625861279796612990e-01,0.000000000000000000e+00
6.980000000000000000e+02,2.838361202289930940e+00,0.000000000000000000e+00
6.990000000000000000e+02,4.258193763097637863e+00,0.000000000000000000e+00
7.000000000000000000e+02,-1.178754410644301753e+00,1.000000000000000000e+00
7.010000000000000000e+02,-1.103726942567183844e+00,0.000000000000000000e+00
7.020000000000000000e+02,-9.541489266360638766e-01,0.000000000000000000e+00
7.030000000000000000e+02,-9.068528999774412291e-01,0.000000000000000000e+00
7.040000000000000000e+02,-8.015737960403523932e-01,0.000000000000000000e+00
7.050000000000000000e+02,-7.197383593463125839e-01,0.000000000000000000e+00
7.060000000000000000e+02,-6.622944623094345618e-01,0.000000000000000000e+00
7.070000000000000000e+02,-4.429350336060725590e-01,0.000000000000000000e+00
7.080000000000000000e+02,-4.790505191752351122e-01,0.000000000000000000e+00
7.090000000000000000e+02,-3.881101701775529489e-01,0.000000000000000000e+00
7.100000000000000000e+02,-2.876086168363120588e-01,0.000000000000000000e+00
7.110000000000000000e+02,-2.021689210676617110e-01,0.000000000000000000e+00
7.120000000000000000e+02,-6.389412866088996223e-02,0.000000000000000000e+00
7.130000000000000000e+02,4.286608552899338204e-02,0.000000000000000000e+00
7.140000000000000000e+02,2.759657436430423272e-01,0.000000000000000000e+00
7.150000000000000000e+02,2.458634424107221661e-01,0.000000000000000000e+00
7.160000000000000000e+02,2.944601877255854094e-01,0.000000000000000000e+00
7.170000000000000000e+02,-4.510811061943083462e-03,0.000000000000000000e+00
7.180000000000000000e+02,1.020303813556233813e-01,0.000000000000000000e+00
7.190000000000000000e+02,-2.234747423440552327e-01,0.000000000000000000e+00
7.200000000000000000e+02,-1.964342054433942664e-01,0.000000000000000000e+00
7.210000000000000000e+02,-2.603736920197597948e-01,0.000000000000000000e+00
7.220000000000000000e+02,-8.842622398112581772e-02,0.000000000000000000e+00
7.230000000000000000e+02,-2.937631605027372639e-01,0.000000000000000000e+00
7.240000000000000000e+02,-1.007099137579520326e-01,0.000000000000000000e+00
7.250000000000000000e+02,1.474413034022483970e-01,0.000000000000000000e+00
7.260000000000000000e+02,2.156754330486693530e-02,0.000000000000000000e+00
7.270000000000000000e+02,1.861733049179284671e-01,0.000000000000000000e+00
7.280000000000000000e+02,-8.947989738932608794e-02,0.000000000000000000e+00
7.290000000000000000e+02,5.261106806382043199e-02,0.000000000000000000e+00
7.300000000000000000e+02,3.323822291595100453e-01,0.000000000000000000e+00
7.310000000000000000e+02,5.709665865513489230e-02,0.000000000000000000e+00
7.320000000000000000e+02,4.731448761632680577e-01,0.000000000000000000e+00
7.330000000000000000e+02,-1.440394399414701987e-01,0.000000000000000000e+00
7.340000000000000000e+02,1.935863182153405027e-01,0.000000000000000000e+00
7.350000000000000000e+02,-1.067907647370511248e-01,0.000000000000000000e+00
7.360000000000000000e+02,-1.411654631739510390e-02,0.000000000000000000e+00
7.370000000000000000e+02,-2.515244579274315551e-01,0.000000000000000000e+00
7.380000000000000000e+02,1.186745626557742482e-02,0.000000000000000000e+00
7.390000000000000000e+02,-1.436074309810459471e-01,0.000000000000000000e+00
7.400000000000000000e+02,5.976215894352504554e-02,0.000000000000000000e+00
7.410000000000000000e+02,6.369877466347348242e-03,0.000000000000000000e+00
7.420000000000000000e+02,3.786113011580177545e+00,0.000000000000000000e+00
7.430000000000000000e+02,3.148907912360551009e+00,0.000000000000000000e+00
7.440000000000000000e+02,-1.658855725639615253e+00,1.000000000000000000e+00
7.450000000000000000e+02,-6.045462091182969289e-01,0.000000000000000000e+00
7.460000000000000000e+02,-1.125525198571066587e+00,0.000000000000000000e+00
7.470000000000000000e+02,-6.151108847440989180e-01,0.000000000000000000e+00
7.480000000000000000e+02,-9.008125665840288621e-01,0.000000000000000000e+00
7.490000000000000000e+02,-4.080265378409792532e-01,0.000000000000000000e+00
7.500000000000000000e+02,-5.213675660008533219e-01,0.000000000000000000e+00
7.510000000000000000e+02,-4.356802552582031973e-01,0.000000000000000000e+00
7.520000000000000000e+02,-3.646153052461648669e-01,0.000000000000000000e+00
7.530000000000000000e+02,-2.469882653713003084e-01,0.000000000000000000e+00
7.540000000000000000e+02,-2.859286530564900120e-01,0.000000000000000000e+00
7.550000000000000000e+02,1.320934822293206570e-03,0.000000000000000000e+00
7.560000000000000000e+02,1.461213121180822694e-01,0.000000000000000000e+00
7.570000000000000000e+02,2.186517223967662238e-01,0.000000000000000000e+00
7.580000000000000000e+02,2.087549118078902977e-01,0.000000000000000000e+00
7.590000000000000000e+02,5.169175941944990083e-01,0.000000000000000000e+00
7.600000000000000000e+02,6.090898457018417700e-02,0.000000000000000000e+00
7.610000000000000000e+02,1.944310961101539947e-01,0.000000000000000000e+00
7.620000000000000000e+02,5.906402616712493059e-02,0.000000000000000000e+00
7.630000000000000000e+02,-1.198468025329142844e-01,0.000000000000000000e+00
7.640000000000000000e+02,-1.179906211010690181e-01,0.000000000000000000e+00
7.650000000000000000e+02,-2.612088070644176252e-01,0.000000000000000000e+00
7.660000000000000000e+02,-1.070499764380528213e-01,0.000000000000000000e+00
7.670000000000000000e+02,-2.270368001046680906e-01,0.000000000000000000e+00
7.680000000000000000e+02,-4.017241729602704509e-02,0.000000000000000000e+00
7.690000000000000000e+02,-8.862219181002553570e-02,0.000000000000000000e+00
7.700000000000000000e+02,1.771535940490489083e-02,0.000000000000000000e+00
7.710000000000000000e+02,6.181125890144264362e-02,0.000000000000000000e+00
7.720000000000000000e+02,9.801297819130365407e-02,0.000000000000000000e+00
7.730000000000000000e+02,-2.427668407283188959e-03,0.000000000000000000e+00
7.740000000000000000e+02,2.220552121127155887e-01,0.000000000000000000e+00
7.750000000000000000e+02,1.945497659336027640e-01,0.000000000000000000e+00
7.760000000000000000e+02,3.433660397446435808e-01,0.000000000000000000e+00
7.770000000000000000e+02,2.858529996370008305e-02,0.000000000000000000e+00
7.780000000000000000e+02,8.996522831780268126e-02,0.000000000000000000e+00
7.790000000000000000e+02,-7.812945161270436201e-02,0.000000000000000000e+00
7.800000000000000000e+02,-2.856973467730782382e-02,0.000000000000000000e+00
7.810000000000000000e+02,-1.366307740093513634e-01,0.000000000000000000e+00
7.820000000000000000e+02,2.134522743325348651e-02,0.000000000000000000e+00
7.830000000000000000e+02,-2.376845901157693675e-01,0.000000000000000000e+00
7.840000000000000000e+02,1.492624885458777306e-01,0.000000000000000000e+00
7.850000000000000000e+02,1.466486171812894090e-01,0.000000000000000000e+00
7.860000000000000000e+02,3.996435499105970734e+00,0.000000000000000000e+00
7.870000000000000000e+02,2.329620829546318106e+00,1.000000000000000000e+00
7.880000000000000000e+02,-1.625845168414133957e+00,0.000000000000000000e+00
7.890000000000000000e+02,-6.382559830503142795e-01,0.000000000000000000e+00
7.900000000000000000e+02,-9.612514038078797673e-01,0.000000000000000000e+00
7.910000000000000000e+02,-6.100522859846216894e-01,0.000000000000000000e+00
7.920000000000000000e+02,-6.995036342368948779e-01,0.000000000000000000e+00
7.930000000000000000e+02,-4.496784521104142396e-01,0.000000000000000000e+00
7.940000000000000000e+02,-6.054226561708289100e-01,0.000000000000000000e+00
7.950000000000000000e+02,-3.687249441954101870e-01,0.000000000000000000e+00
7.960000000000000000e+02,-3.906578794238783070e-01,0.000000000000000000e+00
7.970000000000000000e+02,-2.267328847914108492e-01,0.000000000000000000e+00
7.980000000000000000e+02,-2.075730742752183167e-01,0.000000000000000000e+00
7.990000000000000000e+02,-9.351798403384971314e-02,0.000000000000000000e+00
8.000000000000000000e+02,7.695666062341884051e-02,0.000000000000000000e+00
8.010000000000000000e+02,1.080081322723716597e-01,0.000000000000000000e+00
8.020000000000000000e+02,1.661159980044301099e-01,0.000000000000000000e+00
8.030000000000000000e+02,2.986648213610635372e-01,0.000000000000000000e+00
8.040000000000000000e+02,2.459272221504880673e-01,0.000000000000000000e+00
8.050000000000000000e+02,5.817844039032365328e-02,0.000000000000000000e+00
8.060000000000000000e+02,-1.264495642400627617e-01,0.000000000000000000e+00
8.070000000000000000e+02,-1.553140240905777625e-01,0.000000000000000000e+00
8.080000000000000000e+02,-2.190880308004616583e-01,0.000000000000000000e+00
8.090000000000000000e+02,-8.440333272933468745e-02,0.000000000000000000e+00
8.100000000000000000e+02,-1.436248439904022622e-01,0.000000000000000000e+00
8.110000000000000000e+02,-2.626753812229314922e-01,0.000000000000000000e+00
8.120000000000000000e+02,-9.402771687137573275e-02,0.000000000000000000e+00
8.130000000000000000e+02,-1.449834358422247560e-01,0.000000000000000000e+00
8.140000000000000000e+02,-5.939255530053005189e-02,0.000000000000000000e+00
8.150000000000000000e+02,7.742561273553852375e-02,0.000000000000000000e+00
8.160000000000000000e+02,-6.982045705504577593e-02,0.000000000000000000e+00
8.170000000000000000e+02,-8.747290990776357411e-02,0.000000000000000000e+00
8.180000000000000000e+02,1.923421413183022399e-01,0.000000000000000000e+00
8.190000000000000000e+02,1.907912104123894448e-01,0.000000000000000000e+00
8.200000000000000000e+02,2.203200983562232929e-01,0.000000000000000000e+00
8.210000000000000000e+02,8.776953858189846802e-02,0.000000000000000000e+00
8.220000000000000000e+02,7.644143892324206657e-02,0.000000000000000000e+00
8.230000000000000000e+02,-1.032116270255840906e-01,0.000000000000000000e+00
8.240000000000000000e+02,-9.904959926649764546e-02,0.000000000000000000e+00
8.250000000000000000e+02,-6.884473571281654602e-02,0.000000000000000000e+00
8.260000000000000000e+02,-2.697531951930167912e-02,0.000000000000000000e+00
8.270000000000000000e+02,-5.090514555570672950e-02,0.000000000000000000e+00
8.280000000000000000e+02,-7.885090793649672525e-02,0.000000000000000000e+00
8.290000000000000000e+02,7.791995210935863669e-01,0.000000000000000000e+00
8.300000000000000000e+02,4.445802242702034057e+00,0.000000000000000000e+00
8.310000000000000000e+02,1.521834149905967326e+00,1.000000000000000000e+00
8.320000000000000000e+02,-1.684267341274636509e+00,0.000000000000000000e+00
8.330000000000000000e+02,-5.003626863871347696e-01,0.000000000000000000e+00
8.340000000000000000e+02,-9.458701980847793456e-01,0.000000000000000000e+00
8.350000000000000000e+02,-6.242656166854776423e-01,0.000000000000000000e+00
8.360000000000000000e+02,-8.316764619045995399e-01,0.000000000000000000e+00
8.370000000000000000e+02,-4.841035244503156809e-01,0.000000000000000000e+00
8.380000000000000000e+02,-4.658792808743716929e-01,0.000000000000000000e+00
8.390000000000000000e+02,-2.947507058238163502e-01,0.000000000000000000e+00
8.400000000000000000e+02,-4.610940752699981271e-01,0.000000000000000000e+00
8.410000000000000000e+02,-2.582390536268753811e-01,0.000000000000000000e+00
8.420000000000000000e+02,-2.387102740830419900e-01,0.000000000000000000e+00
8.430000000000000000e+02,3.099714894424601339e-02,0.000000000000000000e+00
8.440000000000000000e+02,3.157689720964074881e-02,0.000000000000000000e+00
8.450000000000000000e+02,1.054642975296315593e-01,0.000000000000000000e+00
8.460000000000000000e+02,2.507903342330284335e-01,0.000000000000000000e+00
8.470000000000000000e+02,2.548479375122995605e-01,0.000000000000000000e+00
8.480000000000000000e+02,2.806959446658036095e-01,0.000000000000000000e+00
8.490000000000000000e+02,-6.479406508831883627e-02,0.000000000000000000e+00
8.500000000000000000e+02,-4.074417338820259665e-02,0.000000000000000000e+00
8.510000000000000000e+02,-1.421096991147948463e-01,0.000000000000000000e+00
8.520000000000000000e+02,-1.951390561669048285e-01,0.000000000000000000e+00
8.530000000000000000e+02,-6.592776768876344728e-02,0.000000000000000000e+00
8.540000000000000000e+02,-2.247443824237392862e-01,0.000000000000000000e+00
8.550000000000000000e+02,-5.630816175524130940e-02,0.000000000000000000e+00
8.560000000000000000e+02,-3.549329276403903610e-01,0.000000000000000000e+00
8.570000000000000000e+02,1.084980687109248776e-01,0.000000000000000000e+00
8.580000000000000000e+02,-1.043488802487405193e-01,0.000000000000000000e+00
8.590000000000000000e+02,4.106007744932758941e-02,0.000000000000000000e+00
8.600000000000000000e+02,-8.874527166425985950e-03,0.000000000000000000e+00
8.610000000000000000e+02,-4.535001064902655088e-02,0.000000000000000000e+00
8.620000000000000000e+02,1.743310712067836221e-01,0.000000000000000000e+00
8.630000000000000000e+02,2.120071583043778574e-01,0.000000000000000000e+00
8.640000000000000000e+02,1.278844969193066172e-01,0.000000000000000000e+00
8.650000000000000000e+02,3.022071660064405696e-02,0.000000000000000000e+00
8.660000000000000000e+02,-2.047012712799996248e-01,0.000000000000000000e+00
8.670000000000000000e+02,-5.731333927676243722e-02,0.000000000000000000e+00
8.680000000000000000e+02,-2.593989747812140423e-01,0.000000000000000000e+00
8.690000000000000000e+02,-2.642574741061935462e-01,0.000000000000000000e+00
8.700000000000000000e+02,-1.355052224140388673e-01,0.000000000000000000e+00
8.710000000000000000e+02,-2.521102904307899739e-01,0.000000000000000000e+00
8.720000000000000000e+02,-1.383733567862561187e-01,0.000000000000000000e+00
8.730000000000000000e+02,1.281650605969764989e+00,0.000000000000000000e+00
8.740000000000000000e+02,4.835579649060524510e+00,0.000000000000000000e+00
8.750000000000000000e+02,3.782321371092307039e-01,1.000000000000000000e+00
8.760000000000000000e+02,-1.601172863310847294e+00,0.000000000000000000e+00
8.770000000000000000e+02,-6.926498692445678396e-01,0.000000000000000000e+00
8.780000000000000000e+02,-1.024619538938379426e+00,0.000000000000000000e+00
8.790000000000000000e+02,-6.423798552253504601e-01,0.000000000000000000e+00
8.800000000000000000e+02,-7.486850914204163931e-01,0.000000000000000000e+00
8.810000000000000000e+02,-4.232038508670522003e-01,0.000000000000000000e+00
8.820000000000000000e+02,-5.771472647573735459e-01,0.000000000000000000e+00
8.830000000000000000e+02,-3.114825074182555054e-01,0.000000000000000000e+00
8.840000000000000000e+02,-3.697905157338236548e-01,0.000000000000000000e+00
8.850000000000000000e+02,-1.943653248645962617e-01,0.000000000000000000e+00
8.860000000000000000e+02,-1.021070973064537868e-01,0.000000000000000000e+00
8.870000000000000000e+02,6.450027454700270335e-02,0.000000000000000000e+00
8.880000000000000000e+02,-3.995616234316953785e-02,0.000000000000000000e+00
8.890000000000000000e+02,2.086306611256745491e-01,0.000000000000000000e+00
8.900000000000000000e+02,2.929737758023442384e-01,0.000000000000000000e+00
8.910000000000000000e+02,2.433555171290598673e-01,0.000000000000000000e+00
8.920000000000000000e+02,2.403087145959989790e-01,0.000000000000000000e+00
8.930000000000000000e+02,9.631113299625240765e-02,0.000000000000000000e+00
8.940000000000000000e+02,-3.320076535468224205e-02,0.000000000000000000e+00
8.950000000000000000e+02,-3.385427955090890978e-02,0.000000000000000000e+00
8.960000000000000000e+02,-1.673797102877485066e-01,0.000000000000000000e+00
8.970000000000000000e+02,-1.200775941693266458e-01,0.000000000000000000e+00
8.980000000000000000e+02,-2.642471550184406423e-02,0.000000000000000000e+00
8.990000000000000000e+02,-9.566960718941117103e-02,0.000000000000000000e+00
9.000000000000000000e+02,-4.062409315758987866e-02,0.000000000000000000e+00
9.010000000000000000e+02,1.217405503315420051e-01,0.000000000000000000e+00
9.020000000000000000e+02,6.477452837137889774e-02,0.000000000000000000e+00
9.030000000000000000e+02,1.862869518078986708e-01,0.000000000000000000e+00
9.040000000000000000e+02,4.093610241740067157e-02,0.000000000000000000e+00
9.050000000000000000e+02,1.861675194112514531e-01,0.000000000000000000e+00
9.060000000000000000e+02,2.227074718415079091e-01,0.000000000000000000e+00
9.070000000000000000e+02,3.598346857851412728e-01,0.000000000000000000e+00
9.080000000000000000e+02,2.025273674954732317e-01,0.000000000000000000e+00
9.090000000000000000e+02,4.661936957078021554e-02,0.000000000000000000e+00
9.100000000000000000e+02,-1.041165229309161562e-02,0.000000000000000000e+00
9.110000000000000000e+02,4.105515007693343911e-03,0.000000000000000000e+00
9.120000000000000000e+02,-1.445017940896334008e-01,0.000000000000000000e+00
9.130000000000000000e+02,-1.624678504639534005e-01,0.000000000000000000e+00
9.140000000000000000e+02,-7.022873767001808210e-02,0.000000000000000000e+00
9.150000000000000000e+02,1.398788867621573173e-01,0.000000000000000000e+00
9.160000000000000000e+02,-3.855889806512054485e-01,0.000000000000000000e+00
9.170000000000000000e+02,2.717900057080849141e+00,0.000000000000000000e+00
9.180000000000000000e+02,5.074257398743182712e+00,0.000000000000000000e+00
9.190000000000000000e+02,-8.528201336417755574e-01,1.000000000000000000e+00
9.200000000000000000e+02,-1.190276052783103555e+00,0.000000000000000000e+00
9.210000000000000000e+02,-9.158631173187598007e-01,0.000000000000000000e+00
9.220000000000000000e+02,-9.743108387813501636e-01,0.000000000000000000e+00
9.230000000000000000e+02,-7.981448158647392876e-01,0.000000000000000000e+00
9.240000000000000000e+02,-7.089914970949894313e-01,0.000000000000000000e+00
9.250000000000000000e+02,-6.799424469424533157e-01,0.000000000000000000e+00
9.260000000000000000e+02,-5.838420204594944041e-01,0.000000000000000000e+00
9.270000000000000000e+02,-3.688547900397881052e-01,0.000000000000000000e+00
9.280000000000000000e+02,-5.248471733395198013e-01,0.000000000000000000e+00
9.290000000000000000e+02,-2.325762690059605398e-01,0.000000000000000000e+00
9.300000000000000000e+02,-1.671953215421711769e-01,0.000000000000000000e+00
9.310000000000000000e+02,-2.031761716198436096e-01,0.000000000000000000e+00
9.320000000000000000e+02,7.082998012681868127e-02,0.000000000000000000e+00
9.330000000000000000e+02,4.805722892840158522e-02,0.000000000000000000e+00
9.340000000000000000e+02,1.975468199812076275e-01,0.000000000000000000e+00
9.350000000000000000e+02,1.385309374731868159e-01,0.000000000000000000e+00
9.360000000000000000e+02,-3.580357088308872004e-02,0.000000000000000000e+00
9.370000000000000000e+02,1.202631573581932067e-01,0.000000000000000000e+00
9.380000000000000000e+02,-1.488457763538804934e-01,0.000000000000000000e+00
9.390000000000000000e+02,-1.319374689902565734e-01,0.000000000000000000e+00
9.400000000000000000e+02,-2.406789551452289677e-01,0.000000000000000000e+00
9.410000000000000000e+02,-9.379343174126782146e-02,0.000000000000000000e+00
9.420000000000000000e+02,-1.644324687219847203e-01,0.000000000000000000e+00
9.430000000000000000e+02,2.584143113677724729e-02,0.000000000000000000e+00
9.440000000000000000e+02,-1.825075673867565806e-01,0.000000000000000000e+00
9.450000000000000000e+02,1.529818404992674269e-02,0.000000000000000000e+00
9.460000000000000000e+02,7.643513124114696689e-02,0.000000000000000000e+00
9.470000000000000000e+02,1.212123792615011492e-01,0.000000000000000000e+00
9.480000000000000000e+02,7.748551705467753015e-02,0.000000000000000000e+00
9.490000000000000000e+02,2.634332128762149061e-01,0.000000000000000000e+00
9.500000000000000000e+02,1.576006886241285154e-01,0.000000000000000000e+00
9.510000000000000000e+02,3.184470534095679706e-01,0.000000000000000000e+00
9.520000000000000000e+02,8.641827604349283654e-02,0.000000000000000000e+00
9.530000000000000000e+02,-2.076198185829407697e-02,0.000000000000000000e+00
9.540000000000000000e+02,-4.520906327411698677e-02,0.000000000000000000e+00
9.550000000000000000e+02,3.606982696564055985e-02,0.000000000000000000e+00
9.560000000000000000e+02,-2.314137490418292642e-01,0.000000000000000000e+00
9.570000000000000000e+02,-2.085100490735768142e-02,0.000000000000000000e+00
9.580000000000000000e+02,-1.658036982232353185e-01,0.000000000000000000e+00
9.590000000000000000e+02,2.095053587525539870e-02,0.000000000000000000e+00
9.600000000000000000e+02,-1.635608690270732024e-01,0.000000000000000000e+00
9.610000000000000000e+02,4.235182198342592130e+00,0.000000000000000000e+00
9.620000000000000000e+02,3.936339203335366133e+00,0.000000000000000000e+00
9.630000000000000000e+02,-1.499552310271728306e+00,1.000000000000000000e+00
9.640000000000000000e+02,-9.019417335843238348e-01,0.000000000000000000e+00
9.650000000000000000e+02,-1.220752699939894326e+00,0.000000000000000000e+00
9.660000000000000000e+02,-9.066573392152557087e-01,0.000000000000000000e+00
9.670000000000000000e+02,-9.649506387861124246e-01,0.000000000000000000e+00
9.680000000000000000e+02,-5.172785631018380625e-01,0.000000000000000000e+00
9.690000000000000000e+02,-7.575132575871308394e-01,0.000000000000000000e+00
9.700000000000000000e+02,-4.826216495292878217e-01,0.000000000000000000e+00
9.710000000000000000e+02,-5.663925109207904596e-01,0.000000000000000000e+00
9.720000000000000000e+02,-2.928741058766772265e-01,0.000000000000000000e+00
9.730000000000000000e+02,-3.861318021432377234e-01,0.000000000000000000e+00
9.740000000000000000e+02,-6.654417838927566275e-02,0.000000000000000000e+00
9.750000000000000000e+02,-1.290639353064282624e-01,0.000000000000000000e+00
9.760000000000000000e+02,2.532918373070718737e-02,0.000000000000000000e+00
9.770000000000000000e+02,1.694103261756749884e-02,0.000000000000000000e+00
9.780000000000000000e+02,9.027124961186300256e-02,0.000000000000000000e+00
9.790000000000000000e+02,2.339928534935715732e-01,0.000000000000000000e+00
9.800000000000000000e+02,2.183083558708877672e-02,0.000000000000000000e+00
9.810000000000000000e+02,8.387761369369306497e-02,0.000000000000000000e+00
9.820000000000000000e+02,-9.240220876976693032e-02,0.000000000000000000e+00
9.830000000000000000e+02,-8.566981349146297886e-02,0.000000000000000000e+00
9.840000000000000000e+02,-4.413872089368999635e-02,0.000000000000000000e+00
9.850000000000000000e+02,-1.620697132985599864e-01,0.000000000000000000e+00
9.860000000000000000e+02,-2.363922631817675854e-02,0.000000000000000000e+00
9.870000000000000000e+02,-7.208556371463101242e-02,0.000000000000000000e+00
9.880000000000000000e+02,1.282994778226450618e-02,0.000000000000000000e+00
9.890000000000000000e+02,5.077892333983513584e-02,0.000000000000000000e+00
9.900000000000000000e+02,1.397165985182233505e-01,0.000000000000000000e+00
9.910000000000000000e+02,9.500998688318687546e-02,0.000000000000000000e+00
9.920000000000000000e+02,-4.254462583355076571e-02,0.000000000000000000e+00
9.930000000000000000e+02,2.928354041179465073e-01,0.000000000000000000e+00
9.940000000000000000e+02,4.633545123145948463e-01,0.000000000000000000e+00
9.950000000000000000e+02,2.871555595230732560e-01,0.000000000000000000e+00
9.960000000000000000e+02,-6.517461586113547020e-03,0.000000000000000000e+00
9.970000000000000000e+02,1.729526774422983915e-01,0.000000000000000000e+00
9.980000000000000000e+02,-9.245373934279138561e-02,0.000000000000000000e+00
9.990000000000000000e+02,-2.146226426319381431e-01,0.000000000000000000e+00
1.000000000000000000e+03,-2.063179614848350552e-01,0.000000000000000000e+00
1.001000000000000000e+03,7.129789923905623106e-02,0.000000000000000000e+00
1.002000000000000000e+03,-9.882535678739234886e-02,0.000000000000000000e+00
1.003000000000000000e+03,-1.430705874326185234e-02,0.000000000000000000e+00
1.004000000000000000e+03,2.427963827260616325e-01,0.000000000000000000e+00
1.005000000000000000e+03,5.479324505025708447e+00,0.000000000000000000e+00
1.006000000000000000e+03,2.708234740737210711e+00,1.000000000000000000e+00
1.007000000000000000e+03,-2.172293116600464646e+00,0.000000000000000000e+00
1.008000000000000000e+03,-7.401347788806094119e-01,0.000000000000000000e+00
1.009000000000000000e+03,-1.187954463467640887e+00,0.000000000000000000e+00
1.010000000000000000e+03,-9.037538543200718255e-01,0.000000000000000000e+00
1.011000000000000000e+03,-9.603818170639082386e-01,0.000000000000000000e+00
1.012000000000000000e+03,-6.071461105297157879e-01,0.000000000000000000e+00
1.013000000000000000e+03,-7.672683603681925701e-01,0.000000000000000000e+00
1.014000000000000000e+03,-5.337179838168463197e-01,0.000000000000000000e+00
1.015000000000000000e+03,-6.107650402032476222e-01,0.000000000000000000e+00
1.016000000000000000e+03,-2.313904393711483098e-01,0.000000000000000000e+00
1.017000000000000000e+03,-3.618268441208397079e-01,0.000000000000000000e+00
1.018000000000000000e+03,-2.380292254846255451e-01,0.000000000000000000e+00
1.019000000000000000e+03,-1.411389637510701567e-01,0.000000000000000000e+00
1.020000000000000000e+03,-1.728077058989482134e-02,0.000000000000000000e+00
1.021000000000000000e+03,4.760782483987006236e-02,0.000000000000000000e+00
1.022000000000000000e+03,1.193279599715995759e-01,0.000000000000000000e+00
1.023000000000000000e+03,2.013928654990290376e-02,0.000000000000000000e+00
1.024000000000000000e+03,2.145262456759114700e-01,0.000000000000000000e+00
1.025000000000000000e+03,-1.667441207679662973e-01,0.000000000000000000e+00
1.026000000000000000e+03,-4.970741143477357821e-02,0.000000000000000000e+00
1.027000000000000000e+03,-1.820218743719910492e-01,0.000000000000000000e+00
1.028000000000000000e+03,-1.964245897857070933e-01,0.000000000000000000e+00
1.029000000000000000e+03,-8.264306438410953803e-02,0.000000000000000000e+00
1.030000000000000000e+03,5.337929912856416437e-02,0.000000000000000000e+00
1.031000000000000000e+03,-4.701923829553976419e-02,0.000000000000000000e+00
1.032000000000000000e+03,8.111846410995632306e-02,0.000000000000000000e+00
1.033000000000000000e+03,6.230401111188949015e-02,0.000000000000000000e+00
1.034000000000000000e+03,5.995917738320836327e-02,0.000000000000000000e+00
1.035000000000000000e+03,-1.355845016617379141e-02,0.000000000000000000e+00
1.036000000000000000e+03,2.626214304159577573e-01,0.000000000000000000e+00
1.037000000000000000e+03,2.326879417916883908e-01,0.000000000000000000e+00
1.038000000000000000e+03,4.042113755343513248e-01,0.000000000000000000e+00
1.039000000000000000e+03,9.281530591433272137e-02,0.000000000000000000e+00
1.040000000000000000e+03,-1.690378148788243204e-02,0.000000000000000000e+00
1.041000000000000000e+03,-5.564873701943452017e-02,0.000000000000000000e+00
1.042000000000000000e+03,-1.720146582576942973e-01,0.000000000000000000e+00
1.043000000000000000e+03,-1.514947821523172644e-01,0.000000000000000000e+00
1.044000000000000000e+03,-3.590942413205791550e-02,0.000000000000000000e+00
1.045000000000000000e+03,-2.431517944350663762e-01,0.000000000000000000e+00
1.046000000000000000e+03,1.298749042778271356e-01,0.000000000000000000e+00
1.047000000000000000e+03,-3.771829099021240528e-01,0.000000000000000000e+00
1.048000000000000000e+03,2.991547826798218512e+00,0.000000000000000000e+00
1.049000000000000000e+03,5.486138263096592027e+00,0.000000000000000000e+00
1.050000000000000000e+03,-8.956268094741326458e-01,1.000000000000000000e+00
1.051000000000000000e+03,-1.229015707805732216e+00,0.000000000000000000e+00
1.052000000000000000e+03,-1.119720390590647874e+00,0.000000000000000000e+00
1.053000000000000000e+03,-9.703177676688147235e-01,0.000000000000000000e+00
1.054000000000000000e+03,-9.495055114237845872e-01,0.000000000000000000e+00
1.055000000000000000e+03,-7.472631075917869348e-01,0.000000000000000000e+00
1.056000000000000000e+03,-6.594286052590769831e-01,0.000000000000000000e+00
1.057000000000000000e+03,-5.476150981434151355e-01,0.000000000000000000e+00
1.058000000000000000e+03,-5.061058582111871429e-01,0.000000000000000000e+00
1.059000000000000000e+03,-4.223380823123553673e-01,0.000000000000000000e+00
1.060000000000000000e+03,-2.458639965944625638e-01,0.000000000000000000e+00
1.061000000000000000e+03,-3.066729359589922543e-01,0.000000000000000000e+00
1.062000000000000000e+03,3.773886472210274262e-02,0.000000000000000000e+00
1.063000000000000000e+03,6.443747313808054211e-02,0.000000000000000000e+00
1.064000000000000000e+03,1.365433273556932933e-02,0.000000000000000000e+00
1.065000000000000000e+03,9.157369189237879459e-02,0.000000000000000000e+00
1.066000000000000000e+03,1.812133345923818417e-01,0.000000000000000000e+00
1.067000000000000000e+03,1.877148481582340822e-01,0.000000000000000000e+00
1.068000000000000000e+03,-3.187859419978021462e-03,0.000000000000000000e+00
1.069000000000000000e+03,5.747683136905427925e-02,0.000000000000000000e+00
1.070000000000000000e+03,-2.126382365052721310e-02,0.000000000000000000e+00
1.071000000000000000e+03,-9.322455549416440446e-02,0.000000000000000000e+00
1.072000000000000000e+03,-7.149617283820737523e-02,0.000000000000000000e+00
1.073000000000000000e+03,7.100943368457504623e-02,0.000000000000000000e+00
1.074000000000000000e+03,1.256309738951939536e-01,0.000000000000000000e+00
1.075000000000000000e+03,-3.395706696328042173e-02,0.000000000000000000e+00
1.076000000000000000e+03,2.241913129412702321e-01,0.000000000000000000e+00
1.077000000000000000e+03,5.413903513660976718e-02,0.000000000000000000e+00
1.078000000000000000e+03,1.510561296814671439e-01,0.000000000000000000e+00
1.079000000000000000e+03,-2.427943462816406148e-02,0.000000000000000000e+00
1.080000000000000000e+03,3.843923307389772170e-01,0.000000000000000000e+00
1.081000000000000000e+03,2.195811283626095956e-01,0.000000000000000000e+00
1.082000000000000000e+03,3.768326066015686981e-01,0.000000000000000000e+00
1.083000000000000000e+03,-3.589857212551230553e-02,0.000000000000000000e+00
1.084000000000000000e+03,1.066278297489764992e-01,0.000000000000000000e+00
1.085000000000000000e+03,-1.081630999900050627e-01,0.000000000000000000e+00
1.086000000000000000e+03,-3.023633955117208810e-02,0.000000000000000000e+00
1.087000000000000000e+03,-2.355642110233692188e-01,0.000000000000000000e+00
1.088000000000000000e+03,-1.520071151079596672e-01,0.000000000000000000e+00
1.089000000000000000e+03,-2.383878569419772553e-01,0.000000000000000000e+00
1.090000000000000000e+03,2.075125178389146674e-01,0.000000000000000000e+00
1.091000000000000000e+03,-2.884585362105046569e-01,0.000000000000000000e+00
1.092000000000000000e+03,4.719573324099284761e+00,0.000000000000000000e+00
1.093000000000000000e+03,4.238241602223516757e+00,0.000000000000000000e+00
1.094000000000000000e+03,-1.959127767526489095e+00,1.000000000000000000e+00
1.095000000000000000e+03,-9.141198465174030785e-01,0.000000000000000000e+00
1.096000000000000000e+03,-1.347456394631344034e+00,0.000000000000000000e+00
1.097000000000000000e+03,-8.506740680822975076e-01,0.000000000000000000e+00
1.098000000000000000e+03,-1.095138450939648678e+00,0.000000000000000000e+00
1.099000000000000000e+03,-6.672320611234903165e-01,0.000000000000000000e+00
1.100000000000000000e+03,-8.619579250899785938e-01,0.000000000000000000e+00
1.101000000000000000e+03,-5.674896403780507192e-01,0.000000000000000000e+00
1.102000000000000000e+03,-5.356085856301958659e-01,0.000000000000000000e+00
1.103000000000000000e+03,-3.718066550013662264e-01,0.000000000000000000e+00
1.104000000000000000e+03,-5.128266166461872277e-01,0.000000000000000000e+00
1.105000000000000000e+03,-4.371558264617741302e-02,0.000000000000000000e+00
1.106000000000000000e+03,-1.947200018939175548e-01,0.000000000000000000e+00
1.107000000000000000e+03,3.297238306266369462e-02,0.000000000000000000e+00
1.108000000000000000e+03,6.307456004937395111e-02,0.000000000000000000e+00
1.109000000000000000e+03,-3.080879998206129816e-02,0.000000000000000000e+00
1.110000000000000000e+03,1.342162642499101777e-01,0.000000000000000000e+00
1.111000000000000000e+03,1.657834447390667820e-01,0.000000000000000000e+00
1.112000000000000000e+03,-3.999499007760263375e-02,0.000000000000000000e+00
1.113000000000000000e+03,-1.251524132324770104e-02,0.000000000000000000e+00
1.114000000000000000e+03,-1.632359577250693528e-01,0.000000000000000000e+00
1.115000000000000000e+03,-1.078871181564158704e-01,0.000000000000000000e+00
1.116000000000000000e+03,-1.777815239162706673e-01,0.000000000000000000e+00
1.117000000000000000e+03,6.923992745596710408e-02,0.000000000000000000e+00
1.118000000000000000e+03,1.381976574235998026e-02,0.000000000000000000e+00
1.119000000000000000e+03,2.360566374005659551e-01,0.000000000000000000e+00
1.120000000000000000e+03,1.459765321703053800e-02,0.000000000000000000e+00
1.121000000000000000e+03,2.013219071533518256e-01,0.000000000000000000e+00
1.122000000000000000e+03,-4.358248113515113958e-02,0.000000000000000000e+00
1.123000000000000000e+03,2.261079959841387488e-01,0.000000000000000000e+00
1.124000000000000000e+03,2.945324755473777700e-01,0.000000000000000000e+00
1.125000000000000000e+03,3.562926479036409022e-01,0.000000000000000000e+00
1.126000000000000000e+03,6.819474257188803956e-02,0.000000000000000000e+00
1.127000000000000000e+03,4.319077930812519062e-02,0.000000000000000000e+00
1.128000000000000000e+03,-9.846423935578077491e-02,0.000000000000000000e+00
1.129000000000000000e+03,-8.913615083071572964e-02,0.000000000000000000e+00
1.130000000000000000e+03,-2.735836168438924854e-01,0.000000000000000000e+00
1.131000000000000000e+03,-2.328303030661714457e-02,0.000000000000000000e+00
1.132000000000000000e+03,-2.421845636457115591e-01,0.000000000000000000e+00
1.133000000000000000e+03,1.021742727252624994e-01,0.000000000000000000e+00
1.134000000000000000e+03,-2.226139006935080877e-01,0.000000000000000000e+00
1.135000000000000000e+03,3.530039995787902285e+00,0.000000000000000000e+00
1.136000000000000000e+03,4.784582660036694968e+00,0.000000000000000000e+00
1.137000000000000000e+03,-1.619259928522269743e+00,1.000000000000000000e+00
1.138000000000000000e+03,-9.117965621097201545e-01,0.000000000000000000e+00
1.139000000000000000e+03,-1.149537944614713814e+00,0.000000000000000000e+00
1.140000000000000000e+03,-9.082062299872036837e-01,0.000000000000000000e+00
1.141000000000000000e+03,-9.850332935114624044e-01,0.000000000000000000e+00
1.142000000000000000e+03,-6.273777515561939078e-01,0.000000000000000000e+00
1.143000000000000000e+03,-7.954877135841148528e-01,0.000000000000000000e+00
1.144000000000000000e+03,-4.856905995949215571e-01,0.000000000000000000e+00
1.145000000000000000e+03,-4.591121671219317579e-01,0.000000000000000000e+00
1.146000000000000000e+03,-3.719482775048857937e-01,0.000000000000000000e+00
1.147000000000000000e+03,-2.599383088065345127e-01,0.000000000000000000e+00
1.148000000000000000e+03,-2.236653175856254672e-01,0.000000000000000000e+00
1.149000000000000000e+03,-1.292426948102626816e-01,0.000000000000000000e+00
1.150000000000000000e+03,1.723186989282628756e-01,0.000000000000000000e+00
1.151000000000000000e+03,1.230597861649234022e-02,0.000000000000000000e+00
1.152000000000000000e+03,2.393186473585694474e-01,0.000000000000000000e+00
1.153000000000000000e+03,8.190040165583209464e-02,0.000000000000000000e+00
1.154000000000000000e+03,1.847337319324145188e-01,0.000000000000000000e+00
1.155000000000000000e+03,3.324923996662269843e-02,0.000000000000000000e+00
1.156000000000000000e+03,-9.765211789294755973e-02,0.000000000000000000e+00
1.157000000000000000e+03,-1.279001547513663462e-01,0.000000000000000000e+00
1.158000000000000000e+03,-6.627375055160075745e-02,0.000000000000000000e+00
1.159000000000000000e+03,-1.719036903414373763e-01,0.000000000000000000e+00
1.160000000000000000e+03,6.779282463821164825e-04,0.000000000000000000e+00
1.161000000000000000e+03,8.724538383590936530e-02,0.000000000000000000e+00
1.162000000000000000e+03,3.824966675484425815e-01,0.000000000000000000e+00
1.163000000000000000e+03,2.032597671829181399e-02,0.000000000000000000e+00
1.164000000000000000e+03,2.155964677130266516e-01,0.000000000000000000e+00
1.165000000000000000e+03,3.285062490452266698e-02,0.000000000000000000e+00
1.166000000000000000e+03,8.137323288086664719e-02,0.000000000000000000e+00
1.167000000000000000e+03,3.056404122934374135e-01,0.000000000000000000e+00
1.168000000000000000e+03,3.717747894393210739e-01,0.000000000000000000e+00
1.169000000000000000e+03,1.099834463300498333e-01,0.000000000000000000e+00
1.170000000000000000e+03,-5.774941657809887913e-02,0.000000000000000000e+00
1.171000000000000000e+03,7.044397483378080169e-04,0.000000000000000000e+00
1.172000000000000000e+03,-4.844411353579475971e-02,0.000000000000000000e+00
1.173000000000000000e+03,-1.611366415071514846e-01,0.000000000000000000e+00
1.174000000000000000e+03,-1.635849906769326970e-02,0.000000000000000000e+00
1.175000000000000000e+03,-2.049494422382499015e-01,0.000000000000000000e+00
1.176000000000000000e+03,-1.165320437635538192e-01,0.000000000000000000e+00
1.177000000000000000e+03,-2.160943861978578684e-01,0.000000000000000000e+00
1.178000000000000000e+03,2.738671441048344590e+00,0.000000000000000000e+00
1.179000000000000000e+03,4.866960502306688419e+00,0.000000000000000000e+00
1.180000000000000000e+03,-9.504296893709972549e-01,1.000000000000000000e+00
1.181000000000000000e+03,-1.260125558085108288e+00,0.000000000000000000e+00
1.182000000000000000e+03,-9.219488166053972922e-01,0.000000000000000000e+00
1.183000000000000000e+03,-9.337782721594346524e-01,0.000000000000000000e+00
1.184000000000000000e+03,-8.540304624648801246e-01,0.000000000000000000e+00
1.185000000000000000e+03,-7.239760318381353033e-01,0.000000000000000000e+00
1.186000000000000000e+03,-6.173629028554014075e-01,0.000000000000000000e+00
1.187000000000000000e+03,-5.938460229400737145e-01,0.000000000000000000e+00
1.188000000000000000e+03,-5.350137410909094893e-01,0.000000000000000000e+00
1.189000000000000000e+03,-3.722613632105393755e-01,0.000000000000000000e+00
1.190000000000000000e+03,-2.870675098199074182e-01,0.000000000000000000e+00
1.191000000000000000e+03,-2.535159231276503666e-01,0.000000000000000000e+00
1.192000000000000000e+03,-6.970493193044539904e-02,0.000000000000000000e+00
1.193000000000000000e+03,-4.814753102771224258e-02,0.000000000000000000e+00
1.194000000000000000e+03,1.275181888528604257e-01,0.000000000000000000e+00
1.195000000000000000e+03,1.852365946975852440e-01,0.000000000000000000e+00
1.196000000000000000e+03,1.428918315694836239e-01,0.000000000000000000e+00
1.197000000000000000e+03,2.348747440971934650e-02,0.000000000000000000e+00
1.198000000000000000e+03,5.550614346425463558e-02,0.000000000000000000e+00
1.199000000000000000e+03,-9.828362345647252696e-02,0.000000000000000000e+00
1.200000000000000000e+03,-1.841478747149010997e-01,0.000000000000000000e+00
1.201000000000000000e+03,-1.297574181148485328e-01,0.000000000000000000e+00
1.202000000000000000e+03,-3.284141545207872048e-01,0.000000000000000000e+00
1.203000000000000000e+03,-1.370953124974482185e-01,0.000000000000000000e+00
1.204000000000000000e+03,3.362918600541718595e-02,0.000000000000000000e+00
1.205000000000000000e+03,-1.632936284417621162e-02,0.000000000000000000e+00
1.206000000000000000e+03,1.527182714754392323e-01,0.000000000000000000e+00
1.207000000000000000e+03,-4.426581352739054898e-02,0.000000000000000000e+00
1.208000000000000000e+03,1.053045795214701680e-01,0.000000000000000000e+00
1.209000000000000000e+03,1.512653984099930904e-01,0.000000000000000000e+00
1.210000000000000000e+03,2.122390430777094938e-01,0.000000000000000000e+00
1.211000000000000000e+03,1.959242320235873303e-01,0.000000000000000000e+00
1.212000000000000000e+03,2.493569043802128793e-01,0.000000000000000000e+00
1.213000000000000000e+03,-8.527248006855626949e-02,0.000000000000000000e+00
1.214000000000000000e+03,-9.954420007117478764e-02,0.000000000000000000e+00
1.215000000000000000e+03,-4.003477980597200392e-02,0.000000000000000000e+00
1.216000000000000000e+03,-3.407323517881385433e-01,0.000000000000000000e+00
1.217000000000000000e+03,-1.044190265183574523e-01,0.000000000000000000e+00
1.218000000000000000e+03,-6.419153983751259285e-02,0.000000000000000000e+00
1.219000000000000000e+03,-1.405045364765060700e-01,0.000000000000000000e+00
1.220000000000000000e+03,-1.573355475255901470e-01,0.000000000000000000e+00
1.221000000000000000e+03,1.380355118145476956e+00,0.000000000000000000e+00
1.222000000000000000e+03,5.591716032005226822e+00,0.000000000000000000e+00
1.223000000000000000e+03,3.399178324558645992e-01,1.000000000000000000e+00
1.224000000000000000e+03,-1.626525480847377247e+00,0.000000000000000000e+00
1.225000000000000000e+03,-7.600789539656030991e-01,0.000000000000000000e+00
1.226000000000000000e+03,-1.135828807744893476e+00,0.000000000000000000e+00
1.227000000000000000e+03,-8.052906767202463456e-01,0.000000000000000000e+00
1.228000000000000000e+03,-8.236045485384715370e-01,0.000000000000000000e+00
1.229000000000000000e+03,-3.567460392759394527e-01,0.000000000000000000e+00
1.230000000000000000e+03,-7.297016033962684389e-01,0.000000000000000000e+00
1.231000000000000000e+03,-2.903718162388113644e-01,0.000000000000000000e+00
1.232000000000000000e+03,-5.232106639434077611e-01,0.000000000000000000e+00
1.233000000000000000e+03,-2.118012650839317113e-01,0.000000000000000000e+00
1.234000000000000000e+03,-2.242377814899050859e-01,0.000000000000000000e+00
1.235000000000000000e+03,-9.487101882013099230e-02,0.000000000000000000e+00
1.236000000000000000e+03,1.227975045280830721e-02,0.000000000000000000e+00
1.237000000000000000e+03,2.658522755701482887e-01,0.000000000000000000e+00
1.238000000000000000e+03,2.538519153359511046e-02,0.000000000000000000e+00
1.239000000000000000e+03,2.576271977560740667e-01,0.000000000000000000e+00
1.240000000000000000e+03,7.882489801192445189e-02,0.000000000000000000e+00
1.241000000000000000e+03,1.000062253116429239e-01,0.000000000000000000e+00
1.242000000000000000e+03,4.953720274502611265e-02,0.000000000000000000e+00
1.243000000000000000e+03,-3.225133042270903177e-04,0.000000000000000000e+00
1.244000000000000000e+03,-1.735499942689807673e-01,0.000000000000000000e+00
1.245000000000000000e+03,-4.869185802290147691e-02,0.000000000000000000e+00
1.246000000000000000e+03,-3.630306407766578647e-02,0.000000000000000000e+00
1.247000000000000000e+03,2.036567354736999302e-03,0.000000000000000000e+00
1.248000000000000000e+03,5.178106406562545116e-02,0.000000000000000000e+00
1.249000000000000000e+03,1.358103622200621252e-01,0.000000000000000000e+00
1.250000000000000000e+03,1.811460444328106267e-01,0.000000000000000000e+00
1.251000000000000000e+03,1.847300775059652345e-01,0.000000000000000000e+00
1.252000000000000000e+03,8.083870698440746849e-02,0.000000000000000000e+00
1.253000000000000000e+03,4.080173022802023319e-01,0.000000000000000000e+00
1.254000000000000000e+03,2.590416611603401087e-01,0.000000000000000000e+00
1.255000000000000000e+03,2.541765066484327207e-01,0.000000000000000000e+00
1.256000000000000000e+03,2.022400613905478081e-02,0.000000000000000000e+00
1.257000000000000000e+03,1.301304973957995714e-01,0.000000000000000000e+00
1.258000000000000000e+03,-2.286499520428753041e-01,0.000000000000000000e+00
1.259000000000000000e+03,-5.701341650954260681e-02,0.000000000000000000e+00
1.260000000000000000e+03,-2.812951669785475617e-01,0.000000000000000000e+00
1.261000000000000000e+03,6.411739731350785121e-02,0.000000000000000000e+00
1.262000000000000000e+03,-1.610223156368750519e-01,0.000000000000000000e+00
1.263000000000000000e+03,-3.181756086298888342e-02,0.000000000000000000e+00
1.264000000000000000e+03,1.371225087465791859e+00,0.000000000000000000e+00
1.265000000000000000e+03,5.724956640554095699e+00,0.000000000000000000e+00
1.266000000000000000e+03,6.837679068603734756e-01,1.000000000000000000e+00
1.267000000000000000e+03,-1.571049987764577605e+00,0.000000000000000000e+00
1.268000000000000000e+03,-9.076573797246672015e-01,0.000000000000000000e+00
1.269000000000000000e+03,-1.111313852006421632e+00,0.000000000000000000e+00
1.270000000000000000e+03,-9.240128138348588926e-01,0.000000000000000000e+00
1.271000000000000000e+03,-9.425478096510360171e-01,0.000000000000000000e+00
1.272000000000000000e+03,-5.082353109549536674e-01,0.000000000000000000e+00
1.273000000000000000e+03,-7.510233398046095576e-01,0.000000000000000000e+00
1.274000000000000000e+03,-5.080332294695978357e-01,0.000000000000000000e+00
1.275000000000000000e+03,-3.918263903128718639e-01,0.000000000000000000e+00
1.276000000000000000e+03,-4.437839321888427113e-01,0.000000000000000000e+00
1.277000000000000000e+03,-2.821775768545393137e-01,0.000000000000000000e+00
1.278000000000000000e+03,1.437898649014601044e-02,0.000000000000000000e+00
1.279000000000000000e+03,-1.049818895702762239e-01,0.000000000000000000e+00
1.280000000000000000e+03,5.773405806881541646e-02,0.000000000000000000e+00
1.281000000000000000e+03,1.840775438741678455e-02,0.000000000000000000e+00
1.282000000000000000e+03,2.090130699337256204e-01,0.000000000000000000e+00
1.283000000000000000e+03,5.152574518463756692e-02,0.000000000000000000e+00
1.284000000000000000e+03,2.080470472206419341e-01,0.000000000000000000e+00
1.285000000000000000e+03,-1.225426674361774181e-02,0.000000000000000000e+00
1.286000000000000000e+03,-9.334398950063638178e-02,0.000000000000000000e+00
1.287000000000000000e+03,-5.731501929772857967e-02,0.000000000000000000e+00
1.288000000000000000e+03,-1.214999955554801059e-01,0.000000000000000000e+00
1.289000000000000000e+03,-6.480069139061189754e-02,0.000000000000000000e+00
1.290000000000000000e+03,-2.368538188917803169e-02,0.000000000000000000e+00
1.291000000000000000e+03,-1.276971897748139552e-02,0.000000000000000000e+00
1.292000000000000000e+03,8.561239871131741397e-02,0.000000000000000000e+00
1.293000000000000000e+03,1.414295566428614148e-01,0.000000000000000000e+00
1.294000000000000000e+03,1.159761918966792371e-01,0.000000000000000000e+00
1.295000000000000000e+03,1.806933265327291538e-01,0.000000000000000000e+00
1.296000000000000000e+03,3.295036460924173904e-01,0.000000000000000000e+00
1.297000000000000000e+03,3.382111627532052855e-01,0.000000000000000000e+00
1.298000000000000000e+03,8.858477132321859737e-02,0.000000000000000000e+00
1.299000000000000000e+03,1.440607606005922872e-02,0.000000000000000000e+00
1.300000000000000000e+03,-7.898018099664082248e-02,0.000000000000000000e+00
1.301000000000000000e+03,-7.512876756176860293e-02,0.000000000000000000e+00
1.302000000000000000e+03,-2.478497190074679946e-01,0.000000000000000000e+00
1.303000000000000000e+03,-2.102648353105890378e-01,0.000000000000000000e+00
1.304000000000000000e+03,-1.643081372819152619e-01,0.000000000000000000e+00
1.305000000000000000e+03,-8.829559290479568195e-03,0.000000000000000000e+00
1.306000000000000000e+03,-2.615020897078947915e-01,0.000000000000000000e+00
1.307000000000000000e+03,3.734077305546769310e+00,0.000000000000000000e+00
1.308000000000000000e+03,4.860886954836366236e+00,0.000000000000000000e+00
1.309000000000000000e+03,-1.563690115366609845e+00,1.000000000000000000e+00
1.310000000000000000e+03,-1.063266825786552738e+00,0.000000000000000000e+00
1.311000000000000000e+03,-1.291931182422459301e+00,0.000000000000000000e+00
1.312000000000000000e+03,-8.872154660325605180e-01,0.000000000000000000e+00
1.313000000000000000e+03,-9.890767177649407715e-01,0.000000000000000000e+00
1.314000000000000000e+03,-7.773968872938236130e-01,0.000000000000000000e+00
1.315000000000000000e+03,-8.677539414324627609e-01,0.000000000000000000e+00
1.316000000000000000e+03,-5.551599864320490019e-01,0.000000000000000000e+00
1.317000000000000000e+03,-5.614595496409997555e-01,0.000000000000000000e+00
1.318000000000000000e+03,-3.435007029232271525e-01,0.000000000000000000e+00
1.319000000000000000e+03,-5.476169245005236830e-01,0.000000000000000000e+00
1.320000000000000000e+03,-1.437839520937041760e-01,0.000000000000000000e+00
1.321000000000000000e+03,-2.126228678201587952e-01,0.000000000000000000e+00
1.322000000000000000e+03,-4.030234997133076008e-02,0.000000000000000000e+00
1.323000000000000000e+03,1.248147884882422690e-02,0.000000000000000000e+00
1.324000000000000000e+03,2.021045999118802616e-01,0.000000000000000000e+00
1.325000000000000000e+03,1.980216860318438979e-02,0.000000000000000000e+00
1.326000000000000000e+03,1.844061953841149293e-01,0.000000000000000000e+00
1.327000000000000000e+03,-1.119870678265322689e-01,0.000000000000000000e+00
1.328000000000000000e+03,9.331408920422748499e-02,0.000000000000000000e+00
1.329000000000000000e+03,-2.441836055874742895e-01,0.000000000000000000e+00
1.330000000000000000e+03,-4.370173819636531676e-02,0.000000000000000000e+00
1.331000000000000000e+03,-3.144959785523268603e-01,0.000000000000000000e+00
1.332000000000000000e+03,6.697132113569258249e-02,0.000000000000000000e+00
1.333000000000000000e+03,-6.765800081490049023e-02,0.000000000000000000e+00
1.334000000000000000e+03,1.628104322121195768e-01,0.000000000000000000e+00
1.335000000000000000e+03,-3.732865484441841297e-02,0.000000000000000000e+00
1.336000000000000000e+03,1.542969720559952407e-01,0.000000000000000000e+00
1.337000000000000000e+03,-1.040375304131523071e-01,0.000000000000000000e+00
1.338000000000000000e+03,3.800194418941495456e-01,0.000000000000000000e+00
1.339000000000000000e+03,4.101988947946461628e-01,0.000000000000000000e+00
1.340000000000000000e+03,3.807353567098777369e-01,0.000000000000000000e+00
1.341000000000000000e+03,-1.038092418695595875e-01,0.000000000000000000e+00
1.342000000000000000e+03,1.729736258010377836e-01,0.000000000000000000e+00
1.343000000000000000e+03,-1.818315472246147535e-01,0.000000000000000000e+00
1.344000000000000000e+03,-1.139240831291338935e-01,0.000000000000000000e+00
1.345000000000000000e+03,-2.742663781442745141e-01,0.000000000000000000e+00
1.346000000000000000e+03,3.258723357218339112e-02,0.000000000000000000e+00
1.347000000000000000e+03,-2.644158292100365348e-01,0.000000000000000000e+00
1.348000000000000000e+03,1.007295518935225898e-01,0.000000000000000000e+00
1.349000000000000000e+03,7.025765847689430244e-01,0.000000000000000000e+00
1.350000000000000000e+03,5.949692503336335037e+00,0.000000000000000000e+00
1.351000000000000000e+03,1.844322069993971747e+00,1.000000000000000000e+00
1.352000000000000000e+03,-1.948933667614526577e+00,0.000000000000000000e+00
1.353000000000000000e+03,-7.145853550302900814e-01,0.000000000000000000e+00
1.354000000000000000e+03,-1.135617026905801463e+00,0.000000000000000000e+00
1.355000000000000000e+03,-8.997138684621807103e-01,0.000000000000000000e+00
1.356000000000000000e+03,-8.342648758563311340e-01,0.000000000000000000e+00
1.357000000000000000e+03,-7.183877743198520127e-01,0.000000000000000000e+00
1.358000000000000000e+03,-5.163805259903180289e-01,0.000000000000000000e+00
1.359000000000000000e+03,-5.470288960402854839e-01,0.000000000000000000e+00
1.360000000000000000e+03,-4.475661615103318502e-01,0.000000000000000000e+00
1.361000000000000000e+03,-3.156126852662127225e-01,0.000000000000000000e+00
1.362000000000000000e+03,-2.653175858845763790e-01,0.000000000000000000e+00
1.363000000000000000e+03,-2.197871550734940560e-01,0.000000000000000000e+00
1.364000000000000000e+03,1.718742263323452812e-01,0.000000000000000000e+00
1.365000000000000000e+03,9.518629707043085864e-02,0.000000000000000000e+00
1.366000000000000000e+03,4.078251353329237494e-02,0.000000000000000000e+00
1.367000000000000000e+03,1.537091978185915198e-01,0.000000000000000000e+00
1.368000000000000000e+03,4.014709780042658993e-01,0.000000000000000000e+00
1.369000000000000000e+03,-1.525691155286995615e-02,0.000000000000000000e+00
1.370000000000000000e+03,1.886243267033469451e-01,0.000000000000000000e+00
1.371000000000000000e+03,-8.116845361657654134e-02,0.000000000000000000e+00
1.372000000000000000e+03,-1.311930272307292589e-01,0.000000000000000000e+00
1.373000000000000000e+03,6.554008100757985344e-02,0.000000000000000000e+00
1.374000000000000000e+03,-7.350405932904614803e-02,0.000000000000000000e+00
1.375000000000000000e+03,5.511012224641904239e-02,0.000000000000000000e+00
1.376000000000000000e+03,2.154357769086350308e-02,0.000000000000000000e+00
1.377000000000000000e+03,8.436476859176547660e-02,0.000000000000000000e+00
1.378000000000000000e+03,2.623459574248629966e-01,0.000000000000000000e+00
1.379000000000000000e+03,5.022438219291595028e-03,0.000000000000000000e+00
1.380000000000000000e+03,2.618494008393028039e-01,0.000000000000000000e+00
1.381000000000000000e+03,1.813951808467047511e-01,0.000000000000000000e+00
1.382000000000000000e+03,2.606526271623744728e-01,0.000000000000000000e+00
1.383000000000000000e+03,1.023985154282682913e-01,0.000000000000000000e+00
1.384000000000000000e+03,3.439133822674209778e-02,0.000000000000000000e+00
1.385000000000000000e+03,-1.656940156684464371e-01,0.000000000000000000e+00
1.386000000000000000e+03,-1.564679499291674325e-01,0.000000000000000000e+00
1.387000000000000000e+03,-3.230031279118978915e-01,0.000000000000000000e+00
1.388000000000000000e+03,-5.528429401976173857e-02,0.000000000000000000e+00
1.389000000000000000e+03,-2.575277635983211910e-01,0.000000000000000000e+00
1.390000000000000000e+03,9.409606931105747585e-02,0.000000000000000000e+00
1.391000000000000000e+03,-3.818154342141421020e-01,0.000000000000000000e+00
1.392000000000000000e+03,4.144831967488073587e+00,0.000000000000000000e+00
1.393000000000000000e+03,4.221145684105047202e+00,0.000000000000000000e+00
1.394000000000000000e+03,-1.972825661876066672e+00,1.000000000000000000e+00
1.395000000000000000e+03,-8.395807494630184165e-01,0.000000000000000000e+00
1.396000000000000000e+03,-1.325677027210320880e+00,0.000000000000000000e+00
1.397000000000000000e+03,-9.565372601646129347e-01,0.000000000000000000e+00
1.398000000000000000e+03,-8.126966444915081356e-01,0.000000000000000000e+00
1.399000000000000000e+03,-6.755361560635488871e-01,0.000000000000000000e+00
1.400000000000000000e+03,-8.140824195254725559e-01,0.000000000000000000e+00
1.401000000000000000e+03,-5.580452849743261501e-01,0.000000000000000000e+00
1.402000000000000000e+03,-5.062374143975563179e-01,0.000000000000000000e+00
1.403000000000000000e+03,-3.860187590698692106e-01,0.000000000000000000e+00
1.404000000000000000e+03,-3.481544595818555909e-01,0.000000000000000000e+00
1.405000000000000000e+03,-3.193428707625143703e-03,0.000000000000000000e+00
1.406000000000000000e+03,-1.957606612854955741e-01,0.000000000000000000e+00
1.407000000000000000e+03,7.715997867020762957e-02,0.000000000000000000e+00
1.408000000000000000e+03,5.886898526812828908e-02,0.000000000000000000e+00
1.409000000000000000e+03,1.155917210283871066e-01,0.000000000000000000e+00
1.410000000000000000e+03,1.894935178034616585e-01,0.000000000000000000e+00
1.411000000000000000e+03,9.868101418602338859e-02,0.000000000000000000e+00
1.412000000000000000e+03,-1.689267456789453059e-01,0.000000000000000000e+00
1.413000000000000000e+03,-1.545675437700009744e-02,0.000000000000000000e+00
1.414000000000000000e+03,-2.323629791511056808e-01,0.000000000000000000e+00
1.415000000000000000e+03,-1.910022252079531802e-01,0.000000000000000000e+00
1.416000000000000000e+03,-4.236080886560174286e-02,0.000000000000000000e+00
1.417000000000000000e+03,-5.701708268784266842e-02,0.000000000000000000e+00
1.418000000000000000e+03,-8.234086612784826190e-03,0.000000000000000000e+00
1.419000000000000000e+03,1.321099920645996961e-01,0.000000000000000000e+00
1.420000000000000000e+03,1.082881265042320990e-01,0.000000000000000000e+00
1.421000000000000000e+03,1.402044416647131309e-01,0.000000000000000000e+00
1.422000000000000000e+03,1.076191211492229655e-01,0.000000000000000000e+00
1.423000000000000000e+03,3.317942925203927196e-01,0.000000000000000000e+00
1.424000000000000000e+03,1.127996018724672228e-01,0.000000000000000000e+00
1.425000000000000000e+03,3.692339831777736170e-01,0.000000000000000000e+00
1.426000000000000000e+03,1.941811133152124974e-02,0.000000000000000000e+00
1.427000000000000000e+03,1.069018007237752949e-01,0.000000000000000000e+00
1.428000000000000000e+03,-1.089550643696998167e-01,0.000000000000000000e+00
1.429000000000000000e+03,-1.002434620762638201e-01,0.000000000000000000e+00
1.430000000000000000e+03,-2.146182171777001879e-01,0.000000000000000000e+00
1.431000000000000000e+03,-4.470624936792194637e-02,0.000000000000000000e+00
1.432000000000000000e+03,-4.161705611742045480e-02,0.000000000000000000e+00
1.433000000000000000e+03,-1.811917865754554546e-01,0.000000000000000000e+00
1.434000000000000000e+03,1.106080661003389976e+00,0.000000000000000000e+00
1.435000000000000000e+03,5.482623647369105235e+00,0.000000000000000000e+00
1.436000000000000000e+03,1.035682117472595420e+00,1.000000000000000000e+00
1.437000000000000000e+03,-1.751075727361120382e+00,0.000000000000000000e+00
1.438000000000000000e+03,-8.624893697972817463e-01,0.000000000000000000e+00
1.439000000000000000e+03,-1.169521780064708638e+00,0.000000000000000000e+00
1.440000000000000000e+03,-6.684067418364771918e-01,0.000000000000000000e+00
1.441000000000000000e+03,-9.847664734174983447e-01,0.000000000000000000e+00
1.442000000000000000e+03,-5.758442713994972317e-01,0.000000000000000000e+00
1.443000000000000000e+03,-5.493472658288649502e-01,0.000000000000000000e+00
1.444000000000000000e+03,-4.865964632393728340e-01,0.000000000000000000e+00
1.445000000000000000e+03,-4.685990779979780640e-01,0.000000000000000000e+00
1.446000000000000000e+03,-2.341549514271721033e-01,0.000000000000000000e+00
1.447000000000000000e+03,-2.403366953071668366e-01,0.000000000000000000e+00
1.448000000000000000e+03,-1.000560898266431367e-02,0.000000000000000000e+00
1.449000000000000000e+03,-8.615630349185239567e-02,0.000000000000000000e+00
1.450000000000000000e+03,1.330442001664252916e-01,0.000000000000000000e+00
1.451000000000000000e+03,2.129562355358015080e-01,0.000000000000000000e+00
1.452000000000000000e+03,2.424205769816300537e-01,0.000000000000000000e+00
1.453000000000000000e+03,1.330127561701949790e-01,0.000000000000000000e+00
1.454000000000000000e+03,1.518736222894525589e-01,0.000000000000000000e+00
1.455000000000000000e+03,1.633031027468092103e-03,0.000000000000000000e+00
1.456000000000000000e+03,-1.025167864974648596e-01,0.000000000000000000e+00
1.457000000000000000e+03,-1.575441539850334083e-01,0.000000000000000000e+00
1.458000000000000000e+03,-1.197899297561434359e-02,0.000000000000000000e+00
1.459000000000000000e+03,-1.827506080965356390e-03,0.000000000000000000e+00
1.460000000000000000e+03,-2.909272467103258403e-02,0.000000000000000000e+00
1.461000000000000000e+03,6.300813184496138752e-02,0.000000000000000000e+00
1.462000000000000000e+03,7.295873701014003732e-02,0.000000000000000000e+00
1.463000000000000000e+03,9.181481238777214338e-02,0.000000000000000000e+00
1.464000000000000000e+03,1.502419510386449608e-01,0.000000000000000000e+00
1.465000000000000000e+03,2.776150446981718312e-01,0.000000000000000000e+00
1.466000000000000000e+03,3.141693032016629750e-01,0.000000000000000000e+00
1.467000000000000000e+03,1.774605101870629642e-01,0.000000000000000000e+00
1.468000000000000000e+03,1.891065665782464544e-01,0.000000000000000000e+00
1.469000000000000000e+03,2.370259840385171082e-02,0.000000000000000000e+00
1.470000000000000000e+03,6.995511641240473311e-02,0.000000000000000000e+00
1.471000000000000000e+03,-1.716266232502304534e-01,0.000000000000000000e+00
1.472000000000000000e+03,-2.366389166645208875e-01,0.000000000000000000e+00
1.473000000000000000e+03,-2.369517528463402078e-01,0.000000000000000000e+00
1.474000000000000000e+03,-8.288740457479626400e-02,0.000000000000000000e+00
1.475000000000000000e+03,-1.885110909843695781e-01,0.000000000000000000e+00
1.476000000000000000e+03,-1.183539669915587567e-01,0.000000000000000000e+00
1.477000000000000000e+03,2.739734609033626533e+00,0.000000000000000000e+00
1.478000000000000000e+03,5.295174629555580381e+00,0.000000000000000000e+00
1.479000000000000000e+03,-7.768248966280650869e-01,1.000000000000000000e+00
1.480000000000000000e+03,-1.169673476585812111e+00,0.000000000000000000e+00
1.481000000000000000e+03,-1.251858889095701199e+00,0.000000000000000000e+00
1.482000000000000000e+03,-9.308807865300029460e-01,0.000000000000000000e+00
1.483000000000000000e+03,-1.047218942100168526e+00,0.000000000000000000e+00
1.484000000000000000e+03,-7.934588462805819420e-01,0.000000000000000000e+00
1.485000000000000000e+03,-8.101445970273685182e-01,0.000000000000000000e+00
1.486000000000000000e+03,-5.849206328199130223e-01,0.000000000000000000e+00
1.487000000000000000e+03,-5.740887119225590585e-01,0.000000000000000000e+00
1.488000000000000000e+03,-4.572523771617461597e-01,0.000000000000000000e+00
1.489000000000000000e+03,-3.373793802633411887e-01,0.000000000000000000e+00
1.490000000000000000e+03,-2.894244475404453287e-01,0.000000000000000000e+00
1.491000000000000000e+03,-2.479172832144887484e-01,0.000000000000000000e+00
1.492000000000000000e+03,1.612892376641558434e-01,0.000000000000000000e+00
1.493000000000000000e+03,-4.511385811754220487e-02,0.000000000000000000e+00
1.494000000000000000e+03,1.212970587239571851e-01,0.000000000000000000e+00
1.495000000000000000e+03,1.877047433780178465e-01,0.000000000000000000e+00
1.496000000000000000e+03,1.994825985123495349e-01,0.000000000000000000e+00
1.497000000000000000e+03,-9.551195670703178930e-02,0.000000000000000000e+00
1.498000000000000000e+03,4.045410711267258784e-03,0.000000000000000000e+00
1.499000000000000000e+03,-1.003734980403736543e-01,0.000000000000000000e+00
1.500000000000000000e+03,-3.734248463803169216e-02,0.000000000000000000e+00
1.501000000000000000e+03,-1.468266043086615680e-01,0.000000000000000000e+00
1.502000000000000000e+03,7.134660553163997380e-03,0.000000000000000000e+00
1.503000000000000000e+03,-2.641241511442409817e-01,0.000000000000000000e+00
1.504000000000000000e+03,1.809802450701756549e-01,0.000000000000000000e+00
1.505000000000000000e+03,-8.440799385174152514e-02,0.000000000000000000e+00
1.506000000000000000e+03,2.149997373774987786e-01,0.000000000000000000e+00
1.507000000000000000e+03,7.895075777797426475e-02,0.000000000000000000e+00
1.508000000000000000e+03,3.888201866101181348e-01,0.000000000000000000e+00
1.509000000000000000e+03,2.557520302876062357e-01,0.000000000000000000e+00
1.510000000000000000e+03,4.072591670124559582e-01,0.000000000000000000e+00
1.511000000000000000e+03,-1.115667555337959416e-01,0.000000000000000000e+00
1.512000000000000000e+03,1.859469552484750154e-01,0.000000000000000000e+00
1.513000000000000000e+03,-1.701015297902543633e-01,0.000000000000000000e+00
1.514000000000000000e+03,-2.267284052917305226e-02,0.000000000000000000e+00
1.515000000000000000e+03,-2.213107479197423955e-01,0.000000000000000000e+00
1.516000000000000000e+03,5.975358206810583300e-02,0.000000000000000000e+00
1.517000000000000000e+03,-2.141390198347070395e-01,0.000000000000000000e+00
1.518000000000000000e+03,-7.020075165790538169e-03,0.000000000000000000e+00
1.519000000000000000e+03,6.952005944393840897e-01,0.000000000000000000e+00
1.520000000000000000e+03,5.993606372876836730e+00,0.000000000000000000e+00
1.521000000000000000e+03,1.652304026898945954e+00,1.000000000000000000e+00
1.522000000000000000e+03,-1.635536005870301901e+00,0.000000000000000000e+00
1.523000000000000000e+03,-8.839452148480534399e-01,0.000000000000000000e+00
1.524000000000000000e+03,-1.282702707320074298e+00,0.000000000000000000e+00
1.525000000000000000e+03,-8.947086809477969860e-01,0.000000000000000000e+00
1.526000000000000000e+03,-8.778733421248208213e-01,0.000000000000000000e+00
1.527000000000000000e+03,-7.362339828696468080e-01,0.000000000000000000e+00
1.528000000000000000e+03,-5.267882058036982285e-01,0.000000000000000000e+00
1.529000000000000000e+03,-5.371742310235159135e-01,0.000000000000000000e+00
1.530000000000000000e+03,-4.205485609991829743e-01,0.000000000000000000e+00
1.531000000000000000e+03,-3.648646226901779421e-01,0.000000000000000000e+00
1.532000000000000000e+03,-3.133574606395934659e-01,0.000000000000000000e+00
1.533000000000000000e+03,-2.390791733083154694e-02,0.000000000000000000e+00
1.534000000000000000e+03,-5.702413807720766586e-02,0.000000000000000000e+00
1.535000000000000000e+03,4.619604310989167129e-02,0.000000000000000000e+00
1.536000000000000000e+03,1.316284625773251615e-01,0.000000000000000000e+00
1.537000000000000000e+03,5.819219713423871149e-02,0.000000000000000000e+00
1.538000000000000000e+03,2.363086455163192212e-01,0.000000000000000000e+00
1.539000000000000000e+03,1.172679615912439535e-02,0.000000000000000000e+00
1.540000000000000000e+03,7.425125075943374287e-02,0.000000000000000000e+00
1.541000000000000000e+03,-7.366293022424534598e-02,0.000000000000000000e+00
1.542000000000000000e+03,-1.419701611621271564e-01,0.000000000000000000e+00
1.543000000000000000e+03,-1.674518408882634812e-01,0.000000000000000000e+00
1.544000000000000000e+03,2.383559089252184487e-02,0.000000000000000000e+00
1.545000000000000000e+03,-6.292218336574093018e-02,0.000000000000000000e+00
1.546000000000000000e+03,-5.031895832310228495e-02,0.000000000000000000e+00
1.547000000000000000e+03,-4.836621676524196362e-02,0.000000000000000000e+00
1.548000000000000000e+03,1.272884015493849497e-01,0.000000000000000000e+00
1.549000000000000000e+03,-1.627721398848257575e-02,0.000000000000000000e+00
1.550000000000000000e+03,5.016841957314337463e-01,0.000000000000000000e+00
1.551000000000000000e+03,2.032702610640061969e-01,0.000000000000000000e+00
1.552000000000000000e+03,1.829093880916143056e-01,0.000000000000000000e+00
1.553000000000000000e+03,-7.535319631483677894e-02,0.000000000000000000e+00
1.554000000000000000e+03,1.518079685386813094e-01,0.000000000000000000e+00
1.555000000000000000e+03,-2.455922488752510235e-01,0.000000000000000000e+00
1.556000000000000000e+03,-8.063145460295842448e-02,0.000000000000000000e+00
1.557000000000000000e+03,-3.162466327207716366e-01,0.000000000000000000e+00
1.558000000000000000e+03,-1.191132597763759349e-01,0.000000000000000000e+00
1.559000000000000000e+03,-3.497652293877386298e-01,0.000000000000000000e+00
1.560000000000000000e+03,3.465600945871132044e-02,0.000000000000000000e+00
1.561000000000000000e+03,5.007628508375098174e-03,0.000000000000000000e+00
1.562000000000000000e+03,5.072098081764200295e+00,0.000000000000000000e+00
1.563000000000000000e+03,3.469008305334114972e+00,1.000000000000000000e+00
1.564000000000000000e+03,-2.038084343930960163e+00,0.000000000000000000e+00
1.565000000000000000e+03,-8.984150198922938868e-01,0.000000000000000000e+00
1.566000000000000000e+03,-1.340365120118693465e+00,0.000000000000000000e+00
1.567000000000000000e+03,-8.315420616071673710e-01,0.000000000000000000e+00
1.568000000000000000e+03,-9.247176608508497209e-01,0.000000000000000000e+00
1.569000000000000000e+03,-6.696409758401039580e-01,0.000000000000000000e+00
1.570000000000000000e+03,-7.652131460077659098e-01,0.000000000000000000e+00
1.571000000000000000e+03,-4.176302145712277314e-01,0.000000000000000000e+00
1.572000000000000000e+03,-5.447749209579095808e-01,0.000000000000000000e+00
1.573000000000000000e+03,-3.488998822109098397e-01,0.000000000000000000e+00
1.574000000000000000e+03,-3.945430177910348446e-01,0.000000000000000000e+00
1.575000000000000000e+03,-1.119324105904565408e-01,0.000000000000000000e+00
1.576000000000000000e+03,8.821398292823230680e-02,0.000000000000000000e+00
1.577000000000000000e+03,1.062704528602771425e-01,0.000000000000000000e+00
1.578000000000000000e+03,-6.692621241138771437e-02,0.000000000000000000e+00
1.579000000000000000e+03,1.838934017307519708e-01,0.000000000000000000e+00
1.580000000000000000e+03,2.129188341156489916e-01,0.000000000000000000e+00
1.581000000000000000e+03,1.375528805320300474e-01,0.000000000000000000e+00
1.582000000000000000e+03,7.853989106938358278e-02,0.000000000000000000e+00
1.583000000000000000e+03,-6.363613175885499129e-02,0.000000000000000000e+00
1.584000000000000000e+03,-3.096010995269210531e-01,0.000000000000000000e+00
1.585000000000000000e+03,-8.388092807055171074e-02,0.000000000000000000e+00
