timestamp,ecg_measurement,qrs_detected
0.000000000000000000e+00,8.517148201576917044e-03,0.000000000000000000e+00
1.000000000000000000e+00,2.180195311373788192e-01,0.000000000000000000e+00
2.000000000000000000e+00,-6.709637172371449299e-02,0.000000000000000000e+00
3.000000000000000000e+00,1.810948860118370418e-01,0.000000000000000000e+00
4.000000000000000000e+00,1.797863506795667754e-01,0.000000000000000000e+00
5.000000000000000000e+00,3.163402648192575883e-01,0.000000000000000000e+00
6.000000000000000000e+00,2.489358714085907198e-01,0.000000000000000000e+00
7.000000000000000000e+00,1.051555569299523762e+00,0.000000000000000000e+00
8.000000000000000000e+00,6.265883467547456176e-01,0.000000000000000000e+00
9.000000000000000000e+00,8.141914995656150955e-01,0.000000000000000000e+00
1.000000000000000000e+01,2.552497839317198758e-01,0.000000000000000000e+00
1.100000000000000000e+01,-2.157699373674359100e-01,0.000000000000000000e+00
1.200000000000000000e+01,-1.914043096962371737e-01,0.000000000000000000e+00
1.300000000000000000e+01,-2.013177253713999137e-01,0.000000000000000000e+00
1.400000000000000000e+01,-2.125741558795312125e-01,0.000000000000000000e+00
1.500000000000000000e+01,3.017663356890400439e-01,0.000000000000000000e+00
1.600000000000000000e+01,-1.412107702449877378e+00,0.000000000000000000e+00
1.700000000000000000e+01,1.472557034054654324e+00,0.000000000000000000e+00
1.800000000000000000e+01,6.679704306629561827e+00,0.000000000000000000e+00
1.900000000000000000e+01,1.912256285280916401e+00,1.000000000000000000e+00
2.000000000000000000e+01,2.351123463132627489e-01,0.000000000000000000e+00
2.100000000000000000e+01,-1.749158265431849379e+00,0.000000000000000000e+00
2.200000000000000000e+01,-1.430732250784761295e+00,0.000000000000000000e+00
2.300000000000000000e+01,-1.658581254039541486e+00,0.000000000000000000e+00
2.400000000000000000e+01,-1.159100577637752760e+00,0.000000000000000000e+00
2.500000000000000000e+01,-1.182506335928960706e+00,0.000000000000000000e+00
2.600000000000000000e+01,-8.163516041699417913e-01,0.000000000000000000e+00
2.700000000000000000e+01,-9.706435143537774923e-01,0.000000000000000000e+00
2.800000000000000000e+01,-8.311581679727837457e-01,0.000000000000000000e+00
2.900000000000000000e+01,-5.843818927625175075e-01,0.000000000000000000e+00
3.000000000000000000e+01,-4.314095099264862454e-01,0.000000000000000000e+00
3.100000000000000000e+01,-2.400440955146628808e-01,0.000000000000000000e+00
3.200000000000000000e+01,3.992514170409193208e-01,0.000000000000000000e+00
3.300000000000000000e+01,4.417927649877055885e-01,0.000000000000000000e+00
3.400000000000000000e+01,8.157060700132359177e-01,0.000000000000000000e+00
3.500000000000000000e+01,8.265126621287914865e-01,0.000000000000000000e+00
3.600000000000000000e+01,1.143027446714580231e+00,0.000000000000000000e+00
3.700000000000000000e+01,6.523363463334913570e-01,0.000000000000000000e+00
3.800000000000000000e+01,2.238166225237296358e-01,0.000000000000000000e+00
3.900000000000000000e+01,-3.884187761118973459e-01,0.000000000000000000e+00
4.000000000000000000e+01,-5.165602787709656640e-01,0.000000000000000000e+00
4.100000000000000000e+01,-8.378468654573960617e-01,0.000000000000000000e+00
4.200000000000000000e+01,-6.241402812057456062e-01,0.000000000000000000e+00
4.300000000000000000e+01,-6.587428247533622105e-01,0.000000000000000000e+00
4.400000000000000000e+01,-5.161399103980702785e-01,0.000000000000000000e+00
4.500000000000000000e+01,-5.253323352066582297e-01,0.000000000000000000e+00
4.600000000000000000e+01,-5.008602973355157362e-01,0.000000000000000000e+00
4.700000000000000000e+01,-3.906137267135884050e-01,0.000000000000000000e+00
4.800000000000000000e+01,-2.609015518646999321e-01,0.000000000000000000e+00
4.900000000000000000e+01,-2.986431257195821254e-01,0.000000000000000000e+00
5.000000000000000000e+01,1.144285361380704275e-01,0.000000000000000000e+00
5.100000000000000000e+01,-1.350437729769194406e-01,0.000000000000000000e+00
5.200000000000000000e+01,-2.284856952819354706e-02,0.000000000000000000e+00
5.300000000000000000e+01,-2.478667071860161664e-01,0.000000000000000000e+00
5.400000000000000000e+01,-1.312064898645265154e-01,0.000000000000000000e+00
5.500000000000000000e+01,-9.526838380169935783e-02,0.000000000000000000e+00
5.600000000000000000e+01,-3.340669910010394400e-02,0.000000000000000000e+00
5.700000000000000000e+01,-1.031573877449969423e-01,0.000000000000000000e+00
5.800000000000000000e+01,1.496040207815534651e-01,0.000000000000000000e+00
5.900000000000000000e+01,-2.293044129648250107e-01,0.000000000000000000e+00
6.000000000000000000e+01,-1.156360876175638840e-02,0.000000000000000000e+00
6.100000000000000000e+01,-2.696261244643316859e-02,0.000000000000000000e+00
6.200000000000000000e+01,1.866048242541734348e-01,0.000000000000000000e+00
6.300000000000000000e+01,-2.681541322772450914e-02,0.000000000000000000e+00
6.400000000000000000e+01,1.025038324361719211e-01,0.000000000000000000e+00
6.500000000000000000e+01,-2.246512218612272543e-02,0.000000000000000000e+00
6.600000000000000000e+01,3.280439390909108410e-01,0.000000000000000000e+00
6.700000000000000000e+01,3.119640207072176263e-01,0.000000000000000000e+00
6.800000000000000000e+01,7.203857130744751869e-01,0.000000000000000000e+00
6.900000000000000000e+01,8.462006734510805206e-01,0.000000000000000000e+00
7.000000000000000000e+01,5.585156835396378749e-01,0.000000000000000000e+00
7.100000000000000000e+01,5.240030504090861241e-01,0.000000000000000000e+00
7.200000000000000000e+01,-2.982595883461921504e-01,0.000000000000000000e+00
7.300000000000000000e+01,-8.485561844232947237e-02,0.000000000000000000e+00
7.400000000000000000e+01,-3.675662498805823963e-01,0.000000000000000000e+00
7.500000000000000000e+01,-1.261089212723422448e-01,0.000000000000000000e+00
7.600000000000000000e+01,7.735517353531930207e-02,0.000000000000000000e+00
7.700000000000000000e+01,-4.657098790420833301e-01,0.000000000000000000e+00
7.800000000000000000e+01,-5.934859097619251678e-01,0.000000000000000000e+00
7.900000000000000000e+01,5.247928455495786793e+00,0.000000000000000000e+00
8.000000000000000000e+01,2.261010927474259358e+00,1.000000000000000000e+00
8.100000000000000000e+01,6.195979979480209510e-01,0.000000000000000000e+00
8.200000000000000000e+01,-7.494896088876141782e-01,0.000000000000000000e+00
8.300000000000000000e+01,-9.050798832644876279e-01,0.000000000000000000e+00
8.400000000000000000e+01,-1.046108533866133783e+00,0.000000000000000000e+00
8.500000000000000000e+01,-9.631138628469958496e-01,0.000000000000000000e+00
8.600000000000000000e+01,-6.706735530483172170e-01,0.000000000000000000e+00
8.700000000000000000e+01,-7.361205470340516088e-01,0.000000000000000000e+00
8.800000000000000000e+01,-4.727966703896105960e-01,0.000000000000000000e+00
8.900000000000000000e+01,-4.344448736502267705e-01,0.000000000000000000e+00
9.000000000000000000e+01,-1.791947836701181518e-01,0.000000000000000000e+00
9.100000000000000000e+01,-3.426947482829721392e-01,0.000000000000000000e+00
9.200000000000000000e+01,1.364306928605257818e-01,0.000000000000000000e+00
9.300000000000000000e+01,9.704145393575459855e-02,0.000000000000000000e+00
9.400000000000000000e+01,7.429128966665736744e-01,0.000000000000000000e+00
9.500000000000000000e+01,9.098917860429558413e-01,0.000000000000000000e+00
9.600000000000000000e+01,1.192609427061631644e+00,0.000000000000000000e+00
9.700000000000000000e+01,8.392901480779750845e-01,0.000000000000000000e+00
9.800000000000000000e+01,1.005577869775197808e+00,0.000000000000000000e+00
9.900000000000000000e+01,2.631193639651706606e-01,0.000000000000000000e+00
1.000000000000000000e+02,-1.055968811598572143e-01,0.000000000000000000e+00
1.010000000000000000e+02,-6.758084018339018950e-01,0.000000000000000000e+00
1.020000000000000000e+02,-9.697591014794532116e-01,0.000000000000000000e+00
1.030000000000000000e+02,-1.051215013469288362e+00,0.000000000000000000e+00
1.040000000000000000e+02,-5.930654584877398383e-01,0.000000000000000000e+00
1.050000000000000000e+02,-7.595058888267828268e-01,0.000000000000000000e+00
1.060000000000000000e+02,-6.938186556708447750e-01,0.000000000000000000e+00
1.070000000000000000e+02,-6.301691856183329055e-01,0.000000000000000000e+00
1.080000000000000000e+02,-3.977469267173560641e-01,0.000000000000000000e+00
1.090000000000000000e+02,-3.536709818726289090e-01,0.000000000000000000e+00
1.100000000000000000e+02,-6.011875456182214778e-02,0.000000000000000000e+00
1.110000000000000000e+02,-4.089223898405249247e-01,0.000000000000000000e+00
1.120000000000000000e+02,-3.168436865416819626e-02,0.000000000000000000e+00
1.130000000000000000e+02,-6.479083630035118446e-01,0.000000000000000000e+00
1.140000000000000000e+02,-4.563806119000732991e-02,0.000000000000000000e+00
1.150000000000000000e+02,-2.020679327629003041e-01,0.000000000000000000e+00
1.160000000000000000e+02,-7.522154734165874268e-02,0.000000000000000000e+00
1.170000000000000000e+02,-5.293710774573183453e-02,0.000000000000000000e+00
1.180000000000000000e+02,-1.699627055990300117e-01,0.000000000000000000e+00
1.190000000000000000e+02,-1.942456131440469524e-01,0.000000000000000000e+00
1.200000000000000000e+02,-6.870304797988323331e-02,0.000000000000000000e+00
1.210000000000000000e+02,-6.233887552439576485e-02,0.000000000000000000e+00
1.220000000000000000e+02,3.287546798762877587e-02,0.000000000000000000e+00
1.230000000000000000e+02,-4.052366037778864366e-02,0.000000000000000000e+00
1.240000000000000000e+02,-2.580636677921993583e-03,0.000000000000000000e+00
1.250000000000000000e+02,-9.206819564617330087e-02,0.000000000000000000e+00
1.260000000000000000e+02,2.394924612740951253e-01,0.000000000000000000e+00
1.270000000000000000e+02,7.440970422207797419e-02,0.000000000000000000e+00
1.280000000000000000e+02,4.803952612004887546e-01,0.000000000000000000e+00
1.290000000000000000e+02,1.690139422865048202e-01,0.000000000000000000e+00
1.300000000000000000e+02,9.294593650368833115e-01,0.000000000000000000e+00
1.310000000000000000e+02,7.152437196634180427e-01,0.000000000000000000e+00
1.320000000000000000e+02,6.872584909374844786e-01,0.000000000000000000e+00
1.330000000000000000e+02,2.283180313392029759e-01,0.000000000000000000e+00
1.340000000000000000e+02,1.140723154637006131e-01,0.000000000000000000e+00
1.350000000000000000e+02,-1.780530555737851184e-01,0.000000000000000000e+00
1.360000000000000000e+02,-1.074843269748814722e-01,0.000000000000000000e+00
1.370000000000000000e+02,-1.623897533891582312e-01,0.000000000000000000e+00
1.380000000000000000e+02,2.613023514148290483e-01,0.000000000000000000e+00
1.390000000000000000e+02,-9.664471883100858030e-01,0.000000000000000000e+00
1.400000000000000000e+02,6.260588480911245535e-01,0.000000000000000000e+00
1.410000000000000000e+02,5.189160377313720041e+00,0.000000000000000000e+00
1.420000000000000000e+02,1.645589759145872799e+00,1.000000000000000000e+00
1.430000000000000000e+02,4.671422248382295361e-01,0.000000000000000000e+00
1.440000000000000000e+02,-1.092457769820575075e+00,0.000000000000000000e+00
1.450000000000000000e+02,-1.063915633693819141e+00,0.000000000000000000e+00
1.460000000000000000e+02,-9.990080227294019233e-01,0.000000000000000000e+00
1.470000000000000000e+02,-1.098208744755629906e+00,0.000000000000000000e+00
1.480000000000000000e+02,-8.673844059391150330e-01,0.000000000000000000e+00
1.490000000000000000e+02,-6.450584839744240018e-01,0.000000000000000000e+00
1.500000000000000000e+02,-6.288658701897970049e-01,0.000000000000000000e+00
1.510000000000000000e+02,-6.082887661527708323e-01,0.000000000000000000e+00
1.520000000000000000e+02,-2.595680241159432633e-01,0.000000000000000000e+00
1.530000000000000000e+02,-2.392250084901275387e-01,0.000000000000000000e+00
1.540000000000000000e+02,1.191910604985182420e-01,0.000000000000000000e+00
1.550000000000000000e+02,4.009520679771104157e-01,0.000000000000000000e+00
1.560000000000000000e+02,5.559061245307314048e-01,0.000000000000000000e+00
1.570000000000000000e+02,7.875050803134145960e-01,0.000000000000000000e+00
1.580000000000000000e+02,8.505735898522259752e-01,0.000000000000000000e+00
1.590000000000000000e+02,1.357422727501864657e+00,0.000000000000000000e+00
1.600000000000000000e+02,7.501721452018090819e-01,0.000000000000000000e+00
1.610000000000000000e+02,1.390208020070398121e-01,0.000000000000000000e+00
1.620000000000000000e+02,-2.847500215475575747e-01,0.000000000000000000e+00
1.630000000000000000e+02,-6.510656107245329505e-01,0.000000000000000000e+00
1.640000000000000000e+02,-8.165936890665024261e-01,0.000000000000000000e+00
1.650000000000000000e+02,-7.262921920007100463e-01,0.000000000000000000e+00
1.660000000000000000e+02,-7.095874239792688831e-01,0.000000000000000000e+00
1.670000000000000000e+02,-6.279043209797633418e-01,0.000000000000000000e+00
1.680000000000000000e+02,-4.227618917873798843e-01,0.000000000000000000e+00
1.690000000000000000e+02,-4.091796000903797359e-01,0.000000000000000000e+00
1.700000000000000000e+02,-1.515399983997919586e-01,0.000000000000000000e+00
1.710000000000000000e+02,-2.026795554349518080e-01,0.000000000000000000e+00
1.720000000000000000e+02,-9.828084474731094144e-02,0.000000000000000000e+00
1.730000000000000000e+02,-1.506979658934494426e-01,0.000000000000000000e+00
1.740000000000000000e+02,-2.066205826793062750e-01,0.000000000000000000e+00
1.750000000000000000e+02,-9.743789777971900712e-02,0.000000000000000000e+00
1.760000000000000000e+02,-3.016605618233870190e-01,0.000000000000000000e+00
1.770000000000000000e+02,-2.630447252115160617e-01,0.000000000000000000e+00
1.780000000000000000e+02,-1.727040722233780246e-02,0.000000000000000000e+00
1.790000000000000000e+02,-3.184992010799927442e-01,0.000000000000000000e+00
1.800000000000000000e+02,-2.541080389002457231e-03,0.000000000000000000e+00
1.810000000000000000e+02,-7.675761218376779549e-02,0.000000000000000000e+00
1.820000000000000000e+02,-6.359856437520684802e-02,0.000000000000000000e+00
1.830000000000000000e+02,-1.332172413673974043e-01,0.000000000000000000e+00
1.840000000000000000e+02,3.331892153128983985e-02,0.000000000000000000e+00
1.850000000000000000e+02,-1.300332058081962172e-01,0.000000000000000000e+00
1.860000000000000000e+02,2.673187629075008953e-01,0.000000000000000000e+00
1.870000000000000000e+02,-6.567532296298250749e-02,0.000000000000000000e+00
1.880000000000000000e+02,5.600938714378091848e-02,0.000000000000000000e+00
1.890000000000000000e+02,7.883517541445685117e-02,0.000000000000000000e+00
1.900000000000000000e+02,1.767990848538742998e-01,0.000000000000000000e+00
1.910000000000000000e+02,-3.237294014029858591e-04,0.000000000000000000e+00
1.920000000000000000e+02,3.186551782649232889e-01,0.000000000000000000e+00
1.930000000000000000e+02,5.848299896061006642e-01,0.000000000000000000e+00
1.940000000000000000e+02,8.576954529304304797e-01,0.000000000000000000e+00
1.950000000000000000e+02,7.200521315496440922e-01,0.000000000000000000e+00
1.960000000000000000e+02,1.922334647619704795e-01,0.000000000000000000e+00
1.970000000000000000e+02,-8.747605579584123714e-02,0.000000000000000000e+00
1.980000000000000000e+02,-2.478670098359250229e-01,0.000000000000000000e+00
1.990000000000000000e+02,-2.555053288398989597e-01,0.000000000000000000e+00
2.000000000000000000e+02,-3.719978854730336404e-01,0.000000000000000000e+00
2.010000000000000000e+02,2.899473515261140055e-01,0.000000000000000000e+00
2.020000000000000000e+02,-7.257011199899260356e-01,0.000000000000000000e+00
2.030000000000000000e+02,-8.422877607887940821e-01,0.000000000000000000e+00
2.040000000000000000e+02,6.084207255014842275e+00,0.000000000000000000e+00
2.050000000000000000e+02,3.596256275068407504e+00,1.000000000000000000e+00
2.060000000000000000e+02,4.010483351006808306e-01,0.000000000000000000e+00
2.070000000000000000e+02,-1.016807853393095318e+00,0.000000000000000000e+00
2.080000000000000000e+02,-1.682760913546108128e+00,0.000000000000000000e+00
2.090000000000000000e+02,-1.365738145162009198e+00,0.000000000000000000e+00
2.100000000000000000e+02,-1.435727678312390010e+00,0.000000000000000000e+00
2.110000000000000000e+02,-1.220098571086959405e+00,0.000000000000000000e+00
2.120000000000000000e+02,-1.021798809660307894e+00,0.000000000000000000e+00
2.130000000000000000e+02,-1.046112999021840739e+00,0.000000000000000000e+00
2.140000000000000000e+02,-9.151761836014793428e-01,0.000000000000000000e+00
2.150000000000000000e+02,-5.030436050356055233e-01,0.000000000000000000e+00
2.160000000000000000e+02,-4.316901883121593841e-01,0.000000000000000000e+00
2.170000000000000000e+02,-3.047059320537749971e-01,0.000000000000000000e+00
2.180000000000000000e+02,2.887047461246097235e-01,0.000000000000000000e+00
2.190000000000000000e+02,2.278465757560356186e-01,0.000000000000000000e+00
2.200000000000000000e+02,4.343746091087927752e-01,0.000000000000000000e+00
2.210000000000000000e+02,1.051404925507262167e+00,0.000000000000000000e+00
2.220000000000000000e+02,9.146484461042515557e-01,0.000000000000000000e+00
2.230000000000000000e+02,8.488763134029100321e-01,0.000000000000000000e+00
2.240000000000000000e+02,3.064935009642718589e-01,0.000000000000000000e+00
2.250000000000000000e+02,-7.771980164525331414e-02,0.000000000000000000e+00
2.260000000000000000e+02,-5.267287935821034495e-01,0.000000000000000000e+00
2.270000000000000000e+02,-7.890138407229724260e-01,0.000000000000000000e+00
2.280000000000000000e+02,-6.583925189279278278e-01,0.000000000000000000e+00
2.290000000000000000e+02,-5.739817980683781240e-01,0.000000000000000000e+00
2.300000000000000000e+02,-6.068530377621107474e-01,0.000000000000000000e+00
2.310000000000000000e+02,-3.988689007239772932e-01,0.000000000000000000e+00
2.320000000000000000e+02,-5.001517128058052819e-01,0.000000000000000000e+00
2.330000000000000000e+02,-3.952467136469211550e-01,0.000000000000000000e+00
2.340000000000000000e+02,-2.856533999062081386e-01,0.000000000000000000e+00
2.350000000000000000e+02,-2.664584468048794563e-01,0.000000000000000000e+00
2.360000000000000000e+02,-1.926714277759688024e-02,0.000000000000000000e+00
2.370000000000000000e+02,-2.401457130260101769e-01,0.000000000000000000e+00
2.380000000000000000e+02,2.897602795061332559e-02,0.000000000000000000e+00
2.390000000000000000e+02,-2.163081168599117754e-01,0.000000000000000000e+00
2.400000000000000000e+02,-2.753792424049794074e-01,0.000000000000000000e+00
2.410000000000000000e+02,8.929704662356979794e-02,0.000000000000000000e+00
2.420000000000000000e+02,-1.140433479977028958e-01,0.000000000000000000e+00
2.430000000000000000e+02,1.357636137594872838e-01,0.000000000000000000e+00
2.440000000000000000e+02,-1.103868455761548711e-01,0.000000000000000000e+00
2.450000000000000000e+02,1.458349064016735697e-01,0.000000000000000000e+00
2.460000000000000000e+02,-4.759492665487033425e-02,0.000000000000000000e+00
2.470000000000000000e+02,2.046251594433583787e-01,0.000000000000000000e+00
2.480000000000000000e+02,1.031606597884514726e-01,0.000000000000000000e+00
2.490000000000000000e+02,2.005327194866640128e-01,0.000000000000000000e+00
2.500000000000000000e+02,-1.491877728901560250e-02,0.000000000000000000e+00
2.510000000000000000e+02,3.380173490922880331e-01,0.000000000000000000e+00
2.520000000000000000e+02,1.170329557445014823e-01,0.000000000000000000e+00
2.530000000000000000e+02,2.245165208667947720e-01,0.000000000000000000e+00
2.540000000000000000e+02,3.365543668872291172e-01,0.000000000000000000e+00
2.550000000000000000e+02,1.950605418362157117e-01,0.000000000000000000e+00
2.560000000000000000e+02,2.628799764888390400e-01,0.000000000000000000e+00
2.570000000000000000e+02,2.531205980632780794e-01,0.000000000000000000e+00
2.580000000000000000e+02,4.844597912031361475e-01,0.000000000000000000e+00
2.590000000000000000e+02,1.078008218135593665e+00,0.000000000000000000e+00
2.600000000000000000e+02,7.854840330644354829e-01,0.000000000000000000e+00
2.610000000000000000e+02,7.340665224134659272e-01,0.000000000000000000e+00
2.620000000000000000e+02,1.065689732454253025e-01,0.000000000000000000e+00
2.630000000000000000e+02,6.182749485600873979e-02,0.000000000000000000e+00
2.640000000000000000e+02,-3.669182403309595442e-01,0.000000000000000000e+00
2.650000000000000000e+02,4.379835841876308922e-02,0.000000000000000000e+00
2.660000000000000000e+02,-3.836149703021741741e-01,0.000000000000000000e+00
2.670000000000000000e+02,2.319534333405459947e-01,0.000000000000000000e+00
2.680000000000000000e+02,-1.496109320767166961e+00,0.000000000000000000e+00
2.690000000000000000e+02,1.009911516628163808e+00,0.000000000000000000e+00
2.700000000000000000e+02,7.029207252153637953e+00,0.000000000000000000e+00
2.710000000000000000e+02,2.164751288511205018e+00,1.000000000000000000e+00
2.720000000000000000e+02,5.437117927396625805e-02,0.000000000000000000e+00
2.730000000000000000e+02,-1.467444660623387964e+00,0.000000000000000000e+00
2.740000000000000000e+02,-1.293167448228271565e+00,0.000000000000000000e+00
2.750000000000000000e+02,-1.461104587865423410e+00,0.000000000000000000e+00
2.760000000000000000e+02,-1.071226924425718652e+00,0.000000000000000000e+00
2.770000000000000000e+02,-1.110514885212019465e+00,0.000000000000000000e+00
2.780000000000000000e+02,-1.103575523894913424e+00,0.000000000000000000e+00
2.790000000000000000e+02,-8.660669839677684889e-01,0.000000000000000000e+00
2.800000000000000000e+02,-5.806868453682214604e-01,0.000000000000000000e+00
2.810000000000000000e+02,-6.281912768330882857e-01,0.000000000000000000e+00
2.820000000000000000e+02,-1.774438651831716229e-01,0.000000000000000000e+00
2.830000000000000000e+02,-3.667988480381189076e-01,0.000000000000000000e+00
2.840000000000000000e+02,1.310701343622608928e-01,0.000000000000000000e+00
2.850000000000000000e+02,4.043834478662994836e-01,0.000000000000000000e+00
2.860000000000000000e+02,7.254074349681438605e-01,0.000000000000000000e+00
2.870000000000000000e+02,9.207436046828859633e-01,0.000000000000000000e+00
2.880000000000000000e+02,8.576573421364651617e-01,0.000000000000000000e+00
2.890000000000000000e+02,8.401390747249277702e-01,0.000000000000000000e+00
2.900000000000000000e+02,1.864768727173099494e-02,0.000000000000000000e+00
2.910000000000000000e+02,-1.255098224260797757e-01,0.000000000000000000e+00
2.920000000000000000e+02,-4.909535337035708658e-01,0.000000000000000000e+00
2.930000000000000000e+02,-7.750987509210983673e-01,0.000000000000000000e+00
2.940000000000000000e+02,-6.534945357844416103e-01,0.000000000000000000e+00
2.950000000000000000e+02,-7.907271046337200904e-01,0.000000000000000000e+00
2.960000000000000000e+02,-5.222067415412374736e-01,0.000000000000000000e+00
2.970000000000000000e+02,-5.657556185486005695e-01,0.000000000000000000e+00
2.980000000000000000e+02,-3.292265316001752873e-01,0.000000000000000000e+00
2.990000000000000000e+02,-5.603602436908916573e-01,0.000000000000000000e+00
3.000000000000000000e+02,-2.561584058867747982e-01,0.000000000000000000e+00
3.010000000000000000e+02,-4.129717565712031080e-01,0.000000000000000000e+00
3.020000000000000000e+02,-6.496263158731403753e-02,0.000000000000000000e+00
3.030000000000000000e+02,-3.578967748100115864e-01,0.000000000000000000e+00
3.040000000000000000e+02,4.612393021858642722e-02,0.000000000000000000e+00
3.050000000000000000e+02,-3.574460945574102766e-01,0.000000000000000000e+00
3.060000000000000000e+02,-1.377364641119187792e-02,0.000000000000000000e+00
3.070000000000000000e+02,-1.620593109376621543e-01,0.000000000000000000e+00
3.080000000000000000e+02,-2.013493204357217625e-01,0.000000000000000000e+00
3.090000000000000000e+02,-8.272133719075494551e-02,0.000000000000000000e+00
3.100000000000000000e+02,-8.685361476158759420e-02,0.000000000000000000e+00
3.110000000000000000e+02,-1.225729947512870510e-01,0.000000000000000000e+00
3.120000000000000000e+02,-4.612909882429154507e-02,0.000000000000000000e+00
3.130000000000000000e+02,3.448890587497984578e-02,0.000000000000000000e+00
3.140000000000000000e+02,1.174912958690852854e-01,0.000000000000000000e+00
3.150000000000000000e+02,5.964073995684865404e-02,0.000000000000000000e+00
3.160000000000000000e+02,1.268921347734242311e-01,0.000000000000000000e+00
3.170000000000000000e+02,-5.654359430447443435e-02,0.000000000000000000e+00
3.180000000000000000e+02,2.235464523117863256e-01,0.000000000000000000e+00
3.190000000000000000e+02,1.301308503758281943e-01,0.000000000000000000e+00
3.200000000000000000e+02,4.379943858373709920e-01,0.000000000000000000e+00
3.210000000000000000e+02,4.407030771373542932e-01,0.000000000000000000e+00
3.220000000000000000e+02,1.146446793192300362e+00,0.000000000000000000e+00
3.230000000000000000e+02,5.790617445412598041e-01,0.000000000000000000e+00
3.240000000000000000e+02,5.995923613232782001e-01,0.000000000000000000e+00
3.250000000000000000e+02,-1.379292937793354101e-01,0.000000000000000000e+00
3.260000000000000000e+02,-7.062049135583001180e-02,0.000000000000000000e+00
3.270000000000000000e+02,-5.509922925487338308e-01,0.000000000000000000e+00
3.280000000000000000e+02,-6.864356508421311232e-02,0.000000000000000000e+00
3.290000000000000000e+02,-3.533226506030492930e-01,0.000000000000000000e+00
3.300000000000000000e+02,1.110685193069156779e-01,0.000000000000000000e+00
3.310000000000000000e+02,-1.560087469374626945e+00,0.000000000000000000e+00
3.320000000000000000e+02,4.674869162854466076e+00,0.000000000000000000e+00
3.330000000000000000e+02,3.685133406779833365e+00,1.000000000000000000e+00
3.340000000000000000e+02,8.548408050603372166e-01,0.000000000000000000e+00
3.350000000000000000e+02,-4.465162789471314175e-01,0.000000000000000000e+00
3.360000000000000000e+02,-1.446236326681200612e+00,0.000000000000000000e+00
3.370000000000000000e+02,-7.906068010384073030e-01,0.000000000000000000e+00
3.380000000000000000e+02,-1.324995998862216640e+00,0.000000000000000000e+00
3.390000000000000000e+02,-7.590887116437087245e-01,0.000000000000000000e+00
3.400000000000000000e+02,-8.289884263294898803e-01,0.000000000000000000e+00
3.410000000000000000e+02,-5.638584114848140816e-01,0.000000000000000000e+00
3.420000000000000000e+02,-6.502698256368908414e-01,0.000000000000000000e+00
3.430000000000000000e+02,-2.682429604572282855e-01,0.000000000000000000e+00
3.440000000000000000e+02,-5.042367803790843706e-01,0.000000000000000000e+00
3.450000000000000000e+02,-3.447258325885423601e-03,0.000000000000000000e+00
3.460000000000000000e+02,3.009074199233299773e-01,0.000000000000000000e+00
3.470000000000000000e+02,3.666813137560761549e-01,0.000000000000000000e+00
3.480000000000000000e+02,8.026470827879549352e-01,0.000000000000000000e+00
3.490000000000000000e+02,8.644432390559922963e-01,0.000000000000000000e+00
3.500000000000000000e+02,1.091803608084196187e+00,0.000000000000000000e+00
3.510000000000000000e+02,1.139294028237788803e+00,0.000000000000000000e+00
3.520000000000000000e+02,4.963294329017460815e-01,0.000000000000000000e+00
3.530000000000000000e+02,-2.964076045114492630e-01,0.000000000000000000e+00
3.540000000000000000e+02,-2.326061199794726975e-01,0.000000000000000000e+00
3.550000000000000000e+02,-1.171163896749239264e+00,0.000000000000000000e+00
3.560000000000000000e+02,-8.225494134604068863e-01,0.000000000000000000e+00
3.570000000000000000e+02,-5.734831487972401609e-01,0.000000000000000000e+00
3.580000000000000000e+02,-8.783169249571340931e-01,0.000000000000000000e+00
3.590000000000000000e+02,-5.083199610199888863e-01,0.000000000000000000e+00
3.600000000000000000e+02,-5.918516295456806020e-01,0.000000000000000000e+00
3.610000000000000000e+02,-5.490672903648139425e-01,0.000000000000000000e+00
3.620000000000000000e+02,-1.950012823602664813e-01,0.000000000000000000e+00
3.630000000000000000e+02,-2.580773726984649796e-01,0.000000000000000000e+00
3.640000000000000000e+02,-2.574380123062205428e-01,0.000000000000000000e+00
3.650000000000000000e+02,-2.229500365829752417e-01,0.000000000000000000e+00
3.660000000000000000e+02,-4.482926233435841068e-02,0.000000000000000000e+00
3.670000000000000000e+02,-2.579718360608110328e-01,0.000000000000000000e+00
3.680000000000000000e+02,8.873814922948541212e-03,0.000000000000000000e+00
3.690000000000000000e+02,-1.974669239765520501e-01,0.000000000000000000e+00
3.700000000000000000e+02,-9.960137739319804839e-02,0.000000000000000000e+00
3.710000000000000000e+02,-3.010235801586147453e-01,0.000000000000000000e+00
3.720000000000000000e+02,-5.837092649315003129e-02,0.000000000000000000e+00
3.730000000000000000e+02,-6.727568496330590953e-02,0.000000000000000000e+00
3.740000000000000000e+02,1.016470784160361518e-01,0.000000000000000000e+00
3.750000000000000000e+02,-5.852634127651519351e-03,0.000000000000000000e+00
3.760000000000000000e+02,3.426862254274909425e-02,0.000000000000000000e+00
3.770000000000000000e+02,1.796833207039650326e-01,0.000000000000000000e+00
3.780000000000000000e+02,3.550200810351075622e-03,0.000000000000000000e+00
3.790000000000000000e+02,-9.140970614652188519e-03,0.000000000000000000e+00
3.800000000000000000e+02,1.467993914460415938e-01,0.000000000000000000e+00
3.810000000000000000e+02,4.127300929601815382e-01,0.000000000000000000e+00
3.820000000000000000e+02,8.616705606143429952e-01,0.000000000000000000e+00
3.830000000000000000e+02,5.293953151595973683e-01,0.000000000000000000e+00
3.840000000000000000e+02,4.866642795223636297e-01,0.000000000000000000e+00
3.850000000000000000e+02,-3.314203770970853835e-01,0.000000000000000000e+00
3.860000000000000000e+02,-3.796365589854479305e-02,0.000000000000000000e+00
3.870000000000000000e+02,-1.079126743452684112e-01,0.000000000000000000e+00
3.880000000000000000e+02,-2.176394384697063478e-01,0.000000000000000000e+00
3.890000000000000000e+02,-3.215465512919781776e-01,0.000000000000000000e+00
3.900000000000000000e+02,-4.067211549372849039e-02,0.000000000000000000e+00
3.910000000000000000e+02,-1.012343639779454296e+00,0.000000000000000000e+00
3.920000000000000000e+02,4.545626048036186084e+00,0.000000000000000000e+00
3.930000000000000000e+02,2.552745306964028238e+00,1.000000000000000000e+00
3.940000000000000000e+02,4.029376489109021686e-01,0.000000000000000000e+00
3.950000000000000000e+02,-4.755502864845672084e-01,0.000000000000000000e+00
3.960000000000000000e+02,-9.735737425945116819e-01,0.000000000000000000e+00
3.970000000000000000e+02,-9.262060240269418543e-01,0.000000000000000000e+00
3.980000000000000000e+02,-7.900180325537486947e-01,0.000000000000000000e+00
3.990000000000000000e+02,-6.902374920991061202e-01,0.000000000000000000e+00
4.000000000000000000e+02,-6.628408525278383090e-01,0.000000000000000000e+00
4.010000000000000000e+02,-5.227424144554869700e-01,0.000000000000000000e+00
4.020000000000000000e+02,-4.121948176089501037e-01,0.000000000000000000e+00
4.030000000000000000e+02,-2.199271312881807827e-01,0.000000000000000000e+00
4.040000000000000000e+02,-3.395042319829462696e-01,0.000000000000000000e+00
4.050000000000000000e+02,2.093746853500342564e-01,0.000000000000000000e+00
4.060000000000000000e+02,4.188777945702637506e-01,0.000000000000000000e+00
4.070000000000000000e+02,6.867174316609589990e-01,0.000000000000000000e+00
4.080000000000000000e+02,8.155605577452289534e-01,0.000000000000000000e+00
4.090000000000000000e+02,1.200630831202237792e+00,0.000000000000000000e+00
4.100000000000000000e+02,1.157540379459788937e+00,0.000000000000000000e+00
4.110000000000000000e+02,9.280276094241907137e-01,0.000000000000000000e+00
4.120000000000000000e+02,4.451616588676162722e-01,0.000000000000000000e+00
4.130000000000000000e+02,-1.570869398982525575e-02,0.000000000000000000e+00
4.140000000000000000e+02,-5.724182826553076975e-01,0.000000000000000000e+00
4.150000000000000000e+02,-8.562291079804713601e-01,0.000000000000000000e+00
4.160000000000000000e+02,-8.602539986132557992e-01,0.000000000000000000e+00
4.170000000000000000e+02,-7.180117431712784715e-01,0.000000000000000000e+00
4.180000000000000000e+02,-9.486467749319179577e-01,0.000000000000000000e+00
4.190000000000000000e+02,-5.099772214542511728e-01,0.000000000000000000e+00
4.200000000000000000e+02,-6.294949354811988362e-01,0.000000000000000000e+00
4.210000000000000000e+02,-5.356038590109131192e-01,0.000000000000000000e+00
4.220000000000000000e+02,-2.533736434495653111e-01,0.000000000000000000e+00
4.230000000000000000e+02,-3.795074123685386880e-01,0.000000000000000000e+00
4.240000000000000000e+02,-1.333612368677511428e-01,0.000000000000000000e+00
4.250000000000000000e+02,-1.358805456032799452e-01,0.000000000000000000e+00
4.260000000000000000e+02,-2.072160950311916772e-01,0.000000000000000000e+00
4.270000000000000000e+02,-1.983469763451739531e-01,0.000000000000000000e+00
4.280000000000000000e+02,-2.883680498419556315e-01,0.000000000000000000e+00
4.290000000000000000e+02,-2.298661340637131456e-01,0.000000000000000000e+00
4.300000000000000000e+02,-3.115947438346926557e-01,0.000000000000000000e+00
4.310000000000000000e+02,-1.132912272672940701e-01,0.000000000000000000e+00
4.320000000000000000e+02,6.542765311270287709e-02,0.000000000000000000e+00
4.330000000000000000e+02,-4.003174261754354618e-02,0.000000000000000000e+00
4.340000000000000000e+02,-6.005067736368985970e-02,0.000000000000000000e+00
4.350000000000000000e+02,-1.610586775357513156e-01,0.000000000000000000e+00
4.360000000000000000e+02,1.505256683270300988e-01,0.000000000000000000e+00
4.370000000000000000e+02,-2.746233118011955077e-02,0.000000000000000000e+00
4.380000000000000000e+02,1.729157362582103008e-01,0.000000000000000000e+00
4.390000000000000000e+02,5.164061245428928221e-02,0.000000000000000000e+00
4.400000000000000000e+02,1.406143687235340001e-01,0.000000000000000000e+00
4.410000000000000000e+02,7.039246646958711995e-02,0.000000000000000000e+00
4.420000000000000000e+02,1.619549423601252813e-01,0.000000000000000000e+00
4.430000000000000000e+02,2.006083222920477527e-01,0.000000000000000000e+00
4.440000000000000000e+02,7.114985011740183607e-01,0.000000000000000000e+00
4.450000000000000000e+02,4.954287387767612461e-01,0.000000000000000000e+00
4.460000000000000000e+02,1.050622007353953391e+00,0.000000000000000000e+00
4.470000000000000000e+02,-3.416683896558375937e-03,0.000000000000000000e+00
4.480000000000000000e+02,-1.247480628295409427e-01,0.000000000000000000e+00
4.490000000000000000e+02,-3.074850011841774311e-01,0.000000000000000000e+00
4.500000000000000000e+02,-2.764395409108018342e-02,0.000000000000000000e+00
4.510000000000000000e+02,-3.283389708244747185e-01,0.000000000000000000e+00
4.520000000000000000e+02,2.081329220133675828e-01,0.000000000000000000e+00
4.530000000000000000e+02,-8.670635170418445892e-01,0.000000000000000000e+00
4.540000000000000000e+02,6.444044295907351838e-01,0.000000000000000000e+00
4.550000000000000000e+02,6.113898427288075865e+00,0.000000000000000000e+00
4.560000000000000000e+02,2.270127068977004114e+00,1.000000000000000000e+00
4.570000000000000000e+02,5.375366668903737155e-01,0.000000000000000000e+00
4.580000000000000000e+02,-1.375806389915240402e+00,0.000000000000000000e+00
4.590000000000000000e+02,-9.388332178877555334e-01,0.000000000000000000e+00
4.600000000000000000e+02,-1.310841006808129539e+00,0.000000000000000000e+00
4.610000000000000000e+02,-1.105599688145685988e+00,0.000000000000000000e+00
4.620000000000000000e+02,-1.157445338055609341e+00,0.000000000000000000e+00
4.630000000000000000e+02,-8.029237477603878848e-01,0.000000000000000000e+00
4.640000000000000000e+02,-8.261134224520141345e-01,0.000000000000000000e+00
4.650000000000000000e+02,-6.376287813267880189e-01,0.000000000000000000e+00
4.660000000000000000e+02,-4.700338955049039869e-01,0.000000000000000000e+00
4.670000000000000000e+02,-6.470011369409311985e-02,0.000000000000000000e+00
4.680000000000000000e+02,-7.028046657139407072e-02,0.000000000000000000e+00
4.690000000000000000e+02,7.816151917795116644e-02,0.000000000000000000e+00
4.700000000000000000e+02,6.639073991264210495e-01,0.000000000000000000e+00
4.710000000000000000e+02,8.810081108961218543e-01,0.000000000000000000e+00
4.720000000000000000e+02,7.695244197904408390e-01,0.000000000000000000e+00
4.730000000000000000e+02,1.087401927709278571e+00,0.000000000000000000e+00
4.740000000000000000e+02,6.933298833607639544e-01,0.000000000000000000e+00
4.750000000000000000e+02,3.787628183615049937e-01,0.000000000000000000e+00
4.760000000000000000e+02,-3.696282944260846359e-01,0.000000000000000000e+00
4.770000000000000000e+02,-5.633763774653958167e-01,0.000000000000000000e+00
4.780000000000000000e+02,-8.652416186474670701e-01,0.000000000000000000e+00
4.790000000000000000e+02,-5.671953399238183202e-01,0.000000000000000000e+00
4.800000000000000000e+02,-7.930493140178012101e-01,0.000000000000000000e+00
4.810000000000000000e+02,-3.995828795798048727e-01,0.000000000000000000e+00
4.820000000000000000e+02,-3.972750392487878202e-01,0.000000000000000000e+00
4.830000000000000000e+02,-6.371328490541703360e-01,0.000000000000000000e+00
4.840000000000000000e+02,-1.052391592100939410e-01,0.000000000000000000e+00
4.850000000000000000e+02,-3.474260233525863772e-01,0.000000000000000000e+00
4.860000000000000000e+02,-3.870701116433611921e-01,0.000000000000000000e+00
4.870000000000000000e+02,9.928754263630142074e-02,0.000000000000000000e+00
4.880000000000000000e+02,-2.314940360709676348e-01,0.000000000000000000e+00
4.890000000000000000e+02,1.078820609135283659e-01,0.000000000000000000e+00
4.900000000000000000e+02,-3.836412471335884367e-01,0.000000000000000000e+00
4.910000000000000000e+02,6.994966018591838863e-02,0.000000000000000000e+00
4.920000000000000000e+02,-2.172401372582324630e-01,0.000000000000000000e+00
4.930000000000000000e+02,-1.319067345599428953e-01,0.000000000000000000e+00
4.940000000000000000e+02,-1.383853094072762802e-01,0.000000000000000000e+00
4.950000000000000000e+02,-1.400435483314565466e-01,0.000000000000000000e+00
4.960000000000000000e+02,5.206955938482670659e-02,0.000000000000000000e+00
4.970000000000000000e+02,-3.218927642024042857e-02,0.000000000000000000e+00
4.980000000000000000e+02,-1.324018338599869914e-02,0.000000000000000000e+00
4.990000000000000000e+02,3.029109288427084615e-02,0.000000000000000000e+00
5.000000000000000000e+02,5.388980467314657269e-02,0.000000000000000000e+00
5.010000000000000000e+02,1.492309159258334572e-01,0.000000000000000000e+00
5.020000000000000000e+02,1.049871551633206751e-01,0.000000000000000000e+00
5.030000000000000000e+02,2.320521050358717585e-01,0.000000000000000000e+00
5.040000000000000000e+02,2.780413184142215346e-02,0.000000000000000000e+00
5.050000000000000000e+02,2.391186908351113083e-01,0.000000000000000000e+00
5.060000000000000000e+02,4.044162720713542214e-01,0.000000000000000000e+00
5.070000000000000000e+02,6.241002375924656898e-01,0.000000000000000000e+00
5.080000000000000000e+02,1.011653119011265867e+00,0.000000000000000000e+00
5.090000000000000000e+02,5.321505796070993277e-01,0.000000000000000000e+00
5.100000000000000000e+02,5.757997814433639672e-01,0.000000000000000000e+00
5.110000000000000000e+02,-2.508482557222194154e-01,0.000000000000000000e+00
5.120000000000000000e+02,-3.383001795924916455e-01,0.000000000000000000e+00
5.130000000000000000e+02,-2.536711502237598004e-01,0.000000000000000000e+00
5.140000000000000000e+02,-2.183865139354872198e-02,0.000000000000000000e+00
5.150000000000000000e+02,-3.484419843643439263e-01,0.000000000000000000e+00
5.160000000000000000e+02,-4.301373055512062726e-01,0.000000000000000000e+00
5.170000000000000000e+02,-1.536847900559549007e+00,0.000000000000000000e+00
5.180000000000000000e+02,5.309912980417424322e+00,0.000000000000000000e+00
5.190000000000000000e+02,4.783353824458064452e+00,0.000000000000000000e+00
5.200000000000000000e+02,6.271462244646875961e-01,1.000000000000000000e+00
5.210000000000000000e+02,-9.996699956052043090e-01,0.000000000000000000e+00
5.220000000000000000e+02,-1.723815312543234946e+00,0.000000000000000000e+00
5.230000000000000000e+02,-1.186801246884986449e+00,0.000000000000000000e+00
5.240000000000000000e+02,-1.489916716001160601e+00,0.000000000000000000e+00
5.250000000000000000e+02,-1.141268698759865696e+00,0.000000000000000000e+00
5.260000000000000000e+02,-1.247072434161773824e+00,0.000000000000000000e+00
5.270000000000000000e+02,-8.526498454401856275e-01,0.000000000000000000e+00
5.280000000000000000e+02,-7.105449008439167491e-01,0.000000000000000000e+00
5.290000000000000000e+02,-6.558931789698930759e-01,0.000000000000000000e+00
5.300000000000000000e+02,-4.926978272759350852e-01,0.000000000000000000e+00
5.310000000000000000e+02,-1.655811440654935129e-01,0.000000000000000000e+00
5.320000000000000000e+02,-1.563295521341062470e-03,0.000000000000000000e+00
5.330000000000000000e+02,2.475677350788466902e-01,0.000000000000000000e+00
5.340000000000000000e+02,8.014840958468647525e-01,0.000000000000000000e+00
5.350000000000000000e+02,8.212471443859656883e-01,0.000000000000000000e+00
5.360000000000000000e+02,8.042982965930696171e-01,0.000000000000000000e+00
5.370000000000000000e+02,8.543382588147081513e-01,0.000000000000000000e+00
5.380000000000000000e+02,3.632231869205704844e-01,0.000000000000000000e+00
5.390000000000000000e+02,-1.022941381365468777e-01,0.000000000000000000e+00
5.400000000000000000e+02,-6.921528075894325394e-01,0.000000000000000000e+00
5.410000000000000000e+02,-5.341286674477184748e-01,0.000000000000000000e+00
5.420000000000000000e+02,-8.227779344387619043e-01,0.000000000000000000e+00
5.430000000000000000e+02,-6.765212700473107743e-01,0.000000000000000000e+00
5.440000000000000000e+02,-3.723069551971353586e-01,0.000000000000000000e+00
5.450000000000000000e+02,-7.073406326305906600e-01,0.000000000000000000e+00
5.460000000000000000e+02,-5.402055128421180408e-01,0.000000000000000000e+00
5.470000000000000000e+02,-4.066801325621086649e-01,0.000000000000000000e+00
5.480000000000000000e+02,-1.824242396499173302e-01,0.000000000000000000e+00
5.490000000000000000e+02,-1.687201564646877983e-01,0.000000000000000000e+00
5.500000000000000000e+02,-2.762170522840039499e-01,0.000000000000000000e+00
5.510000000000000000e+02,-1.043861465432101426e-01,0.000000000000000000e+00
5.520000000000000000e+02,-2.580411615256787972e-01,0.000000000000000000e+00
5.530000000000000000e+02,1.259146602081553101e-01,0.000000000000000000e+00
5.540000000000000000e+02,-2.689521123657838686e-01,0.000000000000000000e+00
5.550000000000000000e+02,1.552429625896455390e-01,0.000000000000000000e+00
5.560000000000000000e+02,1.026255807305784945e-02,0.000000000000000000e+00
5.570000000000000000e+02,-1.234727010381462264e-01,0.000000000000000000e+00
5.580000000000000000e+02,-1.344570769102301777e-01,0.000000000000000000e+00
5.590000000000000000e+02,4.475038020811231143e-02,0.000000000000000000e+00
5.600000000000000000e+02,-4.199921988396929096e-02,0.000000000000000000e+00
5.610000000000000000e+02,6.558194296177598248e-02,0.000000000000000000e+00
5.620000000000000000e+02,-2.998315160692020115e-02,0.000000000000000000e+00
5.630000000000000000e+02,3.851354046059318748e-01,0.000000000000000000e+00
5.640000000000000000e+02,-1.131386283560378569e-01,0.000000000000000000e+00
5.650000000000000000e+02,4.662435585239604885e-01,0.000000000000000000e+00
5.660000000000000000e+02,2.082407166018284284e-03,0.000000000000000000e+00
5.670000000000000000e+02,3.386742209071824106e-01,0.000000000000000000e+00
5.680000000000000000e+02,4.826626838537765446e-02,0.000000000000000000e+00
5.690000000000000000e+02,7.007982456751834510e-01,0.000000000000000000e+00
5.700000000000000000e+02,1.713994504556018428e-01,0.000000000000000000e+00
5.710000000000000000e+02,1.028577686960963078e+00,0.000000000000000000e+00
5.720000000000000000e+02,6.690456628208862888e-01,0.000000000000000000e+00
5.730000000000000000e+02,8.719428244011102613e-01,0.000000000000000000e+00
5.740000000000000000e+02,1.086045725030888726e-01,0.000000000000000000e+00
5.750000000000000000e+02,-4.507619262367049129e-02,0.000000000000000000e+00
5.760000000000000000e+02,-4.034367581170123507e-01,0.000000000000000000e+00
5.770000000000000000e+02,1.693833178032726483e-01,0.000000000000000000e+00
5.780000000000000000e+02,-6.072427660807818706e-01,0.000000000000000000e+00
5.790000000000000000e+02,4.064844876858116907e-01,0.000000000000000000e+00
5.800000000000000000e+02,-1.322070984709401209e+00,0.000000000000000000e+00
5.810000000000000000e+02,1.336726838402213735e+00,0.000000000000000000e+00
5.820000000000000000e+02,6.045078847038329428e+00,0.000000000000000000e+00
5.830000000000000000e+02,1.567002205286120109e+00,1.000000000000000000e+00
5.840000000000000000e+02,3.427000358688571668e-01,0.000000000000000000e+00
5.850000000000000000e+02,-1.643892670857753480e+00,0.000000000000000000e+00
5.860000000000000000e+02,-1.100589568874260626e+00,0.000000000000000000e+00
5.870000000000000000e+02,-1.474419502987484032e+00,0.000000000000000000e+00
5.880000000000000000e+02,-8.866473130640307732e-01,0.000000000000000000e+00
5.890000000000000000e+02,-1.290908439774159921e+00,0.000000000000000000e+00
5.900000000000000000e+02,-7.754093094123502006e-01,0.000000000000000000e+00
5.910000000000000000e+02,-8.212461074153862839e-01,0.000000000000000000e+00
5.920000000000000000e+02,-8.610091627677392001e-01,0.000000000000000000e+00
5.930000000000000000e+02,-4.253147481184321177e-01,0.000000000000000000e+00
5.940000000000000000e+02,-1.433521264651187732e-01,0.000000000000000000e+00
5.950000000000000000e+02,-1.784117023148806824e-01,0.000000000000000000e+00
5.960000000000000000e+02,3.579439648760959769e-02,0.000000000000000000e+00
5.970000000000000000e+02,4.545673072591137620e-01,0.000000000000000000e+00
5.980000000000000000e+02,8.501987170205788091e-01,0.000000000000000000e+00
5.990000000000000000e+02,1.023615010688591065e+00,0.000000000000000000e+00
6.000000000000000000e+02,8.725992764584248329e-01,0.000000000000000000e+00
6.010000000000000000e+02,9.423105484141116595e-01,0.000000000000000000e+00
6.020000000000000000e+02,4.539655613487066782e-02,0.000000000000000000e+00
6.030000000000000000e+02,-2.418110438460550349e-01,0.000000000000000000e+00
6.040000000000000000e+02,-8.089722768161111688e-01,0.000000000000000000e+00
6.050000000000000000e+02,-7.172761775335618761e-01,0.000000000000000000e+00
6.060000000000000000e+02,-8.349642506820159626e-01,0.000000000000000000e+00
6.070000000000000000e+02,-7.203179004546472752e-01,0.000000000000000000e+00
6.080000000000000000e+02,-6.690023825291356863e-01,0.000000000000000000e+00
6.090000000000000000e+02,-5.269564425348698400e-01,0.000000000000000000e+00
6.100000000000000000e+02,-4.241974328261608473e-01,0.000000000000000000e+00
6.110000000000000000e+02,-4.305532502592548383e-01,0.000000000000000000e+00
6.120000000000000000e+02,-3.035083212270324737e-01,0.000000000000000000e+00
6.130000000000000000e+02,-3.253516807915412534e-01,0.000000000000000000e+00
6.140000000000000000e+02,-9.246993226861094373e-02,0.000000000000000000e+00
6.150000000000000000e+02,-9.918974110221580320e-02,0.000000000000000000e+00
6.160000000000000000e+02,-1.970237027743249880e-01,0.000000000000000000e+00
6.170000000000000000e+02,1.024401891787653784e-01,0.000000000000000000e+00
6.180000000000000000e+02,-2.124305892313709532e-01,0.000000000000000000e+00
6.190000000000000000e+02,-2.416180023886260186e-01,0.000000000000000000e+00
6.200000000000000000e+02,-1.407119736511142361e-01,0.000000000000000000e+00
6.210000000000000000e+02,1.223740705737945411e-01,0.000000000000000000e+00
6.220000000000000000e+02,7.781445676199848227e-02,0.000000000000000000e+00
6.230000000000000000e+02,-1.411149592891950411e-01,0.000000000000000000e+00
6.240000000000000000e+02,1.605831503431255913e-01,0.000000000000000000e+00
6.250000000000000000e+02,1.652738400662064067e-01,0.000000000000000000e+00
6.260000000000000000e+02,1.240103017225953619e-01,0.000000000000000000e+00
6.270000000000000000e+02,3.015893598315917412e-01,0.000000000000000000e+00
6.280000000000000000e+02,-1.573084944356969717e-01,0.000000000000000000e+00
6.290000000000000000e+02,4.878122798636650437e-01,0.000000000000000000e+00
6.300000000000000000e+02,1.251526182296054945e-01,0.000000000000000000e+00
6.310000000000000000e+02,1.178873837003547420e+00,0.000000000000000000e+00
6.320000000000000000e+02,6.047648192523561450e-01,0.000000000000000000e+00
6.330000000000000000e+02,9.676651834177143474e-01,0.000000000000000000e+00
6.340000000000000000e+02,-7.079168459011427050e-02,0.000000000000000000e+00
6.350000000000000000e+02,4.345571901110556468e-02,0.000000000000000000e+00
6.360000000000000000e+02,-2.882241038806848121e-01,0.000000000000000000e+00
6.370000000000000000e+02,7.486911525694242564e-02,0.000000000000000000e+00
6.380000000000000000e+02,-2.742877335831571117e-01,0.000000000000000000e+00
6.390000000000000000e+02,2.601248707161171736e-01,0.000000000000000000e+00
6.400000000000000000e+02,-1.002521778926981133e+00,0.000000000000000000e+00
6.410000000000000000e+02,1.300589046777902213e+00,0.000000000000000000e+00
6.420000000000000000e+02,4.799438762490872534e+00,0.000000000000000000e+00
6.430000000000000000e+02,7.905332107770374206e-01,1.000000000000000000e+00
6.440000000000000000e+02,4.716364354028405592e-01,0.000000000000000000e+00
6.450000000000000000e+02,-1.158404688069942789e+00,0.000000000000000000e+00
6.460000000000000000e+02,-5.879217089692461151e-01,0.000000000000000000e+00
6.470000000000000000e+02,-1.070471082788621908e+00,0.000000000000000000e+00
6.480000000000000000e+02,-6.277957772001809822e-01,0.000000000000000000e+00
6.490000000000000000e+02,-9.118056961012539485e-01,0.000000000000000000e+00
6.500000000000000000e+02,-4.398802926321674356e-01,0.000000000000000000e+00
6.510000000000000000e+02,-7.074743443622623085e-01,0.000000000000000000e+00
6.520000000000000000e+02,-1.638756016682937355e-01,0.000000000000000000e+00
6.530000000000000000e+02,-3.790609371326728594e-01,0.000000000000000000e+00
6.540000000000000000e+02,2.240353264930914634e-01,0.000000000000000000e+00
6.550000000000000000e+02,2.041792555065214398e-01,0.000000000000000000e+00
6.560000000000000000e+02,4.583034021740494679e-01,0.000000000000000000e+00
6.570000000000000000e+02,7.693983765850125334e-01,0.000000000000000000e+00
6.580000000000000000e+02,1.037073861771473426e+00,0.000000000000000000e+00
6.590000000000000000e+02,1.157982582708947605e+00,0.000000000000000000e+00
6.600000000000000000e+02,1.201090486591792184e+00,0.000000000000000000e+00
6.610000000000000000e+02,8.333924750042430718e-01,0.000000000000000000e+00
6.620000000000000000e+02,1.687952871724611170e-01,0.000000000000000000e+00
6.630000000000000000e+02,-4.525596724598399678e-01,0.000000000000000000e+00
6.640000000000000000e+02,-7.055533033256919939e-01,0.000000000000000000e+00
6.650000000000000000e+02,-1.092618512584880852e+00,0.000000000000000000e+00
6.660000000000000000e+02,-7.916562729009452015e-01,0.000000000000000000e+00
6.670000000000000000e+02,-9.627194176287299232e-01,0.000000000000000000e+00
6.680000000000000000e+02,-7.112433040354859681e-01,0.000000000000000000e+00
6.690000000000000000e+02,-7.517835386493646466e-01,0.000000000000000000e+00
6.700000000000000000e+02,-4.599602945026449174e-01,0.000000000000000000e+00
6.710000000000000000e+02,-4.135209848231978236e-01,0.000000000000000000e+00
6.720000000000000000e+02,-4.110966655333438968e-01,0.000000000000000000e+00
6.730000000000000000e+02,-2.946946547081218393e-01,0.000000000000000000e+00
6.740000000000000000e+02,-2.188023264056656592e-01,0.000000000000000000e+00
6.750000000000000000e+02,-3.744071253391323406e-01,0.000000000000000000e+00
6.760000000000000000e+02,-7.357076989803297551e-02,0.000000000000000000e+00
6.770000000000000000e+02,-4.839535537658475883e-01,0.000000000000000000e+00
6.780000000000000000e+02,-1.318197637376712916e-01,0.000000000000000000e+00
6.790000000000000000e+02,-3.377629345204894995e-01,0.000000000000000000e+00
6.800000000000000000e+02,-1.885779634986853304e-01,0.000000000000000000e+00
6.810000000000000000e+02,-1.052181796714481005e-01,0.000000000000000000e+00
6.820000000000000000e+02,-2.392948585360926417e-01,0.000000000000000000e+00
6.830000000000000000e+02,-1.042968838194666126e-01,0.000000000000000000e+00
6.840000000000000000e+02,3.830441979377013223e-02,0.000000000000000000e+00
6.850000000000000000e+02,-3.596294548963721027e-01,0.000000000000000000e+00
6.860000000000000000e+02,1.318046322126442960e-01,0.000000000000000000e+00
6.870000000000000000e+02,-1.059788998999539912e-02,0.000000000000000000e+00
6.880000000000000000e+02,5.147528882309474613e-02,0.000000000000000000e+00
6.890000000000000000e+02,2.078678647852904016e-01,0.000000000000000000e+00
6.900000000000000000e+02,1.316098190703964277e-01,0.000000000000000000e+00
6.910000000000000000e+02,1.561860817084992879e-02,0.000000000000000000e+00
6.920000000000000000e+02,3.304689758755799400e-01,0.000000000000000000e+00
6.930000000000000000e+02,7.385501485642930186e-01,0.000000000000000000e+00
6.940000000000000000e+02,8.573043476404634822e-01,0.000000000000000000e+00
6.950000000000000000e+02,6.739740495068201609e-01,0.000000000000000000e+00
6.960000000000000000e+02,2.562076499478312952e-01,0.000000000000000000e+00
6.970000000000000000e+02,-1.308408737413069289e-01,0.000000000000000000e+00
6.980000000000000000e+02,-1.183381506504929265e-01,0.000000000000000000e+00
6.990000000000000000e+02,-7.324070314256252157e-02,0.000000000000000000e+00
7.000000000000000000e+02,-1.765440491370155185e-01,0.000000000000000000e+00
7.010000000000000000e+02,1.892605769344863353e-01,0.000000000000000000e+00
7.020000000000000000e+02,-1.213904195722730561e+00,0.000000000000000000e+00
7.030000000000000000e+02,5.274736116102659578e-01,0.000000000000000000e+00
7.040000000000000000e+02,6.044108646795324447e+00,0.000000000000000000e+00
7.050000000000000000e+02,2.187924543210035377e+00,1.000000000000000000e+00
7.060000000000000000e+02,3.520512054986880135e-01,0.000000000000000000e+00
7.070000000000000000e+02,-1.170186009800842752e+00,0.000000000000000000e+00
7.080000000000000000e+02,-1.059326985747032657e+00,0.000000000000000000e+00
7.090000000000000000e+02,-1.370231143353380920e+00,0.000000000000000000e+00
7.100000000000000000e+02,-9.891136457423859163e-01,0.000000000000000000e+00
7.110000000000000000e+02,-9.241426565285590922e-01,0.000000000000000000e+00
7.120000000000000000e+02,-8.802862671255401450e-01,0.000000000000000000e+00
7.130000000000000000e+02,-8.675200279419853500e-01,0.000000000000000000e+00
7.140000000000000000e+02,-5.970061886554753894e-01,0.000000000000000000e+00
7.150000000000000000e+02,-5.840517668143956342e-01,0.000000000000000000e+00
7.160000000000000000e+02,-1.366971776176580389e-01,0.000000000000000000e+00
7.170000000000000000e+02,-6.138366228310355305e-02,0.000000000000000000e+00
7.180000000000000000e+02,2.715611637451458282e-01,0.000000000000000000e+00
7.190000000000000000e+02,5.364078682661158615e-01,0.000000000000000000e+00
7.200000000000000000e+02,9.619936362086912718e-01,0.000000000000000000e+00
7.210000000000000000e+02,7.065096811002891108e-01,0.000000000000000000e+00
7.220000000000000000e+02,1.221500218194835341e+00,0.000000000000000000e+00
7.230000000000000000e+02,6.088059782576756840e-01,0.000000000000000000e+00
7.240000000000000000e+02,3.381168947750572973e-01,0.000000000000000000e+00
7.250000000000000000e+02,-2.342192681982415980e-01,0.000000000000000000e+00
7.260000000000000000e+02,-4.228858138981409498e-01,0.000000000000000000e+00
7.270000000000000000e+02,-8.682614387136295964e-01,0.000000000000000000e+00
7.280000000000000000e+02,-5.022162685301237994e-01,0.000000000000000000e+00
7.290000000000000000e+02,-8.755329394546105259e-01,0.000000000000000000e+00
7.300000000000000000e+02,-5.398687568790894176e-01,0.000000000000000000e+00
7.310000000000000000e+02,-6.440382299332247928e-01,0.000000000000000000e+00
7.320000000000000000e+02,-2.250237543030778331e-01,0.000000000000000000e+00
7.330000000000000000e+02,-3.563840213646005117e-01,0.000000000000000000e+00
7.340000000000000000e+02,-9.280593348746624116e-02,0.000000000000000000e+00
7.350000000000000000e+02,-8.518682641779765086e-02,0.000000000000000000e+00
7.360000000000000000e+02,5.557804405276025456e-02,0.000000000000000000e+00
7.370000000000000000e+02,-2.004777097150877152e-01,0.000000000000000000e+00
7.380000000000000000e+02,-1.023964578950732618e-01,0.000000000000000000e+00
7.390000000000000000e+02,-2.326029673571253231e-01,0.000000000000000000e+00
7.400000000000000000e+02,-4.470241028809586459e-02,0.000000000000000000e+00
7.410000000000000000e+02,-7.975260518694327061e-02,0.000000000000000000e+00
7.420000000000000000e+02,-1.418510219765584113e-01,0.000000000000000000e+00
7.430000000000000000e+02,-6.155618753366953744e-02,0.000000000000000000e+00
7.440000000000000000e+02,-1.888742684972179453e-01,0.000000000000000000e+00
7.450000000000000000e+02,-1.780425516136290368e-02,0.000000000000000000e+00
7.460000000000000000e+02,2.026806654853471543e-02,0.000000000000000000e+00
7.470000000000000000e+02,-1.825094985246135115e-01,0.000000000000000000e+00
7.480000000000000000e+02,2.720677829583478813e-01,0.000000000000000000e+00
7.490000000000000000e+02,-6.713202689249796185e-02,0.000000000000000000e+00
7.500000000000000000e+02,-2.058253281609380425e-02,0.000000000000000000e+00
7.510000000000000000e+02,1.117868305061272410e-01,0.000000000000000000e+00
7.520000000000000000e+02,1.422251132319670153e-01,0.000000000000000000e+00
7.530000000000000000e+02,2.026943743943309881e-02,0.000000000000000000e+00
7.540000000000000000e+02,1.715789008525950565e-01,0.000000000000000000e+00
7.550000000000000000e+02,5.244963765150192359e-01,0.000000000000000000e+00
7.560000000000000000e+02,8.623772279089533255e-01,0.000000000000000000e+00
7.570000000000000000e+02,7.823760213865186275e-01,0.000000000000000000e+00
7.580000000000000000e+02,7.023818431946804441e-01,0.000000000000000000e+00
7.590000000000000000e+02,-3.227505848606685990e-01,0.000000000000000000e+00
7.600000000000000000e+02,2.055453422880743897e-01,0.000000000000000000e+00
7.610000000000000000e+02,-6.318297839375923708e-01,0.000000000000000000e+00
7.620000000000000000e+02,6.674498942741632912e-02,0.000000000000000000e+00
7.630000000000000000e+02,-3.702901957650243658e-01,0.000000000000000000e+00
7.640000000000000000e+02,1.773097852176237776e-01,0.000000000000000000e+00
7.650000000000000000e+02,-1.856488476671093624e+00,0.000000000000000000e+00
7.660000000000000000e+02,3.951895186271146443e+00,0.000000000000000000e+00
7.670000000000000000e+02,5.755173053472312894e+00,0.000000000000000000e+00
7.680000000000000000e+02,8.922970920442520049e-01,1.000000000000000000e+00
7.690000000000000000e+02,-4.306061071884491609e-01,0.000000000000000000e+00
7.700000000000000000e+02,-1.554466340727813867e+00,0.000000000000000000e+00
7.710000000000000000e+02,-1.251523787736445570e+00,0.000000000000000000e+00
7.720000000000000000e+02,-1.643851077741063538e+00,0.000000000000000000e+00
7.730000000000000000e+02,-1.005105652861908450e+00,0.000000000000000000e+00
7.740000000000000000e+02,-1.176871637218028788e+00,0.000000000000000000e+00
7.750000000000000000e+02,-7.476724607645605092e-01,0.000000000000000000e+00
7.760000000000000000e+02,-1.075284456074648398e+00,0.000000000000000000e+00
7.770000000000000000e+02,-3.369818980915547657e-01,0.000000000000000000e+00
7.780000000000000000e+02,-7.800830369034533751e-01,0.000000000000000000e+00
7.790000000000000000e+02,-1.036062018373920396e-01,0.000000000000000000e+00
7.800000000000000000e+02,-6.950150798946667929e-03,0.000000000000000000e+00
7.810000000000000000e+02,4.068703017195376415e-01,0.000000000000000000e+00
7.820000000000000000e+02,3.799486733090995938e-01,0.000000000000000000e+00
7.830000000000000000e+02,7.085412122335290608e-01,0.000000000000000000e+00
7.840000000000000000e+02,1.011316448301113446e+00,0.000000000000000000e+00
7.850000000000000000e+02,8.431164234915795586e-01,0.000000000000000000e+00
7.860000000000000000e+02,4.261598856805418056e-01,0.000000000000000000e+00
7.870000000000000000e+02,7.658504769748464280e-02,0.000000000000000000e+00
7.880000000000000000e+02,-4.592018846723471825e-01,0.000000000000000000e+00
7.890000000000000000e+02,-6.687463475925090606e-01,0.000000000000000000e+00
7.900000000000000000e+02,-7.173487067867966305e-01,0.000000000000000000e+00
7.910000000000000000e+02,-6.524918310921463682e-01,0.000000000000000000e+00
7.920000000000000000e+02,-6.219905369642402260e-01,0.000000000000000000e+00
7.930000000000000000e+02,-3.803864544758011612e-01,0.000000000000000000e+00
7.940000000000000000e+02,-4.958788018700323597e-01,0.000000000000000000e+00
7.950000000000000000e+02,-5.209669069771105665e-01,0.000000000000000000e+00
7.960000000000000000e+02,-1.723366914269240657e-01,0.000000000000000000e+00
7.970000000000000000e+02,-1.413834250140663940e-01,0.000000000000000000e+00
7.980000000000000000e+02,-1.849379391269318773e-01,0.000000000000000000e+00
7.990000000000000000e+02,-1.279033761452250673e-01,0.000000000000000000e+00
8.000000000000000000e+02,-3.562994399297120807e-01,0.000000000000000000e+00
8.010000000000000000e+02,-2.812693972623590485e-02,0.000000000000000000e+00
8.020000000000000000e+02,-1.406374567291365230e-01,0.000000000000000000e+00
8.030000000000000000e+02,-8.068409874382592717e-02,0.000000000000000000e+00
8.040000000000000000e+02,-1.232398735255902239e-01,0.000000000000000000e+00
8.050000000000000000e+02,-3.845674291776686460e-02,0.000000000000000000e+00
8.060000000000000000e+02,-1.243402830523069047e-01,0.000000000000000000e+00
8.070000000000000000e+02,8.113374049417720890e-02,0.000000000000000000e+00
8.080000000000000000e+02,-1.644125802068091835e-01,0.000000000000000000e+00
8.090000000000000000e+02,2.432719326129627602e-01,0.000000000000000000e+00
8.100000000000000000e+02,-9.309716302751348815e-02,0.000000000000000000e+00
8.110000000000000000e+02,9.205757207016387889e-02,0.000000000000000000e+00
8.120000000000000000e+02,3.151032422306026537e-01,0.000000000000000000e+00
8.130000000000000000e+02,1.859637866286636965e-01,0.000000000000000000e+00
8.140000000000000000e+02,-1.540692914125799443e-04,0.000000000000000000e+00
8.150000000000000000e+02,4.797142603425414986e-01,0.000000000000000000e+00
8.160000000000000000e+02,1.370164424587878675e-02,0.000000000000000000e+00
8.170000000000000000e+02,3.264822254967716386e-01,0.000000000000000000e+00
8.180000000000000000e+02,3.439841998497448761e-01,0.000000000000000000e+00
8.190000000000000000e+02,2.559147645705118768e-01,0.000000000000000000e+00
8.200000000000000000e+02,6.805277948726422554e-01,0.000000000000000000e+00
8.210000000000000000e+02,1.052650445083997521e+00,0.000000000000000000e+00
8.220000000000000000e+02,5.410904216012687451e-01,0.000000000000000000e+00
8.230000000000000000e+02,5.430134578637455522e-01,0.000000000000000000e+00
8.240000000000000000e+02,-1.399226991247120022e-01,0.000000000000000000e+00
8.250000000000000000e+02,-2.063492871432086595e-01,0.000000000000000000e+00
8.260000000000000000e+02,-1.193967265550856804e-01,0.000000000000000000e+00
8.270000000000000000e+02,-1.052857841667250161e-01,0.000000000000000000e+00
8.280000000000000000e+02,-2.836745231310362492e-01,0.000000000000000000e+00
8.290000000000000000e+02,-1.293473216495728273e-01,0.000000000000000000e+00
8.300000000000000000e+02,-1.638933729015125351e+00,0.000000000000000000e+00
8.310000000000000000e+02,5.082734265312985222e+00,0.000000000000000000e+00
8.320000000000000000e+02,4.134692730358858981e+00,1.000000000000000000e+00
8.330000000000000000e+02,6.465229295956165245e-01,0.000000000000000000e+00
8.340000000000000000e+02,-7.224587570751614951e-01,0.000000000000000000e+00
8.350000000000000000e+02,-1.405755138978449947e+00,0.000000000000000000e+00
8.360000000000000000e+02,-1.160524897766768371e+00,0.000000000000000000e+00
8.370000000000000000e+02,-1.266796031397021016e+00,0.000000000000000000e+00
8.380000000000000000e+02,-8.973110536312292052e-01,0.000000000000000000e+00
8.390000000000000000e+02,-1.157382613465505639e+00,0.000000000000000000e+00
8.400000000000000000e+02,-6.549274591456863970e-01,0.000000000000000000e+00
8.410000000000000000e+02,-7.783871158401247659e-01,0.000000000000000000e+00
8.420000000000000000e+02,-4.788215762900890904e-01,0.000000000000000000e+00
8.430000000000000000e+02,-4.266981837181379467e-01,0.000000000000000000e+00
8.440000000000000000e+02,-2.684041285741937122e-01,0.000000000000000000e+00
8.450000000000000000e+02,1.158784302057642018e-01,0.000000000000000000e+00
8.460000000000000000e+02,5.768025004477461692e-01,0.000000000000000000e+00
8.470000000000000000e+02,5.228231104507683469e-01,0.000000000000000000e+00
8.480000000000000000e+02,1.029031668075450545e+00,0.000000000000000000e+00
8.490000000000000000e+02,9.449949895292091284e-01,0.000000000000000000e+00
8.500000000000000000e+02,9.268441024150136931e-01,0.000000000000000000e+00
8.510000000000000000e+02,5.038102171047145195e-01,0.000000000000000000e+00
8.520000000000000000e+02,1.584314554604984437e-01,0.000000000000000000e+00
8.530000000000000000e+02,-8.326301172425272235e-01,0.000000000000000000e+00
8.540000000000000000e+02,-8.699059663617711990e-01,0.000000000000000000e+00
8.550000000000000000e+02,-8.399948904136906869e-01,0.000000000000000000e+00
8.560000000000000000e+02,-8.832172822885624441e-01,0.000000000000000000e+00
8.570000000000000000e+02,-7.196590523532603312e-01,0.000000000000000000e+00
8.580000000000000000e+02,-4.174386180769822374e-01,0.000000000000000000e+00
8.590000000000000000e+02,-6.492076730988546318e-01,0.000000000000000000e+00
8.600000000000000000e+02,-3.173749599538309152e-01,0.000000000000000000e+00
8.610000000000000000e+02,-5.365409362987728636e-01,0.000000000000000000e+00
8.620000000000000000e+02,-2.134369761265473286e-01,0.000000000000000000e+00
8.630000000000000000e+02,-2.962632156087566249e-01,0.000000000000000000e+00
8.640000000000000000e+02,-1.388628413479550128e-01,0.000000000000000000e+00
8.650000000000000000e+02,-9.290220664285385455e-02,0.000000000000000000e+00
8.660000000000000000e+02,-6.784726546143445003e-02,0.000000000000000000e+00
8.670000000000000000e+02,-3.640810624770439707e-01,0.000000000000000000e+00
8.680000000000000000e+02,-2.295826009739723034e-02,0.000000000000000000e+00
8.690000000000000000e+02,-9.047529255630019918e-02,0.000000000000000000e+00
8.700000000000000000e+02,-1.640207862842640585e-01,0.000000000000000000e+00
8.710000000000000000e+02,-9.575182146574387487e-02,0.000000000000000000e+00
8.720000000000000000e+02,2.878362084747054794e-02,0.000000000000000000e+00
8.730000000000000000e+02,-1.393346702085338507e-01,0.000000000000000000e+00
8.740000000000000000e+02,-1.097353393510680092e-01,0.000000000000000000e+00
8.750000000000000000e+02,-1.267264394586998799e-01,0.000000000000000000e+00
8.760000000000000000e+02,2.041201952025848976e-01,0.000000000000000000e+00
8.770000000000000000e+02,-2.049591611028942773e-01,0.000000000000000000e+00
8.780000000000000000e+02,3.043269127752796233e-01,0.000000000000000000e+00
8.790000000000000000e+02,7.319663761220879250e-02,0.000000000000000000e+00
8.800000000000000000e+02,7.903646619436827114e-01,0.000000000000000000e+00
8.810000000000000000e+02,5.039001822190052327e-01,0.000000000000000000e+00
8.820000000000000000e+02,8.748531893878551680e-01,0.000000000000000000e+00
8.830000000000000000e+02,4.695736674566788546e-03,0.000000000000000000e+00
8.840000000000000000e+02,-8.501579800273630083e-02,0.000000000000000000e+00
8.850000000000000000e+02,-2.528401086030889755e-01,0.000000000000000000e+00
8.860000000000000000e+02,5.051083702781889589e-02,0.000000000000000000e+00
8.870000000000000000e+02,-4.096302334028993908e-01,0.000000000000000000e+00
8.880000000000000000e+02,2.153938289163623565e-01,0.000000000000000000e+00
8.890000000000000000e+02,-9.260817782313987001e-01,0.000000000000000000e+00
8.900000000000000000e+02,6.661854239983157067e-01,0.000000000000000000e+00
8.910000000000000000e+02,4.913454247302902367e+00,0.000000000000000000e+00
8.920000000000000000e+02,9.864402835035194217e-01,1.000000000000000000e+00
8.930000000000000000e+02,4.692041284051653993e-01,0.000000000000000000e+00
8.940000000000000000e+02,-8.377977878895466191e-01,0.000000000000000000e+00
8.950000000000000000e+02,-7.550901278653798787e-01,0.000000000000000000e+00
8.960000000000000000e+02,-1.141625397231600614e+00,0.000000000000000000e+00
8.970000000000000000e+02,-3.860100815538908270e-01,0.000000000000000000e+00
8.980000000000000000e+02,-7.463373102343033860e-01,0.000000000000000000e+00
8.990000000000000000e+02,-4.864695608638642810e-01,0.000000000000000000e+00
9.000000000000000000e+02,-1.780578704279007218e-01,0.000000000000000000e+00
9.010000000000000000e+02,-2.994027161991655306e-01,0.000000000000000000e+00
9.020000000000000000e+02,-2.799320904520939401e-01,0.000000000000000000e+00
9.030000000000000000e+02,3.397642213218185492e-02,0.000000000000000000e+00
9.040000000000000000e+02,6.757231900829603621e-02,0.000000000000000000e+00
9.050000000000000000e+02,5.578681237570505269e-01,0.000000000000000000e+00
9.060000000000000000e+02,7.837605704815747698e-01,0.000000000000000000e+00
9.070000000000000000e+02,1.416401883112421878e+00,0.000000000000000000e+00
9.080000000000000000e+02,1.058005175960037736e+00,0.000000000000000000e+00
9.090000000000000000e+02,1.049657857363273772e+00,0.000000000000000000e+00
9.100000000000000000e+02,9.377539419315684688e-01,0.000000000000000000e+00
9.110000000000000000e+02,1.424755332354366577e-01,0.000000000000000000e+00
9.120000000000000000e+02,-3.941033597390551368e-01,0.000000000000000000e+00
9.130000000000000000e+02,-7.080305937613926570e-01,0.000000000000000000e+00
9.140000000000000000e+02,-8.937142366330436127e-01,0.000000000000000000e+00
9.150000000000000000e+02,-8.453013564777477340e-01,0.000000000000000000e+00
9.160000000000000000e+02,-9.524540931886649187e-01,0.000000000000000000e+00
9.170000000000000000e+02,-6.589604211785946575e-01,0.000000000000000000e+00
9.180000000000000000e+02,-4.428853076534970956e-01,0.000000000000000000e+00
9.190000000000000000e+02,-4.114735531989708317e-01,0.000000000000000000e+00
9.200000000000000000e+02,-3.310157148715318076e-01,0.000000000000000000e+00
9.210000000000000000e+02,-3.690253440225056969e-01,0.000000000000000000e+00
9.220000000000000000e+02,-3.953492487689825863e-01,0.000000000000000000e+00
9.230000000000000000e+02,-2.186998190902232631e-01,0.000000000000000000e+00
9.240000000000000000e+02,-1.950800500007008123e-02,0.000000000000000000e+00
9.250000000000000000e+02,-2.542695239091961046e-01,0.000000000000000000e+00
9.260000000000000000e+02,-2.720383808716342888e-01,0.000000000000000000e+00
9.270000000000000000e+02,-1.956744151083727734e-01,0.000000000000000000e+00
9.280000000000000000e+02,-2.933997143497954485e-01,0.000000000000000000e+00
9.290000000000000000e+02,-3.774790077108440556e-02,0.000000000000000000e+00
9.300000000000000000e+02,-7.351939851228282696e-02,0.000000000000000000e+00
9.310000000000000000e+02,-2.109551912691250419e-01,0.000000000000000000e+00
9.320000000000000000e+02,1.068193499192980761e-01,0.000000000000000000e+00
9.330000000000000000e+02,-1.615016484910646866e-01,0.000000000000000000e+00
9.340000000000000000e+02,-1.909173233290333560e-01,0.000000000000000000e+00
9.350000000000000000e+02,-6.240238976119465153e-02,0.000000000000000000e+00
9.360000000000000000e+02,1.794877072063346957e-01,0.000000000000000000e+00
9.370000000000000000e+02,7.265253885963668390e-02,0.000000000000000000e+00
9.380000000000000000e+02,-3.473475733198016363e-02,0.000000000000000000e+00
9.390000000000000000e+02,5.575307899111718590e-02,0.000000000000000000e+00
9.400000000000000000e+02,1.455627097820057746e-02,0.000000000000000000e+00
9.410000000000000000e+02,2.488234412408861229e-01,0.000000000000000000e+00
9.420000000000000000e+02,6.818272237984999151e-01,0.000000000000000000e+00
9.430000000000000000e+02,9.122644314854461145e-01,0.000000000000000000e+00
9.440000000000000000e+02,7.025819602410836584e-01,0.000000000000000000e+00
9.450000000000000000e+02,2.136131788279630461e-01,0.000000000000000000e+00
9.460000000000000000e+02,-1.211362758885821123e-01,0.000000000000000000e+00
9.470000000000000000e+02,-1.731031658288662567e-01,0.000000000000000000e+00
9.480000000000000000e+02,-1.481776644164293499e-01,0.000000000000000000e+00
9.490000000000000000e+02,-2.222619494797027917e-01,0.000000000000000000e+00
9.500000000000000000e+02,-3.592904487647040346e-02,0.000000000000000000e+00
9.510000000000000000e+02,-4.150014405677444618e-01,0.000000000000000000e+00
9.520000000000000000e+02,-2.997346886352373896e-01,0.000000000000000000e+00
9.530000000000000000e+02,5.575905508439049640e+00,0.000000000000000000e+00
9.540000000000000000e+02,2.513469035861362944e+00,1.000000000000000000e+00
9.550000000000000000e+02,4.731352018852554298e-01,0.000000000000000000e+00
9.560000000000000000e+02,-9.657462824514730926e-01,0.000000000000000000e+00
9.570000000000000000e+02,-1.108133038838132078e+00,0.000000000000000000e+00
9.580000000000000000e+02,-1.323738599154760553e+00,0.000000000000000000e+00
9.590000000000000000e+02,-1.015654931324281085e+00,0.000000000000000000e+00
9.600000000000000000e+02,-9.964083330736840383e-01,0.000000000000000000e+00
9.610000000000000000e+02,-9.201590646731954148e-01,0.000000000000000000e+00
9.620000000000000000e+02,-6.893434617668304787e-01,0.000000000000000000e+00
9.630000000000000000e+02,-5.374635183956986140e-01,0.000000000000000000e+00
9.640000000000000000e+02,-3.579418955517448264e-01,0.000000000000000000e+00
9.650000000000000000e+02,-2.657098426563445082e-01,0.000000000000000000e+00
9.660000000000000000e+02,6.408156094513209333e-02,0.000000000000000000e+00
9.670000000000000000e+02,2.480911436722003094e-01,0.000000000000000000e+00
9.680000000000000000e+02,3.561853669114683485e-01,0.000000000000000000e+00
9.690000000000000000e+02,9.718865581457296621e-01,0.000000000000000000e+00
9.700000000000000000e+02,9.583915579865986967e-01,0.000000000000000000e+00
9.710000000000000000e+02,1.184370677244988013e+00,0.000000000000000000e+00
9.720000000000000000e+02,7.689531365302916255e-01,0.000000000000000000e+00
9.730000000000000000e+02,3.686616755256407751e-01,0.000000000000000000e+00
9.740000000000000000e+02,-3.406777485158209995e-01,0.000000000000000000e+00
9.750000000000000000e+02,-4.367773712648994611e-01,0.000000000000000000e+00
9.760000000000000000e+02,-7.087892719313478862e-01,0.000000000000000000e+00
9.770000000000000000e+02,-7.255713028853898461e-01,0.000000000000000000e+00
9.780000000000000000e+02,-6.064761580070877622e-01,0.000000000000000000e+00
9.790000000000000000e+02,-6.657396520431787534e-01,0.000000000000000000e+00
9.800000000000000000e+02,-5.625110841427369834e-01,0.000000000000000000e+00
9.810000000000000000e+02,-3.716951170279919059e-01,0.000000000000000000e+00
9.820000000000000000e+02,-2.601958323116677074e-01,0.000000000000000000e+00
9.830000000000000000e+02,-2.433248541600865622e-01,0.000000000000000000e+00
9.840000000000000000e+02,-1.668734522310598711e-01,0.000000000000000000e+00
9.850000000000000000e+02,-2.217837487775358996e-01,0.000000000000000000e+00
9.860000000000000000e+02,-1.370466171792263099e-01,0.000000000000000000e+00
9.870000000000000000e+02,8.622164671193768837e-02,0.000000000000000000e+00
9.880000000000000000e+02,-2.521076891022621669e-01,0.000000000000000000e+00
9.890000000000000000e+02,-1.833435792854313240e-01,0.000000000000000000e+00
9.900000000000000000e+02,-1.485926770505667516e-01,0.000000000000000000e+00
9.910000000000000000e+02,2.501370479130566541e-04,0.000000000000000000e+00
9.920000000000000000e+02,-2.088111284977909599e-01,0.000000000000000000e+00
9.930000000000000000e+02,-5.074259226018575791e-02,0.000000000000000000e+00
9.940000000000000000e+02,-1.420673633566899019e-01,0.000000000000000000e+00
9.950000000000000000e+02,8.546210150136299144e-02,0.000000000000000000e+00
9.960000000000000000e+02,-1.433009321408275638e-01,0.000000000000000000e+00
9.970000000000000000e+02,3.908892504682314195e-01,0.000000000000000000e+00
9.980000000000000000e+02,-3.106332868242056566e-01,0.000000000000000000e+00
9.990000000000000000e+02,8.284653651547697895e-02,0.000000000000000000e+00
1.000000000000000000e+03,-1.459686304968126763e-02,0.000000000000000000e+00
1.001000000000000000e+03,3.790970215464302684e-01,0.000000000000000000e+00
1.002000000000000000e+03,-5.898999155711650427e-02,0.000000000000000000e+00
1.003000000000000000e+03,7.430326378860263592e-01,0.000000000000000000e+00
1.004000000000000000e+03,7.539251492226606288e-01,0.000000000000000000e+00
1.005000000000000000e+03,8.476167945367092393e-01,0.000000000000000000e+00
1.006000000000000000e+03,3.302021243270827910e-01,0.000000000000000000e+00
1.007000000000000000e+03,-9.911764345139822963e-02,0.000000000000000000e+00
1.008000000000000000e+03,-4.462144422538115163e-01,0.000000000000000000e+00
1.009000000000000000e+03,-1.214472140883961215e-02,0.000000000000000000e+00
1.010000000000000000e+03,-5.695610703832810762e-01,0.000000000000000000e+00
1.011000000000000000e+03,1.245516678672896338e-01,0.000000000000000000e+00
1.012000000000000000e+03,-9.858579401345430870e-01,0.000000000000000000e+00
1.013000000000000000e+03,-2.741648357757282550e-01,0.000000000000000000e+00
1.014000000000000000e+03,6.494609959201844696e+00,0.000000000000000000e+00
1.015000000000000000e+03,2.739632689823958689e+00,1.000000000000000000e+00
1.016000000000000000e+03,4.264664156212705226e-01,0.000000000000000000e+00
1.017000000000000000e+03,-1.366999927903282064e+00,0.000000000000000000e+00
1.018000000000000000e+03,-1.445664259191810741e+00,0.000000000000000000e+00
1.019000000000000000e+03,-1.606738480997693452e+00,0.000000000000000000e+00
1.020000000000000000e+03,-1.169556928633857407e+00,0.000000000000000000e+00
1.021000000000000000e+03,-1.251477510582972741e+00,0.000000000000000000e+00
1.022000000000000000e+03,-1.149802177382411417e+00,0.000000000000000000e+00
1.023000000000000000e+03,-8.177319992963105744e-01,0.000000000000000000e+00
1.024000000000000000e+03,-5.693123449555561599e-01,0.000000000000000000e+00
1.025000000000000000e+03,-5.104027397590754633e-01,0.000000000000000000e+00
1.026000000000000000e+03,-4.952192494252618538e-01,0.000000000000000000e+00
1.027000000000000000e+03,-1.716234607154073222e-01,0.000000000000000000e+00
1.028000000000000000e+03,2.490467944346654583e-01,0.000000000000000000e+00
1.029000000000000000e+03,1.400982122406849439e-01,0.000000000000000000e+00
1.030000000000000000e+03,9.139687571685539691e-01,0.000000000000000000e+00
1.031000000000000000e+03,7.621871506389613637e-01,0.000000000000000000e+00
1.032000000000000000e+03,1.156405843033493142e+00,0.000000000000000000e+00
1.033000000000000000e+03,7.297694398693346240e-01,0.000000000000000000e+00
1.034000000000000000e+03,3.995074300576100801e-01,0.000000000000000000e+00
1.035000000000000000e+03,-2.378993745526344072e-01,0.000000000000000000e+00
1.036000000000000000e+03,-3.893809555552248391e-01,0.000000000000000000e+00
1.037000000000000000e+03,-7.458738531878258415e-01,0.000000000000000000e+00
1.038000000000000000e+03,-5.669075094684052907e-01,0.000000000000000000e+00
1.039000000000000000e+03,-5.324383671168436694e-01,0.000000000000000000e+00
1.040000000000000000e+03,-4.169427848079622634e-01,0.000000000000000000e+00
1.041000000000000000e+03,-4.686191941596320465e-01,0.000000000000000000e+00
1.042000000000000000e+03,-3.928704884326960078e-01,0.000000000000000000e+00
1.043000000000000000e+03,-2.551099337323800564e-01,0.000000000000000000e+00
1.044000000000000000e+03,-3.819802285622022064e-01,0.000000000000000000e+00
1.045000000000000000e+03,-1.197350942178844885e-01,0.000000000000000000e+00
1.046000000000000000e+03,-8.300839165384897578e-02,0.000000000000000000e+00
1.047000000000000000e+03,-1.330343978381850478e-01,0.000000000000000000e+00
1.048000000000000000e+03,-3.049485179016372949e-01,0.000000000000000000e+00
1.049000000000000000e+03,-3.659581884579087702e-02,0.000000000000000000e+00
1.050000000000000000e+03,-1.158326171717027064e-01,0.000000000000000000e+00
1.051000000000000000e+03,-3.512429074214247493e-02,0.000000000000000000e+00
1.052000000000000000e+03,8.590986994082948358e-02,0.000000000000000000e+00
1.053000000000000000e+03,-3.770915742957430677e-02,0.000000000000000000e+00
1.054000000000000000e+03,-1.263054140222658328e-01,0.000000000000000000e+00
1.055000000000000000e+03,-1.500075525295092027e-01,0.000000000000000000e+00
1.056000000000000000e+03,1.725393969744185296e-01,0.000000000000000000e+00
1.057000000000000000e+03,2.715366279070874911e-01,0.000000000000000000e+00
1.058000000000000000e+03,-9.470731617258778406e-03,0.000000000000000000e+00
1.059000000000000000e+03,2.184380204427711636e-01,0.000000000000000000e+00
1.060000000000000000e+03,1.076973439768721397e-01,0.000000000000000000e+00
1.061000000000000000e+03,5.095161197754317223e-02,0.000000000000000000e+00
1.062000000000000000e+03,2.541745876154708483e-01,0.000000000000000000e+00
1.063000000000000000e+03,3.945800379001118685e-01,0.000000000000000000e+00
1.064000000000000000e+03,5.077800129870821966e-01,0.000000000000000000e+00
1.065000000000000000e+03,1.305395283150567964e+00,0.000000000000000000e+00
1.066000000000000000e+03,9.099199811817588746e-01,0.000000000000000000e+00
1.067000000000000000e+03,1.646996391716683272e-01,0.000000000000000000e+00
1.068000000000000000e+03,-1.717360081757241252e-01,0.000000000000000000e+00
1.069000000000000000e+03,-2.466395904145216034e-02,0.000000000000000000e+00
1.070000000000000000e+03,-2.375693777056194222e-01,0.000000000000000000e+00
1.071000000000000000e+03,-9.981255131535531067e-02,0.000000000000000000e+00
1.072000000000000000e+03,-1.176223210428603422e-01,0.000000000000000000e+00
1.073000000000000000e+03,-4.252181181521891284e-01,0.000000000000000000e+00
1.074000000000000000e+03,-9.363070049544889306e-01,0.000000000000000000e+00
1.075000000000000000e+03,5.673261750369785084e+00,0.000000000000000000e+00
1.076000000000000000e+03,3.592327741159311749e+00,1.000000000000000000e+00
1.077000000000000000e+03,5.252253513065532342e-01,0.000000000000000000e+00
1.078000000000000000e+03,-1.267700156133673151e+00,0.000000000000000000e+00
1.079000000000000000e+03,-1.105690655696798474e+00,0.000000000000000000e+00
1.080000000000000000e+03,-1.371720233468137096e+00,0.000000000000000000e+00
1.081000000000000000e+03,-1.008368689742841440e+00,0.000000000000000000e+00
1.082000000000000000e+03,-1.195405287101101388e+00,0.000000000000000000e+00
1.083000000000000000e+03,-8.325893136620953205e-01,0.000000000000000000e+00
1.084000000000000000e+03,-9.118104975648894106e-01,0.000000000000000000e+00
1.085000000000000000e+03,-4.830984592452761128e-01,0.000000000000000000e+00
1.086000000000000000e+03,-6.059130370416818678e-01,0.000000000000000000e+00
1.087000000000000000e+03,-1.970968872523114757e-01,0.000000000000000000e+00
1.088000000000000000e+03,-4.045340915084489480e-02,0.000000000000000000e+00
1.089000000000000000e+03,3.640612409083314738e-01,0.000000000000000000e+00
1.090000000000000000e+03,4.027837742307893154e-01,0.000000000000000000e+00
1.091000000000000000e+03,6.204893798501012192e-01,0.000000000000000000e+00
1.092000000000000000e+03,9.883648387278942682e-01,0.000000000000000000e+00
1.093000000000000000e+03,1.137027849955777103e+00,0.000000000000000000e+00
1.094000000000000000e+03,6.984923258292330406e-01,0.000000000000000000e+00
1.095000000000000000e+03,6.565560446750573487e-01,0.000000000000000000e+00
1.096000000000000000e+03,-3.837663493275303428e-01,0.000000000000000000e+00
1.097000000000000000e+03,-3.886888206232299581e-01,0.000000000000000000e+00
1.098000000000000000e+03,-9.610844977651331611e-01,0.000000000000000000e+00
1.099000000000000000e+03,-6.616366772033512866e-01,0.000000000000000000e+00
1.100000000000000000e+03,-7.283596911107064198e-01,0.000000000000000000e+00
1.101000000000000000e+03,-6.829021631029456030e-01,0.000000000000000000e+00
1.102000000000000000e+03,-5.953814742009307936e-01,0.000000000000000000e+00
1.103000000000000000e+03,-5.406690001661049738e-01,0.000000000000000000e+00
1.104000000000000000e+03,-4.269177303698872827e-01,0.000000000000000000e+00
1.105000000000000000e+03,-3.150596991520200896e-01,0.000000000000000000e+00
1.106000000000000000e+03,-3.017665744022153262e-01,0.000000000000000000e+00
1.107000000000000000e+03,-4.364471949651986815e-01,0.000000000000000000e+00
1.108000000000000000e+03,-1.991447737155056241e-01,0.000000000000000000e+00
1.109000000000000000e+03,-1.527056291826216494e-01,0.000000000000000000e+00
1.110000000000000000e+03,-2.477591508338689574e-01,0.000000000000000000e+00
1.111000000000000000e+03,-2.364783962452210453e-01,0.000000000000000000e+00
1.112000000000000000e+03,-2.057241150144599184e-01,0.000000000000000000e+00
1.113000000000000000e+03,1.593056837513014481e-03,0.000000000000000000e+00
1.114000000000000000e+03,-2.465635488120059282e-01,0.000000000000000000e+00
1.115000000000000000e+03,-4.871378137563667221e-02,0.000000000000000000e+00
1.116000000000000000e+03,-4.636015562273393398e-02,0.000000000000000000e+00
1.117000000000000000e+03,1.070111550577288514e-03,0.000000000000000000e+00
1.118000000000000000e+03,-5.557087030631122776e-02,0.000000000000000000e+00
1.119000000000000000e+03,3.627963458673436059e-01,0.000000000000000000e+00
1.120000000000000000e+03,-2.296836767331909002e-01,0.000000000000000000e+00
1.121000000000000000e+03,3.117376316238874567e-01,0.000000000000000000e+00
1.122000000000000000e+03,-6.329762672424119052e-02,0.000000000000000000e+00
1.123000000000000000e+03,4.384818824231570544e-01,0.000000000000000000e+00
1.124000000000000000e+03,1.473614946783118329e-01,0.000000000000000000e+00
1.125000000000000000e+03,8.189630394978799632e-01,0.000000000000000000e+00
1.126000000000000000e+03,6.895599530888940620e-01,0.000000000000000000e+00
1.127000000000000000e+03,8.666140819035624832e-01,0.000000000000000000e+00
1.128000000000000000e+03,-1.620562866014733372e-01,0.000000000000000000e+00
1.129000000000000000e+03,8.785590336952751878e-02,0.000000000000000000e+00
1.130000000000000000e+03,-2.995958581270689036e-01,0.000000000000000000e+00
1.131000000000000000e+03,-1.423714903372142460e-01,0.000000000000000000e+00
1.132000000000000000e+03,-3.858337935124744322e-01,0.000000000000000000e+00
1.133000000000000000e+03,2.583303002094404222e-01,0.000000000000000000e+00
1.134000000000000000e+03,-1.519160987354307490e+00,0.000000000000000000e+00
1.135000000000000000e+03,2.820189329560505165e+00,0.000000000000000000e+00
1.136000000000000000e+03,3.765723384984738686e+00,0.000000000000000000e+00
1.137000000000000000e+03,3.994295860550058364e-01,1.000000000000000000e+00
1.138000000000000000e+03,9.855985811937729990e-02,0.000000000000000000e+00
1.139000000000000000e+03,-1.297714051739968344e+00,0.000000000000000000e+00
1.140000000000000000e+03,-6.676934130269590595e-01,0.000000000000000000e+00
1.141000000000000000e+03,-1.053115408104718709e+00,0.000000000000000000e+00
1.142000000000000000e+03,-6.051365771861803022e-01,0.000000000000000000e+00
1.143000000000000000e+03,-7.344821511487590326e-01,0.000000000000000000e+00
1.144000000000000000e+03,-1.946523314332590238e-01,0.000000000000000000e+00
1.145000000000000000e+03,-6.787077507837045998e-01,0.000000000000000000e+00
1.146000000000000000e+03,-1.586422789932098176e-01,0.000000000000000000e+00
1.147000000000000000e+03,-2.561358225406993872e-01,0.000000000000000000e+00
1.148000000000000000e+03,-5.755292189654778387e-03,0.000000000000000000e+00
1.149000000000000000e+03,1.727025969450046716e-01,0.000000000000000000e+00
1.150000000000000000e+03,6.387326473350469769e-01,0.000000000000000000e+00
1.151000000000000000e+03,6.573667482721536892e-01,0.000000000000000000e+00
1.152000000000000000e+03,1.115236828697754090e+00,0.000000000000000000e+00
1.153000000000000000e+03,1.109641077309546420e+00,0.000000000000000000e+00
1.154000000000000000e+03,1.035377456225872628e+00,0.000000000000000000e+00
1.155000000000000000e+03,6.342081742315601733e-01,0.000000000000000000e+00
1.156000000000000000e+03,1.737469744669086630e-02,0.000000000000000000e+00
1.157000000000000000e+03,-4.573949335704060037e-01,0.000000000000000000e+00
1.158000000000000000e+03,-8.738887269862523066e-01,0.000000000000000000e+00
1.159000000000000000e+03,-8.902382390883413210e-01,0.000000000000000000e+00
1.160000000000000000e+03,-9.896558360201482829e-01,0.000000000000000000e+00
1.161000000000000000e+03,-7.428713453109392351e-01,0.000000000000000000e+00
1.162000000000000000e+03,-7.055491580490456105e-01,0.000000000000000000e+00
1.163000000000000000e+03,-5.170986081323261097e-01,0.000000000000000000e+00
1.164000000000000000e+03,-3.540008945471702639e-01,0.000000000000000000e+00
1.165000000000000000e+03,-3.705228714491534125e-01,0.000000000000000000e+00
1.166000000000000000e+03,-2.952155183389573723e-01,0.000000000000000000e+00
1.167000000000000000e+03,-9.675194481826921919e-03,0.000000000000000000e+00
1.168000000000000000e+03,-3.972095447671746826e-01,0.000000000000000000e+00
1.169000000000000000e+03,-2.428640977016047892e-02,0.000000000000000000e+00
1.170000000000000000e+03,-3.410498445862980010e-01,0.000000000000000000e+00
1.171000000000000000e+03,-4.955939795079810500e-02,0.000000000000000000e+00
1.172000000000000000e+03,-2.749720569906666801e-01,0.000000000000000000e+00
1.173000000000000000e+03,-8.329285761617981343e-02,0.000000000000000000e+00
1.174000000000000000e+03,-1.326782954516397550e-01,0.000000000000000000e+00
1.175000000000000000e+03,-3.254221339274847025e-01,0.000000000000000000e+00
1.176000000000000000e+03,7.958255415973583546e-02,0.000000000000000000e+00
1.177000000000000000e+03,-2.022225390633450581e-01,0.000000000000000000e+00
1.178000000000000000e+03,8.698266493060170801e-02,0.000000000000000000e+00
1.179000000000000000e+03,5.397413844283784068e-02,0.000000000000000000e+00
1.180000000000000000e+03,-4.619605799188743894e-02,0.000000000000000000e+00
1.181000000000000000e+03,8.600549699736355358e-02,0.000000000000000000e+00
1.182000000000000000e+03,4.236784112099828414e-01,0.000000000000000000e+00
1.183000000000000000e+03,1.746447200676360667e-01,0.000000000000000000e+00
1.184000000000000000e+03,2.215143354850368229e-01,0.000000000000000000e+00
1.185000000000000000e+03,8.693023765390740509e-01,0.000000000000000000e+00
1.186000000000000000e+03,8.311917029172027904e-01,0.000000000000000000e+00
1.187000000000000000e+03,8.094599766190485601e-01,0.000000000000000000e+00
1.188000000000000000e+03,-2.208008249083714958e-01,0.000000000000000000e+00
1.189000000000000000e+03,-9.441939070092521952e-03,0.000000000000000000e+00
1.190000000000000000e+03,-2.593567364486615290e-01,0.000000000000000000e+00
1.191000000000000000e+03,-1.776240783540968676e-02,0.000000000000000000e+00
1.192000000000000000e+03,-3.076995965588235071e-01,0.000000000000000000e+00
1.193000000000000000e+03,3.652629572750740183e-01,0.000000000000000000e+00
1.194000000000000000e+03,-1.508882232585836425e+00,0.000000000000000000e+00
1.195000000000000000e+03,3.106140322970383227e+00,0.000000000000000000e+00
1.196000000000000000e+03,4.936521142920704541e+00,0.000000000000000000e+00
1.197000000000000000e+03,9.786380807432437656e-01,1.000000000000000000e+00
1.198000000000000000e+03,4.305006400565442037e-02,0.000000000000000000e+00
1.199000000000000000e+03,-1.271241029425352886e+00,0.000000000000000000e+00
1.200000000000000000e+03,-6.021650725166685092e-01,0.000000000000000000e+00
1.201000000000000000e+03,-1.116580818566974331e+00,0.000000000000000000e+00
1.202000000000000000e+03,-6.826986584633456534e-01,0.000000000000000000e+00
1.203000000000000000e+03,-9.049420831174168622e-01,0.000000000000000000e+00
1.204000000000000000e+03,-5.357384471792459024e-01,0.000000000000000000e+00
1.205000000000000000e+03,-9.349986311068450018e-01,0.000000000000000000e+00
1.206000000000000000e+03,-1.122889366231561714e-01,0.000000000000000000e+00
1.207000000000000000e+03,-4.922274972370051516e-01,0.000000000000000000e+00
1.208000000000000000e+03,6.267307702469269992e-02,0.000000000000000000e+00
1.209000000000000000e+03,5.770969110307343913e-02,0.000000000000000000e+00
1.210000000000000000e+03,2.570642870982779993e-01,0.000000000000000000e+00
1.211000000000000000e+03,9.832930751904336297e-01,0.000000000000000000e+00
1.212000000000000000e+03,8.508223352171420117e-01,0.000000000000000000e+00
1.213000000000000000e+03,8.996344021255399115e-01,0.000000000000000000e+00
1.214000000000000000e+03,1.152094995879410666e+00,0.000000000000000000e+00
1.215000000000000000e+03,2.153760260499060497e-01,0.000000000000000000e+00
1.216000000000000000e+03,2.138606466691592156e-01,0.000000000000000000e+00
1.217000000000000000e+03,-4.495204261544898383e-01,0.000000000000000000e+00
1.218000000000000000e+03,-4.552821509504146880e-01,0.000000000000000000e+00
1.219000000000000000e+03,-7.970562902969046126e-01,0.000000000000000000e+00
1.220000000000000000e+03,-8.703772550324038182e-01,0.000000000000000000e+00
1.221000000000000000e+03,-9.261283601368001106e-01,0.000000000000000000e+00
1.222000000000000000e+03,-3.060016742518891775e-01,0.000000000000000000e+00
1.223000000000000000e+03,-7.239906744290622864e-01,0.000000000000000000e+00
1.224000000000000000e+03,-2.664161139156718261e-01,0.000000000000000000e+00
1.225000000000000000e+03,-5.333806547008311805e-01,0.000000000000000000e+00
1.226000000000000000e+03,-3.380858897769319915e-01,0.000000000000000000e+00
1.227000000000000000e+03,-2.167299431507959395e-01,0.000000000000000000e+00
1.228000000000000000e+03,2.799540565011557000e-02,0.000000000000000000e+00
1.229000000000000000e+03,-3.800567626838407542e-01,0.000000000000000000e+00
1.230000000000000000e+03,-2.078920611206452329e-01,0.000000000000000000e+00
1.231000000000000000e+03,-2.945773561549354658e-01,0.000000000000000000e+00
1.232000000000000000e+03,-1.480823853840955717e-01,0.000000000000000000e+00
1.233000000000000000e+03,-1.769232630593700895e-01,0.000000000000000000e+00
1.234000000000000000e+03,-1.325095320896682027e-01,0.000000000000000000e+00
1.235000000000000000e+03,-1.904486323329110664e-01,0.000000000000000000e+00
1.236000000000000000e+03,-3.490191233099537022e-02,0.000000000000000000e+00
1.237000000000000000e+03,-9.619447120832667897e-02,0.000000000000000000e+00
1.238000000000000000e+03,1.537517813626389507e-01,0.000000000000000000e+00
1.239000000000000000e+03,-2.632785725367203233e-01,0.000000000000000000e+00
1.240000000000000000e+03,-2.933203284868187571e-02,0.000000000000000000e+00
1.241000000000000000e+03,-1.442571204194224022e-01,0.000000000000000000e+00
1.242000000000000000e+03,1.382259025982111589e-01,0.000000000000000000e+00
1.243000000000000000e+03,-1.515680132922881951e-01,0.000000000000000000e+00
1.244000000000000000e+03,2.133892329109300934e-01,0.000000000000000000e+00
1.245000000000000000e+03,3.124592348017766336e-02,0.000000000000000000e+00
1.246000000000000000e+03,8.274799676756551259e-01,0.000000000000000000e+00
1.247000000000000000e+03,6.902012722534400790e-01,0.000000000000000000e+00
1.248000000000000000e+03,8.768135921567823399e-01,0.000000000000000000e+00
1.249000000000000000e+03,-5.975645080592938141e-02,0.000000000000000000e+00
1.250000000000000000e+03,-2.956889819296986133e-01,0.000000000000000000e+00
1.251000000000000000e+03,-3.017808429173314266e-01,0.000000000000000000e+00
1.252000000000000000e+03,-1.666257772413985150e-01,0.000000000000000000e+00
1.253000000000000000e+03,-6.841655120267565726e-01,0.000000000000000000e+00
1.254000000000000000e+03,2.369235918567346444e-01,0.000000000000000000e+00
1.255000000000000000e+03,-1.801006872988319962e+00,0.000000000000000000e+00
1.256000000000000000e+03,1.924403503447838837e+00,0.000000000000000000e+00
1.257000000000000000e+03,6.170563468233085658e+00,0.000000000000000000e+00
1.258000000000000000e+03,1.820417320457058175e+00,1.000000000000000000e+00
1.259000000000000000e+03,-9.393698779671354193e-02,0.000000000000000000e+00
1.260000000000000000e+03,-1.864374453880405014e+00,0.000000000000000000e+00
1.261000000000000000e+03,-1.134471999642842288e+00,0.000000000000000000e+00
1.262000000000000000e+03,-1.629321935652694009e+00,0.000000000000000000e+00
1.263000000000000000e+03,-1.384949661398300558e+00,0.000000000000000000e+00
1.264000000000000000e+03,-9.923073091557347292e-01,0.000000000000000000e+00
1.265000000000000000e+03,-8.118003594211964380e-01,0.000000000000000000e+00
1.266000000000000000e+03,-1.019394901509930174e+00,0.000000000000000000e+00
1.267000000000000000e+03,-5.284979646697131050e-01,0.000000000000000000e+00
1.268000000000000000e+03,-5.894791095295898176e-01,0.000000000000000000e+00
1.269000000000000000e+03,-3.268898857484124898e-01,0.000000000000000000e+00
1.270000000000000000e+03,-2.002804619407751174e-02,0.000000000000000000e+00
1.271000000000000000e+03,2.962406718128244298e-01,0.000000000000000000e+00
1.272000000000000000e+03,5.147454881350003175e-01,0.000000000000000000e+00
1.273000000000000000e+03,8.480050746623152280e-01,0.000000000000000000e+00
1.274000000000000000e+03,9.937180400745038167e-01,0.000000000000000000e+00
1.275000000000000000e+03,1.016366739955976373e+00,0.000000000000000000e+00
1.276000000000000000e+03,5.301326345582485500e-01,0.000000000000000000e+00
1.277000000000000000e+03,4.561037358990923107e-01,0.000000000000000000e+00
1.278000000000000000e+03,-5.172926546118833402e-01,0.000000000000000000e+00
1.279000000000000000e+03,-4.547547975502990170e-01,0.000000000000000000e+00
1.280000000000000000e+03,-5.860422032928228608e-01,0.000000000000000000e+00
1.281000000000000000e+03,-5.996803949245821386e-01,0.000000000000000000e+00
1.282000000000000000e+03,-4.427042972580915725e-01,0.000000000000000000e+00
1.283000000000000000e+03,-6.096217464209012782e-01,0.000000000000000000e+00
1.284000000000000000e+03,-3.929790302560094012e-02,0.000000000000000000e+00
1.285000000000000000e+03,-4.679936002596186140e-01,0.000000000000000000e+00
1.286000000000000000e+03,-2.189470336823442220e-01,0.000000000000000000e+00
1.287000000000000000e+03,-8.186944018362711517e-02,0.000000000000000000e+00
1.288000000000000000e+03,9.512843611376033126e-02,0.000000000000000000e+00
1.289000000000000000e+03,-4.097636453363466269e-01,0.000000000000000000e+00
1.290000000000000000e+03,5.175037948511181096e-02,0.000000000000000000e+00
1.291000000000000000e+03,1.009942591953895130e-01,0.000000000000000000e+00
1.292000000000000000e+03,2.230700151925239794e-02,0.000000000000000000e+00
1.293000000000000000e+03,1.439862119849214250e-01,0.000000000000000000e+00
1.294000000000000000e+03,-1.800392583590925966e-01,0.000000000000000000e+00
1.295000000000000000e+03,1.630900008140959423e-01,0.000000000000000000e+00
1.296000000000000000e+03,-8.967880778390500962e-02,0.000000000000000000e+00
1.297000000000000000e+03,2.155029045213150696e-01,0.000000000000000000e+00
1.298000000000000000e+03,7.807248024202712022e-02,0.000000000000000000e+00
1.299000000000000000e+03,-3.207624233001775405e-02,0.000000000000000000e+00
1.300000000000000000e+03,2.072556396253732447e-01,0.000000000000000000e+00
1.301000000000000000e+03,1.056201189810483804e-01,0.000000000000000000e+00
1.302000000000000000e+03,4.845791876733955283e-01,0.000000000000000000e+00
1.303000000000000000e+03,5.519329229714408855e-03,0.000000000000000000e+00
1.304000000000000000e+03,2.093813743710276898e-01,0.000000000000000000e+00
1.305000000000000000e+03,2.198106398634815384e-01,0.000000000000000000e+00
1.306000000000000000e+03,2.775027456899843981e-01,0.000000000000000000e+00
1.307000000000000000e+03,2.745087789714576454e-01,0.000000000000000000e+00
1.308000000000000000e+03,2.296016787369282164e-01,0.000000000000000000e+00
1.309000000000000000e+03,1.305238012874814502e-01,0.000000000000000000e+00
1.310000000000000000e+03,4.419144287116125169e-01,0.000000000000000000e+00
1.311000000000000000e+03,2.374992449275328543e-01,0.000000000000000000e+00
1.312000000000000000e+03,3.108283368869347307e-01,0.000000000000000000e+00
1.313000000000000000e+03,1.204224190993966326e-01,0.000000000000000000e+00
1.314000000000000000e+03,3.392329060660778661e-01,0.000000000000000000e+00
1.315000000000000000e+03,2.693022680944399116e-01,0.000000000000000000e+00
1.316000000000000000e+03,7.632350477131606414e-01,0.000000000000000000e+00
1.317000000000000000e+03,9.067591953771585445e-01,0.000000000000000000e+00
1.318000000000000000e+03,7.290919483817283053e-01,0.000000000000000000e+00
1.319000000000000000e+03,3.641572681569593128e-01,0.000000000000000000e+00
1.320000000000000000e+03,-3.377140978120980463e-01,0.000000000000000000e+00
1.321000000000000000e+03,-1.967266563871977458e-01,0.000000000000000000e+00
1.322000000000000000e+03,-2.808359550605735167e-01,0.000000000000000000e+00
1.323000000000000000e+03,-2.160134420348166495e-01,0.000000000000000000e+00
1.324000000000000000e+03,6.739361106782855437e-02,0.000000000000000000e+00
1.325000000000000000e+03,-1.147886426617697575e+00,0.000000000000000000e+00
1.326000000000000000e+03,-7.678644830970472734e-02,0.000000000000000000e+00
1.327000000000000000e+03,6.346056427765237373e+00,0.000000000000000000e+00
1.328000000000000000e+03,2.729352669929094422e+00,1.000000000000000000e+00
1.329000000000000000e+03,2.147434365500343334e-01,0.000000000000000000e+00
1.330000000000000000e+03,-1.527898342902739071e+00,0.000000000000000000e+00
1.331000000000000000e+03,-1.545173090313882280e+00,0.000000000000000000e+00
1.332000000000000000e+03,-1.595050931101842151e+00,0.000000000000000000e+00
1.333000000000000000e+03,-1.279205596690830671e+00,0.000000000000000000e+00
1.334000000000000000e+03,-1.386872347546924455e+00,0.000000000000000000e+00
1.335000000000000000e+03,-1.140781115019928960e+00,0.000000000000000000e+00
1.336000000000000000e+03,-1.232256694003502684e+00,0.000000000000000000e+00
1.337000000000000000e+03,-8.098967544427035925e-01,0.000000000000000000e+00
1.338000000000000000e+03,-7.627173560004631980e-01,0.000000000000000000e+00
1.339000000000000000e+03,-5.494259165938950584e-01,0.000000000000000000e+00
1.340000000000000000e+03,-2.846832046031126384e-01,0.000000000000000000e+00
1.341000000000000000e+03,6.799026709821308356e-02,0.000000000000000000e+00
1.342000000000000000e+03,2.879737509924787942e-01,0.000000000000000000e+00
1.343000000000000000e+03,4.685121888661041845e-01,0.000000000000000000e+00
1.344000000000000000e+03,7.478343997768097662e-01,0.000000000000000000e+00
1.345000000000000000e+03,1.048843364253257082e+00,0.000000000000000000e+00
1.346000000000000000e+03,5.521243555273162018e-01,0.000000000000000000e+00
1.347000000000000000e+03,3.212615968891359697e-01,0.000000000000000000e+00
1.348000000000000000e+03,-2.713372873491143311e-01,0.000000000000000000e+00
1.349000000000000000e+03,-6.093379064864687944e-01,0.000000000000000000e+00
1.350000000000000000e+03,-9.835869397737301290e-01,0.000000000000000000e+00
1.351000000000000000e+03,-6.051588044349173190e-01,0.000000000000000000e+00
1.352000000000000000e+03,-8.569096592759006814e-01,0.000000000000000000e+00
1.353000000000000000e+03,-8.003128877986529499e-01,0.000000000000000000e+00
1.354000000000000000e+03,-5.559324408447032795e-01,0.000000000000000000e+00
1.355000000000000000e+03,-3.487973080542615678e-01,0.000000000000000000e+00
1.356000000000000000e+03,-5.798407183941443055e-01,0.000000000000000000e+00
1.357000000000000000e+03,-3.513668519377245447e-01,0.000000000000000000e+00
1.358000000000000000e+03,-1.789161357418220799e-01,0.000000000000000000e+00
1.359000000000000000e+03,8.674402125783343964e-02,0.000000000000000000e+00
1.360000000000000000e+03,-2.063888153806149317e-01,0.000000000000000000e+00
1.361000000000000000e+03,-2.089725583270190257e-01,0.000000000000000000e+00
1.362000000000000000e+03,-2.935574742806996151e-01,0.000000000000000000e+00
1.363000000000000000e+03,1.259828597899000091e-01,0.000000000000000000e+00
1.364000000000000000e+03,-2.636575565928160891e-01,0.000000000000000000e+00
1.365000000000000000e+03,3.698067783647436546e-02,0.000000000000000000e+00
1.366000000000000000e+03,-2.001173540631553949e-02,0.000000000000000000e+00
1.367000000000000000e+03,9.707663014795082923e-02,0.000000000000000000e+00
1.368000000000000000e+03,-2.450791313427926610e-01,0.000000000000000000e+00
1.369000000000000000e+03,1.319680133605411476e-01,0.000000000000000000e+00
1.370000000000000000e+03,-2.396365163074414550e-01,0.000000000000000000e+00
1.371000000000000000e+03,2.674160759329861081e-01,0.000000000000000000e+00
1.372000000000000000e+03,1.999405044604172788e-01,0.000000000000000000e+00
1.373000000000000000e+03,1.975177417098278668e-02,0.000000000000000000e+00
1.374000000000000000e+03,1.026237989052028038e-01,0.000000000000000000e+00
1.375000000000000000e+03,3.017645126479361894e-01,0.000000000000000000e+00
1.376000000000000000e+03,2.555555151298076217e-03,0.000000000000000000e+00
1.377000000000000000e+03,2.483800616526713467e-01,0.000000000000000000e+00
1.378000000000000000e+03,2.578861701663526795e-01,0.000000000000000000e+00
1.379000000000000000e+03,8.290765794162152647e-01,0.000000000000000000e+00
1.380000000000000000e+03,6.527461361550215280e-01,0.000000000000000000e+00
1.381000000000000000e+03,4.892593631252851183e-01,0.000000000000000000e+00
1.382000000000000000e+03,-5.292933184796484725e-02,0.000000000000000000e+00
1.383000000000000000e+03,6.164696241823648670e-02,0.000000000000000000e+00
1.384000000000000000e+03,-2.413775480082554215e-01,0.000000000000000000e+00
1.385000000000000000e+03,2.448885136138948242e-03,0.000000000000000000e+00
1.386000000000000000e+03,-4.638727521660264419e-02,0.000000000000000000e+00
1.387000000000000000e+03,1.721783983671484608e-01,0.000000000000000000e+00
1.388000000000000000e+03,-1.217936751371345938e+00,0.000000000000000000e+00
1.389000000000000000e+03,3.620294018959966387e+00,0.000000000000000000e+00
1.390000000000000000e+03,3.592641835660209448e+00,0.000000000000000000e+00
1.391000000000000000e+03,6.676574801139462112e-01,1.000000000000000000e+00
1.392000000000000000e+03,1.028865658832424923e-01,0.000000000000000000e+00
1.393000000000000000e+03,-1.173112331094446237e+00,0.000000000000000000e+00
1.394000000000000000e+03,-4.327341746024396807e-01,0.000000000000000000e+00
1.395000000000000000e+03,-9.840751407405492479e-01,0.000000000000000000e+00
1.396000000000000000e+03,-3.642014632130025076e-01,0.000000000000000000e+00
1.397000000000000000e+03,-7.042035992560552460e-01,0.000000000000000000e+00
1.398000000000000000e+03,-4.087272186386737838e-01,0.000000000000000000e+00
1.399000000000000000e+03,-5.824040254017881502e-01,0.000000000000000000e+00
1.400000000000000000e+03,4.487645770658963036e-03,0.000000000000000000e+00
1.401000000000000000e+03,-5.332742962051954111e-02,0.000000000000000000e+00
1.402000000000000000e+03,7.754068277894853034e-02,0.000000000000000000e+00
1.403000000000000000e+03,3.204734052411324918e-01,0.000000000000000000e+00
1.404000000000000000e+03,6.903521994193909661e-01,0.000000000000000000e+00
1.405000000000000000e+03,8.908429757273895744e-01,0.000000000000000000e+00
1.406000000000000000e+03,9.564139656629162545e-01,0.000000000000000000e+00
1.407000000000000000e+03,1.132108220856652636e+00,0.000000000000000000e+00
1.408000000000000000e+03,1.163409797717540162e+00,0.000000000000000000e+00
1.409000000000000000e+03,4.213637144614006957e-01,0.000000000000000000e+00
1.410000000000000000e+03,1.143003645018813436e-01,0.000000000000000000e+00
1.411000000000000000e+03,-8.365056866892505161e-01,0.000000000000000000e+00
1.412000000000000000e+03,-6.754966202436616385e-01,0.000000000000000000e+00
1.413000000000000000e+03,-1.008451471624099538e+00,0.000000000000000000e+00
1.414000000000000000e+03,-8.937141093232018330e-01,0.000000000000000000e+00
1.415000000000000000e+03,-5.227638007573289780e-01,0.000000000000000000e+00
1.416000000000000000e+03,-8.017190069000749153e-01,0.000000000000000000e+00
1.417000000000000000e+03,-6.814236648528179119e-01,0.000000000000000000e+00
1.418000000000000000e+03,-5.143048587708765051e-01,0.000000000000000000e+00
1.419000000000000000e+03,-2.462659077932585205e-01,0.000000000000000000e+00
1.420000000000000000e+03,-3.290890497525205682e-01,0.000000000000000000e+00
1.421000000000000000e+03,-5.102375779317763066e-02,0.000000000000000000e+00
1.422000000000000000e+03,-2.189158354781080285e-01,0.000000000000000000e+00
1.423000000000000000e+03,-2.912426588973061614e-01,0.000000000000000000e+00
1.424000000000000000e+03,-1.730907466383568849e-01,0.000000000000000000e+00
1.425000000000000000e+03,-4.580500366524463685e-01,0.000000000000000000e+00
1.426000000000000000e+03,-6.142317068218711151e-02,0.000000000000000000e+00
1.427000000000000000e+03,-3.368130255646201165e-01,0.000000000000000000e+00
1.428000000000000000e+03,-9.276982188425406117e-02,0.000000000000000000e+00
1.429000000000000000e+03,-6.174190226178012664e-02,0.000000000000000000e+00
1.430000000000000000e+03,-2.468813310264119931e-01,0.000000000000000000e+00
1.431000000000000000e+03,-2.385210794904467357e-01,0.000000000000000000e+00
1.432000000000000000e+03,7.866759108321491611e-03,0.000000000000000000e+00
1.433000000000000000e+03,-7.152155715252635215e-02,0.000000000000000000e+00
1.434000000000000000e+03,2.548814060205382148e-01,0.000000000000000000e+00
1.435000000000000000e+03,-4.554256656109542147e-03,0.000000000000000000e+00
1.436000000000000000e+03,2.640416125654289070e-01,0.000000000000000000e+00
1.437000000000000000e+03,1.921691911534055205e-02,0.000000000000000000e+00
1.438000000000000000e+03,1.633937348701957892e-01,0.000000000000000000e+00
1.439000000000000000e+03,1.853239500288477171e-01,0.000000000000000000e+00
1.440000000000000000e+03,7.303671208439952434e-01,0.000000000000000000e+00
1.441000000000000000e+03,6.521888191311449035e-01,0.000000000000000000e+00
1.442000000000000000e+03,7.567431222091782761e-01,0.000000000000000000e+00
1.443000000000000000e+03,4.346411951522182737e-01,0.000000000000000000e+00
1.444000000000000000e+03,-6.145846156519273878e-02,0.000000000000000000e+00
1.445000000000000000e+03,-2.748171174000014760e-01,0.000000000000000000e+00
1.446000000000000000e+03,-1.145045754417803319e-01,0.000000000000000000e+00
1.447000000000000000e+03,-8.455010744101731923e-02,0.000000000000000000e+00
1.448000000000000000e+03,-9.347964317511348042e-02,0.000000000000000000e+00
1.449000000000000000e+03,-2.992987213781927447e-01,0.000000000000000000e+00
1.450000000000000000e+03,-7.622196839899544329e-01,0.000000000000000000e+00
1.451000000000000000e+03,4.964692744684443326e+00,0.000000000000000000e+00
1.452000000000000000e+03,3.096638039856097535e+00,1.000000000000000000e+00
1.453000000000000000e+03,3.987128724104651023e-01,0.000000000000000000e+00
1.454000000000000000e+03,-6.824472220543438272e-01,0.000000000000000000e+00
1.455000000000000000e+03,-1.281121098438414929e+00,0.000000000000000000e+00
1.456000000000000000e+03,-1.160353252008988312e+00,0.000000000000000000e+00
1.457000000000000000e+03,-1.169425941811087943e+00,0.000000000000000000e+00
1.458000000000000000e+03,-8.341697886206135282e-01,0.000000000000000000e+00
1.459000000000000000e+03,-8.237811659660200236e-01,0.000000000000000000e+00
1.460000000000000000e+03,-6.527243645657745397e-01,0.000000000000000000e+00
1.461000000000000000e+03,-5.404154169678258013e-01,0.000000000000000000e+00
1.462000000000000000e+03,-6.562047567102113899e-01,0.000000000000000000e+00
1.463000000000000000e+03,-3.170619257536381186e-01,0.000000000000000000e+00
1.464000000000000000e+03,1.417689115229257835e-01,0.000000000000000000e+00
1.465000000000000000e+03,1.416428261565119140e-01,0.000000000000000000e+00
1.466000000000000000e+03,6.825203531869926676e-01,0.000000000000000000e+00
1.467000000000000000e+03,6.601208173422695724e-01,0.000000000000000000e+00
1.468000000000000000e+03,1.049604942579649647e+00,0.000000000000000000e+00
1.469000000000000000e+03,1.034767836428657217e+00,0.000000000000000000e+00
1.470000000000000000e+03,9.732081961197748265e-01,0.000000000000000000e+00
1.471000000000000000e+03,2.167254346687398914e-01,0.000000000000000000e+00
1.472000000000000000e+03,-8.029401323217857933e-02,0.000000000000000000e+00
1.473000000000000000e+03,-5.873318852066833351e-01,0.000000000000000000e+00
1.474000000000000000e+03,-8.964557371344760162e-01,0.000000000000000000e+00
1.475000000000000000e+03,-8.741241572134358373e-01,0.000000000000000000e+00
1.476000000000000000e+03,-8.136544076186852381e-01,0.000000000000000000e+00
1.477000000000000000e+03,-7.488917591920892791e-01,0.000000000000000000e+00
1.478000000000000000e+03,-5.553715670825931650e-01,0.000000000000000000e+00
1.479000000000000000e+03,-4.892184104342924833e-01,0.000000000000000000e+00
1.480000000000000000e+03,-6.587151019056304291e-01,0.000000000000000000e+00
1.481000000000000000e+03,-3.035886596764979517e-01,0.000000000000000000e+00
1.482000000000000000e+03,-7.165381041411805589e-03,0.000000000000000000e+00
1.483000000000000000e+03,-3.264451812458974977e-01,0.000000000000000000e+00
1.484000000000000000e+03,-1.292823030900744352e-01,0.000000000000000000e+00
1.485000000000000000e+03,-2.750245695192312656e-01,0.000000000000000000e+00
1.486000000000000000e+03,-1.832636649750685187e-02,0.000000000000000000e+00
1.487000000000000000e+03,-2.724980176733185488e-01,0.000000000000000000e+00
1.488000000000000000e+03,-1.828665012027936021e-01,0.000000000000000000e+00
1.489000000000000000e+03,-5.573925371368378123e-02,0.000000000000000000e+00
1.490000000000000000e+03,-1.629433443921993740e-01,0.000000000000000000e+00
1.491000000000000000e+03,-1.689104530457600228e-01,0.000000000000000000e+00
1.492000000000000000e+03,-1.871560428568050036e-02,0.000000000000000000e+00
1.493000000000000000e+03,-9.760502441253850192e-02,0.000000000000000000e+00
1.494000000000000000e+03,-2.829056907701914952e-02,0.000000000000000000e+00
1.495000000000000000e+03,-5.853121561762293645e-02,0.000000000000000000e+00
1.496000000000000000e+03,-2.382212245040068455e-01,0.000000000000000000e+00
1.497000000000000000e+03,1.653441362587952934e-01,0.000000000000000000e+00
1.498000000000000000e+03,1.894993779784515386e-01,0.000000000000000000e+00
1.499000000000000000e+03,-8.556156582854333031e-03,0.000000000000000000e+00
1.500000000000000000e+03,1.090944285348686288e-01,0.000000000000000000e+00
1.501000000000000000e+03,1.555736865007028569e-01,0.000000000000000000e+00
1.502000000000000000e+03,4.393638331193270852e-01,0.000000000000000000e+00
1.503000000000000000e+03,1.037171262194812149e+00,0.000000000000000000e+00
1.504000000000000000e+03,6.468875474568055450e-01,0.000000000000000000e+00
1.505000000000000000e+03,6.572828357603199834e-01,0.000000000000000000e+00
1.506000000000000000e+03,-5.319439665685782304e-01,0.000000000000000000e+00
1.507000000000000000e+03,-1.951104642444490000e-01,0.000000000000000000e+00
1.508000000000000000e+03,-2.611930245897619018e-01,0.000000000000000000e+00
1.509000000000000000e+03,-2.180063541965035767e-01,0.000000000000000000e+00
1.510000000000000000e+03,-2.663197564039546106e-01,0.000000000000000000e+00
1.511000000000000000e+03,1.809305034511329291e-01,0.000000000000000000e+00
1.512000000000000000e+03,-1.840742295506127668e+00,0.000000000000000000e+00
1.513000000000000000e+03,4.955923903172598344e+00,0.000000000000000000e+00
1.514000000000000000e+03,4.747273971292222505e+00,0.000000000000000000e+00
1.515000000000000000e+03,8.489726757347910713e-01,1.000000000000000000e+00
1.516000000000000000e+03,-5.910750585705164539e-01,0.000000000000000000e+00
1.517000000000000000e+03,-1.710367997518728034e+00,0.000000000000000000e+00
1.518000000000000000e+03,-1.281027098285251187e+00,0.000000000000000000e+00
1.519000000000000000e+03,-1.233573999913860852e+00,0.000000000000000000e+00
1.520000000000000000e+03,-1.227202497776520573e+00,0.000000000000000000e+00
1.521000000000000000e+03,-9.870653891133677194e-01,0.000000000000000000e+00
1.522000000000000000e+03,-9.082073472267729874e-01,0.000000000000000000e+00
1.523000000000000000e+03,-6.490351935234012215e-01,0.000000000000000000e+00
1.524000000000000000e+03,-5.960201003455206648e-01,0.000000000000000000e+00
1.525000000000000000e+03,-5.302977990150699039e-01,0.000000000000000000e+00
1.526000000000000000e+03,-2.287134284419089503e-01,0.000000000000000000e+00
1.527000000000000000e+03,5.612192009778296797e-02,0.000000000000000000e+00
1.528000000000000000e+03,4.489047435311671608e-01,0.000000000000000000e+00
1.529000000000000000e+03,7.410899244085854543e-01,0.000000000000000000e+00
1.530000000000000000e+03,9.396861979869605142e-01,0.000000000000000000e+00
1.531000000000000000e+03,7.620067234114646926e-01,0.000000000000000000e+00
1.532000000000000000e+03,1.078602039319208394e+00,0.000000000000000000e+00
1.533000000000000000e+03,5.042842144293775419e-01,0.000000000000000000e+00
1.534000000000000000e+03,2.785650810906344435e-03,0.000000000000000000e+00
1.535000000000000000e+03,-3.719772995557202311e-01,0.000000000000000000e+00
1.536000000000000000e+03,-4.771545100576394804e-01,0.000000000000000000e+00
1.537000000000000000e+03,-6.535000797433745401e-01,0.000000000000000000e+00
1.538000000000000000e+03,-7.328737661343931453e-01,0.000000000000000000e+00
1.539000000000000000e+03,-4.039746767500430602e-01,0.000000000000000000e+00
1.540000000000000000e+03,-2.972353162045181518e-01,0.000000000000000000e+00
1.541000000000000000e+03,-4.202277684340012254e-01,0.000000000000000000e+00
1.542000000000000000e+03,-2.633290280033436792e-01,0.000000000000000000e+00
1.543000000000000000e+03,-2.598007504178439508e-01,0.000000000000000000e+00
1.544000000000000000e+03,-9.881591615101423254e-02,0.000000000000000000e+00
1.545000000000000000e+03,-1.042353572293781561e-01,0.000000000000000000e+00
1.546000000000000000e+03,1.128892288107606195e-01,0.000000000000000000e+00
1.547000000000000000e+03,-2.884630891356845805e-01,0.000000000000000000e+00
1.548000000000000000e+03,1.697898339438239090e-01,0.000000000000000000e+00
1.549000000000000000e+03,-3.256532488805655712e-01,0.000000000000000000e+00
1.550000000000000000e+03,2.128236007631011811e-02,0.000000000000000000e+00
1.551000000000000000e+03,-1.311951709907496766e-01,0.000000000000000000e+00
1.552000000000000000e+03,1.600365465587114816e-02,0.000000000000000000e+00
1.553000000000000000e+03,-1.935035210064607082e-03,0.000000000000000000e+00
1.554000000000000000e+03,2.669489367314309414e-01,0.000000000000000000e+00
1.555000000000000000e+03,-1.074414287288112529e-01,0.000000000000000000e+00
1.556000000000000000e+03,1.809699465180687750e-01,0.000000000000000000e+00
1.557000000000000000e+03,5.962935233166229143e-02,0.000000000000000000e+00
1.558000000000000000e+03,3.342099731956330033e-01,0.000000000000000000e+00
1.559000000000000000e+03,6.265979691338059709e-02,0.000000000000000000e+00
1.560000000000000000e+03,3.776121244776273200e-01,0.000000000000000000e+00
1.561000000000000000e+03,-1.031742789876788219e-01,0.000000000000000000e+00
1.562000000000000000e+03,4.787796260577839580e-01,0.000000000000000000e+00
1.563000000000000000e+03,3.213730382972322386e-01,0.000000000000000000e+00
1.564000000000000000e+03,9.012576535555198998e-01,0.000000000000000000e+00
1.565000000000000000e+03,7.979156922787081774e-01,0.000000000000000000e+00
1.566000000000000000e+03,1.036663080456439179e+00,0.000000000000000000e+00
1.567000000000000000e+03,4.908989139452103051e-02,0.000000000000000000e+00
1.568000000000000000e+03,-4.085490113801755474e-02,0.000000000000000000e+00
1.569000000000000000e+03,-3.970637619646262828e-01,0.000000000000000000e+00
1.570000000000000000e+03,-3.422047139522084447e-02,0.000000000000000000e+00
1.571000000000000000e+03,-4.052521032574846194e-01,0.000000000000000000e+00
1.572000000000000000e+03,1.269177574181253598e-01,0.000000000000000000e+00
1.573000000000000000e+03,-1.159563481677651886e+00,0.000000000000000000e+00
1.574000000000000000e+03,2.444285722397873117e-01,0.000000000000000000e+00
1.575000000000000000e+03,6.457992317573902241e+00,0.000000000000000000e+00
1.576000000000000000e+03,2.389257250764951657e+00,1.000000000000000000e+00
1.577000000000000000e+03,3.714732386912563133e-01,0.000000000000000000e+00
1.578000000000000000e+03,-1.374691373498064584e+00,0.000000000000000000e+00
1.579000000000000000e+03,-1.372405663332602721e+00,0.000000000000000000e+00
1.580000000000000000e+03,-1.396832862241286666e+00,0.000000000000000000e+00
1.581000000000000000e+03,-1.259609878941941652e+00,0.000000000000000000e+00
1.582000000000000000e+03,-1.202288036644438618e+00,0.000000000000000000e+00
1.583000000000000000e+03,-8.276539737005839115e-01,0.000000000000000000e+00
1.584000000000000000e+03,-9.123101948294921604e-01,0.000000000000000000e+00
1.585000000000000000e+03,-6.678833229883439637e-01,0.000000000000000000e+00
