timestamp,ecg_measurement,qrs_detected
0.000000000000000000e+00,-5.959220104872856028e-02,0.000000000000000000e+00
1.000000000000000000e+00,6.178154912856576725e-02,0.000000000000000000e+00
2.000000000000000000e+00,3.937991179917162826e-02,0.000000000000000000e+00
3.000000000000000000e+00,4.496699805198892813e-02,0.000000000000000000e+00
4.000000000000000000e+00,1.232872757147820270e-01,0.000000000000000000e+00
5.000000000000000000e+00,3.515086998039598787e-01,0.000000000000000000e+00
6.000000000000000000e+00,7.510177138943217867e-02,0.000000000000000000e+00
7.000000000000000000e+00,1.624151321047606622e-01,0.000000000000000000e+00
8.000000000000000000e+00,-5.487820787827893398e-02,0.000000000000000000e+00
9.000000000000000000e+00,1.901139586034527318e-01,0.000000000000000000e+00
1.000000000000000000e+01,1.441026886845018229e-01,0.000000000000000000e+00
1.100000000000000000e+01,1.869936058975734949e-01,0.000000000000000000e+00
1.200000000000000000e+01,1.896354313351763243e-01,0.000000000000000000e+00
1.300000000000000000e+01,1.358163160394252611e-01,0.000000000000000000e+00
1.400000000000000000e+01,2.661352732004731436e-01,0.000000000000000000e+00
1.500000000000000000e+01,1.737235986532865151e-01,0.000000000000000000e+00
1.600000000000000000e+01,7.172126696388424205e-02,0.000000000000000000e+00
1.700000000000000000e+01,2.024091754368598783e-01,0.000000000000000000e+00
1.800000000000000000e+01,1.133571135924460738e-01,0.000000000000000000e+00
1.900000000000000000e+01,1.627943448123258530e-01,0.000000000000000000e+00
2.000000000000000000e+01,1.743232652574870367e-01,0.000000000000000000e+00
2.100000000000000000e+01,3.140847464479286089e-01,0.000000000000000000e+00
2.200000000000000000e+01,-8.298655647553324077e-02,0.000000000000000000e+00
2.300000000000000000e+01,4.203378016766882719e-01,0.000000000000000000e+00
2.400000000000000000e+01,2.080171130026747250e-01,0.000000000000000000e+00
2.500000000000000000e+01,3.794530025423116792e-01,0.000000000000000000e+00
2.600000000000000000e+01,4.962562582655729027e-01,0.000000000000000000e+00
2.700000000000000000e+01,6.156166485273127931e-01,0.000000000000000000e+00
2.800000000000000000e+01,1.936901655831181901e-01,0.000000000000000000e+00
2.900000000000000000e+01,1.273921463737477666e-01,0.000000000000000000e+00
3.000000000000000000e+01,-2.088019162986361199e-01,0.000000000000000000e+00
3.100000000000000000e+01,5.374477013696819100e-02,0.000000000000000000e+00
3.200000000000000000e+01,-4.979536142908903007e-01,0.000000000000000000e+00
3.300000000000000000e+01,-4.494115282919270392e-03,0.000000000000000000e+00
3.400000000000000000e+01,-6.113984364033483443e-01,0.000000000000000000e+00
3.500000000000000000e+01,4.838113545614294075e+00,0.000000000000000000e+00
3.600000000000000000e+01,4.826323179999479684e+00,0.000000000000000000e+00
3.700000000000000000e+01,-6.641540222893962397e-01,1.000000000000000000e+00
3.800000000000000000e+01,-7.114014324254859245e-01,0.000000000000000000e+00
3.900000000000000000e+01,-1.601521647144277916e+00,0.000000000000000000e+00
4.000000000000000000e+01,-1.280135264274549822e+00,0.000000000000000000e+00
4.100000000000000000e+01,-1.306663087656518174e+00,0.000000000000000000e+00
4.200000000000000000e+01,-1.036276555188333282e+00,0.000000000000000000e+00
4.300000000000000000e+01,-1.155659387458633613e+00,0.000000000000000000e+00
4.400000000000000000e+01,-7.036551651871338908e-01,0.000000000000000000e+00
4.500000000000000000e+01,-8.073336642596855572e-01,0.000000000000000000e+00
4.600000000000000000e+01,-4.818986029395369575e-01,0.000000000000000000e+00
4.700000000000000000e+01,-4.930020325876212639e-01,0.000000000000000000e+00
4.800000000000000000e+01,-1.113212952968280350e-01,0.000000000000000000e+00
4.900000000000000000e+01,3.148034081813553403e-02,0.000000000000000000e+00
5.000000000000000000e+01,2.364323613428135351e-01,0.000000000000000000e+00
5.100000000000000000e+01,4.476585822367419865e-01,0.000000000000000000e+00
5.200000000000000000e+01,5.165803701173617979e-01,0.000000000000000000e+00
5.300000000000000000e+01,2.386086846564731134e-01,0.000000000000000000e+00
5.400000000000000000e+01,-3.558115537792386901e-02,0.000000000000000000e+00
5.500000000000000000e+01,-4.188242990554105205e-01,0.000000000000000000e+00
5.600000000000000000e+01,-6.249095366454558986e-01,0.000000000000000000e+00
5.700000000000000000e+01,-6.915512985501309773e-01,0.000000000000000000e+00
5.800000000000000000e+01,-6.150136864042159424e-01,0.000000000000000000e+00
5.900000000000000000e+01,-4.367101854558810281e-01,0.000000000000000000e+00
6.000000000000000000e+01,-4.125157279145613698e-01,0.000000000000000000e+00
6.100000000000000000e+01,-5.104354784826973246e-01,0.000000000000000000e+00
6.200000000000000000e+01,-3.190444157765471300e-01,0.000000000000000000e+00
6.300000000000000000e+01,-3.260709589948642684e-01,0.000000000000000000e+00
6.400000000000000000e+01,-1.239051613809773883e-01,0.000000000000000000e+00
6.500000000000000000e+01,-1.704969313303225376e-01,0.000000000000000000e+00
6.600000000000000000e+01,3.885693384241205306e-02,0.000000000000000000e+00
6.700000000000000000e+01,-1.080119814459486044e-01,0.000000000000000000e+00
6.800000000000000000e+01,6.829258071220831172e-02,0.000000000000000000e+00
6.900000000000000000e+01,1.069818041400700803e-01,0.000000000000000000e+00
7.000000000000000000e+01,-6.267431712622331674e-02,0.000000000000000000e+00
7.100000000000000000e+01,1.023934966866268392e-01,0.000000000000000000e+00
7.200000000000000000e+01,1.040713202794205788e-01,0.000000000000000000e+00
7.300000000000000000e+01,-3.238521266274881072e-02,0.000000000000000000e+00
7.400000000000000000e+01,8.527793818564111117e-02,0.000000000000000000e+00
7.500000000000000000e+01,1.036027067001300539e-01,0.000000000000000000e+00
7.600000000000000000e+01,8.844788854453939156e-03,0.000000000000000000e+00
7.700000000000000000e+01,7.929972893907477616e-02,0.000000000000000000e+00
7.800000000000000000e+01,1.404833956193282662e-01,0.000000000000000000e+00
7.900000000000000000e+01,2.181006851458219820e-01,0.000000000000000000e+00
8.000000000000000000e+01,1.139213154906158348e-01,0.000000000000000000e+00
8.100000000000000000e+01,1.891102264510533537e-01,0.000000000000000000e+00
8.200000000000000000e+01,2.685907283170895776e-01,0.000000000000000000e+00
8.300000000000000000e+01,5.252926906499103682e-02,0.000000000000000000e+00
8.400000000000000000e+01,3.654985765242618201e-01,0.000000000000000000e+00
8.500000000000000000e+01,1.729901450453187606e-02,0.000000000000000000e+00
8.600000000000000000e+01,1.309754508114231164e-01,0.000000000000000000e+00
8.700000000000000000e+01,2.073788732267803636e-01,0.000000000000000000e+00
8.800000000000000000e+01,2.368884267583742931e-01,0.000000000000000000e+00
8.900000000000000000e+01,5.009164993859284154e-01,0.000000000000000000e+00
9.000000000000000000e+01,5.483133857740328798e-01,0.000000000000000000e+00
9.100000000000000000e+01,4.274662973068226735e-01,0.000000000000000000e+00
9.200000000000000000e+01,2.816660028991918585e-01,0.000000000000000000e+00
9.300000000000000000e+01,1.336752378290176346e-01,0.000000000000000000e+00
9.400000000000000000e+01,-3.421431123152712250e-01,0.000000000000000000e+00
9.500000000000000000e+01,1.445538082646493638e-01,0.000000000000000000e+00
9.600000000000000000e+01,-4.360156195322381634e-01,0.000000000000000000e+00
9.700000000000000000e+01,1.845663636442259892e-01,0.000000000000000000e+00
9.800000000000000000e+01,-1.013695213168251508e+00,0.000000000000000000e+00
9.900000000000000000e+01,3.656804076417961014e+00,0.000000000000000000e+00
1.000000000000000000e+02,5.875317925858601242e+00,0.000000000000000000e+00
1.010000000000000000e+02,-5.534915414262576716e-01,1.000000000000000000e+00
1.020000000000000000e+02,-1.066664892701209677e+00,0.000000000000000000e+00
1.030000000000000000e+02,-1.234903030411148128e+00,0.000000000000000000e+00
1.040000000000000000e+02,-1.339963900042680400e+00,0.000000000000000000e+00
1.050000000000000000e+02,-1.289488456991208842e+00,0.000000000000000000e+00
1.060000000000000000e+02,-9.709404540995535404e-01,0.000000000000000000e+00
1.070000000000000000e+02,-1.116455146824059330e+00,0.000000000000000000e+00
1.080000000000000000e+02,-5.650143697661548225e-01,0.000000000000000000e+00
1.090000000000000000e+02,-7.239950914570471019e-01,0.000000000000000000e+00
1.100000000000000000e+02,-4.279146110891041133e-01,0.000000000000000000e+00
1.110000000000000000e+02,-4.470604079663275665e-01,0.000000000000000000e+00
1.120000000000000000e+02,-1.524907391881101248e-01,0.000000000000000000e+00
1.130000000000000000e+02,-3.915380926048704635e-02,0.000000000000000000e+00
1.140000000000000000e+02,4.325307139933177725e-01,0.000000000000000000e+00
1.150000000000000000e+02,4.865660056853738924e-01,0.000000000000000000e+00
1.160000000000000000e+02,6.548050958072274552e-01,0.000000000000000000e+00
1.170000000000000000e+02,3.792857115686878444e-01,0.000000000000000000e+00
1.180000000000000000e+02,-5.286877197022972485e-02,0.000000000000000000e+00
1.190000000000000000e+02,-5.746902837641564288e-01,0.000000000000000000e+00
1.200000000000000000e+02,-5.918539146909190807e-01,0.000000000000000000e+00
1.210000000000000000e+02,-6.932219644482561227e-01,0.000000000000000000e+00
1.220000000000000000e+02,-6.251246026284278390e-01,0.000000000000000000e+00
1.230000000000000000e+02,-6.319767296824451153e-01,0.000000000000000000e+00
1.240000000000000000e+02,-6.244036120237168586e-01,0.000000000000000000e+00
1.250000000000000000e+02,-6.336849285468548754e-01,0.000000000000000000e+00
1.260000000000000000e+02,-4.859098687555305496e-01,0.000000000000000000e+00
1.270000000000000000e+02,-2.365983182268194540e-01,0.000000000000000000e+00
1.280000000000000000e+02,-1.095040456577445614e-01,0.000000000000000000e+00
1.290000000000000000e+02,-1.024228739469738581e-01,0.000000000000000000e+00
1.300000000000000000e+02,-1.465568023157719224e-01,0.000000000000000000e+00
1.310000000000000000e+02,1.513280959453176533e-01,0.000000000000000000e+00
1.320000000000000000e+02,-1.176876475949720224e-02,0.000000000000000000e+00
1.330000000000000000e+02,1.199837566347176504e-01,0.000000000000000000e+00
1.340000000000000000e+02,1.489980954426920190e-01,0.000000000000000000e+00
1.350000000000000000e+02,1.545609897570860425e-01,0.000000000000000000e+00
1.360000000000000000e+02,-2.177637104759766028e-03,0.000000000000000000e+00
1.370000000000000000e+02,1.108327878555689372e-01,0.000000000000000000e+00
1.380000000000000000e+02,4.141703247824794071e-02,0.000000000000000000e+00
1.390000000000000000e+02,3.074764506158689792e-01,0.000000000000000000e+00
1.400000000000000000e+02,2.788498738982456149e-01,0.000000000000000000e+00
1.410000000000000000e+02,-1.338394928628201287e-02,0.000000000000000000e+00
1.420000000000000000e+02,2.325701507546923952e-01,0.000000000000000000e+00
1.430000000000000000e+02,1.284333427003314931e-01,0.000000000000000000e+00
1.440000000000000000e+02,1.026597487671695175e-01,0.000000000000000000e+00
1.450000000000000000e+02,1.561154315605489951e-01,0.000000000000000000e+00
1.460000000000000000e+02,3.268034006850617512e-01,0.000000000000000000e+00
1.470000000000000000e+02,1.197922690538565232e-01,0.000000000000000000e+00
1.480000000000000000e+02,2.506496028427254164e-01,0.000000000000000000e+00
1.490000000000000000e+02,3.231549026185986939e-01,0.000000000000000000e+00
1.500000000000000000e+02,1.223122222405343545e-01,0.000000000000000000e+00
1.510000000000000000e+02,2.424129544014499149e-01,0.000000000000000000e+00
1.520000000000000000e+02,5.156146875329717938e-01,0.000000000000000000e+00
1.530000000000000000e+02,5.088850103515218937e-01,0.000000000000000000e+00
1.540000000000000000e+02,6.138786533490561137e-01,0.000000000000000000e+00
1.550000000000000000e+02,5.745772008170845213e-01,0.000000000000000000e+00
1.560000000000000000e+02,3.153220452483565528e-01,0.000000000000000000e+00
1.570000000000000000e+02,-2.156095888936047089e-01,0.000000000000000000e+00
1.580000000000000000e+02,5.976289574417069546e-03,0.000000000000000000e+00
1.590000000000000000e+02,2.670662098457064759e-02,0.000000000000000000e+00
1.600000000000000000e+02,1.617360056721477840e-02,0.000000000000000000e+00
1.610000000000000000e+02,-3.284982596588859605e-01,0.000000000000000000e+00
1.620000000000000000e+02,1.069186689819678016e+00,0.000000000000000000e+00
1.630000000000000000e+02,6.629509479968903385e+00,0.000000000000000000e+00
1.640000000000000000e+02,1.761121870671839007e+00,1.000000000000000000e+00
1.650000000000000000e+02,-1.284407289125082618e+00,0.000000000000000000e+00
1.660000000000000000e+02,-9.813828158952512259e-01,0.000000000000000000e+00
1.670000000000000000e+02,-1.310481527397264534e+00,0.000000000000000000e+00
1.680000000000000000e+02,-1.209547508842666375e+00,0.000000000000000000e+00
1.690000000000000000e+02,-1.070054405646969187e+00,0.000000000000000000e+00
1.700000000000000000e+02,-8.713344705167649362e-01,0.000000000000000000e+00
1.710000000000000000e+02,-8.771154696848354471e-01,0.000000000000000000e+00
1.720000000000000000e+02,-5.528446048015520642e-01,0.000000000000000000e+00
1.730000000000000000e+02,-6.028193654863617246e-01,0.000000000000000000e+00
1.740000000000000000e+02,-3.604822342350873510e-01,0.000000000000000000e+00
1.750000000000000000e+02,-2.733257796371796333e-01,0.000000000000000000e+00
1.760000000000000000e+02,-2.038599257220867211e-01,0.000000000000000000e+00
1.770000000000000000e+02,2.153693459628513718e-01,0.000000000000000000e+00
1.780000000000000000e+02,4.325152807638607544e-01,0.000000000000000000e+00
1.790000000000000000e+02,4.245401251800990927e-01,0.000000000000000000e+00
1.800000000000000000e+02,6.059718408501478804e-01,0.000000000000000000e+00
1.810000000000000000e+02,1.238224934871681310e-01,0.000000000000000000e+00
1.820000000000000000e+02,-5.801882173139187859e-01,0.000000000000000000e+00
1.830000000000000000e+02,-7.858011466032825965e-01,0.000000000000000000e+00
1.840000000000000000e+02,-7.726413921356319880e-01,0.000000000000000000e+00
1.850000000000000000e+02,-8.549977790942531186e-01,0.000000000000000000e+00
1.860000000000000000e+02,-6.468672393932642928e-01,0.000000000000000000e+00
1.870000000000000000e+02,-5.916616107122761870e-01,0.000000000000000000e+00
1.880000000000000000e+02,-7.087470359963127242e-01,0.000000000000000000e+00
1.890000000000000000e+02,-6.011826392246445439e-01,0.000000000000000000e+00
1.900000000000000000e+02,-3.600233851488831571e-01,0.000000000000000000e+00
1.910000000000000000e+02,-3.422333252120356439e-01,0.000000000000000000e+00
1.920000000000000000e+02,-3.562584115015617336e-01,0.000000000000000000e+00
1.930000000000000000e+02,1.221516823229626229e-02,0.000000000000000000e+00
1.940000000000000000e+02,-1.335120849419489109e-01,0.000000000000000000e+00
1.950000000000000000e+02,4.850313918148129594e-02,0.000000000000000000e+00
1.960000000000000000e+02,-1.209787502548384241e-01,0.000000000000000000e+00
1.970000000000000000e+02,1.486085123647581108e-01,0.000000000000000000e+00
1.980000000000000000e+02,3.027935253856068459e-02,0.000000000000000000e+00
1.990000000000000000e+02,5.587937058567186283e-02,0.000000000000000000e+00
2.000000000000000000e+02,1.323837792440743788e-01,0.000000000000000000e+00
2.010000000000000000e+02,3.351140017451642583e-02,0.000000000000000000e+00
2.020000000000000000e+02,1.157182903928861695e-01,0.000000000000000000e+00
2.030000000000000000e+02,1.596208823116096465e-01,0.000000000000000000e+00
2.040000000000000000e+02,1.313490987892237671e-01,0.000000000000000000e+00
2.050000000000000000e+02,2.209892540256006843e-01,0.000000000000000000e+00
2.060000000000000000e+02,4.485294751036657257e-02,0.000000000000000000e+00
2.070000000000000000e+02,1.506735105216891191e-01,0.000000000000000000e+00
2.080000000000000000e+02,2.624740668544843780e-01,0.000000000000000000e+00
2.090000000000000000e+02,3.635196589356188834e-01,0.000000000000000000e+00
2.100000000000000000e+02,1.666075825499765267e-02,0.000000000000000000e+00
2.110000000000000000e+02,4.018605120312413459e-01,0.000000000000000000e+00
2.120000000000000000e+02,4.526722586012997540e-02,0.000000000000000000e+00
2.130000000000000000e+02,3.100980865975282441e-01,0.000000000000000000e+00
2.140000000000000000e+02,1.128110581733868661e-01,0.000000000000000000e+00
2.150000000000000000e+02,4.428059768137059815e-01,0.000000000000000000e+00
2.160000000000000000e+02,2.552903496123832272e-01,0.000000000000000000e+00
2.170000000000000000e+02,5.737899911751860316e-01,0.000000000000000000e+00
2.180000000000000000e+02,5.102706485312068496e-01,0.000000000000000000e+00
2.190000000000000000e+02,5.355049113292934537e-01,0.000000000000000000e+00
2.200000000000000000e+02,4.280212164294706634e-01,0.000000000000000000e+00
2.210000000000000000e+02,2.531714202788049595e-01,0.000000000000000000e+00
2.220000000000000000e+02,-2.922719841842379984e-01,0.000000000000000000e+00
2.230000000000000000e+02,1.613326841707055648e-01,0.000000000000000000e+00
2.240000000000000000e+02,-2.585679408399683132e-01,0.000000000000000000e+00
2.250000000000000000e+02,5.230511601287110568e-02,0.000000000000000000e+00
2.260000000000000000e+02,-9.629361412093279116e-01,0.000000000000000000e+00
2.270000000000000000e+02,4.054413916540496210e+00,0.000000000000000000e+00
2.280000000000000000e+02,5.847035595828008248e+00,0.000000000000000000e+00
2.290000000000000000e+02,-1.026842691723285211e-01,1.000000000000000000e+00
2.300000000000000000e+02,-7.370628411176138872e-01,0.000000000000000000e+00
2.310000000000000000e+02,-1.571742264009934997e+00,0.000000000000000000e+00
2.320000000000000000e+02,-1.278590707290834683e+00,0.000000000000000000e+00
2.330000000000000000e+02,-1.418407317938947365e+00,0.000000000000000000e+00
2.340000000000000000e+02,-1.073655139610817155e+00,0.000000000000000000e+00
2.350000000000000000e+02,-9.288413431425203148e-01,0.000000000000000000e+00
2.360000000000000000e+02,-7.759465818061801468e-01,0.000000000000000000e+00
2.370000000000000000e+02,-8.451666058542328663e-01,0.000000000000000000e+00
2.380000000000000000e+02,-5.502124903775164055e-01,0.000000000000000000e+00
2.390000000000000000e+02,-4.031713981254124168e-01,0.000000000000000000e+00
2.400000000000000000e+02,-1.747122965986566134e-01,0.000000000000000000e+00
2.410000000000000000e+02,-2.274985724668208975e-02,0.000000000000000000e+00
2.420000000000000000e+02,3.793672325625659369e-01,0.000000000000000000e+00
2.430000000000000000e+02,3.665554185643642993e-01,0.000000000000000000e+00
2.440000000000000000e+02,6.195431824757986483e-01,0.000000000000000000e+00
2.450000000000000000e+02,4.953282453282342179e-01,0.000000000000000000e+00
2.460000000000000000e+02,-5.103136847217735333e-02,0.000000000000000000e+00
2.470000000000000000e+02,-4.482777521526249420e-01,0.000000000000000000e+00
2.480000000000000000e+02,-7.146523979341550259e-01,0.000000000000000000e+00
2.490000000000000000e+02,-8.866843486799932395e-01,0.000000000000000000e+00
2.500000000000000000e+02,-5.678158223613715139e-01,0.000000000000000000e+00
2.510000000000000000e+02,-5.099202658379036190e-01,0.000000000000000000e+00
2.520000000000000000e+02,-5.511112799244756166e-01,0.000000000000000000e+00
2.530000000000000000e+02,-4.975985846770466514e-01,0.000000000000000000e+00
2.540000000000000000e+02,-4.213454292130544565e-01,0.000000000000000000e+00
2.550000000000000000e+02,-4.934994860451243359e-01,0.000000000000000000e+00
2.560000000000000000e+02,-3.411277245430216487e-01,0.000000000000000000e+00
2.570000000000000000e+02,-1.286666559320070180e-01,0.000000000000000000e+00
2.580000000000000000e+02,-7.614879688076210684e-02,0.000000000000000000e+00
2.590000000000000000e+02,-8.550801218107398696e-03,0.000000000000000000e+00
2.600000000000000000e+02,-4.298326047406143130e-03,0.000000000000000000e+00
2.610000000000000000e+02,1.730420161244009339e-02,0.000000000000000000e+00
2.620000000000000000e+02,5.788022041479114199e-02,0.000000000000000000e+00
2.630000000000000000e+02,7.413592651892036978e-02,0.000000000000000000e+00
2.640000000000000000e+02,4.516961253799900433e-02,0.000000000000000000e+00
2.650000000000000000e+02,1.294854942551687260e-01,0.000000000000000000e+00
2.660000000000000000e+02,1.357794433125709688e-01,0.000000000000000000e+00
2.670000000000000000e+02,1.123247683184728785e-01,0.000000000000000000e+00
2.680000000000000000e+02,-4.932911441502324176e-04,0.000000000000000000e+00
2.690000000000000000e+02,1.068777424630407008e-01,0.000000000000000000e+00
2.700000000000000000e+02,1.441556789854969156e-01,0.000000000000000000e+00
2.710000000000000000e+02,1.136787950888672044e-01,0.000000000000000000e+00
2.720000000000000000e+02,3.430641689760746127e-01,0.000000000000000000e+00
2.730000000000000000e+02,6.241757837336136400e-02,0.000000000000000000e+00
2.740000000000000000e+02,3.579142272897066768e-01,0.000000000000000000e+00
2.750000000000000000e+02,7.956959883390482546e-02,0.000000000000000000e+00
2.760000000000000000e+02,1.649287054733732660e-01,0.000000000000000000e+00
2.770000000000000000e+02,1.941763278121576841e-01,0.000000000000000000e+00
2.780000000000000000e+02,2.430509038618730855e-01,0.000000000000000000e+00
2.790000000000000000e+02,2.370744522307411117e-01,0.000000000000000000e+00
2.800000000000000000e+02,2.372510845189700346e-01,0.000000000000000000e+00
2.810000000000000000e+02,4.477386587258583850e-01,0.000000000000000000e+00
2.820000000000000000e+02,4.988139632586037764e-01,0.000000000000000000e+00
2.830000000000000000e+02,5.847172622189413804e-01,0.000000000000000000e+00
2.840000000000000000e+02,3.919050199402485113e-01,0.000000000000000000e+00
2.850000000000000000e+02,4.523406624620321392e-02,0.000000000000000000e+00
2.860000000000000000e+02,4.399415615339099389e-02,0.000000000000000000e+00
2.870000000000000000e+02,9.785827476126020275e-02,0.000000000000000000e+00
2.880000000000000000e+02,-3.045865378289384084e-01,0.000000000000000000e+00
2.890000000000000000e+02,-4.524011157017226309e-02,0.000000000000000000e+00
2.900000000000000000e+02,-7.428046625909233702e-01,0.000000000000000000e+00
2.910000000000000000e+02,2.397610893806410903e+00,0.000000000000000000e+00
2.920000000000000000e+02,6.697135068524264767e+00,0.000000000000000000e+00
2.930000000000000000e+02,8.284853788064110436e-01,1.000000000000000000e+00
2.940000000000000000e+02,-7.322408963908187962e-01,0.000000000000000000e+00
2.950000000000000000e+02,-1.495654494265865164e+00,0.000000000000000000e+00
2.960000000000000000e+02,-1.255123600182158627e+00,0.000000000000000000e+00
2.970000000000000000e+02,-1.416328303443813663e+00,0.000000000000000000e+00
2.980000000000000000e+02,-1.236455393762131427e+00,0.000000000000000000e+00
2.990000000000000000e+02,-1.059491665101657265e+00,0.000000000000000000e+00
3.000000000000000000e+02,-1.019396896741202374e+00,0.000000000000000000e+00
3.010000000000000000e+02,-8.344680750637150091e-01,0.000000000000000000e+00
3.020000000000000000e+02,-7.428876871966818562e-01,0.000000000000000000e+00
3.030000000000000000e+02,-3.619587184999009666e-01,0.000000000000000000e+00
3.040000000000000000e+02,-3.816295109571252731e-01,0.000000000000000000e+00
3.050000000000000000e+02,-1.706944603821191342e-01,0.000000000000000000e+00
3.060000000000000000e+02,3.334614136460279377e-01,0.000000000000000000e+00
3.070000000000000000e+02,2.550365987670176193e-01,0.000000000000000000e+00
3.080000000000000000e+02,6.793752902298202390e-01,0.000000000000000000e+00
3.090000000000000000e+02,5.763820413537827925e-01,0.000000000000000000e+00
3.100000000000000000e+02,-3.109713714640310878e-02,0.000000000000000000e+00
3.110000000000000000e+02,-4.016789955254554401e-01,0.000000000000000000e+00
3.120000000000000000e+02,-5.794526414789575863e-01,0.000000000000000000e+00
3.130000000000000000e+02,-7.546519727301357339e-01,0.000000000000000000e+00
3.140000000000000000e+02,-7.016177216000930583e-01,0.000000000000000000e+00
3.150000000000000000e+02,-6.109941618580774225e-01,0.000000000000000000e+00
3.160000000000000000e+02,-3.731567965703552758e-01,0.000000000000000000e+00
3.170000000000000000e+02,-6.728182527485052633e-01,0.000000000000000000e+00
3.180000000000000000e+02,-3.795713291767421338e-01,0.000000000000000000e+00
3.190000000000000000e+02,-4.210145625728961005e-01,0.000000000000000000e+00
3.200000000000000000e+02,-2.511043014786349392e-01,0.000000000000000000e+00
3.210000000000000000e+02,-2.356135207973135137e-01,0.000000000000000000e+00
3.220000000000000000e+02,-8.156595728011233060e-02,0.000000000000000000e+00
3.230000000000000000e+02,-1.920779530234194288e-01,0.000000000000000000e+00
3.240000000000000000e+02,-2.484767948178006475e-02,0.000000000000000000e+00
3.250000000000000000e+02,-4.786302522571128822e-03,0.000000000000000000e+00
3.260000000000000000e+02,4.787187876152396333e-03,0.000000000000000000e+00
3.270000000000000000e+02,-1.492170420520315226e-02,0.000000000000000000e+00
3.280000000000000000e+02,2.355320661858650022e-01,0.000000000000000000e+00
3.290000000000000000e+02,1.122782819316148900e-01,0.000000000000000000e+00
3.300000000000000000e+02,1.096551653497675333e-01,0.000000000000000000e+00
3.310000000000000000e+02,1.254551915050707289e-01,0.000000000000000000e+00
3.320000000000000000e+02,9.312187612503414202e-02,0.000000000000000000e+00
3.330000000000000000e+02,2.424958222344602288e-01,0.000000000000000000e+00
3.340000000000000000e+02,1.929243735039724572e-01,0.000000000000000000e+00
3.350000000000000000e+02,1.972851278646869377e-01,0.000000000000000000e+00
3.360000000000000000e+02,2.595139929855591610e-01,0.000000000000000000e+00
3.370000000000000000e+02,1.412691722433151165e-01,0.000000000000000000e+00
3.380000000000000000e+02,1.819123194753647366e-01,0.000000000000000000e+00
3.390000000000000000e+02,1.164418704302072893e-01,0.000000000000000000e+00
3.400000000000000000e+02,3.183980763730454577e-01,0.000000000000000000e+00
3.410000000000000000e+02,1.381398818965673125e-01,0.000000000000000000e+00
3.420000000000000000e+02,3.159230628044487066e-01,0.000000000000000000e+00
3.430000000000000000e+02,1.927908609578549426e-01,0.000000000000000000e+00
3.440000000000000000e+02,1.478740329783588547e-01,0.000000000000000000e+00
3.450000000000000000e+02,2.515770119450401743e-01,0.000000000000000000e+00
3.460000000000000000e+02,3.125025548113922746e-01,0.000000000000000000e+00
3.470000000000000000e+02,5.998874837063169485e-01,0.000000000000000000e+00
3.480000000000000000e+02,6.177770357632592635e-01,0.000000000000000000e+00
3.490000000000000000e+02,5.498915903741135036e-01,0.000000000000000000e+00
3.500000000000000000e+02,2.117236641030834920e-01,0.000000000000000000e+00
3.510000000000000000e+02,-1.321028374321833454e-01,0.000000000000000000e+00
3.520000000000000000e+02,1.351805591803331708e-01,0.000000000000000000e+00
3.530000000000000000e+02,-1.658272220165466979e-02,0.000000000000000000e+00
3.540000000000000000e+02,1.014257044014961889e-01,0.000000000000000000e+00
3.550000000000000000e+02,-5.304023751575636103e-01,0.000000000000000000e+00
3.560000000000000000e+02,7.609631387961608429e-01,0.000000000000000000e+00
3.570000000000000000e+02,6.760655602127581432e+00,0.000000000000000000e+00
3.580000000000000000e+02,2.560806362895101440e+00,1.000000000000000000e+00
3.590000000000000000e+02,-7.335171189936142699e-01,0.000000000000000000e+00
3.600000000000000000e+02,-1.004571461543355415e+00,0.000000000000000000e+00
3.610000000000000000e+02,-1.681620213484674720e+00,0.000000000000000000e+00
3.620000000000000000e+02,-1.342303461558250977e+00,0.000000000000000000e+00
3.630000000000000000e+02,-1.232905848089039580e+00,0.000000000000000000e+00
3.640000000000000000e+02,-1.073215537853409396e+00,0.000000000000000000e+00
3.650000000000000000e+02,-9.726209653332613669e-01,0.000000000000000000e+00
3.660000000000000000e+02,-8.470915193332978488e-01,0.000000000000000000e+00
3.670000000000000000e+02,-5.795979284733090431e-01,0.000000000000000000e+00
3.680000000000000000e+02,-5.919748958277967210e-01,0.000000000000000000e+00
3.690000000000000000e+02,-4.553448689077455591e-01,0.000000000000000000e+00
3.700000000000000000e+02,-1.448448224439682075e-01,0.000000000000000000e+00
3.710000000000000000e+02,1.246080170139449439e-01,0.000000000000000000e+00
3.720000000000000000e+02,4.422821950884925357e-01,0.000000000000000000e+00
3.730000000000000000e+02,5.369977826871702442e-01,0.000000000000000000e+00
3.740000000000000000e+02,5.376700901019720868e-01,0.000000000000000000e+00
3.750000000000000000e+02,3.891402697347393080e-02,0.000000000000000000e+00
3.760000000000000000e+02,-2.416089462774443364e-01,0.000000000000000000e+00
3.770000000000000000e+02,-7.097205653876442755e-01,0.000000000000000000e+00
3.780000000000000000e+02,-7.186768859324706993e-01,0.000000000000000000e+00
3.790000000000000000e+02,-7.910432389648420770e-01,0.000000000000000000e+00
3.800000000000000000e+02,-4.644491358000256143e-01,0.000000000000000000e+00
3.810000000000000000e+02,-7.484974545122297096e-01,0.000000000000000000e+00
3.820000000000000000e+02,-5.416237150305015513e-01,0.000000000000000000e+00
3.830000000000000000e+02,-4.749632405676142977e-01,0.000000000000000000e+00
3.840000000000000000e+02,-5.553093687584714777e-01,0.000000000000000000e+00
3.850000000000000000e+02,-4.167045804034273382e-01,0.000000000000000000e+00
3.860000000000000000e+02,-3.521724062876506745e-01,0.000000000000000000e+00
3.870000000000000000e+02,-2.615929902554187669e-01,0.000000000000000000e+00
3.880000000000000000e+02,-4.197811113608210937e-02,0.000000000000000000e+00
3.890000000000000000e+02,-1.694706563149162015e-01,0.000000000000000000e+00
3.900000000000000000e+02,3.202536526242835691e-02,0.000000000000000000e+00
3.910000000000000000e+02,-1.559486426725614217e-01,0.000000000000000000e+00
3.920000000000000000e+02,1.110973534371307997e-01,0.000000000000000000e+00
3.930000000000000000e+02,-2.037374694395118480e-01,0.000000000000000000e+00
3.940000000000000000e+02,2.298974012756920815e-01,0.000000000000000000e+00
3.950000000000000000e+02,-1.248981935805546124e-02,0.000000000000000000e+00
3.960000000000000000e+02,2.200755675002392941e-02,0.000000000000000000e+00
3.970000000000000000e+02,7.844679025986261989e-02,0.000000000000000000e+00
3.980000000000000000e+02,1.807201254103234789e-01,0.000000000000000000e+00
3.990000000000000000e+02,-9.626883051746535150e-03,0.000000000000000000e+00
4.000000000000000000e+02,2.447516564317484822e-01,0.000000000000000000e+00
4.010000000000000000e+02,2.073389676410469507e-01,0.000000000000000000e+00
4.020000000000000000e+02,1.149106665041235986e-01,0.000000000000000000e+00
4.030000000000000000e+02,3.209623308125414964e-01,0.000000000000000000e+00
4.040000000000000000e+02,1.099258811897111943e-01,0.000000000000000000e+00
4.050000000000000000e+02,2.264570259480597481e-01,0.000000000000000000e+00
4.060000000000000000e+02,3.295899859799430454e-01,0.000000000000000000e+00
4.070000000000000000e+02,1.395771250516001649e-01,0.000000000000000000e+00
4.080000000000000000e+02,3.366010310093216495e-01,0.000000000000000000e+00
4.090000000000000000e+02,2.164231019685741719e-01,0.000000000000000000e+00
4.100000000000000000e+02,2.550616600353333152e-01,0.000000000000000000e+00
4.110000000000000000e+02,3.036180285974918736e-01,0.000000000000000000e+00
4.120000000000000000e+02,6.269365131603111818e-01,0.000000000000000000e+00
4.130000000000000000e+02,4.718992474802750081e-01,0.000000000000000000e+00
4.140000000000000000e+02,7.510502213416186956e-01,0.000000000000000000e+00
4.150000000000000000e+02,2.236553926397323033e-01,0.000000000000000000e+00
4.160000000000000000e+02,2.227707573126853358e-01,0.000000000000000000e+00
4.170000000000000000e+02,4.419177256576396762e-02,0.000000000000000000e+00
4.180000000000000000e+02,-8.799165948723963737e-02,0.000000000000000000e+00
4.190000000000000000e+02,-2.343698253816783039e-01,0.000000000000000000e+00
4.200000000000000000e+02,1.037145336793572070e-01,0.000000000000000000e+00
4.210000000000000000e+02,-1.807496892571201497e-01,0.000000000000000000e+00
4.220000000000000000e+02,5.934665205230400531e+00,0.000000000000000000e+00
4.230000000000000000e+02,4.004339395868518281e+00,1.000000000000000000e+00
4.240000000000000000e+02,-1.129076100174972730e+00,0.000000000000000000e+00
4.250000000000000000e+02,-7.640379700259433138e-01,0.000000000000000000e+00
4.260000000000000000e+02,-1.474990956864585367e+00,0.000000000000000000e+00
4.270000000000000000e+02,-1.084905925840008445e+00,0.000000000000000000e+00
4.280000000000000000e+02,-1.161071887282188797e+00,0.000000000000000000e+00
4.290000000000000000e+02,-9.368266662014885782e-01,0.000000000000000000e+00
4.300000000000000000e+02,-9.890851733461374362e-01,0.000000000000000000e+00
4.310000000000000000e+02,-6.130085321773267593e-01,0.000000000000000000e+00
4.320000000000000000e+02,-8.146346208772563546e-01,0.000000000000000000e+00
4.330000000000000000e+02,-5.203976836197352629e-01,0.000000000000000000e+00
4.340000000000000000e+02,-2.671786939353070212e-01,0.000000000000000000e+00
4.350000000000000000e+02,-2.006498738174480878e-01,0.000000000000000000e+00
4.360000000000000000e+02,2.401937473792410405e-01,0.000000000000000000e+00
4.370000000000000000e+02,3.783028766066411919e-01,0.000000000000000000e+00
4.380000000000000000e+02,4.376777658530944248e-01,0.000000000000000000e+00
4.390000000000000000e+02,5.284758736696297809e-01,0.000000000000000000e+00
4.400000000000000000e+02,3.718643588236554276e-01,0.000000000000000000e+00
4.410000000000000000e+02,-3.066988132807383916e-01,0.000000000000000000e+00
4.420000000000000000e+02,-6.310756313848923105e-01,0.000000000000000000e+00
4.430000000000000000e+02,-7.566219870454412577e-01,0.000000000000000000e+00
4.440000000000000000e+02,-7.384803675133364553e-01,0.000000000000000000e+00
4.450000000000000000e+02,-7.485821608686742401e-01,0.000000000000000000e+00
4.460000000000000000e+02,-6.791196934125196538e-01,0.000000000000000000e+00
4.470000000000000000e+02,-6.241964228455774144e-01,0.000000000000000000e+00
4.480000000000000000e+02,-5.328689373632864434e-01,0.000000000000000000e+00
4.490000000000000000e+02,-6.423422082820804402e-01,0.000000000000000000e+00
4.500000000000000000e+02,-2.865615635176212983e-01,0.000000000000000000e+00
4.510000000000000000e+02,-3.586511590967060292e-01,0.000000000000000000e+00
4.520000000000000000e+02,-2.950047770379488066e-01,0.000000000000000000e+00
4.530000000000000000e+02,-1.725739401238265275e-03,0.000000000000000000e+00
4.540000000000000000e+02,-1.187628530471797200e-01,0.000000000000000000e+00
4.550000000000000000e+02,8.469637435221751345e-03,0.000000000000000000e+00
4.560000000000000000e+02,5.450666205668818626e-02,0.000000000000000000e+00
4.570000000000000000e+02,8.401976516288430646e-03,0.000000000000000000e+00
4.580000000000000000e+02,3.671164488411664262e-02,0.000000000000000000e+00
4.590000000000000000e+02,-3.985073893996456812e-02,0.000000000000000000e+00
4.600000000000000000e+02,3.329835357757091052e-02,0.000000000000000000e+00
4.610000000000000000e+02,-1.347323434493378439e-03,0.000000000000000000e+00
4.620000000000000000e+02,1.810633928028376471e-01,0.000000000000000000e+00
4.630000000000000000e+02,2.328536393075792132e-01,0.000000000000000000e+00
4.640000000000000000e+02,7.417509482311715474e-02,0.000000000000000000e+00
4.650000000000000000e+02,1.939627831551943848e-01,0.000000000000000000e+00
4.660000000000000000e+02,1.919534076545696966e-01,0.000000000000000000e+00
4.670000000000000000e+02,1.306993609900239731e-02,0.000000000000000000e+00
4.680000000000000000e+02,2.669092488134193197e-01,0.000000000000000000e+00
4.690000000000000000e+02,2.605223247614090187e-01,0.000000000000000000e+00
4.700000000000000000e+02,1.769830172382113875e-01,0.000000000000000000e+00
4.710000000000000000e+02,3.388581270981724791e-01,0.000000000000000000e+00
4.720000000000000000e+02,3.100253643383373281e-01,0.000000000000000000e+00
4.730000000000000000e+02,8.116372561531420837e-02,0.000000000000000000e+00
4.740000000000000000e+02,4.155558003441319204e-01,0.000000000000000000e+00
4.750000000000000000e+02,2.071700270679566191e-01,0.000000000000000000e+00
4.760000000000000000e+02,4.441216508761423043e-01,0.000000000000000000e+00
4.770000000000000000e+02,6.648330994023617935e-01,0.000000000000000000e+00
4.780000000000000000e+02,7.634856320202710878e-01,0.000000000000000000e+00
4.790000000000000000e+02,2.626211705491121040e-01,0.000000000000000000e+00
4.800000000000000000e+02,2.927889742560912945e-01,0.000000000000000000e+00
4.810000000000000000e+02,-8.491154246597630573e-02,0.000000000000000000e+00
4.820000000000000000e+02,9.027657216631583548e-02,0.000000000000000000e+00
4.830000000000000000e+02,-2.253173932365544196e-01,0.000000000000000000e+00
4.840000000000000000e+02,2.513286383419575665e-01,0.000000000000000000e+00
4.850000000000000000e+02,-7.780434451068192203e-01,0.000000000000000000e+00
4.860000000000000000e+02,4.190721042280402209e+00,0.000000000000000000e+00
4.870000000000000000e+02,5.662506373297724771e+00,0.000000000000000000e+00
4.880000000000000000e+02,-2.939148266172835200e-01,1.000000000000000000e+00
4.890000000000000000e+02,-7.825709981708125484e-01,0.000000000000000000e+00
4.900000000000000000e+02,-1.424608272679884324e+00,0.000000000000000000e+00
4.910000000000000000e+02,-1.273259091131603959e+00,0.000000000000000000e+00
4.920000000000000000e+02,-1.227322058648299574e+00,0.000000000000000000e+00
4.930000000000000000e+02,-1.064612503140609290e+00,0.000000000000000000e+00
4.940000000000000000e+02,-9.307176055209230858e-01,0.000000000000000000e+00
4.950000000000000000e+02,-7.808117042667938046e-01,0.000000000000000000e+00
4.960000000000000000e+02,-7.808282758780085153e-01,0.000000000000000000e+00
4.970000000000000000e+02,-4.791897020525971440e-01,0.000000000000000000e+00
4.980000000000000000e+02,-3.340600131135383899e-01,0.000000000000000000e+00
4.990000000000000000e+02,-2.481165972757076732e-01,0.000000000000000000e+00
5.000000000000000000e+02,3.968358236005394002e-02,0.000000000000000000e+00
5.010000000000000000e+02,2.611840688227664575e-01,0.000000000000000000e+00
5.020000000000000000e+02,5.769742084778560764e-01,0.000000000000000000e+00
5.030000000000000000e+02,5.130719408544804905e-01,0.000000000000000000e+00
5.040000000000000000e+02,4.825039456289739737e-01,0.000000000000000000e+00
5.050000000000000000e+02,-1.616786017395985091e-03,0.000000000000000000e+00
5.060000000000000000e+02,-5.104014348582434080e-01,0.000000000000000000e+00
5.070000000000000000e+02,-7.409025001196442028e-01,0.000000000000000000e+00
5.080000000000000000e+02,-6.432124885485894783e-01,0.000000000000000000e+00
5.090000000000000000e+02,-6.218114422664705598e-01,0.000000000000000000e+00
5.100000000000000000e+02,-7.385005226943245349e-01,0.000000000000000000e+00
5.110000000000000000e+02,-4.961866178417262963e-01,0.000000000000000000e+00
5.120000000000000000e+02,-5.781551630950215737e-01,0.000000000000000000e+00
5.130000000000000000e+02,-4.253785123629280074e-01,0.000000000000000000e+00
5.140000000000000000e+02,-4.278850158996178044e-01,0.000000000000000000e+00
5.150000000000000000e+02,-3.174457630720314283e-01,0.000000000000000000e+00
5.160000000000000000e+02,-9.668849255894484962e-02,0.000000000000000000e+00
5.170000000000000000e+02,-2.281537991222636896e-01,0.000000000000000000e+00
5.180000000000000000e+02,-1.413210384066510396e-03,0.000000000000000000e+00
5.190000000000000000e+02,5.758432095780968013e-02,0.000000000000000000e+00
5.200000000000000000e+02,-1.415000095977057837e-01,0.000000000000000000e+00
5.210000000000000000e+02,-1.441780740732784283e-02,0.000000000000000000e+00
5.220000000000000000e+02,1.838359836577291295e-01,0.000000000000000000e+00
5.230000000000000000e+02,1.847358793726678466e-03,0.000000000000000000e+00
5.240000000000000000e+02,2.162380727666503993e-02,0.000000000000000000e+00
5.250000000000000000e+02,-1.653967662393347748e-02,0.000000000000000000e+00
5.260000000000000000e+02,2.157559415397009572e-01,0.000000000000000000e+00
5.270000000000000000e+02,-7.207623174430034807e-02,0.000000000000000000e+00
5.280000000000000000e+02,4.401737142560530752e-02,0.000000000000000000e+00
5.290000000000000000e+02,2.586526992351391718e-01,0.000000000000000000e+00
5.300000000000000000e+02,8.454018398592547112e-02,0.000000000000000000e+00
5.310000000000000000e+02,1.614352543697784581e-01,0.000000000000000000e+00
5.320000000000000000e+02,3.550979918004985858e-02,0.000000000000000000e+00
5.330000000000000000e+02,4.998227862253055986e-02,0.000000000000000000e+00
5.340000000000000000e+02,2.748357530082826683e-01,0.000000000000000000e+00
5.350000000000000000e+02,1.210320802803243334e-01,0.000000000000000000e+00
5.360000000000000000e+02,2.639610384573679025e-01,0.000000000000000000e+00
5.370000000000000000e+02,2.920905282504176470e-01,0.000000000000000000e+00
5.380000000000000000e+02,1.645300333314066443e-01,0.000000000000000000e+00
5.390000000000000000e+02,8.836903831328692116e-02,0.000000000000000000e+00
5.400000000000000000e+02,2.701919064723944941e-01,0.000000000000000000e+00
5.410000000000000000e+02,1.976125191686534666e-01,0.000000000000000000e+00
5.420000000000000000e+02,5.415077744099918711e-01,0.000000000000000000e+00
5.430000000000000000e+02,5.796347228563658582e-01,0.000000000000000000e+00
5.440000000000000000e+02,5.313809092757891817e-01,0.000000000000000000e+00
5.450000000000000000e+02,3.763756604272457951e-01,0.000000000000000000e+00
5.460000000000000000e+02,3.593881713758471236e-02,0.000000000000000000e+00
5.470000000000000000e+02,-1.290178487932431561e-01,0.000000000000000000e+00
5.480000000000000000e+02,-3.682685327621100513e-02,0.000000000000000000e+00
5.490000000000000000e+02,-2.537391743205792971e-01,0.000000000000000000e+00
5.500000000000000000e+02,-4.944819801615694954e-02,0.000000000000000000e+00
5.510000000000000000e+02,-5.700933220081300101e-01,0.000000000000000000e+00
5.520000000000000000e+02,5.125857541953038776e+00,0.000000000000000000e+00
5.530000000000000000e+02,4.696630320501310685e+00,0.000000000000000000e+00
5.540000000000000000e+02,-3.652065864808238804e-01,1.000000000000000000e+00
5.550000000000000000e+02,-8.310311765168726383e-01,0.000000000000000000e+00
5.560000000000000000e+02,-1.549872475578876641e+00,0.000000000000000000e+00
5.570000000000000000e+02,-1.247835326575063242e+00,0.000000000000000000e+00
5.580000000000000000e+02,-1.391505479549278723e+00,0.000000000000000000e+00
5.590000000000000000e+02,-1.189014437032516858e+00,0.000000000000000000e+00
5.600000000000000000e+02,-1.152349304827153587e+00,0.000000000000000000e+00
5.610000000000000000e+02,-7.525576358623656814e-01,0.000000000000000000e+00
5.620000000000000000e+02,-8.934702487039395402e-01,0.000000000000000000e+00
5.630000000000000000e+02,-5.211637704139311378e-01,0.000000000000000000e+00
5.640000000000000000e+02,-5.877949604226511138e-01,0.000000000000000000e+00
5.650000000000000000e+02,-2.296610594920166781e-01,0.000000000000000000e+00
5.660000000000000000e+02,5.482037160277138284e-03,0.000000000000000000e+00
5.670000000000000000e+02,4.158975325249172905e-01,0.000000000000000000e+00
5.680000000000000000e+02,3.516397070186826346e-01,0.000000000000000000e+00
5.690000000000000000e+02,5.543255159063907866e-01,0.000000000000000000e+00
5.700000000000000000e+02,3.355563847995550741e-01,0.000000000000000000e+00
5.710000000000000000e+02,4.359646176930789818e-02,0.000000000000000000e+00
5.720000000000000000e+02,-4.548047526531159845e-01,0.000000000000000000e+00
5.730000000000000000e+02,-5.360303324722148766e-01,0.000000000000000000e+00
5.740000000000000000e+02,-6.484696560744637184e-01,0.000000000000000000e+00
5.750000000000000000e+02,-6.232147322660340771e-01,0.000000000000000000e+00
5.760000000000000000e+02,-5.969079183157313118e-01,0.000000000000000000e+00
5.770000000000000000e+02,-3.423375076121328298e-01,0.000000000000000000e+00
5.780000000000000000e+02,-2.975793692731958928e-01,0.000000000000000000e+00
5.790000000000000000e+02,-3.443438996989365286e-01,0.000000000000000000e+00
5.800000000000000000e+02,-3.724457976753088873e-01,0.000000000000000000e+00
5.810000000000000000e+02,-1.949967485141621826e-01,0.000000000000000000e+00
5.820000000000000000e+02,-2.686510441089322021e-01,0.000000000000000000e+00
5.830000000000000000e+02,1.260096339912504804e-01,0.000000000000000000e+00
5.840000000000000000e+02,2.677383442165660182e-02,0.000000000000000000e+00
5.850000000000000000e+02,1.191520382488352597e-01,0.000000000000000000e+00
5.860000000000000000e+02,-7.821993509592060911e-02,0.000000000000000000e+00
5.870000000000000000e+02,2.269031663246651731e-01,0.000000000000000000e+00
5.880000000000000000e+02,7.160030141966201855e-02,0.000000000000000000e+00
5.890000000000000000e+02,1.831379422187970618e-01,0.000000000000000000e+00
5.900000000000000000e+02,1.316636832312965411e-01,0.000000000000000000e+00
5.910000000000000000e+02,1.326543364925799051e-01,0.000000000000000000e+00
5.920000000000000000e+02,1.376912450461855071e-02,0.000000000000000000e+00
5.930000000000000000e+02,2.709123298160510118e-01,0.000000000000000000e+00
5.940000000000000000e+02,1.055390202539481515e-02,0.000000000000000000e+00
5.950000000000000000e+02,1.146674738992853604e-01,0.000000000000000000e+00
5.960000000000000000e+02,1.366430148179331172e-01,0.000000000000000000e+00
5.970000000000000000e+02,2.946541915759872121e-01,0.000000000000000000e+00
5.980000000000000000e+02,1.124562741994279136e-01,0.000000000000000000e+00
5.990000000000000000e+02,2.132786058482419311e-01,0.000000000000000000e+00
6.000000000000000000e+02,1.068756524835478422e-01,0.000000000000000000e+00
6.010000000000000000e+02,3.903406583802529473e-01,0.000000000000000000e+00
6.020000000000000000e+02,-1.493625239396879356e-01,0.000000000000000000e+00
6.030000000000000000e+02,3.457551672383104013e-01,0.000000000000000000e+00
6.040000000000000000e+02,1.187020698673547786e-01,0.000000000000000000e+00
6.050000000000000000e+02,2.252997852476608664e-01,0.000000000000000000e+00
6.060000000000000000e+02,1.687773507972733789e-01,0.000000000000000000e+00
6.070000000000000000e+02,1.052449752990071569e-01,0.000000000000000000e+00
6.080000000000000000e+02,2.666381075308587589e-01,0.000000000000000000e+00
6.090000000000000000e+02,3.354623411480378015e-01,0.000000000000000000e+00
6.100000000000000000e+02,4.440138943615056233e-01,0.000000000000000000e+00
6.110000000000000000e+02,5.607364732627996284e-01,0.000000000000000000e+00
6.120000000000000000e+02,2.099069773378964554e-01,0.000000000000000000e+00
6.130000000000000000e+02,3.247968562893489147e-02,0.000000000000000000e+00
6.140000000000000000e+02,-2.709348474648231586e-01,0.000000000000000000e+00
6.150000000000000000e+02,1.816522270251401047e-02,0.000000000000000000e+00
6.160000000000000000e+02,-4.124411384892062160e-01,0.000000000000000000e+00
6.170000000000000000e+02,-5.669720285649626490e-02,0.000000000000000000e+00
6.180000000000000000e+02,-8.908136857728816693e-01,0.000000000000000000e+00
6.190000000000000000e+02,4.791045482922739573e+00,0.000000000000000000e+00
6.200000000000000000e+02,4.867951723946106313e+00,0.000000000000000000e+00
6.210000000000000000e+02,-3.465123724308615816e-01,1.000000000000000000e+00
6.220000000000000000e+02,-7.676605522121187075e-01,0.000000000000000000e+00
6.230000000000000000e+02,-1.681811444277227174e+00,0.000000000000000000e+00
6.240000000000000000e+02,-1.269889153823107630e+00,0.000000000000000000e+00
6.250000000000000000e+02,-1.628632436632157843e+00,0.000000000000000000e+00
6.260000000000000000e+02,-1.178379978039326037e+00,0.000000000000000000e+00
6.270000000000000000e+02,-1.153665788768634792e+00,0.000000000000000000e+00
6.280000000000000000e+02,-8.105484375937550556e-01,0.000000000000000000e+00
6.290000000000000000e+02,-9.623378413732993630e-01,0.000000000000000000e+00
6.300000000000000000e+02,-5.539344180138429108e-01,0.000000000000000000e+00
6.310000000000000000e+02,-5.065683229206566773e-01,0.000000000000000000e+00
6.320000000000000000e+02,-1.799749661578183557e-01,0.000000000000000000e+00
6.330000000000000000e+02,-4.697797046297728929e-02,0.000000000000000000e+00
6.340000000000000000e+02,3.193897900937083256e-01,0.000000000000000000e+00
6.350000000000000000e+02,3.751245591827664927e-01,0.000000000000000000e+00
6.360000000000000000e+02,5.034884867316821166e-01,0.000000000000000000e+00
6.370000000000000000e+02,3.855414826278028007e-01,0.000000000000000000e+00
6.380000000000000000e+02,5.038587085628927487e-02,0.000000000000000000e+00
6.390000000000000000e+02,-5.668826462558307355e-01,0.000000000000000000e+00
6.400000000000000000e+02,-5.504129644879679484e-01,0.000000000000000000e+00
6.410000000000000000e+02,-6.922844141468430523e-01,0.000000000000000000e+00
6.420000000000000000e+02,-4.175312379072267377e-01,0.000000000000000000e+00
6.430000000000000000e+02,-4.909886899027074980e-01,0.000000000000000000e+00
6.440000000000000000e+02,-6.126744543235300711e-01,0.000000000000000000e+00
6.450000000000000000e+02,-3.645276019478715934e-01,0.000000000000000000e+00
6.460000000000000000e+02,-4.792968091647170081e-01,0.000000000000000000e+00
6.470000000000000000e+02,-1.705919765184220893e-01,0.000000000000000000e+00
6.480000000000000000e+02,-1.583272771198512840e-01,0.000000000000000000e+00
6.490000000000000000e+02,-1.228233916260776104e-01,0.000000000000000000e+00
6.500000000000000000e+02,-1.249951174955951927e-01,0.000000000000000000e+00
6.510000000000000000e+02,-5.906868682321624042e-02,0.000000000000000000e+00
6.520000000000000000e+02,5.384118864337039678e-02,0.000000000000000000e+00
6.530000000000000000e+02,1.352577690908502717e-01,0.000000000000000000e+00
6.540000000000000000e+02,1.795662876354208737e-01,0.000000000000000000e+00
6.550000000000000000e+02,1.336230656021178964e-01,0.000000000000000000e+00
6.560000000000000000e+02,9.178161120926976724e-02,0.000000000000000000e+00
6.570000000000000000e+02,9.470328482636877765e-02,0.000000000000000000e+00
6.580000000000000000e+02,2.283562981715732132e-01,0.000000000000000000e+00
6.590000000000000000e+02,1.784633857498245380e-01,0.000000000000000000e+00
6.600000000000000000e+02,3.131714933040436466e-01,0.000000000000000000e+00
6.610000000000000000e+02,2.482492117575923474e-01,0.000000000000000000e+00
6.620000000000000000e+02,1.021282516086046005e-01,0.000000000000000000e+00
6.630000000000000000e+02,2.999313662316511753e-01,0.000000000000000000e+00
6.640000000000000000e+02,3.316947792789748384e-01,0.000000000000000000e+00
6.650000000000000000e+02,3.364693836903314694e-01,0.000000000000000000e+00
6.660000000000000000e+02,2.256250105612942758e-01,0.000000000000000000e+00
6.670000000000000000e+02,2.420070120248984935e-01,0.000000000000000000e+00
6.680000000000000000e+02,3.313090840138920301e-01,0.000000000000000000e+00
6.690000000000000000e+02,2.616698915729796515e-01,0.000000000000000000e+00
6.700000000000000000e+02,2.821789915543837513e-01,0.000000000000000000e+00
6.710000000000000000e+02,2.170885928335870851e-01,0.000000000000000000e+00
6.720000000000000000e+02,3.111410733842736587e-01,0.000000000000000000e+00
6.730000000000000000e+02,1.935727923193055477e-01,0.000000000000000000e+00
6.740000000000000000e+02,3.306850559110880994e-01,0.000000000000000000e+00
6.750000000000000000e+02,5.288680800797176396e-01,0.000000000000000000e+00
6.760000000000000000e+02,5.666489175340666540e-01,0.000000000000000000e+00
6.770000000000000000e+02,6.137659694647651376e-01,0.000000000000000000e+00
6.780000000000000000e+02,2.847262228120370775e-01,0.000000000000000000e+00
6.790000000000000000e+02,3.256798832522705966e-02,0.000000000000000000e+00
6.800000000000000000e+02,2.586609633398098684e-02,0.000000000000000000e+00
6.810000000000000000e+02,-4.549441935263768416e-02,0.000000000000000000e+00
6.820000000000000000e+02,-3.196294808348924543e-01,0.000000000000000000e+00
6.830000000000000000e+02,-1.970882209908310922e-01,0.000000000000000000e+00
6.840000000000000000e+02,-3.969429435378156179e-01,0.000000000000000000e+00
6.850000000000000000e+02,5.602825107220737344e+00,0.000000000000000000e+00
6.860000000000000000e+02,4.146659605134838777e+00,1.000000000000000000e+00
6.870000000000000000e+02,-1.054971969164172796e+00,0.000000000000000000e+00
6.880000000000000000e+02,-9.893599844121451214e-01,0.000000000000000000e+00
6.890000000000000000e+02,-1.548580863813564745e+00,0.000000000000000000e+00
6.900000000000000000e+02,-1.232550916114505846e+00,0.000000000000000000e+00
6.910000000000000000e+02,-1.393400320760492583e+00,0.000000000000000000e+00
6.920000000000000000e+02,-9.188244203636858343e-01,0.000000000000000000e+00
6.930000000000000000e+02,-1.136513867833369273e+00,0.000000000000000000e+00
6.940000000000000000e+02,-8.471585031443527036e-01,0.000000000000000000e+00
6.950000000000000000e+02,-9.520392692265561285e-01,0.000000000000000000e+00
6.960000000000000000e+02,-4.169172446327020221e-01,0.000000000000000000e+00
6.970000000000000000e+02,-4.110375105340111079e-01,0.000000000000000000e+00
6.980000000000000000e+02,-1.311724818946158611e-01,0.000000000000000000e+00
6.990000000000000000e+02,-7.963373341345146572e-02,0.000000000000000000e+00
7.000000000000000000e+02,3.128140486878095428e-01,0.000000000000000000e+00
7.010000000000000000e+02,1.623877313606851558e-01,0.000000000000000000e+00
7.020000000000000000e+02,6.557016106347683948e-01,0.000000000000000000e+00
7.030000000000000000e+02,2.904946014328426140e-01,0.000000000000000000e+00
7.040000000000000000e+02,3.402120956400857960e-02,0.000000000000000000e+00
7.050000000000000000e+02,-5.623567002292805261e-01,0.000000000000000000e+00
7.060000000000000000e+02,-7.929419422414840657e-01,0.000000000000000000e+00
7.070000000000000000e+02,-6.877756903793776910e-01,0.000000000000000000e+00
7.080000000000000000e+02,-6.206006933210097554e-01,0.000000000000000000e+00
7.090000000000000000e+02,-5.659516251485363636e-01,0.000000000000000000e+00
7.100000000000000000e+02,-3.663217833666007062e-01,0.000000000000000000e+00
7.110000000000000000e+02,-6.218855469712426531e-01,0.000000000000000000e+00
7.120000000000000000e+02,-2.728355766736693111e-01,0.000000000000000000e+00
7.130000000000000000e+02,-4.278931125169081473e-01,0.000000000000000000e+00
7.140000000000000000e+02,-1.290512610501690638e-01,0.000000000000000000e+00
7.150000000000000000e+02,-1.833809737747164326e-01,0.000000000000000000e+00
7.160000000000000000e+02,2.395892931684325683e-02,0.000000000000000000e+00
7.170000000000000000e+02,-9.635400472966930419e-02,0.000000000000000000e+00
7.180000000000000000e+02,5.521611831488255212e-02,0.000000000000000000e+00
7.190000000000000000e+02,-1.384417609857900577e-01,0.000000000000000000e+00
7.200000000000000000e+02,8.684935094631675290e-02,0.000000000000000000e+00
7.210000000000000000e+02,5.183232073696668329e-02,0.000000000000000000e+00
7.220000000000000000e+02,4.561569214824894719e-02,0.000000000000000000e+00
7.230000000000000000e+02,-6.449071752098416328e-03,0.000000000000000000e+00
7.240000000000000000e+02,1.665151252669162529e-01,0.000000000000000000e+00
7.250000000000000000e+02,8.150493254745702632e-02,0.000000000000000000e+00
7.260000000000000000e+02,-2.167240612520571555e-02,0.000000000000000000e+00
7.270000000000000000e+02,1.246556379798770542e-01,0.000000000000000000e+00
7.280000000000000000e+02,1.895872972793385403e-01,0.000000000000000000e+00
7.290000000000000000e+02,9.047205206679218015e-02,0.000000000000000000e+00
7.300000000000000000e+02,4.702770257143010224e-02,0.000000000000000000e+00
7.310000000000000000e+02,8.018775274662219565e-02,0.000000000000000000e+00
7.320000000000000000e+02,3.120477573661203374e-01,0.000000000000000000e+00
7.330000000000000000e+02,5.963099693733278639e-02,0.000000000000000000e+00
7.340000000000000000e+02,2.937567639090328253e-01,0.000000000000000000e+00
7.350000000000000000e+02,1.138897736250488874e-01,0.000000000000000000e+00
7.360000000000000000e+02,1.365154031038120219e-01,0.000000000000000000e+00
7.370000000000000000e+02,4.886988019239082992e-02,0.000000000000000000e+00
7.380000000000000000e+02,4.105590669304664542e-01,0.000000000000000000e+00
7.390000000000000000e+02,1.248176651030221684e-01,0.000000000000000000e+00
7.400000000000000000e+02,5.845346992773078343e-01,0.000000000000000000e+00
7.410000000000000000e+02,4.606119126047369394e-01,0.000000000000000000e+00
7.420000000000000000e+02,6.132775443382869618e-01,0.000000000000000000e+00
7.430000000000000000e+02,1.753910392768281978e-01,0.000000000000000000e+00
7.440000000000000000e+02,1.133581788560819870e-01,0.000000000000000000e+00
7.450000000000000000e+02,-2.183541261726651694e-01,0.000000000000000000e+00
7.460000000000000000e+02,-1.714281738923049969e-02,0.000000000000000000e+00
7.470000000000000000e+02,-1.028408157320860050e-01,0.000000000000000000e+00
7.480000000000000000e+02,-1.335296862550273689e-01,0.000000000000000000e+00
7.490000000000000000e+02,-2.407379717090789017e-01,0.000000000000000000e+00
7.500000000000000000e+02,5.703643642359741861e+00,0.000000000000000000e+00
7.510000000000000000e+02,3.895330417420616254e+00,1.000000000000000000e+00
7.520000000000000000e+02,-1.098841645708930059e+00,0.000000000000000000e+00
7.530000000000000000e+02,-9.444332249136800916e-01,0.000000000000000000e+00
7.540000000000000000e+02,-1.590407226242847472e+00,0.000000000000000000e+00
7.550000000000000000e+02,-9.379005163170091031e-01,0.000000000000000000e+00
7.560000000000000000e+02,-1.122279421036606717e+00,0.000000000000000000e+00
7.570000000000000000e+02,-8.685788798030827929e-01,0.000000000000000000e+00
7.580000000000000000e+02,-9.116642423679383045e-01,0.000000000000000000e+00
7.590000000000000000e+02,-6.680421734875459094e-01,0.000000000000000000e+00
7.600000000000000000e+02,-6.554935028573225519e-01,0.000000000000000000e+00
7.610000000000000000e+02,-3.557901164660012272e-01,0.000000000000000000e+00
7.620000000000000000e+02,-4.276512195889115020e-01,0.000000000000000000e+00
7.630000000000000000e+02,-4.897577140333467249e-02,0.000000000000000000e+00
7.640000000000000000e+02,7.865526755098160849e-02,0.000000000000000000e+00
7.650000000000000000e+02,4.805572375481556024e-01,0.000000000000000000e+00
7.660000000000000000e+02,4.163927969970165344e-01,0.000000000000000000e+00
7.670000000000000000e+02,4.577580423579361013e-01,0.000000000000000000e+00
7.680000000000000000e+02,2.714333959580186861e-01,0.000000000000000000e+00
7.690000000000000000e+02,-2.491901237433528579e-02,0.000000000000000000e+00
7.700000000000000000e+02,-6.342511491859206263e-01,0.000000000000000000e+00
7.710000000000000000e+02,-6.633428850105222985e-01,0.000000000000000000e+00
7.720000000000000000e+02,-7.627364435616096339e-01,0.000000000000000000e+00
7.730000000000000000e+02,-6.827080831235967651e-01,0.000000000000000000e+00
7.740000000000000000e+02,-7.323248958949070131e-01,0.000000000000000000e+00
7.750000000000000000e+02,-5.322439202656007451e-01,0.000000000000000000e+00
7.760000000000000000e+02,-5.321978932473927504e-01,0.000000000000000000e+00
7.770000000000000000e+02,-4.938259562417741111e-01,0.000000000000000000e+00
7.780000000000000000e+02,-4.083242415857163410e-01,0.000000000000000000e+00
7.790000000000000000e+02,-4.415932008112855023e-02,0.000000000000000000e+00
7.800000000000000000e+02,-2.103361186472882116e-01,0.000000000000000000e+00
7.810000000000000000e+02,-1.495345861777375336e-02,0.000000000000000000e+00
7.820000000000000000e+02,-1.100986265351430737e-01,0.000000000000000000e+00
7.830000000000000000e+02,7.600964288475917097e-02,0.000000000000000000e+00
7.840000000000000000e+02,-6.255677185468976054e-02,0.000000000000000000e+00
7.850000000000000000e+02,1.974990561515304888e-01,0.000000000000000000e+00
7.860000000000000000e+02,1.685329744289746079e-01,0.000000000000000000e+00
7.870000000000000000e+02,1.467548760301274832e-02,0.000000000000000000e+00
7.880000000000000000e+02,5.495826137085692981e-02,0.000000000000000000e+00
7.890000000000000000e+02,-6.182203917777444324e-02,0.000000000000000000e+00
7.900000000000000000e+02,2.240050324676529647e-01,0.000000000000000000e+00
7.910000000000000000e+02,2.089946018765030389e-01,0.000000000000000000e+00
7.920000000000000000e+02,2.319002136103759659e-01,0.000000000000000000e+00
7.930000000000000000e+02,1.628479824595532033e-01,0.000000000000000000e+00
7.940000000000000000e+02,3.804975150802415024e-02,0.000000000000000000e+00
7.950000000000000000e+02,2.573190381580538477e-01,0.000000000000000000e+00
7.960000000000000000e+02,7.998981697645048128e-02,0.000000000000000000e+00
7.970000000000000000e+02,1.673678189868224586e-01,0.000000000000000000e+00
7.980000000000000000e+02,3.457198837847327844e-01,0.000000000000000000e+00
7.990000000000000000e+02,1.566017632129417525e-01,0.000000000000000000e+00
8.000000000000000000e+02,6.528092838628057892e-02,0.000000000000000000e+00
8.010000000000000000e+02,3.971775997902213251e-01,0.000000000000000000e+00
8.020000000000000000e+02,7.741651790870174299e-02,0.000000000000000000e+00
8.030000000000000000e+02,1.974692673802447285e-01,0.000000000000000000e+00
8.040000000000000000e+02,2.264241255767910910e-01,0.000000000000000000e+00
8.050000000000000000e+02,5.307239623245079141e-01,0.000000000000000000e+00
8.060000000000000000e+02,6.228874747488367669e-01,0.000000000000000000e+00
8.070000000000000000e+02,5.348633724281925961e-01,0.000000000000000000e+00
8.080000000000000000e+02,4.517369782114585286e-01,0.000000000000000000e+00
8.090000000000000000e+02,2.789801670886042917e-01,0.000000000000000000e+00
8.100000000000000000e+02,-3.045982017240952411e-01,0.000000000000000000e+00
8.110000000000000000e+02,2.274558236788595256e-01,0.000000000000000000e+00
8.120000000000000000e+02,-2.336908166985663671e-01,0.000000000000000000e+00
8.130000000000000000e+02,1.191626166829428818e-01,0.000000000000000000e+00
8.140000000000000000e+02,-8.535148901969732416e-01,0.000000000000000000e+00
8.150000000000000000e+02,3.162892225671693591e+00,0.000000000000000000e+00
8.160000000000000000e+02,6.228105770259086960e+00,0.000000000000000000e+00
8.170000000000000000e+02,3.356637835122985303e-01,1.000000000000000000e+00
8.180000000000000000e+02,-7.414542016798363333e-01,0.000000000000000000e+00
8.190000000000000000e+02,-1.339523573146770730e+00,0.000000000000000000e+00
8.200000000000000000e+02,-1.383538107067389555e+00,0.000000000000000000e+00
8.210000000000000000e+02,-1.326169444164785549e+00,0.000000000000000000e+00
8.220000000000000000e+02,-9.553835630506816168e-01,0.000000000000000000e+00
8.230000000000000000e+02,-1.131279638925013931e+00,0.000000000000000000e+00
8.240000000000000000e+02,-6.190369582572963214e-01,0.000000000000000000e+00
8.250000000000000000e+02,-8.400247431120284602e-01,0.000000000000000000e+00
8.260000000000000000e+02,-4.896383715210985699e-01,0.000000000000000000e+00
8.270000000000000000e+02,-6.812309602954549348e-01,0.000000000000000000e+00
8.280000000000000000e+02,-1.449053849458241117e-01,0.000000000000000000e+00
8.290000000000000000e+02,-1.280562965665023589e-01,0.000000000000000000e+00
8.300000000000000000e+02,1.805747864082835608e-01,0.000000000000000000e+00
8.310000000000000000e+02,4.238307461003261722e-01,0.000000000000000000e+00
8.320000000000000000e+02,4.771369510465106600e-01,0.000000000000000000e+00
8.330000000000000000e+02,3.382578245855211163e-01,0.000000000000000000e+00
8.340000000000000000e+02,2.010933464322416930e-01,0.000000000000000000e+00
8.350000000000000000e+02,-5.002483934217962780e-01,0.000000000000000000e+00
8.360000000000000000e+02,-4.298898703317527437e-01,0.000000000000000000e+00
8.370000000000000000e+02,-5.493519533004381783e-01,0.000000000000000000e+00
8.380000000000000000e+02,-6.428059212538340672e-01,0.000000000000000000e+00
8.390000000000000000e+02,-5.725989327230222026e-01,0.000000000000000000e+00
8.400000000000000000e+02,-2.661603332630859131e-01,0.000000000000000000e+00
8.410000000000000000e+02,-4.938072832760376785e-01,0.000000000000000000e+00
8.420000000000000000e+02,-3.028953340285713836e-01,0.000000000000000000e+00
8.430000000000000000e+02,-4.713646854828612565e-01,0.000000000000000000e+00
8.440000000000000000e+02,-1.976946460299167929e-01,0.000000000000000000e+00
8.450000000000000000e+02,-8.799729179983603600e-02,0.000000000000000000e+00
8.460000000000000000e+02,-1.696807678636258476e-02,0.000000000000000000e+00
8.470000000000000000e+02,3.960728427440916161e-02,0.000000000000000000e+00
8.480000000000000000e+02,-1.681941001295156335e-02,0.000000000000000000e+00
8.490000000000000000e+02,8.810268317229710171e-04,0.000000000000000000e+00
8.500000000000000000e+02,-1.739729788413171274e-01,0.000000000000000000e+00
8.510000000000000000e+02,4.916616891025729630e-02,0.000000000000000000e+00
8.520000000000000000e+02,1.470656699952101742e-01,0.000000000000000000e+00
8.530000000000000000e+02,-4.755128097134116855e-02,0.000000000000000000e+00
8.540000000000000000e+02,1.868127231309250347e-01,0.000000000000000000e+00
8.550000000000000000e+02,-1.312480509955736008e-01,0.000000000000000000e+00
8.560000000000000000e+02,5.084799615203247636e-02,0.000000000000000000e+00
8.570000000000000000e+02,1.839166394873396893e-02,0.000000000000000000e+00
8.580000000000000000e+02,2.033762890368871201e-01,0.000000000000000000e+00
8.590000000000000000e+02,6.631356248097979023e-02,0.000000000000000000e+00
8.600000000000000000e+02,1.069713395454619520e-01,0.000000000000000000e+00
8.610000000000000000e+02,7.447739296581483426e-02,0.000000000000000000e+00
8.620000000000000000e+02,4.717760340250074652e-02,0.000000000000000000e+00
8.630000000000000000e+02,2.640915484307859162e-01,0.000000000000000000e+00
8.640000000000000000e+02,2.298792936736968051e-01,0.000000000000000000e+00
8.650000000000000000e+02,1.096273154437184816e-01,0.000000000000000000e+00
8.660000000000000000e+02,1.654615910959902625e-01,0.000000000000000000e+00
8.670000000000000000e+02,5.599362160970716706e-02,0.000000000000000000e+00
8.680000000000000000e+02,3.331088193024570598e-01,0.000000000000000000e+00
8.690000000000000000e+02,1.089435187322276288e-01,0.000000000000000000e+00
8.700000000000000000e+02,2.209471502821307443e-01,0.000000000000000000e+00
8.710000000000000000e+02,1.582353117480652105e-01,0.000000000000000000e+00
8.720000000000000000e+02,5.308090449654438991e-01,0.000000000000000000e+00
8.730000000000000000e+02,3.853892201455428879e-01,0.000000000000000000e+00
8.740000000000000000e+02,4.935891987357913790e-01,0.000000000000000000e+00
8.750000000000000000e+02,3.339113857192057000e-01,0.000000000000000000e+00
8.760000000000000000e+02,7.068251697525282373e-02,0.000000000000000000e+00
8.770000000000000000e+02,-2.677188925617696169e-01,0.000000000000000000e+00
8.780000000000000000e+02,9.804830694389579313e-03,0.000000000000000000e+00
8.790000000000000000e+02,-3.157447721361612003e-01,0.000000000000000000e+00
8.800000000000000000e+02,-1.589007532374297760e-01,0.000000000000000000e+00
8.810000000000000000e+02,-6.184076385337962112e-01,0.000000000000000000e+00
8.820000000000000000e+02,5.174840175110397844e+00,0.000000000000000000e+00
8.830000000000000000e+02,4.612179171772295305e+00,0.000000000000000000e+00
8.840000000000000000e+02,-5.062107487385535398e-01,1.000000000000000000e+00
8.850000000000000000e+02,-7.510784660654357126e-01,0.000000000000000000e+00
8.860000000000000000e+02,-1.698909136333012881e+00,0.000000000000000000e+00
8.870000000000000000e+02,-1.162339104511415977e+00,0.000000000000000000e+00
8.880000000000000000e+02,-1.364870407846060063e+00,0.000000000000000000e+00
8.890000000000000000e+02,-1.058598548795302241e+00,0.000000000000000000e+00
8.900000000000000000e+02,-1.133216924131585701e+00,0.000000000000000000e+00
8.910000000000000000e+02,-8.261608941155412777e-01,0.000000000000000000e+00
8.920000000000000000e+02,-8.012235726509950862e-01,0.000000000000000000e+00
8.930000000000000000e+02,-4.819861819743961329e-01,0.000000000000000000e+00
8.940000000000000000e+02,-5.023032271102785273e-01,0.000000000000000000e+00
8.950000000000000000e+02,-1.261010032816128057e-01,0.000000000000000000e+00
8.960000000000000000e+02,-2.024060270299302966e-01,0.000000000000000000e+00
8.970000000000000000e+02,2.443511730275633731e-01,0.000000000000000000e+00
8.980000000000000000e+02,3.870643266717976316e-01,0.000000000000000000e+00
8.990000000000000000e+02,5.031207315201076113e-01,0.000000000000000000e+00
9.000000000000000000e+02,3.160561406314489341e-01,0.000000000000000000e+00
9.010000000000000000e+02,-1.280550775563771559e-01,0.000000000000000000e+00
9.020000000000000000e+02,-4.896291910872894171e-01,0.000000000000000000e+00
9.030000000000000000e+02,-5.864996062364771223e-01,0.000000000000000000e+00
9.040000000000000000e+02,-5.496255693163375478e-01,0.000000000000000000e+00
9.050000000000000000e+02,-5.752626368719968575e-01,0.000000000000000000e+00
9.060000000000000000e+02,-5.215037831508971822e-01,0.000000000000000000e+00
9.070000000000000000e+02,-4.365099758117941264e-01,0.000000000000000000e+00
9.080000000000000000e+02,-4.176901923038094933e-01,0.000000000000000000e+00
9.090000000000000000e+02,-4.207690626878382578e-01,0.000000000000000000e+00
9.100000000000000000e+02,-2.171993077204434630e-01,0.000000000000000000e+00
9.110000000000000000e+02,-2.387555396026704857e-01,0.000000000000000000e+00
9.120000000000000000e+02,-1.603424177411154894e-01,0.000000000000000000e+00
9.130000000000000000e+02,2.910928234802299674e-01,0.000000000000000000e+00
9.140000000000000000e+02,-1.851494198390964963e-01,0.000000000000000000e+00
9.150000000000000000e+02,7.374820149727588647e-02,0.000000000000000000e+00
9.160000000000000000e+02,1.715030141286694176e-02,0.000000000000000000e+00
9.170000000000000000e+02,5.994479230718304658e-02,0.000000000000000000e+00
9.180000000000000000e+02,-1.168944054521301040e-01,0.000000000000000000e+00
9.190000000000000000e+02,1.013449543393953045e-01,0.000000000000000000e+00
9.200000000000000000e+02,5.797213022119606513e-02,0.000000000000000000e+00
9.210000000000000000e+02,1.804500560073341378e-02,0.000000000000000000e+00
9.220000000000000000e+02,1.410535665901432589e-01,0.000000000000000000e+00
9.230000000000000000e+02,3.071499534240929030e-02,0.000000000000000000e+00
9.240000000000000000e+02,1.967309634647001759e-01,0.000000000000000000e+00
9.250000000000000000e+02,1.813475700875394336e-03,0.000000000000000000e+00
9.260000000000000000e+02,2.006040430698285693e-01,0.000000000000000000e+00
9.270000000000000000e+02,1.794192758508141305e-01,0.000000000000000000e+00
9.280000000000000000e+02,1.711323738237022218e-01,0.000000000000000000e+00
9.290000000000000000e+02,9.523198410985729556e-02,0.000000000000000000e+00
9.300000000000000000e+02,1.665209397212000786e-01,0.000000000000000000e+00
9.310000000000000000e+02,8.534764483459353346e-02,0.000000000000000000e+00
9.320000000000000000e+02,2.477974340494017991e-01,0.000000000000000000e+00
9.330000000000000000e+02,1.281421293506968262e-01,0.000000000000000000e+00
9.340000000000000000e+02,1.230937908498620642e-01,0.000000000000000000e+00
9.350000000000000000e+02,3.405894296646297947e-01,0.000000000000000000e+00
9.360000000000000000e+02,8.588810225207386961e-02,0.000000000000000000e+00
9.370000000000000000e+02,1.962791921439874243e-01,0.000000000000000000e+00
9.380000000000000000e+02,2.080752629066655313e-01,0.000000000000000000e+00
9.390000000000000000e+02,2.432038759637719649e-01,0.000000000000000000e+00
9.400000000000000000e+02,3.382322504089100845e-01,0.000000000000000000e+00
9.410000000000000000e+02,5.954471535019993933e-01,0.000000000000000000e+00
9.420000000000000000e+02,5.385600197994578897e-01,0.000000000000000000e+00
9.430000000000000000e+02,3.855108040302022698e-01,0.000000000000000000e+00
9.440000000000000000e+02,2.021605640981610497e-01,0.000000000000000000e+00
9.450000000000000000e+02,-3.308891810268800859e-01,0.000000000000000000e+00
9.460000000000000000e+02,1.085901887388242282e-01,0.000000000000000000e+00
9.470000000000000000e+02,-3.137194424830408446e-01,0.000000000000000000e+00
9.480000000000000000e+02,7.317994630958987723e-02,0.000000000000000000e+00
9.490000000000000000e+02,-8.066731656466552547e-01,0.000000000000000000e+00
9.500000000000000000e+02,2.737943633126193710e+00,0.000000000000000000e+00
9.510000000000000000e+02,6.237548269221849573e+00,0.000000000000000000e+00
9.520000000000000000e+02,6.512495439683418930e-01,1.000000000000000000e+00
9.530000000000000000e+02,-6.435086547851095462e-01,0.000000000000000000e+00
9.540000000000000000e+02,-1.398284249643290345e+00,0.000000000000000000e+00
9.550000000000000000e+02,-1.360146864247124610e+00,0.000000000000000000e+00
9.560000000000000000e+02,-1.485981298468397105e+00,0.000000000000000000e+00
9.570000000000000000e+02,-1.103330071480662866e+00,0.000000000000000000e+00
9.580000000000000000e+02,-1.101571437761468930e+00,0.000000000000000000e+00
9.590000000000000000e+02,-7.585164919371648606e-01,0.000000000000000000e+00
9.600000000000000000e+02,-9.546651843241455992e-01,0.000000000000000000e+00
9.610000000000000000e+02,-5.426221244425991630e-01,0.000000000000000000e+00
9.620000000000000000e+02,-5.365037898050979415e-01,0.000000000000000000e+00
9.630000000000000000e+02,-1.211728659243308803e-01,0.000000000000000000e+00
9.640000000000000000e+02,-2.950871607313421685e-01,0.000000000000000000e+00
9.650000000000000000e+02,1.807722059205022491e-01,0.000000000000000000e+00
9.660000000000000000e+02,3.730636320789100790e-01,0.000000000000000000e+00
9.670000000000000000e+02,4.919887631925325411e-01,0.000000000000000000e+00
9.680000000000000000e+02,2.858219269430367637e-01,0.000000000000000000e+00
9.690000000000000000e+02,9.954828727319012249e-02,0.000000000000000000e+00
9.700000000000000000e+02,-1.947811325065778032e-01,0.000000000000000000e+00
9.710000000000000000e+02,-3.834589618719347892e-01,0.000000000000000000e+00
9.720000000000000000e+02,-5.724491073750807013e-01,0.000000000000000000e+00
9.730000000000000000e+02,-4.933863625036393752e-01,0.000000000000000000e+00
9.740000000000000000e+02,-5.531107516489003340e-01,0.000000000000000000e+00
9.750000000000000000e+02,-5.385247100875079074e-01,0.000000000000000000e+00
9.760000000000000000e+02,-3.248612098684058869e-01,0.000000000000000000e+00
9.770000000000000000e+02,-3.702909756188355050e-01,0.000000000000000000e+00
9.780000000000000000e+02,-1.829493309018650204e-01,0.000000000000000000e+00
9.790000000000000000e+02,-2.460041206812138836e-01,0.000000000000000000e+00
9.800000000000000000e+02,-1.179527585209780016e-01,0.000000000000000000e+00
9.810000000000000000e+02,5.274964929938090463e-02,0.000000000000000000e+00
9.820000000000000000e+02,-2.904994831789249263e-02,0.000000000000000000e+00
9.830000000000000000e+02,1.697200331523631978e-01,0.000000000000000000e+00
9.840000000000000000e+02,-2.548685893383161385e-02,0.000000000000000000e+00
9.850000000000000000e+02,1.498068229268154361e-01,0.000000000000000000e+00
9.860000000000000000e+02,-1.929924600342684815e-02,0.000000000000000000e+00
9.870000000000000000e+02,1.684996692235031790e-01,0.000000000000000000e+00
9.880000000000000000e+02,-4.652638146267389779e-02,0.000000000000000000e+00
9.890000000000000000e+02,1.216528258628519626e-01,0.000000000000000000e+00
9.900000000000000000e+02,1.189035165309135084e-01,0.000000000000000000e+00
9.910000000000000000e+02,-8.256501632606719904e-03,0.000000000000000000e+00
9.920000000000000000e+02,3.692160997285438007e-01,0.000000000000000000e+00
9.930000000000000000e+02,3.272416353991974836e-02,0.000000000000000000e+00
9.940000000000000000e+02,5.055123038099559180e-02,0.000000000000000000e+00
9.950000000000000000e+02,2.099487207818027668e-01,0.000000000000000000e+00
9.960000000000000000e+02,1.841040483166164199e-01,0.000000000000000000e+00
9.970000000000000000e+02,1.569756817177281327e-01,0.000000000000000000e+00
9.980000000000000000e+02,2.951429765905675962e-01,0.000000000000000000e+00
9.990000000000000000e+02,1.399520042096177308e-01,0.000000000000000000e+00
1.000000000000000000e+03,1.334006755802524813e-01,0.000000000000000000e+00
1.001000000000000000e+03,2.190195948621239397e-01,0.000000000000000000e+00
1.002000000000000000e+03,1.996756302287043539e-01,0.000000000000000000e+00
1.003000000000000000e+03,2.734402216085730086e-01,0.000000000000000000e+00
1.004000000000000000e+03,3.124279745405381115e-01,0.000000000000000000e+00
1.005000000000000000e+03,1.535136682487927007e-01,0.000000000000000000e+00
1.006000000000000000e+03,4.511469001236380061e-01,0.000000000000000000e+00
1.007000000000000000e+03,4.424779863291188886e-01,0.000000000000000000e+00
1.008000000000000000e+03,4.903625491773751510e-01,0.000000000000000000e+00
1.009000000000000000e+03,3.598131046464718152e-01,0.000000000000000000e+00
1.010000000000000000e+03,-6.522957767691144049e-02,0.000000000000000000e+00
1.011000000000000000e+03,-6.402796996511417316e-02,0.000000000000000000e+00
1.012000000000000000e+03,-1.094586414356169407e-01,0.000000000000000000e+00
1.013000000000000000e+03,-2.412736758092672573e-01,0.000000000000000000e+00
1.014000000000000000e+03,-1.626472065658663702e-01,0.000000000000000000e+00
1.015000000000000000e+03,-1.150153574548074820e-01,0.000000000000000000e+00
1.016000000000000000e+03,5.835202111097109956e+00,0.000000000000000000e+00
1.017000000000000000e+03,3.675590639214866950e+00,1.000000000000000000e+00
1.018000000000000000e+03,-1.107256938442341410e+00,0.000000000000000000e+00
1.019000000000000000e+03,-8.501257124405551258e-01,0.000000000000000000e+00
1.020000000000000000e+03,-1.433500227906201019e+00,0.000000000000000000e+00
1.021000000000000000e+03,-1.210293626485294816e+00,0.000000000000000000e+00
1.022000000000000000e+03,-1.248524310730801945e+00,0.000000000000000000e+00
1.023000000000000000e+03,-9.737207886899497122e-01,0.000000000000000000e+00
1.024000000000000000e+03,-1.040357662127457949e+00,0.000000000000000000e+00
1.025000000000000000e+03,-7.085632209459403752e-01,0.000000000000000000e+00
1.026000000000000000e+03,-7.209628673287363787e-01,0.000000000000000000e+00
1.027000000000000000e+03,-3.813135208052211844e-01,0.000000000000000000e+00
1.028000000000000000e+03,-5.076353124019574725e-01,0.000000000000000000e+00
1.029000000000000000e+03,-1.695556855205402336e-01,0.000000000000000000e+00
1.030000000000000000e+03,-2.241460177085481398e-01,0.000000000000000000e+00
1.031000000000000000e+03,2.746720571013054890e-01,0.000000000000000000e+00
1.032000000000000000e+03,5.204623752521690960e-01,0.000000000000000000e+00
1.033000000000000000e+03,5.283501417625791063e-01,0.000000000000000000e+00
1.034000000000000000e+03,1.533216790506634897e-01,0.000000000000000000e+00
1.035000000000000000e+03,1.258278827222877178e-02,0.000000000000000000e+00
1.036000000000000000e+03,-6.520625834591253778e-01,0.000000000000000000e+00
1.037000000000000000e+03,-5.828863538208091111e-01,0.000000000000000000e+00
1.038000000000000000e+03,-7.774179358099035930e-01,0.000000000000000000e+00
1.039000000000000000e+03,-5.817086504087106702e-01,0.000000000000000000e+00
1.040000000000000000e+03,-5.902643673508410904e-01,0.000000000000000000e+00
1.041000000000000000e+03,-6.267745368942164719e-01,0.000000000000000000e+00
1.042000000000000000e+03,-3.339914500791933971e-01,0.000000000000000000e+00
1.043000000000000000e+03,-4.181713205017433266e-01,0.000000000000000000e+00
1.044000000000000000e+03,-3.077303635185512642e-01,0.000000000000000000e+00
1.045000000000000000e+03,-1.844725675467153159e-01,0.000000000000000000e+00
1.046000000000000000e+03,-5.030169395002006411e-02,0.000000000000000000e+00
1.047000000000000000e+03,-8.224963701655499393e-02,0.000000000000000000e+00
1.048000000000000000e+03,-4.163394170752621887e-02,0.000000000000000000e+00
1.049000000000000000e+03,2.528264116242686516e-02,0.000000000000000000e+00
1.050000000000000000e+03,-1.966926099832796027e-03,0.000000000000000000e+00
1.051000000000000000e+03,3.001129677431696625e-03,0.000000000000000000e+00
1.052000000000000000e+03,-2.270069068995325678e-01,0.000000000000000000e+00
1.053000000000000000e+03,7.364851230502023061e-02,0.000000000000000000e+00
1.054000000000000000e+03,2.563317179104306412e-02,0.000000000000000000e+00
1.055000000000000000e+03,3.861889437427216271e-02,0.000000000000000000e+00
1.056000000000000000e+03,5.211835828592326775e-02,0.000000000000000000e+00
1.057000000000000000e+03,1.352686439204582314e-01,0.000000000000000000e+00
1.058000000000000000e+03,-1.833926399658047587e-02,0.000000000000000000e+00
1.059000000000000000e+03,1.331434699301506652e-01,0.000000000000000000e+00
1.060000000000000000e+03,8.240020820515178701e-02,0.000000000000000000e+00
1.061000000000000000e+03,2.502641123262685507e-01,0.000000000000000000e+00
1.062000000000000000e+03,-9.347091224372518908e-03,0.000000000000000000e+00
1.063000000000000000e+03,2.859382232351399544e-01,0.000000000000000000e+00
1.064000000000000000e+03,2.075606925211898046e-02,0.000000000000000000e+00
1.065000000000000000e+03,4.046197105133616523e-01,0.000000000000000000e+00
1.066000000000000000e+03,7.246833236813489398e-02,0.000000000000000000e+00
1.067000000000000000e+03,3.670197959002159394e-01,0.000000000000000000e+00
1.068000000000000000e+03,8.907813399234179585e-02,0.000000000000000000e+00
1.069000000000000000e+03,3.780868229108386713e-01,0.000000000000000000e+00
1.070000000000000000e+03,5.655822893930525508e-01,0.000000000000000000e+00
1.071000000000000000e+03,5.909915778904184513e-01,0.000000000000000000e+00
1.072000000000000000e+03,3.736622806835489530e-01,0.000000000000000000e+00
1.073000000000000000e+03,1.058880707300454277e-01,0.000000000000000000e+00
1.074000000000000000e+03,-4.282452784177624705e-02,0.000000000000000000e+00
1.075000000000000000e+03,-4.365144284887233911e-02,0.000000000000000000e+00
1.076000000000000000e+03,-2.106618558010053821e-01,0.000000000000000000e+00
1.077000000000000000e+03,1.165345680488087399e-01,0.000000000000000000e+00
1.078000000000000000e+03,-3.170665270018725446e-01,0.000000000000000000e+00
1.079000000000000000e+03,5.554873135912061777e+00,0.000000000000000000e+00
1.080000000000000000e+03,4.083053736250692900e+00,1.000000000000000000e+00
1.081000000000000000e+03,-1.251346757472156401e+00,0.000000000000000000e+00
1.082000000000000000e+03,-7.956440109584476117e-01,0.000000000000000000e+00
1.083000000000000000e+03,-1.489388615689302364e+00,0.000000000000000000e+00
1.084000000000000000e+03,-9.441863842192812495e-01,0.000000000000000000e+00
1.085000000000000000e+03,-1.055960153210263153e+00,0.000000000000000000e+00
1.086000000000000000e+03,-9.634205899989869426e-01,0.000000000000000000e+00
1.087000000000000000e+03,-7.768240945125460817e-01,0.000000000000000000e+00
1.088000000000000000e+03,-5.363461661702109140e-01,0.000000000000000000e+00
1.089000000000000000e+03,-6.401380731888887121e-01,0.000000000000000000e+00
1.090000000000000000e+03,-2.685508930944656147e-01,0.000000000000000000e+00
1.091000000000000000e+03,-3.422103824553283102e-01,0.000000000000000000e+00
1.092000000000000000e+03,-1.251179515201299164e-01,0.000000000000000000e+00
1.093000000000000000e+03,2.504899519957852760e-01,0.000000000000000000e+00
1.094000000000000000e+03,3.710041225586955815e-01,0.000000000000000000e+00
1.095000000000000000e+03,4.223025928854935995e-01,0.000000000000000000e+00
1.096000000000000000e+03,6.985215550659161776e-01,0.000000000000000000e+00
1.097000000000000000e+03,3.229976448419249468e-01,0.000000000000000000e+00
1.098000000000000000e+03,-1.512843277762173366e-01,0.000000000000000000e+00
1.099000000000000000e+03,-5.501714003611961612e-01,0.000000000000000000e+00
1.100000000000000000e+03,-5.289879737301053098e-01,0.000000000000000000e+00
1.101000000000000000e+03,-6.752610323330036080e-01,0.000000000000000000e+00
1.102000000000000000e+03,-5.496746456794767699e-01,0.000000000000000000e+00
1.103000000000000000e+03,-6.621591854086102957e-01,0.000000000000000000e+00
1.104000000000000000e+03,-6.792135199815415580e-01,0.000000000000000000e+00
1.105000000000000000e+03,-3.249972707277107853e-01,0.000000000000000000e+00
1.106000000000000000e+03,-3.460160114766089312e-01,0.000000000000000000e+00
1.107000000000000000e+03,-3.204137090283901701e-01,0.000000000000000000e+00
1.108000000000000000e+03,-1.141586789254324386e-01,0.000000000000000000e+00
1.109000000000000000e+03,-6.228906387682914270e-02,0.000000000000000000e+00
1.110000000000000000e+03,8.652436586311653202e-03,0.000000000000000000e+00
1.111000000000000000e+03,-2.129180850536698533e-01,0.000000000000000000e+00
1.112000000000000000e+03,1.365177856779448973e-01,0.000000000000000000e+00
1.113000000000000000e+03,-2.080694057089281165e-02,0.000000000000000000e+00
1.114000000000000000e+03,4.479966021588434322e-02,0.000000000000000000e+00
1.115000000000000000e+03,-7.495452486101211731e-02,0.000000000000000000e+00
1.116000000000000000e+03,4.897312780616312755e-02,0.000000000000000000e+00
1.117000000000000000e+03,-1.460795441127246963e-01,0.000000000000000000e+00
1.118000000000000000e+03,1.930768250903916808e-02,0.000000000000000000e+00
1.119000000000000000e+03,-1.109731459644888313e-01,0.000000000000000000e+00
1.120000000000000000e+03,1.239830199854867337e-01,0.000000000000000000e+00
1.121000000000000000e+03,5.973816856036343048e-02,0.000000000000000000e+00
1.122000000000000000e+03,1.678800362522579748e-02,0.000000000000000000e+00
1.123000000000000000e+03,2.322538740857383599e-01,0.000000000000000000e+00
1.124000000000000000e+03,-1.177509093717384221e-02,0.000000000000000000e+00
1.125000000000000000e+03,2.397962372385460672e-01,0.000000000000000000e+00
1.126000000000000000e+03,3.131315830943486728e-02,0.000000000000000000e+00
1.127000000000000000e+03,1.247498545749889387e-01,0.000000000000000000e+00
1.128000000000000000e+03,1.656343772197834407e-01,0.000000000000000000e+00
1.129000000000000000e+03,1.528921249956519124e-02,0.000000000000000000e+00
1.130000000000000000e+03,4.702274792596622399e-01,0.000000000000000000e+00
1.131000000000000000e+03,3.710597475332691464e-01,0.000000000000000000e+00
1.132000000000000000e+03,5.052047889568541672e-01,0.000000000000000000e+00
1.133000000000000000e+03,3.814965858467996296e-01,0.000000000000000000e+00
1.134000000000000000e+03,2.508026617739118613e-01,0.000000000000000000e+00
1.135000000000000000e+03,-1.113405685316786325e-01,0.000000000000000000e+00
1.136000000000000000e+03,-2.576506257536615926e-02,0.000000000000000000e+00
1.137000000000000000e+03,-1.925314250218492229e-01,0.000000000000000000e+00
1.138000000000000000e+03,-1.137449784290478216e-01,0.000000000000000000e+00
1.139000000000000000e+03,-5.982678216148824557e-01,0.000000000000000000e+00
1.140000000000000000e+03,1.485252012785933218e+00,0.000000000000000000e+00
1.141000000000000000e+03,6.470593645659596937e+00,0.000000000000000000e+00
1.142000000000000000e+03,1.295327649469976361e+00,1.000000000000000000e+00
1.143000000000000000e+03,-1.007702014989659611e+00,0.000000000000000000e+00
1.144000000000000000e+03,-1.132007020634939076e+00,0.000000000000000000e+00
1.145000000000000000e+03,-1.485734785681221082e+00,0.000000000000000000e+00
1.146000000000000000e+03,-1.159006305699562533e+00,0.000000000000000000e+00
1.147000000000000000e+03,-1.105634339422936430e+00,0.000000000000000000e+00
1.148000000000000000e+03,-9.142526554019632101e-01,0.000000000000000000e+00
1.149000000000000000e+03,-7.989885382532201374e-01,0.000000000000000000e+00
1.150000000000000000e+03,-7.100965356037461929e-01,0.000000000000000000e+00
1.151000000000000000e+03,-4.686458654820082614e-01,0.000000000000000000e+00
1.152000000000000000e+03,-4.358014977996048644e-01,0.000000000000000000e+00
1.153000000000000000e+03,-1.808572937157035265e-01,0.000000000000000000e+00
1.154000000000000000e+03,-2.419960685337042283e-01,0.000000000000000000e+00
1.155000000000000000e+03,2.543976905246959075e-01,0.000000000000000000e+00
1.156000000000000000e+03,4.743424946277380871e-01,0.000000000000000000e+00
1.157000000000000000e+03,5.173433832889446915e-01,0.000000000000000000e+00
1.158000000000000000e+03,4.963512118105686821e-01,0.000000000000000000e+00
1.159000000000000000e+03,1.224228819695132309e-01,0.000000000000000000e+00
1.160000000000000000e+03,-2.196566956073939259e-01,0.000000000000000000e+00
1.161000000000000000e+03,-4.900259511965504022e-01,0.000000000000000000e+00
1.162000000000000000e+03,-5.440106098312554872e-01,0.000000000000000000e+00
1.163000000000000000e+03,-4.613131447000444751e-01,0.000000000000000000e+00
1.164000000000000000e+03,-5.290310043438747334e-01,0.000000000000000000e+00
1.165000000000000000e+03,-5.903882475815834807e-01,0.000000000000000000e+00
1.166000000000000000e+03,-3.881540697537703699e-01,0.000000000000000000e+00
1.167000000000000000e+03,-3.188597510824136561e-01,0.000000000000000000e+00
1.168000000000000000e+03,-1.873279417871382413e-01,0.000000000000000000e+00
1.169000000000000000e+03,-1.537264509461865325e-01,0.000000000000000000e+00
1.170000000000000000e+03,-2.455971337801027624e-02,0.000000000000000000e+00
1.171000000000000000e+03,8.761698908393855678e-02,0.000000000000000000e+00
1.172000000000000000e+03,-3.788419138420416610e-02,0.000000000000000000e+00
1.173000000000000000e+03,5.967990287914189812e-02,0.000000000000000000e+00
1.174000000000000000e+03,1.748940871637852945e-01,0.000000000000000000e+00
1.175000000000000000e+03,1.489731832736539696e-01,0.000000000000000000e+00
1.176000000000000000e+03,7.607055838013770943e-02,0.000000000000000000e+00
1.177000000000000000e+03,2.047348021077854685e-01,0.000000000000000000e+00
1.178000000000000000e+03,1.157157939055956652e-01,0.000000000000000000e+00
1.179000000000000000e+03,2.327131686047526349e-01,0.000000000000000000e+00
1.180000000000000000e+03,1.110944354642481452e-01,0.000000000000000000e+00
1.181000000000000000e+03,2.551754578030843157e-01,0.000000000000000000e+00
1.182000000000000000e+03,1.124361740031187967e-01,0.000000000000000000e+00
1.183000000000000000e+03,4.056019667875179202e-01,0.000000000000000000e+00
1.184000000000000000e+03,3.004729468075772666e-02,0.000000000000000000e+00
1.185000000000000000e+03,2.779734448669913260e-01,0.000000000000000000e+00
1.186000000000000000e+03,2.338077253624354923e-01,0.000000000000000000e+00
1.187000000000000000e+03,2.461784975145491217e-01,0.000000000000000000e+00
1.188000000000000000e+03,1.512396619945182707e-01,0.000000000000000000e+00
1.189000000000000000e+03,2.847481776298337319e-01,0.000000000000000000e+00
1.190000000000000000e+03,1.542745706748720469e-01,0.000000000000000000e+00
1.191000000000000000e+03,4.029127016718888621e-01,0.000000000000000000e+00
1.192000000000000000e+03,3.169385023875894158e-01,0.000000000000000000e+00
1.193000000000000000e+03,6.215233438353259254e-01,0.000000000000000000e+00
1.194000000000000000e+03,5.249356345794942147e-01,0.000000000000000000e+00
1.195000000000000000e+03,4.285725925597297925e-01,0.000000000000000000e+00
1.196000000000000000e+03,5.080208370736077894e-01,0.000000000000000000e+00
1.197000000000000000e+03,2.380000890024308591e-01,0.000000000000000000e+00
1.198000000000000000e+03,1.715588799162019035e-02,0.000000000000000000e+00
1.199000000000000000e+03,2.060084305567676938e-02,0.000000000000000000e+00
1.200000000000000000e+03,-4.076799872505683653e-01,0.000000000000000000e+00
1.201000000000000000e+03,1.112817549970097769e-01,0.000000000000000000e+00
1.202000000000000000e+03,-7.344413755491902007e-01,0.000000000000000000e+00
1.203000000000000000e+03,4.856197575756354468e+00,0.000000000000000000e+00
1.204000000000000000e+03,4.999634471850618489e+00,0.000000000000000000e+00
1.205000000000000000e+03,-3.407703284400421251e-01,1.000000000000000000e+00
1.206000000000000000e+03,-7.053235161008912790e-01,0.000000000000000000e+00
1.207000000000000000e+03,-1.593494372031913686e+00,0.000000000000000000e+00
1.208000000000000000e+03,-1.229882280001192818e+00,0.000000000000000000e+00
1.209000000000000000e+03,-1.397359450372833933e+00,0.000000000000000000e+00
1.210000000000000000e+03,-1.116908841176371459e+00,0.000000000000000000e+00
1.211000000000000000e+03,-9.457138581180662973e-01,0.000000000000000000e+00
1.212000000000000000e+03,-7.459470597292656713e-01,0.000000000000000000e+00
1.213000000000000000e+03,-7.815504801734257656e-01,0.000000000000000000e+00
1.214000000000000000e+03,-6.343635099195801264e-01,0.000000000000000000e+00
1.215000000000000000e+03,-5.022487670251167824e-01,0.000000000000000000e+00
1.216000000000000000e+03,-1.658445731622072705e-01,0.000000000000000000e+00
1.217000000000000000e+03,-6.243603396039874853e-02,0.000000000000000000e+00
1.218000000000000000e+03,3.552611600777744183e-01,0.000000000000000000e+00
1.219000000000000000e+03,3.081495300118853309e-01,0.000000000000000000e+00
1.220000000000000000e+03,5.150878681228390210e-01,0.000000000000000000e+00
1.221000000000000000e+03,2.053904083239565526e-01,0.000000000000000000e+00
1.222000000000000000e+03,-9.323669937654055495e-02,0.000000000000000000e+00
1.223000000000000000e+03,-5.151568439797432619e-01,0.000000000000000000e+00
1.224000000000000000e+03,-5.242793804770943256e-01,0.000000000000000000e+00
1.225000000000000000e+03,-7.028385652285027430e-01,0.000000000000000000e+00
1.226000000000000000e+03,-6.773699936361265994e-01,0.000000000000000000e+00
1.227000000000000000e+03,-4.757855098936757399e-01,0.000000000000000000e+00
1.228000000000000000e+03,-7.475522093677808844e-01,0.000000000000000000e+00
1.229000000000000000e+03,-4.403361892018486379e-01,0.000000000000000000e+00
1.230000000000000000e+03,-4.221363594218318638e-01,0.000000000000000000e+00
1.231000000000000000e+03,-2.232972797583318014e-01,0.000000000000000000e+00
1.232000000000000000e+03,-3.269579347765733113e-01,0.000000000000000000e+00
1.233000000000000000e+03,-1.049204769994099701e-01,0.000000000000000000e+00
1.234000000000000000e+03,-5.766000443404713932e-02,0.000000000000000000e+00
1.235000000000000000e+03,-2.094014255856241902e-01,0.000000000000000000e+00
1.236000000000000000e+03,-6.084806807820820895e-02,0.000000000000000000e+00
1.237000000000000000e+03,-3.061266158980735855e-02,0.000000000000000000e+00
1.238000000000000000e+03,6.736163359239831505e-02,0.000000000000000000e+00
1.239000000000000000e+03,-4.845985070396276878e-02,0.000000000000000000e+00
1.240000000000000000e+03,3.470672017187727276e-02,0.000000000000000000e+00
1.241000000000000000e+03,1.604934820392044104e-02,0.000000000000000000e+00
1.242000000000000000e+03,1.339249379671874837e-02,0.000000000000000000e+00
1.243000000000000000e+03,9.316981562706456999e-02,0.000000000000000000e+00
1.244000000000000000e+03,3.732662143414688938e-02,0.000000000000000000e+00
1.245000000000000000e+03,1.104219450715186041e-01,0.000000000000000000e+00
1.246000000000000000e+03,-1.313769437403966844e-01,0.000000000000000000e+00
1.247000000000000000e+03,2.849960107648659147e-01,0.000000000000000000e+00
1.248000000000000000e+03,3.120536881147100566e-02,0.000000000000000000e+00
1.249000000000000000e+03,1.884590301748239605e-01,0.000000000000000000e+00
1.250000000000000000e+03,-2.378764362510700850e-02,0.000000000000000000e+00
1.251000000000000000e+03,2.524598702019473229e-01,0.000000000000000000e+00
1.252000000000000000e+03,1.815142630515482469e-01,0.000000000000000000e+00
1.253000000000000000e+03,2.090878294678408522e-01,0.000000000000000000e+00
1.254000000000000000e+03,6.384463830618995750e-02,0.000000000000000000e+00
1.255000000000000000e+03,4.021575138194083410e-01,0.000000000000000000e+00
1.256000000000000000e+03,5.625993990901424491e-01,0.000000000000000000e+00
1.257000000000000000e+03,6.614849367305167815e-01,0.000000000000000000e+00
1.258000000000000000e+03,3.533117334230013729e-01,0.000000000000000000e+00
1.259000000000000000e+03,2.535505228182716869e-02,0.000000000000000000e+00
1.260000000000000000e+03,-4.312327311775046579e-02,0.000000000000000000e+00
1.261000000000000000e+03,-3.581524896399686242e-03,0.000000000000000000e+00
1.262000000000000000e+03,-2.320014904602417660e-01,0.000000000000000000e+00
1.263000000000000000e+03,-9.542789252685865420e-02,0.000000000000000000e+00
1.264000000000000000e+03,-7.582738096923449245e-01,0.000000000000000000e+00
1.265000000000000000e+03,4.528041419963107828e+00,0.000000000000000000e+00
1.266000000000000000e+03,5.220358436218998754e+00,0.000000000000000000e+00
1.267000000000000000e+03,-3.045696721515072647e-01,1.000000000000000000e+00
1.268000000000000000e+03,-5.550717399820147557e-01,0.000000000000000000e+00
1.269000000000000000e+03,-1.721839599678756549e+00,0.000000000000000000e+00
1.270000000000000000e+03,-1.086786877840627774e+00,0.000000000000000000e+00
1.271000000000000000e+03,-1.461312506787921794e+00,0.000000000000000000e+00
1.272000000000000000e+03,-1.101666362521000142e+00,0.000000000000000000e+00
1.273000000000000000e+03,-1.034345000641226919e+00,0.000000000000000000e+00
1.274000000000000000e+03,-8.430543784145229091e-01,0.000000000000000000e+00
1.275000000000000000e+03,-9.222039294388022501e-01,0.000000000000000000e+00
1.276000000000000000e+03,-5.006771585829797866e-01,0.000000000000000000e+00
1.277000000000000000e+03,-4.892834035100540047e-01,0.000000000000000000e+00
1.278000000000000000e+03,-2.426329727318750629e-01,0.000000000000000000e+00
1.279000000000000000e+03,-6.473964746043021912e-02,0.000000000000000000e+00
1.280000000000000000e+03,4.622915293330632780e-01,0.000000000000000000e+00
1.281000000000000000e+03,2.834246262753115086e-01,0.000000000000000000e+00
1.282000000000000000e+03,6.486488766742409817e-01,0.000000000000000000e+00
1.283000000000000000e+03,3.966212413030355544e-01,0.000000000000000000e+00
1.284000000000000000e+03,-6.160421416721726523e-02,0.000000000000000000e+00
1.285000000000000000e+03,-5.095650390334107716e-01,0.000000000000000000e+00
1.286000000000000000e+03,-5.857208397154418655e-01,0.000000000000000000e+00
1.287000000000000000e+03,-7.467151029896893499e-01,0.000000000000000000e+00
1.288000000000000000e+03,-5.455466545890252927e-01,0.000000000000000000e+00
1.289000000000000000e+03,-6.550294572871299126e-01,0.000000000000000000e+00
1.290000000000000000e+03,-4.144097628773283359e-01,0.000000000000000000e+00
1.291000000000000000e+03,-4.930615132125503175e-01,0.000000000000000000e+00
1.292000000000000000e+03,-3.498183138340146270e-01,0.000000000000000000e+00
1.293000000000000000e+03,-3.114482705853404143e-01,0.000000000000000000e+00
1.294000000000000000e+03,-1.633672895994447150e-01,0.000000000000000000e+00
1.295000000000000000e+03,-2.090631049653619011e-01,0.000000000000000000e+00
1.296000000000000000e+03,1.958045944991101267e-02,0.000000000000000000e+00
1.297000000000000000e+03,3.871707476814673522e-03,0.000000000000000000e+00
1.298000000000000000e+03,8.195056230420226517e-02,0.000000000000000000e+00
1.299000000000000000e+03,7.656627105064017780e-02,0.000000000000000000e+00
1.300000000000000000e+03,1.773902279052603226e-01,0.000000000000000000e+00
1.301000000000000000e+03,1.562575094017195354e-01,0.000000000000000000e+00
1.302000000000000000e+03,5.714728977833978540e-02,0.000000000000000000e+00
1.303000000000000000e+03,1.120263923586771598e-01,0.000000000000000000e+00
1.304000000000000000e+03,2.880343795843716137e-01,0.000000000000000000e+00
1.305000000000000000e+03,7.830820083331083148e-02,0.000000000000000000e+00
1.306000000000000000e+03,2.180531873028715983e-01,0.000000000000000000e+00
1.307000000000000000e+03,1.509953223709601389e-01,0.000000000000000000e+00
1.308000000000000000e+03,2.486294939838798457e-01,0.000000000000000000e+00
1.309000000000000000e+03,7.647334846670893194e-02,0.000000000000000000e+00
1.310000000000000000e+03,3.362742451108045594e-01,0.000000000000000000e+00
1.311000000000000000e+03,1.472912410286588980e-01,0.000000000000000000e+00
1.312000000000000000e+03,2.538924766084481033e-01,0.000000000000000000e+00
1.313000000000000000e+03,2.366822224547953657e-01,0.000000000000000000e+00
1.314000000000000000e+03,1.477497177309503862e-01,0.000000000000000000e+00
1.315000000000000000e+03,2.989753419857864580e-01,0.000000000000000000e+00
1.316000000000000000e+03,1.519716376497078913e-01,0.000000000000000000e+00
1.317000000000000000e+03,3.936671495915286534e-01,0.000000000000000000e+00
1.318000000000000000e+03,7.276842011272495192e-01,0.000000000000000000e+00
1.319000000000000000e+03,5.710981794675442647e-01,0.000000000000000000e+00
1.320000000000000000e+03,4.009389899778429966e-01,0.000000000000000000e+00
1.321000000000000000e+03,3.382184983206673046e-01,0.000000000000000000e+00
1.322000000000000000e+03,-9.576273885266262109e-02,0.000000000000000000e+00
1.323000000000000000e+03,-2.178426266719983226e-02,0.000000000000000000e+00
1.324000000000000000e+03,-1.847141229726236844e-01,0.000000000000000000e+00
1.325000000000000000e+03,3.574663175873106936e-03,0.000000000000000000e+00
1.326000000000000000e+03,-5.960045650235237247e-01,0.000000000000000000e+00
1.327000000000000000e+03,3.139078509918482141e+00,0.000000000000000000e+00
1.328000000000000000e+03,6.475838599086858771e+00,0.000000000000000000e+00
1.329000000000000000e+03,2.892598691864197158e-01,1.000000000000000000e+00
1.330000000000000000e+03,-9.208179761414252429e-01,0.000000000000000000e+00
1.331000000000000000e+03,-1.294144494566469072e+00,0.000000000000000000e+00
1.332000000000000000e+03,-1.284798638366113854e+00,0.000000000000000000e+00
1.333000000000000000e+03,-1.326169866873418979e+00,0.000000000000000000e+00
1.334000000000000000e+03,-8.983223879872915818e-01,0.000000000000000000e+00
1.335000000000000000e+03,-1.034255532285080603e+00,0.000000000000000000e+00
1.336000000000000000e+03,-7.496670848350196481e-01,0.000000000000000000e+00
1.337000000000000000e+03,-8.124933143351507070e-01,0.000000000000000000e+00
1.338000000000000000e+03,-4.866656330400667696e-01,0.000000000000000000e+00
1.339000000000000000e+03,-3.325284878184024406e-01,0.000000000000000000e+00
1.340000000000000000e+03,-2.636330929748127438e-01,0.000000000000000000e+00
1.341000000000000000e+03,-1.436273734212625830e-02,0.000000000000000000e+00
1.342000000000000000e+03,2.165433044134848772e-01,0.000000000000000000e+00
1.343000000000000000e+03,3.935455157442704355e-01,0.000000000000000000e+00
1.344000000000000000e+03,6.017197926414330489e-01,0.000000000000000000e+00
1.345000000000000000e+03,3.843893449724494205e-01,0.000000000000000000e+00
1.346000000000000000e+03,1.254080662930063261e-01,0.000000000000000000e+00
1.347000000000000000e+03,-6.312663931026468722e-01,0.000000000000000000e+00
1.348000000000000000e+03,-7.976577700649715164e-01,0.000000000000000000e+00
1.349000000000000000e+03,-6.908343926588329520e-01,0.000000000000000000e+00
1.350000000000000000e+03,-5.965569901599262481e-01,0.000000000000000000e+00
1.351000000000000000e+03,-8.393875118762443854e-01,0.000000000000000000e+00
1.352000000000000000e+03,-4.734658246033169315e-01,0.000000000000000000e+00
1.353000000000000000e+03,-5.639166319546714545e-01,0.000000000000000000e+00
1.354000000000000000e+03,-5.661403102636375362e-01,0.000000000000000000e+00
1.355000000000000000e+03,-5.422317249202351919e-01,0.000000000000000000e+00
1.356000000000000000e+03,-1.168174404380484671e-01,0.000000000000000000e+00
1.357000000000000000e+03,-4.499011738887747636e-01,0.000000000000000000e+00
1.358000000000000000e+03,-1.045872624722430505e-01,0.000000000000000000e+00
1.359000000000000000e+03,-1.377890136643244723e-01,0.000000000000000000e+00
1.360000000000000000e+03,-1.217051520530532255e-01,0.000000000000000000e+00
1.361000000000000000e+03,5.931933986016719312e-02,0.000000000000000000e+00
1.362000000000000000e+03,2.956941162233133608e-02,0.000000000000000000e+00
1.363000000000000000e+03,-4.610350674043584701e-02,0.000000000000000000e+00
1.364000000000000000e+03,-2.896199055561579291e-02,0.000000000000000000e+00
1.365000000000000000e+03,5.837711790706429787e-02,0.000000000000000000e+00
1.366000000000000000e+03,1.178305833698869987e-01,0.000000000000000000e+00
1.367000000000000000e+03,-9.362844625986403713e-02,0.000000000000000000e+00
1.368000000000000000e+03,7.809960774979360365e-02,0.000000000000000000e+00
1.369000000000000000e+03,-1.850495083695427936e-02,0.000000000000000000e+00
1.370000000000000000e+03,1.719052762443301352e-01,0.000000000000000000e+00
1.371000000000000000e+03,1.222330390404163386e-01,0.000000000000000000e+00
1.372000000000000000e+03,2.007711931145280959e-01,0.000000000000000000e+00
1.373000000000000000e+03,-2.463391348320700600e-02,0.000000000000000000e+00
1.374000000000000000e+03,1.461999627185308348e-01,0.000000000000000000e+00
1.375000000000000000e+03,2.757364083367250807e-01,0.000000000000000000e+00
1.376000000000000000e+03,7.877136680871009433e-02,0.000000000000000000e+00
1.377000000000000000e+03,2.935738448741943563e-01,0.000000000000000000e+00
1.378000000000000000e+03,6.245796841575560476e-01,0.000000000000000000e+00
1.379000000000000000e+03,3.827188795229365392e-01,0.000000000000000000e+00
1.380000000000000000e+03,5.201601909401029067e-01,0.000000000000000000e+00
1.381000000000000000e+03,2.786649597968793857e-01,0.000000000000000000e+00
1.382000000000000000e+03,-1.427617665212374265e-01,0.000000000000000000e+00
1.383000000000000000e+03,1.074383590466688465e-01,0.000000000000000000e+00
1.384000000000000000e+03,-6.138176714904321901e-02,0.000000000000000000e+00
1.385000000000000000e+03,4.319746776693480367e-02,0.000000000000000000e+00
1.386000000000000000e+03,-2.461134449464359719e-01,0.000000000000000000e+00
1.387000000000000000e+03,1.222566713306521224e+00,0.000000000000000000e+00
1.388000000000000000e+03,6.626605747439546334e+00,0.000000000000000000e+00
1.389000000000000000e+03,1.703768352906443351e+00,1.000000000000000000e+00
1.390000000000000000e+03,-1.075330656493047154e+00,0.000000000000000000e+00
1.391000000000000000e+03,-9.693642360036375250e-01,0.000000000000000000e+00
1.392000000000000000e+03,-1.166679352767833855e+00,0.000000000000000000e+00
1.393000000000000000e+03,-1.207567245750885698e+00,0.000000000000000000e+00
1.394000000000000000e+03,-1.021166216489441947e+00,0.000000000000000000e+00
1.395000000000000000e+03,-8.310354644110293787e-01,0.000000000000000000e+00
1.396000000000000000e+03,-5.635446272786142075e-01,0.000000000000000000e+00
1.397000000000000000e+03,-6.216573223267704007e-01,0.000000000000000000e+00
1.398000000000000000e+03,-3.566530555773287370e-01,0.000000000000000000e+00
1.399000000000000000e+03,-4.742457668826137174e-01,0.000000000000000000e+00
1.400000000000000000e+03,-1.288174575642926367e-01,0.000000000000000000e+00
1.401000000000000000e+03,-4.683056319302105613e-02,0.000000000000000000e+00
1.402000000000000000e+03,3.459888297021330161e-01,0.000000000000000000e+00
1.403000000000000000e+03,4.191761475886356947e-01,0.000000000000000000e+00
1.404000000000000000e+03,7.372308097048588804e-01,0.000000000000000000e+00
1.405000000000000000e+03,5.599767735411378400e-01,0.000000000000000000e+00
1.406000000000000000e+03,2.090479856927353608e-01,0.000000000000000000e+00
1.407000000000000000e+03,-3.767784933184582519e-01,0.000000000000000000e+00
1.408000000000000000e+03,-5.676217406953132372e-01,0.000000000000000000e+00
1.409000000000000000e+03,-7.473880312815530669e-01,0.000000000000000000e+00
1.410000000000000000e+03,-6.970073741017704938e-01,0.000000000000000000e+00
1.411000000000000000e+03,-6.933596401730541814e-01,0.000000000000000000e+00
1.412000000000000000e+03,-4.600727757500794879e-01,0.000000000000000000e+00
1.413000000000000000e+03,-6.876453287402606307e-01,0.000000000000000000e+00
1.414000000000000000e+03,-3.669100618369611766e-01,0.000000000000000000e+00
1.415000000000000000e+03,-5.123960800363372980e-01,0.000000000000000000e+00
1.416000000000000000e+03,-2.002741825391087804e-01,0.000000000000000000e+00
1.417000000000000000e+03,-2.749154310378048027e-01,0.000000000000000000e+00
1.418000000000000000e+03,3.783256256626008063e-02,0.000000000000000000e+00
1.419000000000000000e+03,-3.345149701509280565e-02,0.000000000000000000e+00
1.420000000000000000e+03,7.290072095157511256e-02,0.000000000000000000e+00
1.421000000000000000e+03,1.065628309214506630e-01,0.000000000000000000e+00
1.422000000000000000e+03,-3.983021744872983910e-02,0.000000000000000000e+00
1.423000000000000000e+03,1.787112916645012262e-01,0.000000000000000000e+00
1.424000000000000000e+03,7.525736041149611033e-02,0.000000000000000000e+00
1.425000000000000000e+03,-6.047120399899357651e-02,0.000000000000000000e+00
1.426000000000000000e+03,1.312873667936987343e-01,0.000000000000000000e+00
1.427000000000000000e+03,2.148371443662139002e-01,0.000000000000000000e+00
1.428000000000000000e+03,1.208394242301796678e-01,0.000000000000000000e+00
1.429000000000000000e+03,1.557704053988382686e-01,0.000000000000000000e+00
1.430000000000000000e+03,3.620316178033231025e-01,0.000000000000000000e+00
1.431000000000000000e+03,3.809763888576082891e-02,0.000000000000000000e+00
1.432000000000000000e+03,1.768477272941985645e-01,0.000000000000000000e+00
1.433000000000000000e+03,9.085465105374711248e-02,0.000000000000000000e+00
1.434000000000000000e+03,2.242514091423747913e-01,0.000000000000000000e+00
1.435000000000000000e+03,9.562275300477961204e-02,0.000000000000000000e+00
1.436000000000000000e+03,1.546787729579905957e-01,0.000000000000000000e+00
1.437000000000000000e+03,2.798422818506455800e-01,0.000000000000000000e+00
1.438000000000000000e+03,2.022508288765557660e-01,0.000000000000000000e+00
1.439000000000000000e+03,3.809458714179906336e-01,0.000000000000000000e+00
1.440000000000000000e+03,7.201332293445916743e-01,0.000000000000000000e+00
1.441000000000000000e+03,2.858844036453797588e-01,0.000000000000000000e+00
1.442000000000000000e+03,1.139944289090469576e-01,0.000000000000000000e+00
1.443000000000000000e+03,-2.172206610949039551e-01,0.000000000000000000e+00
1.444000000000000000e+03,1.240309656355530893e-03,0.000000000000000000e+00
1.445000000000000000e+03,-3.016597101009995119e-01,0.000000000000000000e+00
1.446000000000000000e+03,1.992268270904999639e-01,0.000000000000000000e+00
1.447000000000000000e+03,-8.693106679560757000e-01,0.000000000000000000e+00
1.448000000000000000e+03,3.087075011363662913e+00,0.000000000000000000e+00
1.449000000000000000e+03,6.194946810829374151e+00,0.000000000000000000e+00
1.450000000000000000e+03,2.213363349899712673e-01,1.000000000000000000e+00
1.451000000000000000e+03,-7.911375611474148473e-01,0.000000000000000000e+00
1.452000000000000000e+03,-1.363998653030713104e+00,0.000000000000000000e+00
1.453000000000000000e+03,-1.201124311340806772e+00,0.000000000000000000e+00
1.454000000000000000e+03,-1.247435027112720585e+00,0.000000000000000000e+00
1.455000000000000000e+03,-1.091784725233945652e+00,0.000000000000000000e+00
1.456000000000000000e+03,-8.720279550985161610e-01,0.000000000000000000e+00
1.457000000000000000e+03,-8.006140298986469395e-01,0.000000000000000000e+00
1.458000000000000000e+03,-7.726831556729080175e-01,0.000000000000000000e+00
1.459000000000000000e+03,-4.119117315783648037e-01,0.000000000000000000e+00
1.460000000000000000e+03,-2.577872950355483694e-01,0.000000000000000000e+00
1.461000000000000000e+03,-3.197242943372921031e-01,0.000000000000000000e+00
1.462000000000000000e+03,8.139689218143121574e-02,0.000000000000000000e+00
1.463000000000000000e+03,1.952968554418137159e-01,0.000000000000000000e+00
1.464000000000000000e+03,5.304731039958899830e-01,0.000000000000000000e+00
1.465000000000000000e+03,4.705832562956103193e-01,0.000000000000000000e+00
1.466000000000000000e+03,4.816204278081138157e-01,0.000000000000000000e+00
1.467000000000000000e+03,1.059120070787106516e-01,0.000000000000000000e+00
1.468000000000000000e+03,-5.287407008747651016e-01,0.000000000000000000e+00
1.469000000000000000e+03,-5.997362526003169325e-01,0.000000000000000000e+00
1.470000000000000000e+03,-5.953215551944791573e-01,0.000000000000000000e+00
1.471000000000000000e+03,-7.850367934556987670e-01,0.000000000000000000e+00
1.472000000000000000e+03,-6.243335586232975354e-01,0.000000000000000000e+00
1.473000000000000000e+03,-4.791378196396018918e-01,0.000000000000000000e+00
1.474000000000000000e+03,-4.679154585106651276e-01,0.000000000000000000e+00
1.475000000000000000e+03,-4.222615542249498755e-01,0.000000000000000000e+00
1.476000000000000000e+03,-3.522152126503588776e-01,0.000000000000000000e+00
1.477000000000000000e+03,-3.577655200160770321e-01,0.000000000000000000e+00
1.478000000000000000e+03,-1.060412218351940022e-01,0.000000000000000000e+00
1.479000000000000000e+03,-1.044978372005388872e-01,0.000000000000000000e+00
1.480000000000000000e+03,-1.417984787582050044e-01,0.000000000000000000e+00
1.481000000000000000e+03,-5.264083242747634597e-05,0.000000000000000000e+00
1.482000000000000000e+03,-2.453979360672996213e-02,0.000000000000000000e+00
1.483000000000000000e+03,1.666539819589810678e-01,0.000000000000000000e+00
1.484000000000000000e+03,-1.531086551170942334e-01,0.000000000000000000e+00
1.485000000000000000e+03,1.667714938616178255e-01,0.000000000000000000e+00
1.486000000000000000e+03,-1.777447049427669235e-01,0.000000000000000000e+00
1.487000000000000000e+03,8.312831458205872937e-02,0.000000000000000000e+00
1.488000000000000000e+03,-8.448726159297205440e-02,0.000000000000000000e+00
1.489000000000000000e+03,2.155410413166589656e-01,0.000000000000000000e+00
1.490000000000000000e+03,3.802850167958166105e-02,0.000000000000000000e+00
1.491000000000000000e+03,1.829292769158190335e-01,0.000000000000000000e+00
1.492000000000000000e+03,2.379836027290473111e-01,0.000000000000000000e+00
1.493000000000000000e+03,8.399018776729240410e-02,0.000000000000000000e+00
1.494000000000000000e+03,1.546633442623948640e-01,0.000000000000000000e+00
1.495000000000000000e+03,1.623362490201657182e-01,0.000000000000000000e+00
1.496000000000000000e+03,2.714596400219091987e-01,0.000000000000000000e+00
1.497000000000000000e+03,2.425668650124398473e-01,0.000000000000000000e+00
1.498000000000000000e+03,1.307833621960920734e-01,0.000000000000000000e+00
1.499000000000000000e+03,2.730269109993130883e-01,0.000000000000000000e+00
1.500000000000000000e+03,2.023972246740604330e-01,0.000000000000000000e+00
1.501000000000000000e+03,3.130209932907118131e-01,0.000000000000000000e+00
1.502000000000000000e+03,5.898577652717722497e-01,0.000000000000000000e+00
1.503000000000000000e+03,5.806514576690885443e-01,0.000000000000000000e+00
1.504000000000000000e+03,5.647648038340303822e-01,0.000000000000000000e+00
1.505000000000000000e+03,1.896994093246769097e-01,0.000000000000000000e+00
1.506000000000000000e+03,-6.842441314044285516e-02,0.000000000000000000e+00
1.507000000000000000e+03,1.418684295398384664e-02,0.000000000000000000e+00
1.508000000000000000e+03,-1.362965568640567837e-01,0.000000000000000000e+00
1.509000000000000000e+03,-2.464201183590337615e-02,0.000000000000000000e+00
1.510000000000000000e+03,-4.675852518008424830e-01,0.000000000000000000e+00
1.511000000000000000e+03,1.276598990849563409e+00,0.000000000000000000e+00
1.512000000000000000e+03,6.750307058183007136e+00,0.000000000000000000e+00
1.513000000000000000e+03,1.831904424605466319e+00,1.000000000000000000e+00
1.514000000000000000e+03,-6.509276374724787262e-01,0.000000000000000000e+00
1.515000000000000000e+03,-1.007673191649305799e+00,0.000000000000000000e+00
1.516000000000000000e+03,-1.329064429330897523e+00,0.000000000000000000e+00
1.517000000000000000e+03,-1.346797600237631620e+00,0.000000000000000000e+00
1.518000000000000000e+03,-1.274387090570777481e+00,0.000000000000000000e+00
1.519000000000000000e+03,-9.534411748173727830e-01,0.000000000000000000e+00
1.520000000000000000e+03,-7.832250939464170392e-01,0.000000000000000000e+00
1.521000000000000000e+03,-8.061044396303863602e-01,0.000000000000000000e+00
1.522000000000000000e+03,-7.169584242486529702e-01,0.000000000000000000e+00
1.523000000000000000e+03,-4.535228206150952457e-01,0.000000000000000000e+00
1.524000000000000000e+03,-3.388730001096785793e-01,0.000000000000000000e+00
1.525000000000000000e+03,2.464326450693370141e-02,0.000000000000000000e+00
1.526000000000000000e+03,9.246083575400111665e-02,0.000000000000000000e+00
1.527000000000000000e+03,3.752179235235609811e-01,0.000000000000000000e+00
1.528000000000000000e+03,6.114472916203663733e-01,0.000000000000000000e+00
1.529000000000000000e+03,4.975356109650046488e-01,0.000000000000000000e+00
1.530000000000000000e+03,2.379950640354089320e-01,0.000000000000000000e+00
1.531000000000000000e+03,-2.086615154047228027e-01,0.000000000000000000e+00
1.532000000000000000e+03,-5.460256638752153391e-01,0.000000000000000000e+00
1.533000000000000000e+03,-6.611838967153289559e-01,0.000000000000000000e+00
1.534000000000000000e+03,-5.893463945331048892e-01,0.000000000000000000e+00
1.535000000000000000e+03,-5.981856869325604675e-01,0.000000000000000000e+00
1.536000000000000000e+03,-4.304522375470841711e-01,0.000000000000000000e+00
1.537000000000000000e+03,-6.804336125026049231e-01,0.000000000000000000e+00
1.538000000000000000e+03,-2.704632998153341239e-01,0.000000000000000000e+00
1.539000000000000000e+03,-3.251599568566015952e-01,0.000000000000000000e+00
1.540000000000000000e+03,-3.746106554869563787e-01,0.000000000000000000e+00
1.541000000000000000e+03,-1.616678340210506437e-01,0.000000000000000000e+00
1.542000000000000000e+03,-2.204179716252682997e-01,0.000000000000000000e+00
1.543000000000000000e+03,4.334641076085402056e-03,0.000000000000000000e+00
1.544000000000000000e+03,-5.681187356562204804e-02,0.000000000000000000e+00
1.545000000000000000e+03,5.593027677264704456e-02,0.000000000000000000e+00
1.546000000000000000e+03,5.093903139922592582e-02,0.000000000000000000e+00
1.547000000000000000e+03,6.960249454177801220e-02,0.000000000000000000e+00
1.548000000000000000e+03,1.368212468399016557e-01,0.000000000000000000e+00
1.549000000000000000e+03,1.081803347795837894e-01,0.000000000000000000e+00
1.550000000000000000e+03,3.554850660299567477e-02,0.000000000000000000e+00
1.551000000000000000e+03,1.312341119453412919e-01,0.000000000000000000e+00
1.552000000000000000e+03,-1.471333466088522481e-02,0.000000000000000000e+00
1.553000000000000000e+03,1.767652743032625817e-01,0.000000000000000000e+00
1.554000000000000000e+03,2.901762828792532958e-02,0.000000000000000000e+00
1.555000000000000000e+03,2.252902788953370650e-01,0.000000000000000000e+00
1.556000000000000000e+03,1.228848777501661965e-01,0.000000000000000000e+00
1.557000000000000000e+03,1.869922566212869619e-01,0.000000000000000000e+00
1.558000000000000000e+03,1.673631480724994680e-01,0.000000000000000000e+00
1.559000000000000000e+03,2.053614113454374224e-01,0.000000000000000000e+00
1.560000000000000000e+03,5.169526945897684640e-03,0.000000000000000000e+00
1.561000000000000000e+03,3.327061933374176328e-01,0.000000000000000000e+00
1.562000000000000000e+03,1.750531246610990965e-01,0.000000000000000000e+00
1.563000000000000000e+03,8.322168427422013681e-02,0.000000000000000000e+00
1.564000000000000000e+03,2.115141793900543465e-01,0.000000000000000000e+00
1.565000000000000000e+03,3.133283560474314222e-01,0.000000000000000000e+00
1.566000000000000000e+03,4.504141296012714735e-01,0.000000000000000000e+00
1.567000000000000000e+03,4.815301047846761162e-01,0.000000000000000000e+00
1.568000000000000000e+03,6.050951632326453389e-01,0.000000000000000000e+00
1.569000000000000000e+03,1.931171404434426087e-01,0.000000000000000000e+00
1.570000000000000000e+03,2.007368475339034730e-01,0.000000000000000000e+00
1.571000000000000000e+03,-2.152797267274844384e-01,0.000000000000000000e+00
1.572000000000000000e+03,1.014592083556305063e-01,0.000000000000000000e+00
1.573000000000000000e+03,-4.190727035603509787e-01,0.000000000000000000e+00
1.574000000000000000e+03,1.971230517418904871e-01,0.000000000000000000e+00
1.575000000000000000e+03,-8.965760722170699193e-01,0.000000000000000000e+00
1.576000000000000000e+03,3.664784831444409807e+00,0.000000000000000000e+00
1.577000000000000000e+03,6.042545233395534510e+00,0.000000000000000000e+00
1.578000000000000000e+03,-1.497740609384262400e-01,1.000000000000000000e+00
1.579000000000000000e+03,-6.975181116432462858e-01,0.000000000000000000e+00
1.580000000000000000e+03,-1.483990615983152406e+00,0.000000000000000000e+00
1.581000000000000000e+03,-1.369272568857361039e+00,0.000000000000000000e+00
1.582000000000000000e+03,-1.486099537509433688e+00,0.000000000000000000e+00
1.583000000000000000e+03,-1.062344491799998014e+00,0.000000000000000000e+00
1.584000000000000000e+03,-1.226526285709957476e+00,0.000000000000000000e+00
1.585000000000000000e+03,-9.049747823434238780e-01,0.000000000000000000e+00
1.586000000000000000e+03,-7.525533194372679979e-01,0.000000000000000000e+00
1.587000000000000000e+03,-5.612665415978546068e-01,0.000000000000000000e+00
1.588000000000000000e+03,-6.263728089321538572e-01,0.000000000000000000e+00
