timestamp,ecg_measurement,qrs_detected
0.000000000000000000e+00,3.582782204683448435e-01,0.000000000000000000e+00
1.000000000000000000e+00,2.106808477490780263e-01,0.000000000000000000e+00
2.000000000000000000e+00,-2.029233823790775951e-02,0.000000000000000000e+00
3.000000000000000000e+00,3.782508214459181506e-01,0.000000000000000000e+00
4.000000000000000000e+00,2.417487447760695574e-01,0.000000000000000000e+00
5.000000000000000000e+00,1.735353108283900492e-01,0.000000000000000000e+00
6.000000000000000000e+00,5.496957544309853949e-01,0.000000000000000000e+00
7.000000000000000000e+00,4.651402528184392926e-01,0.000000000000000000e+00
8.000000000000000000e+00,4.349089658033451489e-01,0.000000000000000000e+00
9.000000000000000000e+00,-5.307466778563123266e-02,0.000000000000000000e+00
1.000000000000000000e+01,-3.763849556325435941e-01,0.000000000000000000e+00
1.100000000000000000e+01,-1.919835317597151925e-01,0.000000000000000000e+00
1.200000000000000000e+01,1.466639246220100348e-02,0.000000000000000000e+00
1.300000000000000000e+01,2.395964962349059202e-01,0.000000000000000000e+00
1.400000000000000000e+01,4.373143790805297471e+00,0.000000000000000000e+00
1.500000000000000000e+01,1.898086148183780075e+00,1.000000000000000000e+00
1.600000000000000000e+01,-1.377671344767072426e-01,0.000000000000000000e+00
1.700000000000000000e+01,-4.019007822906040528e-01,0.000000000000000000e+00
1.800000000000000000e+01,-6.517896636285377410e-01,0.000000000000000000e+00
1.900000000000000000e+01,-1.195457120665989859e+00,0.000000000000000000e+00
2.000000000000000000e+01,-4.785401926550524876e-01,0.000000000000000000e+00
2.100000000000000000e+01,-7.061624951803838757e-01,0.000000000000000000e+00
2.200000000000000000e+01,-3.540195988374834069e-01,0.000000000000000000e+00
2.300000000000000000e+01,-6.271964792404651767e-01,0.000000000000000000e+00
2.400000000000000000e+01,-1.135282477010341046e-01,0.000000000000000000e+00
2.500000000000000000e+01,-6.141285928756291812e-02,0.000000000000000000e+00
2.600000000000000000e+01,3.398656727439293423e-02,0.000000000000000000e+00
2.700000000000000000e+01,2.180557580709255039e-01,0.000000000000000000e+00
2.800000000000000000e+01,5.709924298570518975e-01,0.000000000000000000e+00
2.900000000000000000e+01,4.724811169733121319e-01,0.000000000000000000e+00
3.000000000000000000e+01,8.946562888371135669e-01,0.000000000000000000e+00
3.100000000000000000e+01,3.196205994898917990e-01,0.000000000000000000e+00
3.200000000000000000e+01,-2.380351879804832038e-01,0.000000000000000000e+00
3.300000000000000000e+01,-1.124416704356535845e+00,0.000000000000000000e+00
3.400000000000000000e+01,-1.845970826409153887e+00,0.000000000000000000e+00
3.500000000000000000e+01,-1.626716623338391621e+00,0.000000000000000000e+00
3.600000000000000000e+01,-1.718669538874001423e+00,0.000000000000000000e+00
3.700000000000000000e+01,-1.563047600077776877e+00,0.000000000000000000e+00
3.800000000000000000e+01,-1.265564734678648717e+00,0.000000000000000000e+00
3.900000000000000000e+01,-1.349999645524779801e+00,0.000000000000000000e+00
4.000000000000000000e+01,-9.381891187869988435e-01,0.000000000000000000e+00
4.100000000000000000e+01,-6.979811240682447515e-01,0.000000000000000000e+00
4.200000000000000000e+01,-5.013680135051689080e-01,0.000000000000000000e+00
4.300000000000000000e+01,-4.244108325324377762e-01,0.000000000000000000e+00
4.400000000000000000e+01,-2.453471653687672865e-02,0.000000000000000000e+00
4.500000000000000000e+01,-5.034675465679916417e-02,0.000000000000000000e+00
4.600000000000000000e+01,1.684562187641748185e-02,0.000000000000000000e+00
4.700000000000000000e+01,2.299200248094975252e-01,0.000000000000000000e+00
4.800000000000000000e+01,4.028274943947344200e-01,0.000000000000000000e+00
4.900000000000000000e+01,7.642623367028486547e-02,0.000000000000000000e+00
5.000000000000000000e+01,7.137417952047789838e-01,0.000000000000000000e+00
5.100000000000000000e+01,4.964644736973404249e-01,0.000000000000000000e+00
5.200000000000000000e+01,8.267690877778952618e-01,0.000000000000000000e+00
5.300000000000000000e+01,6.010751870509405403e-01,0.000000000000000000e+00
5.400000000000000000e+01,6.703366982217663361e-01,0.000000000000000000e+00
5.500000000000000000e+01,7.147456278249929573e-01,0.000000000000000000e+00
5.600000000000000000e+01,6.688394136989980199e-01,0.000000000000000000e+00
5.700000000000000000e+01,8.901723360022443243e-01,0.000000000000000000e+00
5.800000000000000000e+01,5.403649045220706437e-01,0.000000000000000000e+00
5.900000000000000000e+01,9.829983116275485822e-01,0.000000000000000000e+00
6.000000000000000000e+01,5.939728669398796068e-01,0.000000000000000000e+00
6.100000000000000000e+01,4.906057496990674505e-01,0.000000000000000000e+00
6.200000000000000000e+01,4.218648697960606930e-01,0.000000000000000000e+00
6.300000000000000000e+01,6.247914252081500086e-01,0.000000000000000000e+00
6.400000000000000000e+01,6.943367060907646993e-01,0.000000000000000000e+00
6.500000000000000000e+01,7.006274163581287517e-01,0.000000000000000000e+00
6.600000000000000000e+01,1.211663033615556273e+00,0.000000000000000000e+00
6.700000000000000000e+01,7.371767096162448185e-01,0.000000000000000000e+00
6.800000000000000000e+01,8.808547387601047829e-01,0.000000000000000000e+00
6.900000000000000000e+01,6.070812505415946747e-01,0.000000000000000000e+00
7.000000000000000000e+01,1.545574724301100322e-01,0.000000000000000000e+00
7.100000000000000000e+01,-4.684323952394720547e-01,0.000000000000000000e+00
7.200000000000000000e+01,2.246116106661120715e-01,0.000000000000000000e+00
7.300000000000000000e+01,-6.389455861914646873e-01,0.000000000000000000e+00
7.400000000000000000e+01,2.757941052272990134e+00,0.000000000000000000e+00
7.500000000000000000e+01,3.648519097667466404e+00,0.000000000000000000e+00
7.600000000000000000e+01,1.772937953070058414e-01,1.000000000000000000e+00
7.700000000000000000e+01,-3.860856722670399921e-02,0.000000000000000000e+00
7.800000000000000000e+01,-1.344374067619762192e+00,0.000000000000000000e+00
7.900000000000000000e+01,-7.325069758458175873e-01,0.000000000000000000e+00
8.000000000000000000e+01,-1.547424665513103204e+00,0.000000000000000000e+00
8.100000000000000000e+01,-4.815039446629044706e-01,0.000000000000000000e+00
8.200000000000000000e+01,-1.325397888558730974e+00,0.000000000000000000e+00
8.300000000000000000e+01,-7.351080649862881122e-01,0.000000000000000000e+00
8.400000000000000000e+01,-5.573138813804943137e-01,0.000000000000000000e+00
8.500000000000000000e+01,-5.338320646381721213e-01,0.000000000000000000e+00
8.600000000000000000e+01,-7.389995976088061802e-01,0.000000000000000000e+00
8.700000000000000000e+01,5.185770894962612454e-01,0.000000000000000000e+00
8.800000000000000000e+01,2.539812721469887347e-01,0.000000000000000000e+00
8.900000000000000000e+01,3.890615860510900914e-01,0.000000000000000000e+00
9.000000000000000000e+01,5.680652300786449560e-01,0.000000000000000000e+00
9.100000000000000000e+01,6.983186277726858293e-01,0.000000000000000000e+00
9.200000000000000000e+01,1.769479007067883414e-01,0.000000000000000000e+00
9.300000000000000000e+01,-3.258769879450441054e-01,0.000000000000000000e+00
9.400000000000000000e+01,-1.555817016210518267e+00,0.000000000000000000e+00
9.500000000000000000e+01,-1.860693642504750001e+00,0.000000000000000000e+00
9.600000000000000000e+01,-1.555535279670871684e+00,0.000000000000000000e+00
9.700000000000000000e+01,-1.708707415957460674e+00,0.000000000000000000e+00
9.800000000000000000e+01,-1.849348659211424328e+00,0.000000000000000000e+00
9.900000000000000000e+01,-1.357382366169886279e+00,0.000000000000000000e+00
1.000000000000000000e+02,-1.664012172793274624e+00,0.000000000000000000e+00
1.010000000000000000e+02,-8.809098466145808271e-01,0.000000000000000000e+00
1.020000000000000000e+02,-8.564882095178318888e-01,0.000000000000000000e+00
1.030000000000000000e+02,-8.524993493792086818e-01,0.000000000000000000e+00
1.040000000000000000e+02,-8.861729447157838946e-01,0.000000000000000000e+00
1.050000000000000000e+02,-5.206534819021424454e-01,0.000000000000000000e+00
1.060000000000000000e+02,-7.219470454595150466e-01,0.000000000000000000e+00
1.070000000000000000e+02,-2.741636325325040868e-01,0.000000000000000000e+00
1.080000000000000000e+02,-8.859130794906742989e-02,0.000000000000000000e+00
1.090000000000000000e+02,1.107595711351547045e-02,0.000000000000000000e+00
1.100000000000000000e+02,-2.344008276841005600e-01,0.000000000000000000e+00
1.110000000000000000e+02,1.011448721522147376e-01,0.000000000000000000e+00
1.120000000000000000e+02,5.583851787871809552e-02,0.000000000000000000e+00
1.130000000000000000e+02,1.765874992896330486e-01,0.000000000000000000e+00
1.140000000000000000e+02,2.064503256105535423e-01,0.000000000000000000e+00
1.150000000000000000e+02,3.248509668936078176e-01,0.000000000000000000e+00
1.160000000000000000e+02,-4.681533351139891691e-02,0.000000000000000000e+00
1.170000000000000000e+02,4.052878113893102485e-01,0.000000000000000000e+00
1.180000000000000000e+02,4.550753525892654028e-01,0.000000000000000000e+00
1.190000000000000000e+02,3.306214313944992322e-01,0.000000000000000000e+00
1.200000000000000000e+02,5.911427855364382866e-01,0.000000000000000000e+00
1.210000000000000000e+02,2.085556385217588460e-01,0.000000000000000000e+00
1.220000000000000000e+02,3.497152225344618004e-01,0.000000000000000000e+00
1.230000000000000000e+02,1.010839205044664402e+00,0.000000000000000000e+00
1.240000000000000000e+02,3.711200966435003190e-01,0.000000000000000000e+00
1.250000000000000000e+02,9.671653359603118449e-01,0.000000000000000000e+00
1.260000000000000000e+02,8.646388940599086803e-01,0.000000000000000000e+00
1.270000000000000000e+02,1.154515397823564715e+00,0.000000000000000000e+00
1.280000000000000000e+02,8.575582470671712088e-01,0.000000000000000000e+00
1.290000000000000000e+02,2.282314652892849793e-01,0.000000000000000000e+00
1.300000000000000000e+02,-2.164326273416017354e-01,0.000000000000000000e+00
1.310000000000000000e+02,2.603043102483771909e-01,0.000000000000000000e+00
1.320000000000000000e+02,-1.609245677059099044e-01,0.000000000000000000e+00
1.330000000000000000e+02,2.308313085673118881e+00,0.000000000000000000e+00
1.340000000000000000e+02,4.138797433478628385e+00,0.000000000000000000e+00
1.350000000000000000e+02,5.179643138400763513e-01,1.000000000000000000e+00
1.360000000000000000e+02,4.336340983048559972e-01,0.000000000000000000e+00
1.370000000000000000e+02,-3.815085834339138615e-01,0.000000000000000000e+00
1.380000000000000000e+02,-7.977798933723995178e-01,0.000000000000000000e+00
1.390000000000000000e+02,-3.892104252438058909e-01,0.000000000000000000e+00
1.400000000000000000e+02,-2.889392046971283601e-01,0.000000000000000000e+00
1.410000000000000000e+02,-1.793072433182821279e-01,0.000000000000000000e+00
1.420000000000000000e+02,-2.813513358527045538e-01,0.000000000000000000e+00
1.430000000000000000e+02,-3.051715516263824313e-01,0.000000000000000000e+00
1.440000000000000000e+02,6.435408692415758858e-02,0.000000000000000000e+00
1.450000000000000000e+02,-7.364832681129843128e-02,0.000000000000000000e+00
1.460000000000000000e+02,5.498100136595369669e-01,0.000000000000000000e+00
1.470000000000000000e+02,8.393034442525548755e-01,0.000000000000000000e+00
1.480000000000000000e+02,9.666892728347616925e-01,0.000000000000000000e+00
1.490000000000000000e+02,1.087691039480930266e+00,0.000000000000000000e+00
1.500000000000000000e+02,1.167081582622300440e+00,0.000000000000000000e+00
1.510000000000000000e+02,1.009221466462797645e+00,0.000000000000000000e+00
1.520000000000000000e+02,-1.675042799675126870e-01,0.000000000000000000e+00
1.530000000000000000e+02,-2.550602636055427364e-01,0.000000000000000000e+00
1.540000000000000000e+02,-9.893054213444083533e-01,0.000000000000000000e+00
1.550000000000000000e+02,-1.791865851394392140e+00,0.000000000000000000e+00
1.560000000000000000e+02,-1.139708302293669595e+00,0.000000000000000000e+00
1.570000000000000000e+02,-1.193259179676536164e+00,0.000000000000000000e+00
1.580000000000000000e+02,-1.000785015518982357e+00,0.000000000000000000e+00
1.590000000000000000e+02,-9.218919589079915822e-01,0.000000000000000000e+00
1.600000000000000000e+02,-8.830681826254042077e-01,0.000000000000000000e+00
1.610000000000000000e+02,-7.711164277250815990e-01,0.000000000000000000e+00
1.620000000000000000e+02,-1.021790587289582275e+00,0.000000000000000000e+00
1.630000000000000000e+02,-2.879711804864696911e-01,0.000000000000000000e+00
1.640000000000000000e+02,-3.879756205022488746e-01,0.000000000000000000e+00
1.650000000000000000e+02,-3.641934581962100737e-01,0.000000000000000000e+00
1.660000000000000000e+02,-3.626642617558798465e-01,0.000000000000000000e+00
1.670000000000000000e+02,-2.580084794913288238e-01,0.000000000000000000e+00
1.680000000000000000e+02,-3.695279100331689826e-01,0.000000000000000000e+00
1.690000000000000000e+02,8.735235848071351561e-02,0.000000000000000000e+00
1.700000000000000000e+02,-9.325974986311925952e-02,0.000000000000000000e+00
1.710000000000000000e+02,-7.086199549953402510e-01,0.000000000000000000e+00
1.720000000000000000e+02,2.467727376053373833e-01,0.000000000000000000e+00
1.730000000000000000e+02,-2.517650721383757340e-01,0.000000000000000000e+00
1.740000000000000000e+02,8.879200723862826217e-02,0.000000000000000000e+00
1.750000000000000000e+02,-6.445377614780009590e-02,0.000000000000000000e+00
1.760000000000000000e+02,-1.337876169467229525e-03,0.000000000000000000e+00
1.770000000000000000e+02,2.209398480124651065e-01,0.000000000000000000e+00
1.780000000000000000e+02,3.217810920325939739e-01,0.000000000000000000e+00
1.790000000000000000e+02,-5.489590403028021814e-01,0.000000000000000000e+00
1.800000000000000000e+02,3.857235163426468993e-01,0.000000000000000000e+00
1.810000000000000000e+02,2.523016948855348329e-01,0.000000000000000000e+00
1.820000000000000000e+02,7.335255712726022059e-01,0.000000000000000000e+00
1.830000000000000000e+02,3.647450311578948612e-01,0.000000000000000000e+00
1.840000000000000000e+02,1.127953980985344273e+00,0.000000000000000000e+00
1.850000000000000000e+02,-6.232471757823079828e-02,0.000000000000000000e+00
1.860000000000000000e+02,-2.370998085901830643e-01,0.000000000000000000e+00
1.870000000000000000e+02,-1.256101417025252132e-01,0.000000000000000000e+00
1.880000000000000000e+02,2.911454978243042113e-01,0.000000000000000000e+00
1.890000000000000000e+02,-4.420312179969046462e-01,0.000000000000000000e+00
1.900000000000000000e+02,3.154619827614618899e+00,0.000000000000000000e+00
1.910000000000000000e+02,2.858828876178870271e+00,1.000000000000000000e+00
1.920000000000000000e+02,2.128772692601584027e-01,0.000000000000000000e+00
1.930000000000000000e+02,2.325683145441644062e-01,0.000000000000000000e+00
1.940000000000000000e+02,-6.839317102584034913e-01,0.000000000000000000e+00
1.950000000000000000e+02,-1.661304066396663004e-01,0.000000000000000000e+00
1.960000000000000000e+02,-8.552206367324965974e-01,0.000000000000000000e+00
1.970000000000000000e+02,-8.412537939369698625e-01,0.000000000000000000e+00
1.980000000000000000e+02,-1.838721358319986843e-01,0.000000000000000000e+00
1.990000000000000000e+02,2.798525457282771689e-02,0.000000000000000000e+00
2.000000000000000000e+02,-4.734868473665657107e-01,0.000000000000000000e+00
2.010000000000000000e+02,-1.510700555433039383e-01,0.000000000000000000e+00
2.020000000000000000e+02,1.772107094654975512e-01,0.000000000000000000e+00
2.030000000000000000e+02,2.108926629637288830e-01,0.000000000000000000e+00
2.040000000000000000e+02,6.878308459930251306e-01,0.000000000000000000e+00
2.050000000000000000e+02,1.234651912437729093e+00,0.000000000000000000e+00
2.060000000000000000e+02,3.622969886689285657e-01,0.000000000000000000e+00
2.070000000000000000e+02,1.216151851003911988e+00,0.000000000000000000e+00
2.080000000000000000e+02,6.325336390588925939e-01,0.000000000000000000e+00
2.090000000000000000e+02,-1.878488620868612735e-01,0.000000000000000000e+00
2.100000000000000000e+02,-7.605366490220405451e-01,0.000000000000000000e+00
2.110000000000000000e+02,-8.899624362373652620e-01,0.000000000000000000e+00
2.120000000000000000e+02,-1.217726601286738486e+00,0.000000000000000000e+00
2.130000000000000000e+02,-9.339338457174641839e-01,0.000000000000000000e+00
2.140000000000000000e+02,-1.259208117930750159e+00,0.000000000000000000e+00
2.150000000000000000e+02,-1.100579704743020137e+00,0.000000000000000000e+00
2.160000000000000000e+02,-5.480635827392250636e-01,0.000000000000000000e+00
2.170000000000000000e+02,-4.593567014704121876e-01,0.000000000000000000e+00
2.180000000000000000e+02,-3.804063403382318409e-01,0.000000000000000000e+00
2.190000000000000000e+02,-3.147422458585485416e-01,0.000000000000000000e+00
2.200000000000000000e+02,-3.466117678929488966e-01,0.000000000000000000e+00
2.210000000000000000e+02,-1.190265063584803468e-01,0.000000000000000000e+00
2.220000000000000000e+02,-9.525540573236022934e-02,0.000000000000000000e+00
2.230000000000000000e+02,7.783604277569343421e-02,0.000000000000000000e+00
2.240000000000000000e+02,2.123219517721545643e-02,0.000000000000000000e+00
2.250000000000000000e+02,-1.304047115858961992e-01,0.000000000000000000e+00
2.260000000000000000e+02,2.283621730631090960e-02,0.000000000000000000e+00
2.270000000000000000e+02,-1.532495435993851962e-01,0.000000000000000000e+00
2.280000000000000000e+02,8.445751094555233041e-02,0.000000000000000000e+00
2.290000000000000000e+02,-7.508019082179777197e-03,0.000000000000000000e+00
2.300000000000000000e+02,-1.959371815381871426e-02,0.000000000000000000e+00
2.310000000000000000e+02,4.005349670304048093e-02,0.000000000000000000e+00
2.320000000000000000e+02,1.494395835678800910e-01,0.000000000000000000e+00
2.330000000000000000e+02,-7.566961950661919845e-02,0.000000000000000000e+00
2.340000000000000000e+02,-1.166733253149592892e-01,0.000000000000000000e+00
2.350000000000000000e+02,-3.770443746424492065e-02,0.000000000000000000e+00
2.360000000000000000e+02,-9.143452422221533260e-02,0.000000000000000000e+00
2.370000000000000000e+02,-1.961561181710276547e-01,0.000000000000000000e+00
2.380000000000000000e+02,6.731966327161270983e-03,0.000000000000000000e+00
2.390000000000000000e+02,-2.875451628358522416e-01,0.000000000000000000e+00
2.400000000000000000e+02,3.188105715000180140e-01,0.000000000000000000e+00
2.410000000000000000e+02,2.206705529662097709e-01,0.000000000000000000e+00
2.420000000000000000e+02,4.047570491614021493e-01,0.000000000000000000e+00
2.430000000000000000e+02,3.781732102001937323e-01,0.000000000000000000e+00
2.440000000000000000e+02,4.345748632332520067e-01,0.000000000000000000e+00
2.450000000000000000e+02,-2.773280719943243752e-02,0.000000000000000000e+00
2.460000000000000000e+02,-4.518396489392733084e-01,0.000000000000000000e+00
2.470000000000000000e+02,4.859245437078366786e-02,0.000000000000000000e+00
2.480000000000000000e+02,-1.526652396962951963e-01,0.000000000000000000e+00
2.490000000000000000e+02,2.049789925588700434e+00,0.000000000000000000e+00
2.500000000000000000e+02,4.395551147130344560e+00,0.000000000000000000e+00
2.510000000000000000e+02,5.959711577865425269e-01,1.000000000000000000e+00
2.520000000000000000e+02,4.400259483917832726e-01,0.000000000000000000e+00
2.530000000000000000e+02,-7.149100681354837450e-01,0.000000000000000000e+00
2.540000000000000000e+02,-4.215662294169587043e-01,0.000000000000000000e+00
2.550000000000000000e+02,-2.785877934498512398e-01,0.000000000000000000e+00
2.560000000000000000e+02,-6.113740198193734487e-01,0.000000000000000000e+00
2.570000000000000000e+02,-4.006359225504226851e-01,0.000000000000000000e+00
2.580000000000000000e+02,3.728310623743377739e-02,0.000000000000000000e+00
2.590000000000000000e+02,1.425516941395753301e-01,0.000000000000000000e+00
2.600000000000000000e+02,5.665656587445067061e-02,0.000000000000000000e+00
2.610000000000000000e+02,4.078575900606243310e-01,0.000000000000000000e+00
2.620000000000000000e+02,1.063842624565298073e-01,0.000000000000000000e+00
2.630000000000000000e+02,5.206026778554392331e-01,0.000000000000000000e+00
2.640000000000000000e+02,1.117921652773546271e+00,0.000000000000000000e+00
2.650000000000000000e+02,1.256205458358729432e+00,0.000000000000000000e+00
2.660000000000000000e+02,1.287904215209721315e+00,0.000000000000000000e+00
2.670000000000000000e+02,8.807794978517934359e-01,0.000000000000000000e+00
2.680000000000000000e+02,1.549647694050577118e-01,0.000000000000000000e+00
2.690000000000000000e+02,-5.511216975703493448e-01,0.000000000000000000e+00
2.700000000000000000e+02,-1.230884969842630072e+00,0.000000000000000000e+00
2.710000000000000000e+02,-9.417641290798454135e-01,0.000000000000000000e+00
2.720000000000000000e+02,-1.215091004483886072e+00,0.000000000000000000e+00
2.730000000000000000e+02,-1.259437549051071858e+00,0.000000000000000000e+00
2.740000000000000000e+02,-7.992718376432242922e-01,0.000000000000000000e+00
2.750000000000000000e+02,-9.944064857919412415e-01,0.000000000000000000e+00
2.760000000000000000e+02,-5.762982562045744217e-01,0.000000000000000000e+00
2.770000000000000000e+02,-7.856494631466253153e-01,0.000000000000000000e+00
2.780000000000000000e+02,-7.045595980697811900e-01,0.000000000000000000e+00
2.790000000000000000e+02,-9.757939085303375670e-02,0.000000000000000000e+00
2.800000000000000000e+02,-5.232870647299633360e-01,0.000000000000000000e+00
2.810000000000000000e+02,-2.323804357619460026e-01,0.000000000000000000e+00
2.820000000000000000e+02,-1.290460640456767560e-01,0.000000000000000000e+00
2.830000000000000000e+02,-1.021937483517664363e-01,0.000000000000000000e+00
2.840000000000000000e+02,-1.685432636022717867e-01,0.000000000000000000e+00
2.850000000000000000e+02,-4.548221431115155866e-01,0.000000000000000000e+00
2.860000000000000000e+02,-3.426080480682555662e-02,0.000000000000000000e+00
2.870000000000000000e+02,1.167589933881911096e-01,0.000000000000000000e+00
2.880000000000000000e+02,-1.775820119187781487e-01,0.000000000000000000e+00
2.890000000000000000e+02,-3.356515725187665944e-01,0.000000000000000000e+00
2.900000000000000000e+02,-1.842056256776732071e-02,0.000000000000000000e+00
2.910000000000000000e+02,-2.656099050168170828e-01,0.000000000000000000e+00
2.920000000000000000e+02,-3.680653440554780831e-01,0.000000000000000000e+00
2.930000000000000000e+02,1.707916624990347410e-01,0.000000000000000000e+00
2.940000000000000000e+02,1.741579888598086268e-01,0.000000000000000000e+00
2.950000000000000000e+02,-5.064672117746796959e-02,0.000000000000000000e+00
2.960000000000000000e+02,-1.777017884088659058e-02,0.000000000000000000e+00
2.970000000000000000e+02,-2.238027940490390777e-01,0.000000000000000000e+00
2.980000000000000000e+02,-6.709701404180413997e-02,0.000000000000000000e+00
2.990000000000000000e+02,-1.389603103678524743e-01,0.000000000000000000e+00
3.000000000000000000e+02,5.602545678107161420e-01,0.000000000000000000e+00
3.010000000000000000e+02,5.170347896270329757e-01,0.000000000000000000e+00
3.020000000000000000e+02,4.830057895966269887e-01,0.000000000000000000e+00
3.030000000000000000e+02,4.293014919168959276e-01,0.000000000000000000e+00
3.040000000000000000e+02,6.837696426831371688e-02,0.000000000000000000e+00
3.050000000000000000e+02,-2.588937062782905030e-01,0.000000000000000000e+00
3.060000000000000000e+02,-4.874681691332495848e-01,0.000000000000000000e+00
3.070000000000000000e+02,-7.636659797515408382e-03,0.000000000000000000e+00
3.080000000000000000e+02,4.115012534683327727e-01,0.000000000000000000e+00
3.090000000000000000e+02,4.143056870241980327e+00,0.000000000000000000e+00
3.100000000000000000e+02,2.076049135167035153e+00,1.000000000000000000e+00
3.110000000000000000e+02,1.574193378210698435e-01,0.000000000000000000e+00
3.120000000000000000e+02,-3.671699173944653061e-01,0.000000000000000000e+00
3.130000000000000000e+02,-8.994056926333544588e-01,0.000000000000000000e+00
3.140000000000000000e+02,-6.617271163169515802e-01,0.000000000000000000e+00
3.150000000000000000e+02,-7.991747824083282881e-01,0.000000000000000000e+00
3.160000000000000000e+02,-6.814971277528998339e-01,0.000000000000000000e+00
3.170000000000000000e+02,-5.011536693236938733e-01,0.000000000000000000e+00
3.180000000000000000e+02,-1.782232762767666512e-01,0.000000000000000000e+00
3.190000000000000000e+02,-1.253505827293248942e-01,0.000000000000000000e+00
3.200000000000000000e+02,-1.407344784328056209e-01,0.000000000000000000e+00
3.210000000000000000e+02,-7.499448236989679495e-02,0.000000000000000000e+00
3.220000000000000000e+02,4.161030573944803357e-01,0.000000000000000000e+00
3.230000000000000000e+02,5.638010696593489524e-01,0.000000000000000000e+00
3.240000000000000000e+02,1.344984841613470206e+00,0.000000000000000000e+00
3.250000000000000000e+02,1.114772067445084280e+00,0.000000000000000000e+00
3.260000000000000000e+02,1.506617227909766266e+00,0.000000000000000000e+00
3.270000000000000000e+02,4.482440001714612099e-01,0.000000000000000000e+00
3.280000000000000000e+02,-5.967865334939428390e-01,0.000000000000000000e+00
3.290000000000000000e+02,-1.187250265444113273e+00,0.000000000000000000e+00
3.300000000000000000e+02,-1.032453967942741135e+00,0.000000000000000000e+00
3.310000000000000000e+02,-1.766341735408796243e+00,0.000000000000000000e+00
3.320000000000000000e+02,-1.456550385022098215e+00,0.000000000000000000e+00
3.330000000000000000e+02,-1.423683962847393403e+00,0.000000000000000000e+00
3.340000000000000000e+02,-1.124523308410827482e+00,0.000000000000000000e+00
3.350000000000000000e+02,-1.318255800763042718e+00,0.000000000000000000e+00
3.360000000000000000e+02,-3.715482792968322068e-01,0.000000000000000000e+00
3.370000000000000000e+02,-9.749514290995324739e-01,0.000000000000000000e+00
3.380000000000000000e+02,-4.970245438444333974e-01,0.000000000000000000e+00
3.390000000000000000e+02,-6.015060233819200519e-01,0.000000000000000000e+00
3.400000000000000000e+02,-4.509912378673039957e-01,0.000000000000000000e+00
3.410000000000000000e+02,-6.871740687397698277e-01,0.000000000000000000e+00
3.420000000000000000e+02,-1.530847831579953966e-01,0.000000000000000000e+00
3.430000000000000000e+02,9.621569387510645055e-03,0.000000000000000000e+00
3.440000000000000000e+02,-4.308984303326083287e-01,0.000000000000000000e+00
3.450000000000000000e+02,8.226226932091504351e-02,0.000000000000000000e+00
3.460000000000000000e+02,-3.736078455651664076e-01,0.000000000000000000e+00
3.470000000000000000e+02,-3.085038936238111984e-01,0.000000000000000000e+00
3.480000000000000000e+02,1.952568028675535639e-01,0.000000000000000000e+00
3.490000000000000000e+02,7.784609467695578766e-02,0.000000000000000000e+00
3.500000000000000000e+02,-3.119466439806141134e-01,0.000000000000000000e+00
3.510000000000000000e+02,4.782822449051219449e-01,0.000000000000000000e+00
3.520000000000000000e+02,9.843593698080420340e-02,0.000000000000000000e+00
3.530000000000000000e+02,3.638666368662527711e-02,0.000000000000000000e+00
3.540000000000000000e+02,4.356338409289735036e-01,0.000000000000000000e+00
3.550000000000000000e+02,2.272824201099374608e-01,0.000000000000000000e+00
3.560000000000000000e+02,5.075125849701609404e-01,0.000000000000000000e+00
3.570000000000000000e+02,2.113888290181628327e-01,0.000000000000000000e+00
3.580000000000000000e+02,4.011358935879870136e-01,0.000000000000000000e+00
3.590000000000000000e+02,4.221730591740623928e-01,0.000000000000000000e+00
3.600000000000000000e+02,4.697843129064582790e-02,0.000000000000000000e+00
3.610000000000000000e+02,9.354808327516139776e-01,0.000000000000000000e+00
3.620000000000000000e+02,1.206026940929814772e+00,0.000000000000000000e+00
3.630000000000000000e+02,8.517575783357528296e-01,0.000000000000000000e+00
3.640000000000000000e+02,8.815425227336792791e-01,0.000000000000000000e+00
3.650000000000000000e+02,8.271569285719044817e-01,0.000000000000000000e+00
3.660000000000000000e+02,-1.603128552932288342e-01,0.000000000000000000e+00
3.670000000000000000e+02,3.309409448051683911e-02,0.000000000000000000e+00
3.680000000000000000e+02,2.158919436481403498e-01,0.000000000000000000e+00
3.690000000000000000e+02,-2.572369050499912629e-02,0.000000000000000000e+00
3.700000000000000000e+02,2.598724036767077195e+00,0.000000000000000000e+00
3.710000000000000000e+02,3.911025058385084741e+00,0.000000000000000000e+00
3.720000000000000000e+02,6.479700319846258827e-01,1.000000000000000000e+00
3.730000000000000000e+02,3.616772868992622625e-01,0.000000000000000000e+00
3.740000000000000000e+02,-5.855905281453743783e-01,0.000000000000000000e+00
3.750000000000000000e+02,-2.749242009042470736e-01,0.000000000000000000e+00
3.760000000000000000e+02,-8.920353168714411085e-01,0.000000000000000000e+00
3.770000000000000000e+02,-3.443663825129957279e-01,0.000000000000000000e+00
3.780000000000000000e+02,-3.082770799068890177e-01,0.000000000000000000e+00
3.790000000000000000e+02,-4.294138602473290822e-01,0.000000000000000000e+00
3.800000000000000000e+02,-9.114213539455814916e-02,0.000000000000000000e+00
3.810000000000000000e+02,2.872736831353832621e-01,0.000000000000000000e+00
3.820000000000000000e+02,1.118113585300861863e-02,0.000000000000000000e+00
3.830000000000000000e+02,3.409293785728518267e-01,0.000000000000000000e+00
3.840000000000000000e+02,9.459624641526466204e-01,0.000000000000000000e+00
3.850000000000000000e+02,6.537080870345617356e-01,0.000000000000000000e+00
3.860000000000000000e+02,6.947197057379890239e-01,0.000000000000000000e+00
3.870000000000000000e+02,1.392409932009271323e+00,0.000000000000000000e+00
3.880000000000000000e+02,7.113947803422840943e-01,0.000000000000000000e+00
3.890000000000000000e+02,-2.813048864299496493e-02,0.000000000000000000e+00
3.900000000000000000e+02,-1.195005479585879327e+00,0.000000000000000000e+00
3.910000000000000000e+02,-1.507592955702888649e+00,0.000000000000000000e+00
3.920000000000000000e+02,-1.218581753935236156e+00,0.000000000000000000e+00
3.930000000000000000e+02,-1.638024255384493699e+00,0.000000000000000000e+00
3.940000000000000000e+02,-1.441150686896500277e+00,0.000000000000000000e+00
3.950000000000000000e+02,-8.791421486258577112e-01,0.000000000000000000e+00
3.960000000000000000e+02,-8.439568550467612118e-01,0.000000000000000000e+00
3.970000000000000000e+02,-9.713435164896813134e-01,0.000000000000000000e+00
3.980000000000000000e+02,-5.073234330223380661e-01,0.000000000000000000e+00
3.990000000000000000e+02,-3.345564074633071150e-01,0.000000000000000000e+00
4.000000000000000000e+02,-3.105318511753145660e-01,0.000000000000000000e+00
4.010000000000000000e+02,-3.918661749772752723e-01,0.000000000000000000e+00
4.020000000000000000e+02,-8.342071155094017698e-02,0.000000000000000000e+00
4.030000000000000000e+02,1.663920855318712644e-01,0.000000000000000000e+00
4.040000000000000000e+02,2.384369112054349898e-02,0.000000000000000000e+00
4.050000000000000000e+02,2.677016361895570018e-01,0.000000000000000000e+00
4.060000000000000000e+02,-3.412241001411848718e-01,0.000000000000000000e+00
4.070000000000000000e+02,2.189172810076526476e-01,0.000000000000000000e+00
4.080000000000000000e+02,-6.022800848762955780e-03,0.000000000000000000e+00
4.090000000000000000e+02,5.439197627050418316e-01,0.000000000000000000e+00
4.100000000000000000e+02,2.631409895240461871e-01,0.000000000000000000e+00
4.110000000000000000e+02,1.441964584048918696e-01,0.000000000000000000e+00
4.120000000000000000e+02,2.048242126281201170e-01,0.000000000000000000e+00
4.130000000000000000e+02,-2.118914809817792344e-01,0.000000000000000000e+00
4.140000000000000000e+02,8.536314932914648157e-01,0.000000000000000000e+00
4.150000000000000000e+02,3.151956511295793684e-01,0.000000000000000000e+00
4.160000000000000000e+02,1.908600464151198051e-01,0.000000000000000000e+00
4.170000000000000000e+02,2.913864702521307692e-01,0.000000000000000000e+00
4.180000000000000000e+02,-1.361937603352148807e-01,0.000000000000000000e+00
4.190000000000000000e+02,3.616002168613748763e-02,0.000000000000000000e+00
4.200000000000000000e+02,7.284316431840924810e-01,0.000000000000000000e+00
4.210000000000000000e+02,8.136805687503132489e-01,0.000000000000000000e+00
4.220000000000000000e+02,5.076240945870447163e-01,0.000000000000000000e+00
4.230000000000000000e+02,7.656623582493248259e-01,0.000000000000000000e+00
4.240000000000000000e+02,1.711961742141284160e-01,0.000000000000000000e+00
4.250000000000000000e+02,1.235826137294309679e-01,0.000000000000000000e+00
4.260000000000000000e+02,-4.563811498907484054e-01,0.000000000000000000e+00
4.270000000000000000e+02,2.391979855290795598e-01,0.000000000000000000e+00
4.280000000000000000e+02,-6.428441108626691269e-01,0.000000000000000000e+00
4.290000000000000000e+02,1.890295153797216354e+00,0.000000000000000000e+00
4.300000000000000000e+02,3.777551030356494088e+00,0.000000000000000000e+00
4.310000000000000000e+02,-5.230387769446268043e-02,1.000000000000000000e+00
4.320000000000000000e+02,2.389252169230774436e-01,0.000000000000000000e+00
4.330000000000000000e+02,-6.645697145659040794e-01,0.000000000000000000e+00
4.340000000000000000e+02,-8.194803181441139284e-01,0.000000000000000000e+00
4.350000000000000000e+02,-3.604008510750222882e-01,0.000000000000000000e+00
4.360000000000000000e+02,-1.346104444735120254e+00,0.000000000000000000e+00
4.370000000000000000e+02,-6.058667451625939782e-01,0.000000000000000000e+00
4.380000000000000000e+02,-2.791364682893948124e-01,0.000000000000000000e+00
4.390000000000000000e+02,-4.915380043542109112e-01,0.000000000000000000e+00
4.400000000000000000e+02,-8.150663744223897444e-02,0.000000000000000000e+00
4.410000000000000000e+02,-3.689716530319618326e-01,0.000000000000000000e+00
4.420000000000000000e+02,1.348618309836140672e-01,0.000000000000000000e+00
4.430000000000000000e+02,4.421076659528691000e-01,0.000000000000000000e+00
4.440000000000000000e+02,4.243600156162188886e-01,0.000000000000000000e+00
4.450000000000000000e+02,7.845751732959278524e-01,0.000000000000000000e+00
4.460000000000000000e+02,9.070460409429335069e-01,0.000000000000000000e+00
4.470000000000000000e+02,5.167596799729252677e-01,0.000000000000000000e+00
4.480000000000000000e+02,-6.181596893899250766e-02,0.000000000000000000e+00
4.490000000000000000e+02,-9.128988761665778329e-01,0.000000000000000000e+00
4.500000000000000000e+02,-1.308370956097605786e+00,0.000000000000000000e+00
4.510000000000000000e+02,-1.940935684219627699e+00,0.000000000000000000e+00
4.520000000000000000e+02,-1.713213849362648755e+00,0.000000000000000000e+00
4.530000000000000000e+02,-1.084803042802537476e+00,0.000000000000000000e+00
4.540000000000000000e+02,-1.680021832032548845e+00,0.000000000000000000e+00
4.550000000000000000e+02,-9.035679451427889308e-01,0.000000000000000000e+00
4.560000000000000000e+02,-1.083225646996012426e+00,0.000000000000000000e+00
4.570000000000000000e+02,-1.268502740245769589e+00,0.000000000000000000e+00
4.580000000000000000e+02,-5.186149649801483630e-01,0.000000000000000000e+00
4.590000000000000000e+02,-8.175254015361903548e-01,0.000000000000000000e+00
4.600000000000000000e+02,-8.572903242020319947e-01,0.000000000000000000e+00
4.610000000000000000e+02,-3.818957735915458618e-01,0.000000000000000000e+00
4.620000000000000000e+02,-5.402043212002328731e-01,0.000000000000000000e+00
4.630000000000000000e+02,-5.442286811328016505e-01,0.000000000000000000e+00
4.640000000000000000e+02,-5.019718578833544109e-01,0.000000000000000000e+00
4.650000000000000000e+02,-6.667901298763166951e-01,0.000000000000000000e+00
4.660000000000000000e+02,2.096535958650439790e-01,0.000000000000000000e+00
4.670000000000000000e+02,-6.257866667155453921e-01,0.000000000000000000e+00
4.680000000000000000e+02,1.059586832930105860e-01,0.000000000000000000e+00
4.690000000000000000e+02,-1.466059831362258870e-01,0.000000000000000000e+00
4.700000000000000000e+02,1.933063616224979797e-01,0.000000000000000000e+00
4.710000000000000000e+02,5.498062803573550150e-02,0.000000000000000000e+00
4.720000000000000000e+02,5.212454208878558592e-01,0.000000000000000000e+00
4.730000000000000000e+02,1.843550637626255873e-01,0.000000000000000000e+00
4.740000000000000000e+02,1.764360807805947506e-01,0.000000000000000000e+00
4.750000000000000000e+02,5.705152130859151294e-01,0.000000000000000000e+00
4.760000000000000000e+02,3.320456370696440729e-01,0.000000000000000000e+00
4.770000000000000000e+02,5.638462074532788471e-01,0.000000000000000000e+00
4.780000000000000000e+02,6.097324594620446847e-01,0.000000000000000000e+00
4.790000000000000000e+02,8.552938384282909867e-01,0.000000000000000000e+00
4.800000000000000000e+02,3.548271864526533204e-01,0.000000000000000000e+00
4.810000000000000000e+02,1.497991136433845405e+00,0.000000000000000000e+00
4.820000000000000000e+02,9.558962416865390832e-01,0.000000000000000000e+00
4.830000000000000000e+02,9.544432009165334518e-01,0.000000000000000000e+00
4.840000000000000000e+02,8.282325994960079152e-01,0.000000000000000000e+00
4.850000000000000000e+02,-2.989037175493130527e-01,0.000000000000000000e+00
4.860000000000000000e+02,4.792089948714038372e-01,0.000000000000000000e+00
4.870000000000000000e+02,7.184304174801228737e-02,0.000000000000000000e+00
4.880000000000000000e+02,2.061692022070775288e+00,0.000000000000000000e+00
4.890000000000000000e+02,4.291270857565079311e+00,0.000000000000000000e+00
4.900000000000000000e+02,1.410820025971427638e+00,1.000000000000000000e+00
4.910000000000000000e+02,6.073865365438305686e-01,0.000000000000000000e+00
4.920000000000000000e+02,-6.895360046030767354e-01,0.000000000000000000e+00
4.930000000000000000e+02,-7.796118974945029922e-01,0.000000000000000000e+00
4.940000000000000000e+02,-6.905497585172557518e-01,0.000000000000000000e+00
4.950000000000000000e+02,-8.528180953662517494e-01,0.000000000000000000e+00
4.960000000000000000e+02,-6.794500334972939370e-01,0.000000000000000000e+00
4.970000000000000000e+02,-4.664172479083555367e-01,0.000000000000000000e+00
4.980000000000000000e+02,-6.770452948524076087e-01,0.000000000000000000e+00
4.990000000000000000e+02,1.468837967051995208e-01,0.000000000000000000e+00
5.000000000000000000e+02,-7.653175377895100884e-02,0.000000000000000000e+00
5.010000000000000000e+02,5.579118054919927072e-01,0.000000000000000000e+00
5.020000000000000000e+02,7.291789681921757582e-01,0.000000000000000000e+00
5.030000000000000000e+02,7.747614636146793465e-01,0.000000000000000000e+00
5.040000000000000000e+02,1.099497411856423579e+00,0.000000000000000000e+00
5.050000000000000000e+02,1.303830175048761975e+00,0.000000000000000000e+00
5.060000000000000000e+02,1.055741842436711542e+00,0.000000000000000000e+00
5.070000000000000000e+02,2.071328301199565070e-01,0.000000000000000000e+00
5.080000000000000000e+02,-2.463824759098041106e-01,0.000000000000000000e+00
5.090000000000000000e+02,-6.650014749164069316e-01,0.000000000000000000e+00
5.100000000000000000e+02,-1.117507238296648442e+00,0.000000000000000000e+00
5.110000000000000000e+02,-9.796883934231542801e-01,0.000000000000000000e+00
5.120000000000000000e+02,-1.088535528926278806e+00,0.000000000000000000e+00
5.130000000000000000e+02,-9.395405212095297998e-01,0.000000000000000000e+00
5.140000000000000000e+02,-4.041107157230571789e-01,0.000000000000000000e+00
5.150000000000000000e+02,-5.534962786181777394e-01,0.000000000000000000e+00
5.160000000000000000e+02,-4.414948903679212777e-01,0.000000000000000000e+00
5.170000000000000000e+02,-5.925144036212428578e-01,0.000000000000000000e+00
5.180000000000000000e+02,-4.278363935346985447e-01,0.000000000000000000e+00
5.190000000000000000e+02,-7.065148964835994416e-01,0.000000000000000000e+00
5.200000000000000000e+02,-1.753360413388721784e-01,0.000000000000000000e+00
5.210000000000000000e+02,2.533482700475946370e-01,0.000000000000000000e+00
5.220000000000000000e+02,-1.955172881841552857e-01,0.000000000000000000e+00
5.230000000000000000e+02,1.926911136096392738e-03,0.000000000000000000e+00
5.240000000000000000e+02,-7.715919091744791181e-02,0.000000000000000000e+00
5.250000000000000000e+02,-1.941040276451517499e-01,0.000000000000000000e+00
5.260000000000000000e+02,-1.141727387327621732e-02,0.000000000000000000e+00
5.270000000000000000e+02,-5.641381693804033322e-03,0.000000000000000000e+00
5.280000000000000000e+02,-2.620802710711073735e-01,0.000000000000000000e+00
5.290000000000000000e+02,4.882717666337277329e-02,0.000000000000000000e+00
5.300000000000000000e+02,-2.130390494699181403e-01,0.000000000000000000e+00
5.310000000000000000e+02,2.665224465032928203e-01,0.000000000000000000e+00
5.320000000000000000e+02,-2.495038312321312679e-01,0.000000000000000000e+00
5.330000000000000000e+02,-4.483879430982896652e-01,0.000000000000000000e+00
5.340000000000000000e+02,1.955232789610141519e-01,0.000000000000000000e+00
5.350000000000000000e+02,-3.955275215102892483e-01,0.000000000000000000e+00
5.360000000000000000e+02,-1.381964030288094780e-01,0.000000000000000000e+00
5.370000000000000000e+02,9.702162645207758340e-02,0.000000000000000000e+00
5.380000000000000000e+02,7.262374576602059761e-02,0.000000000000000000e+00
5.390000000000000000e+02,2.585670416528935457e-03,0.000000000000000000e+00
5.400000000000000000e+02,-1.894718992573201088e-01,0.000000000000000000e+00
5.410000000000000000e+02,4.450208963849807131e-01,0.000000000000000000e+00
5.420000000000000000e+02,3.232184708872316570e-01,0.000000000000000000e+00
5.430000000000000000e+02,2.128003014446067931e-01,0.000000000000000000e+00
5.440000000000000000e+02,9.084220971756630236e-01,0.000000000000000000e+00
5.450000000000000000e+02,2.347116648329533595e-01,0.000000000000000000e+00
5.460000000000000000e+02,-4.285131458896485057e-01,0.000000000000000000e+00
5.470000000000000000e+02,-1.348073785882190068e-01,0.000000000000000000e+00
5.480000000000000000e+02,-3.616718106246358810e-01,0.000000000000000000e+00
5.490000000000000000e+02,1.069850743278921490e+00,0.000000000000000000e+00
5.500000000000000000e+02,4.204436380721280564e+00,0.000000000000000000e+00
5.510000000000000000e+02,1.024184261215727254e+00,1.000000000000000000e+00
5.520000000000000000e+02,2.160647671703852246e-01,0.000000000000000000e+00
5.530000000000000000e+02,-9.977154736063020835e-01,0.000000000000000000e+00
5.540000000000000000e+02,-8.253506826012901865e-01,0.000000000000000000e+00
5.550000000000000000e+02,-8.010994481154819491e-01,0.000000000000000000e+00
5.560000000000000000e+02,-8.999472297628237083e-01,0.000000000000000000e+00
5.570000000000000000e+02,-9.913899164802872921e-01,0.000000000000000000e+00
5.580000000000000000e+02,-5.269743355643956573e-01,0.000000000000000000e+00
5.590000000000000000e+02,-4.869683828783022972e-01,0.000000000000000000e+00
5.600000000000000000e+02,-5.221196021458631709e-01,0.000000000000000000e+00
5.610000000000000000e+02,8.027420696585844950e-02,0.000000000000000000e+00
5.620000000000000000e+02,-6.836652149963098890e-02,0.000000000000000000e+00
5.630000000000000000e+02,8.566903355667560005e-01,0.000000000000000000e+00
5.640000000000000000e+02,3.609330832190845717e-01,0.000000000000000000e+00
5.650000000000000000e+02,1.371063538068097998e+00,0.000000000000000000e+00
5.660000000000000000e+02,9.703248852867614183e-01,0.000000000000000000e+00
5.670000000000000000e+02,8.857669508665759750e-01,0.000000000000000000e+00
5.680000000000000000e+02,2.634108648633335936e-01,0.000000000000000000e+00
5.690000000000000000e+02,-1.275327780841657710e-01,0.000000000000000000e+00
5.700000000000000000e+02,-1.441479120792612756e+00,0.000000000000000000e+00
5.710000000000000000e+02,-1.185989230950345918e+00,0.000000000000000000e+00
5.720000000000000000e+02,-1.235616053877457432e+00,0.000000000000000000e+00
5.730000000000000000e+02,-1.237756709916306264e+00,0.000000000000000000e+00
5.740000000000000000e+02,-6.702789168689159416e-01,0.000000000000000000e+00
5.750000000000000000e+02,-1.304406012489619737e+00,0.000000000000000000e+00
5.760000000000000000e+02,-7.729197031711926291e-01,0.000000000000000000e+00
5.770000000000000000e+02,-5.527604178060260276e-01,0.000000000000000000e+00
5.780000000000000000e+02,-4.965401221078220018e-01,0.000000000000000000e+00
5.790000000000000000e+02,-3.461818304668616286e-01,0.000000000000000000e+00
5.800000000000000000e+02,-3.961114265921951150e-01,0.000000000000000000e+00
5.810000000000000000e+02,1.033924641180490947e-02,0.000000000000000000e+00
5.820000000000000000e+02,-9.173830659256074216e-02,0.000000000000000000e+00
5.830000000000000000e+02,1.406990158969335936e-01,0.000000000000000000e+00
5.840000000000000000e+02,-3.347721228116638525e-01,0.000000000000000000e+00
5.850000000000000000e+02,5.260158389265365830e-01,0.000000000000000000e+00
5.860000000000000000e+02,-2.175947362267198482e-01,0.000000000000000000e+00
5.870000000000000000e+02,7.054334234769797651e-02,0.000000000000000000e+00
5.880000000000000000e+02,1.456309370928816349e-01,0.000000000000000000e+00
5.890000000000000000e+02,1.211228588500621317e-01,0.000000000000000000e+00
5.900000000000000000e+02,1.815324348719352665e-01,0.000000000000000000e+00
5.910000000000000000e+02,-1.886195946227975095e-01,0.000000000000000000e+00
5.920000000000000000e+02,3.667686271229845252e-01,0.000000000000000000e+00
5.930000000000000000e+02,1.613219624395651475e-01,0.000000000000000000e+00
5.940000000000000000e+02,2.860169731425880046e-01,0.000000000000000000e+00
5.950000000000000000e+02,-3.693206536906357834e-02,0.000000000000000000e+00
5.960000000000000000e+02,7.042354326088970939e-01,0.000000000000000000e+00
5.970000000000000000e+02,5.561378849586309575e-04,0.000000000000000000e+00
5.980000000000000000e+02,6.081544119815204263e-01,0.000000000000000000e+00
5.990000000000000000e+02,2.875106651748849940e-01,0.000000000000000000e+00
6.000000000000000000e+02,5.126461848295703616e-01,0.000000000000000000e+00
6.010000000000000000e+02,1.389401653420604676e-01,0.000000000000000000e+00
6.020000000000000000e+02,3.545392184882889541e-01,0.000000000000000000e+00
6.030000000000000000e+02,2.892063625865635701e-01,0.000000000000000000e+00
6.040000000000000000e+02,9.055433070634681947e-01,0.000000000000000000e+00
6.050000000000000000e+02,9.814706637212725626e-01,0.000000000000000000e+00
6.060000000000000000e+02,6.979965575522653065e-01,0.000000000000000000e+00
6.070000000000000000e+02,2.042935374325793307e-01,0.000000000000000000e+00
6.080000000000000000e+02,-2.777955125633038147e-01,0.000000000000000000e+00
6.090000000000000000e+02,-6.311985008760783167e-01,0.000000000000000000e+00
6.100000000000000000e+02,5.783983440375636276e-01,0.000000000000000000e+00
6.110000000000000000e+02,1.908713859278528269e-01,0.000000000000000000e+00
6.120000000000000000e+02,4.159596285530222204e+00,0.000000000000000000e+00
6.130000000000000000e+02,2.776787397453510220e+00,1.000000000000000000e+00
6.140000000000000000e+02,-2.409982894151157032e-02,0.000000000000000000e+00
6.150000000000000000e+02,-4.167516359711337937e-01,0.000000000000000000e+00
6.160000000000000000e+02,-8.746590977660044786e-01,0.000000000000000000e+00
6.170000000000000000e+02,-2.389202260587291460e-01,0.000000000000000000e+00
6.180000000000000000e+02,-8.920468826355117953e-01,0.000000000000000000e+00
6.190000000000000000e+02,-8.557335659377972581e-01,0.000000000000000000e+00
6.200000000000000000e+02,-4.313605460151225257e-01,0.000000000000000000e+00
6.210000000000000000e+02,-6.189341150535525582e-01,0.000000000000000000e+00
6.220000000000000000e+02,-4.777514564439873657e-01,0.000000000000000000e+00
6.230000000000000000e+02,3.166471070190304826e-01,0.000000000000000000e+00
6.240000000000000000e+02,-1.158396107214003101e-01,0.000000000000000000e+00
6.250000000000000000e+02,7.241790390779341280e-01,0.000000000000000000e+00
6.260000000000000000e+02,5.793970703200252981e-01,0.000000000000000000e+00
6.270000000000000000e+02,8.632406039230927641e-01,0.000000000000000000e+00
6.280000000000000000e+02,4.848981157232447603e-01,0.000000000000000000e+00
6.290000000000000000e+02,9.653823202628178946e-01,0.000000000000000000e+00
6.300000000000000000e+02,3.613275987206502338e-01,0.000000000000000000e+00
6.310000000000000000e+02,-5.016352256451993286e-02,0.000000000000000000e+00
6.320000000000000000e+02,-1.594854939798386440e+00,0.000000000000000000e+00
6.330000000000000000e+02,-1.433840515412563521e+00,0.000000000000000000e+00
6.340000000000000000e+02,-1.917317051272894979e+00,0.000000000000000000e+00
6.350000000000000000e+02,-2.228351982218943927e+00,0.000000000000000000e+00
6.360000000000000000e+02,-1.614101789381936269e+00,0.000000000000000000e+00
6.370000000000000000e+02,-1.675564846708101463e+00,0.000000000000000000e+00
6.380000000000000000e+02,-1.703332748498994187e+00,0.000000000000000000e+00
6.390000000000000000e+02,-1.036722925235515236e+00,0.000000000000000000e+00
6.400000000000000000e+02,-1.234331234588269988e+00,0.000000000000000000e+00
6.410000000000000000e+02,-1.341201910462765490e+00,0.000000000000000000e+00
6.420000000000000000e+02,-9.653881896757319225e-01,0.000000000000000000e+00
6.430000000000000000e+02,-4.794219365190483528e-01,0.000000000000000000e+00
6.440000000000000000e+02,-4.995039995646902709e-01,0.000000000000000000e+00
6.450000000000000000e+02,-4.190954249051946634e-02,0.000000000000000000e+00
6.460000000000000000e+02,-3.591504926641262974e-01,0.000000000000000000e+00
6.470000000000000000e+02,-4.124136489367952185e-02,0.000000000000000000e+00
6.480000000000000000e+02,-2.636546212581635049e-03,0.000000000000000000e+00
6.490000000000000000e+02,1.565847250026144166e-01,0.000000000000000000e+00
6.500000000000000000e+02,4.143395984782705099e-01,0.000000000000000000e+00
6.510000000000000000e+02,5.160744265865484515e-01,0.000000000000000000e+00
6.520000000000000000e+02,2.502852773177728918e-01,0.000000000000000000e+00
6.530000000000000000e+02,4.583253414469312670e-01,0.000000000000000000e+00
6.540000000000000000e+02,6.482915796953503396e-01,0.000000000000000000e+00
6.550000000000000000e+02,8.171719522599268926e-01,0.000000000000000000e+00
6.560000000000000000e+02,5.799004464341699361e-01,0.000000000000000000e+00
6.570000000000000000e+02,2.624680749059897233e-01,0.000000000000000000e+00
6.580000000000000000e+02,6.293643278176023204e-01,0.000000000000000000e+00
6.590000000000000000e+02,8.127505371504456511e-01,0.000000000000000000e+00
6.600000000000000000e+02,5.636061976319091116e-01,0.000000000000000000e+00
6.610000000000000000e+02,8.903016398895566841e-01,0.000000000000000000e+00
6.620000000000000000e+02,5.681530263428776761e-01,0.000000000000000000e+00
6.630000000000000000e+02,1.015823296254042107e+00,0.000000000000000000e+00
6.640000000000000000e+02,7.639473464471406849e-01,0.000000000000000000e+00
6.650000000000000000e+02,1.249545018132342644e+00,0.000000000000000000e+00
6.660000000000000000e+02,7.676474550873224612e-01,0.000000000000000000e+00
6.670000000000000000e+02,3.375351940023273989e-01,0.000000000000000000e+00
6.680000000000000000e+02,-1.203184776721491489e-01,0.000000000000000000e+00
6.690000000000000000e+02,4.398567472688826308e-01,0.000000000000000000e+00
6.700000000000000000e+02,-2.155697725005362719e-01,0.000000000000000000e+00
6.710000000000000000e+02,1.369456547436158411e+00,0.000000000000000000e+00
6.720000000000000000e+02,4.195964147758614260e+00,0.000000000000000000e+00
6.730000000000000000e+02,8.957914586870183715e-01,1.000000000000000000e+00
6.740000000000000000e+02,7.237485917184944828e-01,0.000000000000000000e+00
6.750000000000000000e+02,6.783540970083046240e-02,0.000000000000000000e+00
6.760000000000000000e+02,-8.502709929013803070e-01,0.000000000000000000e+00
6.770000000000000000e+02,-3.502721930634783432e-01,0.000000000000000000e+00
6.780000000000000000e+02,-2.801638230520114292e-01,0.000000000000000000e+00
6.790000000000000000e+02,-2.040993073401232150e-01,0.000000000000000000e+00
6.800000000000000000e+02,3.336810541420827392e-02,0.000000000000000000e+00
6.810000000000000000e+02,4.226812254572587940e-02,0.000000000000000000e+00
6.820000000000000000e+02,-2.179367964767364718e-01,0.000000000000000000e+00
6.830000000000000000e+02,2.850216038489749026e-01,0.000000000000000000e+00
6.840000000000000000e+02,9.473871027192583283e-02,0.000000000000000000e+00
6.850000000000000000e+02,6.636950740062357301e-01,0.000000000000000000e+00
6.860000000000000000e+02,1.028343325141728215e+00,0.000000000000000000e+00
6.870000000000000000e+02,6.515103695272831397e-01,0.000000000000000000e+00
6.880000000000000000e+02,1.344104036845234162e+00,0.000000000000000000e+00
6.890000000000000000e+02,8.523767600782885534e-01,0.000000000000000000e+00
6.900000000000000000e+02,3.995310484422144592e-02,0.000000000000000000e+00
6.910000000000000000e+02,-4.547887680529062449e-01,0.000000000000000000e+00
6.920000000000000000e+02,-1.362003418678078059e+00,0.000000000000000000e+00
6.930000000000000000e+02,-1.923944245397177788e+00,0.000000000000000000e+00
6.940000000000000000e+02,-1.682513244046154988e+00,0.000000000000000000e+00
6.950000000000000000e+02,-1.131750978088368775e+00,0.000000000000000000e+00
6.960000000000000000e+02,-1.551081968347631124e+00,0.000000000000000000e+00
6.970000000000000000e+02,-1.085654183110406956e+00,0.000000000000000000e+00
6.980000000000000000e+02,-1.381495999896109828e+00,0.000000000000000000e+00
6.990000000000000000e+02,-1.413580491132666150e+00,0.000000000000000000e+00
7.000000000000000000e+02,-1.170735379610381210e+00,0.000000000000000000e+00
7.010000000000000000e+02,-6.299648102702677388e-01,0.000000000000000000e+00
7.020000000000000000e+02,-1.019657347964710192e+00,0.000000000000000000e+00
7.030000000000000000e+02,-3.990381127908370074e-01,0.000000000000000000e+00
7.040000000000000000e+02,-6.175292621956602890e-01,0.000000000000000000e+00
7.050000000000000000e+02,-4.415984516415689676e-01,0.000000000000000000e+00
7.060000000000000000e+02,-5.947330048380816692e-01,0.000000000000000000e+00
7.070000000000000000e+02,-4.796720118153543488e-01,0.000000000000000000e+00
7.080000000000000000e+02,-9.941547645345719664e-01,0.000000000000000000e+00
7.090000000000000000e+02,-1.625861217569743999e-01,0.000000000000000000e+00
7.100000000000000000e+02,-2.757654261591789835e-01,0.000000000000000000e+00
7.110000000000000000e+02,-6.558554886089207336e-02,0.000000000000000000e+00
7.120000000000000000e+02,8.663979258720349436e-03,0.000000000000000000e+00
7.130000000000000000e+02,-2.079129384772065159e-01,0.000000000000000000e+00
7.140000000000000000e+02,-9.415793979255494828e-02,0.000000000000000000e+00
7.150000000000000000e+02,-5.279590017023974013e-01,0.000000000000000000e+00
7.160000000000000000e+02,4.517486845900524628e-01,0.000000000000000000e+00
7.170000000000000000e+02,-8.064455625386936222e-02,0.000000000000000000e+00
7.180000000000000000e+02,1.354232492195705240e-01,0.000000000000000000e+00
7.190000000000000000e+02,3.498648626685669227e-01,0.000000000000000000e+00
7.200000000000000000e+02,3.143624721462807137e-01,0.000000000000000000e+00
7.210000000000000000e+02,5.921212234004930020e-01,0.000000000000000000e+00
7.220000000000000000e+02,8.411066042937616061e-01,0.000000000000000000e+00
7.230000000000000000e+02,6.163866641071110708e-01,0.000000000000000000e+00
7.240000000000000000e+02,-3.372606806882650909e-01,0.000000000000000000e+00
7.250000000000000000e+02,-1.717468065597883564e-01,0.000000000000000000e+00
7.260000000000000000e+02,-1.753102156279770785e-01,0.000000000000000000e+00
7.270000000000000000e+02,-6.119660767316567052e-01,0.000000000000000000e+00
7.280000000000000000e+02,1.843067025262052683e+00,0.000000000000000000e+00
7.290000000000000000e+02,4.003952687633242746e+00,0.000000000000000000e+00
7.300000000000000000e+02,1.666327997010017548e-01,1.000000000000000000e+00
7.310000000000000000e+02,4.650201488046335485e-01,0.000000000000000000e+00
7.320000000000000000e+02,-7.094527486048527454e-01,0.000000000000000000e+00
7.330000000000000000e+02,-1.864869982169458373e-01,0.000000000000000000e+00
7.340000000000000000e+02,-9.258449797998149489e-01,0.000000000000000000e+00
7.350000000000000000e+02,-5.966113506579364678e-01,0.000000000000000000e+00
7.360000000000000000e+02,-4.455817965073152753e-01,0.000000000000000000e+00
7.370000000000000000e+02,2.387796917487175763e-01,0.000000000000000000e+00
7.380000000000000000e+02,5.001584757910697981e-02,0.000000000000000000e+00
7.390000000000000000e+02,3.251448240126251221e-01,0.000000000000000000e+00
7.400000000000000000e+02,1.068465103795929461e-01,0.000000000000000000e+00
7.410000000000000000e+02,2.421297109667240044e-01,0.000000000000000000e+00
7.420000000000000000e+02,8.028614007814949272e-01,0.000000000000000000e+00
7.430000000000000000e+02,1.299909873075219657e+00,0.000000000000000000e+00
7.440000000000000000e+02,1.184470756583287931e+00,0.000000000000000000e+00
7.450000000000000000e+02,1.454293372822833108e+00,0.000000000000000000e+00
7.460000000000000000e+02,8.015842126793725209e-01,0.000000000000000000e+00
7.470000000000000000e+02,4.010108381076073480e-01,0.000000000000000000e+00
7.480000000000000000e+02,-2.218632264032979473e-01,0.000000000000000000e+00
7.490000000000000000e+02,-6.982826260927800233e-01,0.000000000000000000e+00
7.500000000000000000e+02,-9.957974107683212894e-01,0.000000000000000000e+00
7.510000000000000000e+02,-8.037070769317128383e-01,0.000000000000000000e+00
7.520000000000000000e+02,-6.359315629240909207e-01,0.000000000000000000e+00
7.530000000000000000e+02,-6.080070994719356525e-01,0.000000000000000000e+00
7.540000000000000000e+02,-6.275083018026769155e-01,0.000000000000000000e+00
7.550000000000000000e+02,-3.549414041847407386e-01,0.000000000000000000e+00
7.560000000000000000e+02,-5.108581758809237483e-01,0.000000000000000000e+00
7.570000000000000000e+02,-1.741739572008379755e-01,0.000000000000000000e+00
7.580000000000000000e+02,-1.154618451200145196e-01,0.000000000000000000e+00
7.590000000000000000e+02,-1.993729505814328673e-01,0.000000000000000000e+00
7.600000000000000000e+02,-5.944425559709651946e-02,0.000000000000000000e+00
7.610000000000000000e+02,-1.140126276874035560e-01,0.000000000000000000e+00
7.620000000000000000e+02,-9.510993348686476098e-03,0.000000000000000000e+00
7.630000000000000000e+02,-1.741248843344753439e-01,0.000000000000000000e+00
7.640000000000000000e+02,-1.173426255032360560e-01,0.000000000000000000e+00
7.650000000000000000e+02,1.038892181129559417e-01,0.000000000000000000e+00
7.660000000000000000e+02,-2.629095238654144961e-01,0.000000000000000000e+00
7.670000000000000000e+02,5.700551257813150224e-02,0.000000000000000000e+00
7.680000000000000000e+02,1.270163038173336423e-01,0.000000000000000000e+00
7.690000000000000000e+02,1.201609449106511712e-01,0.000000000000000000e+00
7.700000000000000000e+02,-1.322944162128457390e-01,0.000000000000000000e+00
7.710000000000000000e+02,1.400877647353687694e-01,0.000000000000000000e+00
7.720000000000000000e+02,-1.833886578865726383e-02,0.000000000000000000e+00
7.730000000000000000e+02,6.975715071651611421e-02,0.000000000000000000e+00
7.740000000000000000e+02,2.602523252753520255e-01,0.000000000000000000e+00
7.750000000000000000e+02,2.997453587933055497e-01,0.000000000000000000e+00
7.760000000000000000e+02,2.214386673801085892e-01,0.000000000000000000e+00
7.770000000000000000e+02,1.316783962449629697e-01,0.000000000000000000e+00
7.780000000000000000e+02,-3.055208920495237068e-01,0.000000000000000000e+00
7.790000000000000000e+02,5.790510513960472894e-01,0.000000000000000000e+00
7.800000000000000000e+02,4.731161944700770228e-01,0.000000000000000000e+00
7.810000000000000000e+02,6.889497126622478040e-01,0.000000000000000000e+00
7.820000000000000000e+02,5.118597132217440615e-01,0.000000000000000000e+00
7.830000000000000000e+02,2.251942389160118019e+00,0.000000000000000000e+00
7.840000000000000000e+02,-3.815868135015956092e-02,0.000000000000000000e+00
7.850000000000000000e+02,-7.103896622649859438e+00,0.000000000000000000e+00
7.860000000000000000e+02,-6.375255214828700723e+00,1.000000000000000000e+00
7.870000000000000000e+02,-2.776236521903147736e+00,0.000000000000000000e+00
7.880000000000000000e+02,1.771348886651320287e+00,0.000000000000000000e+00
7.890000000000000000e+02,1.958856990163503120e+00,0.000000000000000000e+00
7.900000000000000000e+02,2.119719520571732740e+00,0.000000000000000000e+00
7.910000000000000000e+02,2.653849107460573009e+00,0.000000000000000000e+00
7.920000000000000000e+02,1.972254304115043544e+00,0.000000000000000000e+00
7.930000000000000000e+02,1.983363094450991015e+00,0.000000000000000000e+00
7.940000000000000000e+02,2.122080250983517047e+00,0.000000000000000000e+00
7.950000000000000000e+02,2.452982040774161376e+00,0.000000000000000000e+00
7.960000000000000000e+02,2.105840168848867489e+00,0.000000000000000000e+00
7.970000000000000000e+02,2.594775115209385419e+00,0.000000000000000000e+00
7.980000000000000000e+02,2.849330071524778241e+00,0.000000000000000000e+00
7.990000000000000000e+02,3.156663759696825444e+00,0.000000000000000000e+00
8.000000000000000000e+02,3.807999875260866585e+00,0.000000000000000000e+00
8.010000000000000000e+02,3.608515210375106363e+00,0.000000000000000000e+00
8.020000000000000000e+02,2.551438401170355252e+00,0.000000000000000000e+00
8.030000000000000000e+02,5.919677135173416760e-01,0.000000000000000000e+00
8.040000000000000000e+02,-1.685962126039522113e+00,0.000000000000000000e+00
8.050000000000000000e+02,-3.232681108792797797e+00,0.000000000000000000e+00
8.060000000000000000e+02,-3.574902649830158374e+00,0.000000000000000000e+00
8.070000000000000000e+02,-3.167322105170408353e+00,0.000000000000000000e+00
8.080000000000000000e+02,-2.875252000787959616e+00,0.000000000000000000e+00
8.090000000000000000e+02,-2.752867628704251501e+00,0.000000000000000000e+00
8.100000000000000000e+02,-2.413936765422621367e+00,0.000000000000000000e+00
8.110000000000000000e+02,-2.267345258296082022e+00,0.000000000000000000e+00
8.120000000000000000e+02,-2.077012740566944959e+00,0.000000000000000000e+00
8.130000000000000000e+02,-2.018661662069606955e+00,0.000000000000000000e+00
8.140000000000000000e+02,-1.912180126123785184e+00,0.000000000000000000e+00
8.150000000000000000e+02,-1.308312706592986041e+00,0.000000000000000000e+00
8.160000000000000000e+02,-1.590928010851113905e+00,0.000000000000000000e+00
8.170000000000000000e+02,-1.434911779119970143e+00,0.000000000000000000e+00
8.180000000000000000e+02,-1.455290707559090624e+00,0.000000000000000000e+00
8.190000000000000000e+02,-1.105888819652375288e+00,0.000000000000000000e+00
8.200000000000000000e+02,-1.292830177104808742e+00,0.000000000000000000e+00
8.210000000000000000e+02,-5.491663685219850821e-01,0.000000000000000000e+00
8.220000000000000000e+02,-1.072950315733164572e+00,0.000000000000000000e+00
8.230000000000000000e+02,-2.226805099260880105e-01,0.000000000000000000e+00
8.240000000000000000e+02,-4.166839548209054223e-01,0.000000000000000000e+00
8.250000000000000000e+02,-4.351329254594996088e-01,0.000000000000000000e+00
8.260000000000000000e+02,-1.377182234965311780e-01,0.000000000000000000e+00
8.270000000000000000e+02,1.610708518660501909e-01,0.000000000000000000e+00
8.280000000000000000e+02,-8.905225774759321922e-02,0.000000000000000000e+00
8.290000000000000000e+02,9.199504828173354909e-02,0.000000000000000000e+00
8.300000000000000000e+02,-2.866169606808231102e-02,0.000000000000000000e+00
8.310000000000000000e+02,3.790379825899322652e-01,0.000000000000000000e+00
8.320000000000000000e+02,4.765435231426181639e-01,0.000000000000000000e+00
8.330000000000000000e+02,1.086258820864881985e-01,0.000000000000000000e+00
8.340000000000000000e+02,4.684878006913113513e-01,0.000000000000000000e+00
8.350000000000000000e+02,4.975040857507700420e-01,0.000000000000000000e+00
8.360000000000000000e+02,8.545549483837104887e-01,0.000000000000000000e+00
8.370000000000000000e+02,8.250173004098942942e-01,0.000000000000000000e+00
8.380000000000000000e+02,5.254965203946558860e-01,0.000000000000000000e+00
8.390000000000000000e+02,9.379250883012401063e-01,0.000000000000000000e+00
8.400000000000000000e+02,9.697511932429673243e-01,0.000000000000000000e+00
8.410000000000000000e+02,1.168187561981025135e+00,0.000000000000000000e+00
8.420000000000000000e+02,9.575405401576321252e-01,0.000000000000000000e+00
8.430000000000000000e+02,1.219147505954474742e+00,0.000000000000000000e+00
8.440000000000000000e+02,8.481310739636929164e-01,0.000000000000000000e+00
8.450000000000000000e+02,6.135628944569176957e-02,0.000000000000000000e+00
8.460000000000000000e+02,5.394164653182860203e-01,0.000000000000000000e+00
8.470000000000000000e+02,2.374347518383746192e-01,0.000000000000000000e+00
8.480000000000000000e+02,1.305546675581621408e+00,0.000000000000000000e+00
8.490000000000000000e+02,4.716417746034921699e+00,0.000000000000000000e+00
8.500000000000000000e+02,1.858435045138655983e+00,1.000000000000000000e+00
8.510000000000000000e+02,5.799335967134937597e-01,0.000000000000000000e+00
8.520000000000000000e+02,-1.496342637223963511e-02,0.000000000000000000e+00
8.530000000000000000e+02,-4.682597586529183009e-01,0.000000000000000000e+00
8.540000000000000000e+02,-5.993198643947145188e-01,0.000000000000000000e+00
8.550000000000000000e+02,-6.286844327132654620e-01,0.000000000000000000e+00
8.560000000000000000e+02,-1.046442644857617094e-01,0.000000000000000000e+00
8.570000000000000000e+02,-3.894499901417755039e-01,0.000000000000000000e+00
8.580000000000000000e+02,2.626838373123177584e-02,0.000000000000000000e+00
8.590000000000000000e+02,5.528149708377493813e-04,0.000000000000000000e+00
8.600000000000000000e+02,2.822882804791140288e-01,0.000000000000000000e+00
8.610000000000000000e+02,2.186763740946612300e-01,0.000000000000000000e+00
8.620000000000000000e+02,8.212078504881596963e-01,0.000000000000000000e+00
8.630000000000000000e+02,8.271211527423479870e-01,0.000000000000000000e+00
8.640000000000000000e+02,1.182953282145583263e+00,0.000000000000000000e+00
8.650000000000000000e+02,7.595678780101067229e-01,0.000000000000000000e+00
8.660000000000000000e+02,1.267468159748966094e+00,0.000000000000000000e+00
8.670000000000000000e+02,6.382337930811726734e-01,0.000000000000000000e+00
8.680000000000000000e+02,-3.621504142197820020e-01,0.000000000000000000e+00
8.690000000000000000e+02,-8.559691221687419915e-01,0.000000000000000000e+00
8.700000000000000000e+02,-1.638182337379783249e+00,0.000000000000000000e+00
8.710000000000000000e+02,-1.246929548651437347e+00,0.000000000000000000e+00
8.720000000000000000e+02,-1.493065143406257844e+00,0.000000000000000000e+00
8.730000000000000000e+02,-1.498096213160998724e+00,0.000000000000000000e+00
8.740000000000000000e+02,-7.009799465631756377e-01,0.000000000000000000e+00
8.750000000000000000e+02,-1.169082880429976434e+00,0.000000000000000000e+00
8.760000000000000000e+02,-8.280359687499639909e-01,0.000000000000000000e+00
8.770000000000000000e+02,-7.714126534514967881e-01,0.000000000000000000e+00
8.780000000000000000e+02,-9.196721984724240961e-01,0.000000000000000000e+00
8.790000000000000000e+02,-3.133768451989464299e-01,0.000000000000000000e+00
8.800000000000000000e+02,-4.145619833681021271e-01,0.000000000000000000e+00
8.810000000000000000e+02,-8.005879658550361100e-01,0.000000000000000000e+00
8.820000000000000000e+02,-4.154039482224047286e-01,0.000000000000000000e+00
8.830000000000000000e+02,-3.344299171492511324e-01,0.000000000000000000e+00
8.840000000000000000e+02,-3.195785081835809116e-01,0.000000000000000000e+00
8.850000000000000000e+02,-2.915896858756741872e-01,0.000000000000000000e+00
8.860000000000000000e+02,-6.574903882583149617e-02,0.000000000000000000e+00
8.870000000000000000e+02,-2.866581458843215358e-01,0.000000000000000000e+00
8.880000000000000000e+02,-2.936668944207836418e-01,0.000000000000000000e+00
8.890000000000000000e+02,2.642606098806441484e-01,0.000000000000000000e+00
8.900000000000000000e+02,-2.595693200087573552e-02,0.000000000000000000e+00
8.910000000000000000e+02,1.985039765393963596e-01,0.000000000000000000e+00
8.920000000000000000e+02,-1.906209193714348271e-01,0.000000000000000000e+00
8.930000000000000000e+02,4.380257664550898933e-01,0.000000000000000000e+00
8.940000000000000000e+02,-2.141596607195319635e-01,0.000000000000000000e+00
8.950000000000000000e+02,-1.752681656109439726e-02,0.000000000000000000e+00
8.960000000000000000e+02,3.359874497561976536e-01,0.000000000000000000e+00
8.970000000000000000e+02,5.346839901635498382e-01,0.000000000000000000e+00
8.980000000000000000e+02,7.050426391906909618e-02,0.000000000000000000e+00
8.990000000000000000e+02,5.110705932851902222e-01,0.000000000000000000e+00
9.000000000000000000e+02,6.674510416945422797e-01,0.000000000000000000e+00
9.010000000000000000e+02,9.967535731400648524e-01,0.000000000000000000e+00
9.020000000000000000e+02,6.407991396702380493e-01,0.000000000000000000e+00
9.030000000000000000e+02,8.410754789989832725e-01,0.000000000000000000e+00
9.040000000000000000e+02,1.975710840447194791e-02,0.000000000000000000e+00
9.050000000000000000e+02,1.538242877700363720e-01,0.000000000000000000e+00
9.060000000000000000e+02,-2.795894299341878386e-01,0.000000000000000000e+00
9.070000000000000000e+02,5.701389583778626591e-02,0.000000000000000000e+00
9.080000000000000000e+02,3.978020642285627906e-01,0.000000000000000000e+00
9.090000000000000000e+02,3.827326022224302626e+00,0.000000000000000000e+00
9.100000000000000000e+02,1.712587836848390888e+00,1.000000000000000000e+00
9.110000000000000000e+02,3.571600850281077544e-01,0.000000000000000000e+00
9.120000000000000000e+02,-1.928341461117944744e-01,0.000000000000000000e+00
9.130000000000000000e+02,-9.215217495575250828e-01,0.000000000000000000e+00
9.140000000000000000e+02,-3.656626931774131783e-01,0.000000000000000000e+00
9.150000000000000000e+02,-1.012628888825487961e+00,0.000000000000000000e+00
9.160000000000000000e+02,-6.513818897105851935e-01,0.000000000000000000e+00
9.170000000000000000e+02,-7.006248345770647035e-01,0.000000000000000000e+00
9.180000000000000000e+02,-3.063051494918857531e-01,0.000000000000000000e+00
9.190000000000000000e+02,-1.884312892227135994e-01,0.000000000000000000e+00
9.200000000000000000e+02,-3.709728444759840538e-01,0.000000000000000000e+00
9.210000000000000000e+02,-3.603539553130385986e-02,0.000000000000000000e+00
9.220000000000000000e+02,4.912049313640289849e-01,0.000000000000000000e+00
9.230000000000000000e+02,4.551969383579407280e-01,0.000000000000000000e+00
9.240000000000000000e+02,8.718044163287463899e-01,0.000000000000000000e+00
9.250000000000000000e+02,9.830615769327089026e-01,0.000000000000000000e+00
9.260000000000000000e+02,3.670988992281933871e-01,0.000000000000000000e+00
9.270000000000000000e+02,1.737445416034152645e-01,0.000000000000000000e+00
9.280000000000000000e+02,-6.403489874604122445e-01,0.000000000000000000e+00
9.290000000000000000e+02,-1.078777651890837852e+00,0.000000000000000000e+00
9.300000000000000000e+02,-1.397107273971371688e+00,0.000000000000000000e+00
9.310000000000000000e+02,-1.659738342526423827e+00,0.000000000000000000e+00
9.320000000000000000e+02,-1.604217115092601675e+00,0.000000000000000000e+00
9.330000000000000000e+02,-1.246816146323443064e+00,0.000000000000000000e+00
9.340000000000000000e+02,-1.106764395808788715e+00,0.000000000000000000e+00
9.350000000000000000e+02,-1.145016063452386046e+00,0.000000000000000000e+00
9.360000000000000000e+02,-6.226643224670487253e-01,0.000000000000000000e+00
9.370000000000000000e+02,-3.925050201153660323e-01,0.000000000000000000e+00
9.380000000000000000e+02,-2.017894232126229981e-01,0.000000000000000000e+00
9.390000000000000000e+02,-4.160808677424960855e-01,0.000000000000000000e+00
9.400000000000000000e+02,-5.838046519440647231e-01,0.000000000000000000e+00
9.410000000000000000e+02,-5.144108736943207860e-02,0.000000000000000000e+00
9.420000000000000000e+02,2.794561518061192129e-01,0.000000000000000000e+00
9.430000000000000000e+02,4.995211692859526376e-01,0.000000000000000000e+00
9.440000000000000000e+02,-2.358697207203312440e-01,0.000000000000000000e+00
9.450000000000000000e+02,2.622345129211642312e-01,0.000000000000000000e+00
9.460000000000000000e+02,-1.270388486872963685e-01,0.000000000000000000e+00
9.470000000000000000e+02,1.585506082829337415e-01,0.000000000000000000e+00
9.480000000000000000e+02,4.532178965112684810e-01,0.000000000000000000e+00
9.490000000000000000e+02,1.895585203869696866e-01,0.000000000000000000e+00
9.500000000000000000e+02,3.596875703662606033e-02,0.000000000000000000e+00
9.510000000000000000e+02,1.786134166316148131e-01,0.000000000000000000e+00
9.520000000000000000e+02,1.071497633560557355e-01,0.000000000000000000e+00
9.530000000000000000e+02,3.251861940881516921e-01,0.000000000000000000e+00
9.540000000000000000e+02,-3.629584019674520490e-01,0.000000000000000000e+00
9.550000000000000000e+02,4.284745672261943139e-01,0.000000000000000000e+00
9.560000000000000000e+02,3.148134187793595884e-01,0.000000000000000000e+00
9.570000000000000000e+02,-8.639853307536470017e-02,0.000000000000000000e+00
9.580000000000000000e+02,4.152776381858884758e-01,0.000000000000000000e+00
9.590000000000000000e+02,9.952197925831909320e-01,0.000000000000000000e+00
9.600000000000000000e+02,8.214302885419944023e-01,0.000000000000000000e+00
9.610000000000000000e+02,7.553618297534104853e-01,0.000000000000000000e+00
9.620000000000000000e+02,-4.728768090485659277e-03,0.000000000000000000e+00
9.630000000000000000e+02,-2.006145179928359723e-01,0.000000000000000000e+00
9.640000000000000000e+02,3.188638886457791088e-02,0.000000000000000000e+00
9.650000000000000000e+02,1.396118396939909911e-01,0.000000000000000000e+00
9.660000000000000000e+02,7.557770341086865740e-01,0.000000000000000000e+00
9.670000000000000000e+02,4.539883800810291525e+00,0.000000000000000000e+00
9.680000000000000000e+02,1.479802318109549431e+00,1.000000000000000000e+00
9.690000000000000000e+02,5.174257078944769495e-01,0.000000000000000000e+00
9.700000000000000000e+02,-2.931444026970238537e-01,0.000000000000000000e+00
9.710000000000000000e+02,-4.827799477577062182e-01,0.000000000000000000e+00
9.720000000000000000e+02,-4.610715962372555765e-01,0.000000000000000000e+00
9.730000000000000000e+02,-2.125316940586221767e-02,0.000000000000000000e+00
9.740000000000000000e+02,-5.727165743775757267e-01,0.000000000000000000e+00
9.750000000000000000e+02,-3.763003509188309059e-01,0.000000000000000000e+00
9.760000000000000000e+02,2.118840459380829516e-02,0.000000000000000000e+00
9.770000000000000000e+02,1.184877256428214926e-02,0.000000000000000000e+00
9.780000000000000000e+02,3.286206571860211811e-01,0.000000000000000000e+00
9.790000000000000000e+02,2.282341480020911584e-01,0.000000000000000000e+00
9.800000000000000000e+02,9.363295284583169620e-01,0.000000000000000000e+00
9.810000000000000000e+02,8.427026831907586946e-01,0.000000000000000000e+00
9.820000000000000000e+02,6.634299709679950530e-01,0.000000000000000000e+00
9.830000000000000000e+02,1.384262513866072464e+00,0.000000000000000000e+00
9.840000000000000000e+02,6.927914852035903515e-01,0.000000000000000000e+00
9.850000000000000000e+02,2.606446539209917868e-01,0.000000000000000000e+00
9.860000000000000000e+02,-5.660303872151127846e-01,0.000000000000000000e+00
9.870000000000000000e+02,-1.352285704549404555e+00,0.000000000000000000e+00
9.880000000000000000e+02,-1.464502080663187433e+00,0.000000000000000000e+00
9.890000000000000000e+02,-1.138297428190844229e+00,0.000000000000000000e+00
9.900000000000000000e+02,-1.412111829717799472e+00,0.000000000000000000e+00
9.910000000000000000e+02,-1.224874516984301165e+00,0.000000000000000000e+00
9.920000000000000000e+02,-1.088703849370512566e+00,0.000000000000000000e+00
9.930000000000000000e+02,-9.415799334826653322e-01,0.000000000000000000e+00
9.940000000000000000e+02,-1.099043818259687777e+00,0.000000000000000000e+00
9.950000000000000000e+02,-7.287805271840603893e-01,0.000000000000000000e+00
9.960000000000000000e+02,-2.811116830585108084e-01,0.000000000000000000e+00
9.970000000000000000e+02,-1.160126483526525698e+00,0.000000000000000000e+00
9.980000000000000000e+02,-1.787333955543685959e-01,0.000000000000000000e+00
9.990000000000000000e+02,-6.279490129238752827e-01,0.000000000000000000e+00
1.000000000000000000e+03,-4.817607265920045845e-01,0.000000000000000000e+00
1.001000000000000000e+03,-1.638986547509225233e-01,0.000000000000000000e+00
1.002000000000000000e+03,-2.462471155161278791e-01,0.000000000000000000e+00
1.003000000000000000e+03,-2.918890881371408730e-01,0.000000000000000000e+00
1.004000000000000000e+03,-4.551588151273321947e-01,0.000000000000000000e+00
1.005000000000000000e+03,1.510182483623938587e-01,0.000000000000000000e+00
1.006000000000000000e+03,-1.921399923998240722e-01,0.000000000000000000e+00
1.007000000000000000e+03,-3.326905879892452095e-02,0.000000000000000000e+00
1.008000000000000000e+03,-2.197027325111500506e-01,0.000000000000000000e+00
1.009000000000000000e+03,2.077314403417292177e-01,0.000000000000000000e+00
1.010000000000000000e+03,-4.168027709932384806e-01,0.000000000000000000e+00
1.011000000000000000e+03,7.550820383680744152e-01,0.000000000000000000e+00
1.012000000000000000e+03,-2.270209578382950122e-01,0.000000000000000000e+00
1.013000000000000000e+03,1.900959929526328807e-01,0.000000000000000000e+00
1.014000000000000000e+03,4.240985513403620621e-01,0.000000000000000000e+00
1.015000000000000000e+03,7.784225823690985591e-01,0.000000000000000000e+00
1.016000000000000000e+03,7.782109058236172938e-01,0.000000000000000000e+00
1.017000000000000000e+03,8.999381175624154849e-01,0.000000000000000000e+00
1.018000000000000000e+03,4.434593230496395866e-01,0.000000000000000000e+00
1.019000000000000000e+03,2.874298411134068587e-01,0.000000000000000000e+00
1.020000000000000000e+03,-6.466269359560843366e-01,0.000000000000000000e+00
1.021000000000000000e+03,2.121228753605276796e-01,0.000000000000000000e+00
1.022000000000000000e+03,-3.259290016335293916e-01,0.000000000000000000e+00
1.023000000000000000e+03,1.488974823389389135e+00,0.000000000000000000e+00
1.024000000000000000e+03,4.295583787871959380e+00,0.000000000000000000e+00
1.025000000000000000e+03,1.168938074784146464e+00,1.000000000000000000e+00
1.026000000000000000e+03,4.341995995128102859e-01,0.000000000000000000e+00
1.027000000000000000e+03,-4.916296335525968675e-01,0.000000000000000000e+00
1.028000000000000000e+03,-5.777542364712684453e-01,0.000000000000000000e+00
1.029000000000000000e+03,-5.515840006851016053e-01,0.000000000000000000e+00
1.030000000000000000e+03,-7.606334597690919130e-01,0.000000000000000000e+00
1.031000000000000000e+03,-4.070666836413366907e-01,0.000000000000000000e+00
1.032000000000000000e+03,-3.033153854628179991e-01,0.000000000000000000e+00
1.033000000000000000e+03,-5.803389723341318973e-01,0.000000000000000000e+00
1.034000000000000000e+03,-1.563194397917154199e-01,0.000000000000000000e+00
1.035000000000000000e+03,-3.225673343818725725e-01,0.000000000000000000e+00
1.036000000000000000e+03,3.412517048932201535e-01,0.000000000000000000e+00
1.037000000000000000e+03,4.479817511547971032e-01,0.000000000000000000e+00
1.038000000000000000e+03,1.055701770993379807e+00,0.000000000000000000e+00
1.039000000000000000e+03,8.041057177245090060e-01,0.000000000000000000e+00
1.040000000000000000e+03,6.676656368917576190e-01,0.000000000000000000e+00
1.041000000000000000e+03,8.324604619629255575e-01,0.000000000000000000e+00
1.042000000000000000e+03,3.679623699675235726e-01,0.000000000000000000e+00
1.043000000000000000e+03,-8.166455200560271965e-01,0.000000000000000000e+00
1.044000000000000000e+03,-1.233788674191564461e+00,0.000000000000000000e+00
1.045000000000000000e+03,-1.484572248916253612e+00,0.000000000000000000e+00
1.046000000000000000e+03,-1.126507385710210585e+00,0.000000000000000000e+00
1.047000000000000000e+03,-1.188904492577533611e+00,0.000000000000000000e+00
1.048000000000000000e+03,-1.005650379430397257e+00,0.000000000000000000e+00
1.049000000000000000e+03,-8.813098100617835495e-01,0.000000000000000000e+00
1.050000000000000000e+03,-7.900299193914361862e-01,0.000000000000000000e+00
1.051000000000000000e+03,-5.448193603353882475e-01,0.000000000000000000e+00
1.052000000000000000e+03,-5.342650076643429280e-01,0.000000000000000000e+00
1.053000000000000000e+03,-4.171588555877814297e-01,0.000000000000000000e+00
1.054000000000000000e+03,8.238550329233054748e-02,0.000000000000000000e+00
1.055000000000000000e+03,-2.398124432138188100e-01,0.000000000000000000e+00
1.056000000000000000e+03,1.650331061141673689e-02,0.000000000000000000e+00
1.057000000000000000e+03,-1.721583548128332031e-01,0.000000000000000000e+00
1.058000000000000000e+03,-8.343052789946395209e-02,0.000000000000000000e+00
1.059000000000000000e+03,1.428522570679332249e-01,0.000000000000000000e+00
1.060000000000000000e+03,-1.244258346025879924e-01,0.000000000000000000e+00
1.061000000000000000e+03,-2.808291698492714761e-01,0.000000000000000000e+00
1.062000000000000000e+03,2.092271258134325573e-01,0.000000000000000000e+00
1.063000000000000000e+03,1.417351802945375772e-01,0.000000000000000000e+00
1.064000000000000000e+03,1.565379129682276105e-01,0.000000000000000000e+00
1.065000000000000000e+03,2.942878371799977355e-01,0.000000000000000000e+00
1.066000000000000000e+03,7.721201007307723456e-03,0.000000000000000000e+00
1.067000000000000000e+03,3.342269472907033467e-01,0.000000000000000000e+00
1.068000000000000000e+03,7.094679564455948217e-02,0.000000000000000000e+00
1.069000000000000000e+03,1.526289608420054733e-01,0.000000000000000000e+00
1.070000000000000000e+03,5.414399197627022264e-01,0.000000000000000000e+00
1.071000000000000000e+03,2.846661739101952748e-01,0.000000000000000000e+00
1.072000000000000000e+03,5.636223010391313570e-01,0.000000000000000000e+00
1.073000000000000000e+03,1.459618957168676290e-01,0.000000000000000000e+00
1.074000000000000000e+03,3.089585451147784309e-02,0.000000000000000000e+00
1.075000000000000000e+03,6.037699596368466537e-01,0.000000000000000000e+00
1.076000000000000000e+03,4.894313839922621034e-01,0.000000000000000000e+00
1.077000000000000000e+03,1.054411255661887870e+00,0.000000000000000000e+00
1.078000000000000000e+03,1.298269868809702743e+00,0.000000000000000000e+00
1.079000000000000000e+03,1.225108521319428073e-01,0.000000000000000000e+00
1.080000000000000000e+03,-3.737221600528772281e-01,0.000000000000000000e+00
1.081000000000000000e+03,-1.825800495443999916e-01,0.000000000000000000e+00
1.082000000000000000e+03,4.669708546655879089e-01,0.000000000000000000e+00
1.083000000000000000e+03,-1.844991929017952559e-01,0.000000000000000000e+00
1.084000000000000000e+03,4.039283765392010395e+00,0.000000000000000000e+00
1.085000000000000000e+03,2.760423019483247753e+00,1.000000000000000000e+00
1.086000000000000000e+03,4.600917262780678668e-02,0.000000000000000000e+00
1.087000000000000000e+03,-3.102411317654327760e-01,0.000000000000000000e+00
1.088000000000000000e+03,-7.899879171637413933e-01,0.000000000000000000e+00
1.089000000000000000e+03,-7.067435876248243654e-01,0.000000000000000000e+00
1.090000000000000000e+03,-6.531682249135910556e-01,0.000000000000000000e+00
1.091000000000000000e+03,-2.721257625873657604e-01,0.000000000000000000e+00
1.092000000000000000e+03,-4.455106488524729347e-01,0.000000000000000000e+00
1.093000000000000000e+03,-2.338907116418641463e-01,0.000000000000000000e+00
1.094000000000000000e+03,-6.382704066630312534e-01,0.000000000000000000e+00
1.095000000000000000e+03,7.437769835320000300e-02,0.000000000000000000e+00
1.096000000000000000e+03,-6.092465677330136239e-04,0.000000000000000000e+00
1.097000000000000000e+03,3.518264266322660427e-01,0.000000000000000000e+00
1.098000000000000000e+03,7.106823399413167985e-01,0.000000000000000000e+00
1.099000000000000000e+03,7.787268732825946005e-01,0.000000000000000000e+00
1.100000000000000000e+03,1.010478698462401681e+00,0.000000000000000000e+00
1.101000000000000000e+03,9.651537172018627153e-01,0.000000000000000000e+00
1.102000000000000000e+03,5.858689239895519263e-01,0.000000000000000000e+00
1.103000000000000000e+03,-6.252641287011779792e-01,0.000000000000000000e+00
1.104000000000000000e+03,-1.099925910330511680e+00,0.000000000000000000e+00
1.105000000000000000e+03,-1.663213536410986126e+00,0.000000000000000000e+00
1.106000000000000000e+03,-1.942107741282324884e+00,0.000000000000000000e+00
1.107000000000000000e+03,-1.593417668751912597e+00,0.000000000000000000e+00
1.108000000000000000e+03,-1.377131226160219546e+00,0.000000000000000000e+00
1.109000000000000000e+03,-8.195568522500282782e-01,0.000000000000000000e+00
1.110000000000000000e+03,-1.473761250890999630e+00,0.000000000000000000e+00
1.111000000000000000e+03,-5.949915022528622366e-01,0.000000000000000000e+00
1.112000000000000000e+03,-1.244091414323128086e+00,0.000000000000000000e+00
1.113000000000000000e+03,-5.987968867724857702e-01,0.000000000000000000e+00
1.114000000000000000e+03,-9.663510093854248417e-01,0.000000000000000000e+00
1.115000000000000000e+03,-3.197350650663403626e-01,0.000000000000000000e+00
1.116000000000000000e+03,-2.572678596302624965e-01,0.000000000000000000e+00
1.117000000000000000e+03,-4.325794325246560823e-01,0.000000000000000000e+00
1.118000000000000000e+03,-3.588522950080945684e-01,0.000000000000000000e+00
1.119000000000000000e+03,-5.481366533875408481e-02,0.000000000000000000e+00
1.120000000000000000e+03,-4.604783002632614752e-01,0.000000000000000000e+00
1.121000000000000000e+03,-3.062073423947699879e-01,0.000000000000000000e+00
1.122000000000000000e+03,-1.922725215643605046e-01,0.000000000000000000e+00
1.123000000000000000e+03,1.270338303125441159e-01,0.000000000000000000e+00
1.124000000000000000e+03,2.562677619693214948e-01,0.000000000000000000e+00
1.125000000000000000e+03,4.099955855179167052e-01,0.000000000000000000e+00
1.126000000000000000e+03,-4.457467946861892738e-02,0.000000000000000000e+00
1.127000000000000000e+03,1.371018548171663021e-01,0.000000000000000000e+00
1.128000000000000000e+03,1.673157243347321022e-01,0.000000000000000000e+00
1.129000000000000000e+03,3.283410821275596914e-01,0.000000000000000000e+00
1.130000000000000000e+03,3.265260288658104471e-01,0.000000000000000000e+00
1.131000000000000000e+03,2.950941076590659629e-01,0.000000000000000000e+00
1.132000000000000000e+03,1.012650358920618582e-02,0.000000000000000000e+00
1.133000000000000000e+03,6.318188153298935905e-01,0.000000000000000000e+00
1.134000000000000000e+03,3.614701455855233170e-01,0.000000000000000000e+00
1.135000000000000000e+03,5.495125502830627839e-01,0.000000000000000000e+00
1.136000000000000000e+03,2.890318907113552660e-01,0.000000000000000000e+00
1.137000000000000000e+03,4.102794833275426600e-01,0.000000000000000000e+00
1.138000000000000000e+03,4.606274905277297771e-01,0.000000000000000000e+00
1.139000000000000000e+03,8.513908633392996972e-01,0.000000000000000000e+00
1.140000000000000000e+03,1.152187956239950628e+00,0.000000000000000000e+00
1.141000000000000000e+03,1.137625830390824877e+00,0.000000000000000000e+00
1.142000000000000000e+03,9.113375952510177624e-02,0.000000000000000000e+00
1.143000000000000000e+03,1.794621888218953659e-02,0.000000000000000000e+00
1.144000000000000000e+03,-1.615897950473157152e-01,0.000000000000000000e+00
1.145000000000000000e+03,3.123295966047560102e-01,0.000000000000000000e+00
1.146000000000000000e+03,2.701447483019616888e-02,0.000000000000000000e+00
1.147000000000000000e+03,4.387322999323150619e+00,0.000000000000000000e+00
1.148000000000000000e+03,2.182891024864007878e+00,1.000000000000000000e+00
1.149000000000000000e+03,3.894880383671041058e-01,0.000000000000000000e+00
1.150000000000000000e+03,1.128240012425361372e-01,0.000000000000000000e+00
1.151000000000000000e+03,-8.799456727993862915e-01,0.000000000000000000e+00
1.152000000000000000e+03,-9.048635913738095615e-01,0.000000000000000000e+00
1.153000000000000000e+03,-8.930526238565359431e-01,0.000000000000000000e+00
1.154000000000000000e+03,-2.853235202059221653e-01,0.000000000000000000e+00
1.155000000000000000e+03,-4.111092146410116333e-01,0.000000000000000000e+00
1.156000000000000000e+03,-4.713110136622252755e-01,0.000000000000000000e+00
1.157000000000000000e+03,-4.887258686412523367e-01,0.000000000000000000e+00
1.158000000000000000e+03,3.276679317794373852e-02,0.000000000000000000e+00
1.159000000000000000e+03,-1.077661544147707519e-03,0.000000000000000000e+00
1.160000000000000000e+03,1.261579926637380056e-01,0.000000000000000000e+00
1.161000000000000000e+03,5.117908272283854254e-01,0.000000000000000000e+00
1.162000000000000000e+03,9.856201081526091423e-01,0.000000000000000000e+00
1.163000000000000000e+03,9.116123315051752884e-01,0.000000000000000000e+00
1.164000000000000000e+03,8.047103009715622646e-01,0.000000000000000000e+00
1.165000000000000000e+03,5.439725761899503187e-01,0.000000000000000000e+00
1.166000000000000000e+03,-4.441725833196660256e-01,0.000000000000000000e+00
1.167000000000000000e+03,-1.359913516883414664e+00,0.000000000000000000e+00
1.168000000000000000e+03,-1.450208568401921472e+00,0.000000000000000000e+00
1.169000000000000000e+03,-1.374041020258260692e+00,0.000000000000000000e+00
1.170000000000000000e+03,-1.627188480163983986e+00,0.000000000000000000e+00
1.171000000000000000e+03,-1.040592256668844362e+00,0.000000000000000000e+00
1.172000000000000000e+03,-1.120987214715535529e+00,0.000000000000000000e+00
1.173000000000000000e+03,-1.056218249964767208e+00,0.000000000000000000e+00
1.174000000000000000e+03,-7.282261862016013998e-01,0.000000000000000000e+00
1.175000000000000000e+03,-7.261296152128775550e-01,0.000000000000000000e+00
1.176000000000000000e+03,-4.576859831079619911e-01,0.000000000000000000e+00
1.177000000000000000e+03,-2.827848265103576897e-01,0.000000000000000000e+00
1.178000000000000000e+03,-1.553536559672969164e-01,0.000000000000000000e+00
1.179000000000000000e+03,8.138486657065019392e-02,0.000000000000000000e+00
1.180000000000000000e+03,3.274650821100676401e-01,0.000000000000000000e+00
1.181000000000000000e+03,-3.672016512588373027e-01,0.000000000000000000e+00
1.182000000000000000e+03,2.838139710151210693e-01,0.000000000000000000e+00
1.183000000000000000e+03,-1.412719689229409003e-04,0.000000000000000000e+00
1.184000000000000000e+03,3.508541301826011982e-01,0.000000000000000000e+00
1.185000000000000000e+03,-3.386297362210761996e-02,0.000000000000000000e+00
1.186000000000000000e+03,1.741064861334186142e-01,0.000000000000000000e+00
1.187000000000000000e+03,3.812062288685453826e-01,0.000000000000000000e+00
1.188000000000000000e+03,1.056041535809125187e-01,0.000000000000000000e+00
1.189000000000000000e+03,1.693839121384458912e-01,0.000000000000000000e+00
1.190000000000000000e+03,1.406247656921408018e-01,0.000000000000000000e+00
1.191000000000000000e+03,8.354569665282683966e-01,0.000000000000000000e+00
1.192000000000000000e+03,4.018021978727833732e-01,0.000000000000000000e+00
1.193000000000000000e+03,-1.311105660982440357e-01,0.000000000000000000e+00
1.194000000000000000e+03,9.167951690890523420e-01,0.000000000000000000e+00
1.195000000000000000e+03,1.605352623815622104e-01,0.000000000000000000e+00
1.196000000000000000e+03,1.588933839216949973e-01,0.000000000000000000e+00
1.197000000000000000e+03,5.797714978007777464e-01,0.000000000000000000e+00
1.198000000000000000e+03,3.395918158374912066e-01,0.000000000000000000e+00
1.199000000000000000e+03,3.473127567214240874e-01,0.000000000000000000e+00
1.200000000000000000e+03,2.960934818439388549e-01,0.000000000000000000e+00
1.201000000000000000e+03,7.275592268610752145e-01,0.000000000000000000e+00
1.202000000000000000e+03,5.432469427314047250e-01,0.000000000000000000e+00
1.203000000000000000e+03,8.111078542322572860e-01,0.000000000000000000e+00
1.204000000000000000e+03,7.054879904754167708e-01,0.000000000000000000e+00
1.205000000000000000e+03,3.094372370982720333e-01,0.000000000000000000e+00
1.206000000000000000e+03,-2.595090241004697762e-01,0.000000000000000000e+00
1.207000000000000000e+03,-3.895072979519603046e-02,0.000000000000000000e+00
1.208000000000000000e+03,-2.995790348254118163e-01,0.000000000000000000e+00
1.209000000000000000e+03,4.744014821366832058e-01,0.000000000000000000e+00
1.210000000000000000e+03,4.520126819994728429e+00,0.000000000000000000e+00
1.211000000000000000e+03,1.342984705883137009e+00,1.000000000000000000e+00
1.212000000000000000e+03,1.399915944675670376e-01,0.000000000000000000e+00
1.213000000000000000e+03,-3.334216937824125981e-01,0.000000000000000000e+00
1.214000000000000000e+03,-7.200906262567262628e-01,0.000000000000000000e+00
1.215000000000000000e+03,-1.035024897483623807e+00,0.000000000000000000e+00
1.216000000000000000e+03,-8.293438260789963712e-01,0.000000000000000000e+00
1.217000000000000000e+03,-7.810460616912136000e-01,0.000000000000000000e+00
1.218000000000000000e+03,-7.615059657195248910e-01,0.000000000000000000e+00
1.219000000000000000e+03,-6.735546753281503873e-01,0.000000000000000000e+00
1.220000000000000000e+03,-3.919332327451872239e-02,0.000000000000000000e+00
1.221000000000000000e+03,-2.802690828570262305e-01,0.000000000000000000e+00
1.222000000000000000e+03,2.200049696366632255e-03,0.000000000000000000e+00
1.223000000000000000e+03,1.147646364566957261e-01,0.000000000000000000e+00
1.224000000000000000e+03,7.044633505897638370e-01,0.000000000000000000e+00
1.225000000000000000e+03,9.789674301144082325e-01,0.000000000000000000e+00
1.226000000000000000e+03,4.194659962167780476e-01,0.000000000000000000e+00
1.227000000000000000e+03,8.761938354231360027e-01,0.000000000000000000e+00
1.228000000000000000e+03,2.023055418298607966e-01,0.000000000000000000e+00
1.229000000000000000e+03,-9.631218322191738013e-01,0.000000000000000000e+00
1.230000000000000000e+03,-1.524995252477491015e+00,0.000000000000000000e+00
1.231000000000000000e+03,-1.434396612922717029e+00,0.000000000000000000e+00
1.232000000000000000e+03,-1.659279834452482394e+00,0.000000000000000000e+00
1.233000000000000000e+03,-1.375502629514829600e+00,0.000000000000000000e+00
1.234000000000000000e+03,-1.530593587063655114e+00,0.000000000000000000e+00
1.235000000000000000e+03,-1.182789676076090091e+00,0.000000000000000000e+00
1.236000000000000000e+03,-1.174213294773360783e+00,0.000000000000000000e+00
1.237000000000000000e+03,-5.042708126323072193e-01,0.000000000000000000e+00
1.238000000000000000e+03,-9.230996080489335398e-01,0.000000000000000000e+00
1.239000000000000000e+03,-6.687450475991686405e-01,0.000000000000000000e+00
1.240000000000000000e+03,-4.916875680513574376e-01,0.000000000000000000e+00
1.241000000000000000e+03,-3.422451229084554347e-01,0.000000000000000000e+00
1.242000000000000000e+03,-6.651580134973882341e-01,0.000000000000000000e+00
1.243000000000000000e+03,-2.091896704882920122e-02,0.000000000000000000e+00
1.244000000000000000e+03,-2.662009649824930158e-01,0.000000000000000000e+00
1.245000000000000000e+03,-3.739228917731629021e-01,0.000000000000000000e+00
1.246000000000000000e+03,5.454335543719764784e-02,0.000000000000000000e+00
1.247000000000000000e+03,-5.565869636603777426e-01,0.000000000000000000e+00
1.248000000000000000e+03,-1.896383434151094061e-01,0.000000000000000000e+00
1.249000000000000000e+03,-2.205861412677509736e-01,0.000000000000000000e+00
1.250000000000000000e+03,5.553263714000933327e-02,0.000000000000000000e+00
1.251000000000000000e+03,-2.126976509861460141e-01,0.000000000000000000e+00
1.252000000000000000e+03,3.510588839315578191e-01,0.000000000000000000e+00
1.253000000000000000e+03,-2.145486313743325268e-01,0.000000000000000000e+00
1.254000000000000000e+03,7.625715027879223507e-02,0.000000000000000000e+00
1.255000000000000000e+03,2.017087861667839557e-02,0.000000000000000000e+00
1.256000000000000000e+03,1.900003764077686508e-01,0.000000000000000000e+00
1.257000000000000000e+03,3.647046938273926786e-01,0.000000000000000000e+00
1.258000000000000000e+03,2.212537533441789328e-01,0.000000000000000000e+00
1.259000000000000000e+03,-3.617688976675503820e-02,0.000000000000000000e+00
1.260000000000000000e+03,6.475249737647614801e-01,0.000000000000000000e+00
1.261000000000000000e+03,8.478073364946890900e-01,0.000000000000000000e+00
1.262000000000000000e+03,8.895994051684048554e-01,0.000000000000000000e+00
1.263000000000000000e+03,1.110795973782701340e+00,0.000000000000000000e+00
1.264000000000000000e+03,2.904144727828290029e-01,0.000000000000000000e+00
1.265000000000000000e+03,5.230683888200200055e-02,0.000000000000000000e+00
1.266000000000000000e+03,-2.755431968483547100e-01,0.000000000000000000e+00
1.267000000000000000e+03,4.694196499591634097e-01,0.000000000000000000e+00
1.268000000000000000e+03,1.849597323002326321e-01,0.000000000000000000e+00
1.269000000000000000e+03,2.321779083395359322e+00,0.000000000000000000e+00
1.270000000000000000e+03,3.773666934897292435e+00,0.000000000000000000e+00
1.271000000000000000e+03,3.045845152676980305e-01,1.000000000000000000e+00
1.272000000000000000e+03,1.987536772679981689e-01,0.000000000000000000e+00
1.273000000000000000e+03,-7.560960986150384588e-01,0.000000000000000000e+00
1.274000000000000000e+03,-7.733229112186349452e-01,0.000000000000000000e+00
1.275000000000000000e+03,-1.218825424442446570e+00,0.000000000000000000e+00
1.276000000000000000e+03,-6.326751737049864932e-01,0.000000000000000000e+00
1.277000000000000000e+03,-1.313590845560692166e+00,0.000000000000000000e+00
1.278000000000000000e+03,-5.002511249969640028e-01,0.000000000000000000e+00
1.279000000000000000e+03,-7.213764643647576635e-01,0.000000000000000000e+00
1.280000000000000000e+03,-5.305029327405026418e-01,0.000000000000000000e+00
1.281000000000000000e+03,3.491885163556571192e-02,0.000000000000000000e+00
1.282000000000000000e+03,3.422473604415029458e-01,0.000000000000000000e+00
1.283000000000000000e+03,1.425559330306989669e-01,0.000000000000000000e+00
1.284000000000000000e+03,6.885242047884970740e-01,0.000000000000000000e+00
1.285000000000000000e+03,1.598922804437185707e+00,0.000000000000000000e+00
1.286000000000000000e+03,1.302562420804730836e+00,0.000000000000000000e+00
1.287000000000000000e+03,1.085787370181352518e+00,0.000000000000000000e+00
1.288000000000000000e+03,4.622198938852080108e-01,0.000000000000000000e+00
1.289000000000000000e+03,-3.147466650538768840e-01,0.000000000000000000e+00
1.290000000000000000e+03,-6.604019779136772739e-01,0.000000000000000000e+00
1.291000000000000000e+03,-5.124724809652357882e-01,0.000000000000000000e+00
1.292000000000000000e+03,-9.477266916354113446e-01,0.000000000000000000e+00
1.293000000000000000e+03,-7.031984241474090735e-01,0.000000000000000000e+00
1.294000000000000000e+03,-2.725942733492473513e-01,0.000000000000000000e+00
1.295000000000000000e+03,-3.853581320633959750e-01,0.000000000000000000e+00
1.296000000000000000e+03,-2.817480606489886075e-01,0.000000000000000000e+00
1.297000000000000000e+03,1.294541439573466401e-01,0.000000000000000000e+00
1.298000000000000000e+03,-1.291537106330799354e-03,0.000000000000000000e+00
1.299000000000000000e+03,1.552776558905517856e-01,0.000000000000000000e+00
1.300000000000000000e+03,2.272773893527575972e-01,0.000000000000000000e+00
1.301000000000000000e+03,5.969686151272757257e-01,0.000000000000000000e+00
1.302000000000000000e+03,7.980010361165296509e-03,0.000000000000000000e+00
1.303000000000000000e+03,3.897911307610896214e-01,0.000000000000000000e+00
1.304000000000000000e+03,6.287930552249929583e-01,0.000000000000000000e+00
1.305000000000000000e+03,2.811117234857455904e-01,0.000000000000000000e+00
1.306000000000000000e+03,3.976392843208088057e-01,0.000000000000000000e+00
1.307000000000000000e+03,4.258286844785468817e-01,0.000000000000000000e+00
1.308000000000000000e+03,3.927472398054721592e-01,0.000000000000000000e+00
1.309000000000000000e+03,3.304076724501453510e-01,0.000000000000000000e+00
1.310000000000000000e+03,3.079867588288863200e-01,0.000000000000000000e+00
1.311000000000000000e+03,6.637899375124038936e-01,0.000000000000000000e+00
1.312000000000000000e+03,2.574362671363052413e-01,0.000000000000000000e+00
1.313000000000000000e+03,4.861315469396000344e-01,0.000000000000000000e+00
1.314000000000000000e+03,2.012289334876562474e-01,0.000000000000000000e+00
1.315000000000000000e+03,4.777598237098806822e-01,0.000000000000000000e+00
1.316000000000000000e+03,3.401247291303444720e-01,0.000000000000000000e+00
1.317000000000000000e+03,3.520860315782615713e-01,0.000000000000000000e+00
1.318000000000000000e+03,1.757952493721487430e-01,0.000000000000000000e+00
1.319000000000000000e+03,4.574931182548110375e-01,0.000000000000000000e+00
1.320000000000000000e+03,5.127918866447547241e-01,0.000000000000000000e+00
1.321000000000000000e+03,8.846685873879746032e-01,0.000000000000000000e+00
1.322000000000000000e+03,-2.825018462208231940e-01,0.000000000000000000e+00
1.323000000000000000e+03,1.684273540919360990e-01,0.000000000000000000e+00
1.324000000000000000e+03,-6.406368100696827605e-01,0.000000000000000000e+00
1.325000000000000000e+03,-2.800412720487898133e-01,0.000000000000000000e+00
1.326000000000000000e+03,8.347176928615447980e-03,0.000000000000000000e+00
1.327000000000000000e+03,3.309381630869444368e+00,0.000000000000000000e+00
1.328000000000000000e+03,1.802667246784618094e+00,1.000000000000000000e+00
1.329000000000000000e+03,9.501234893954314809e-02,0.000000000000000000e+00
1.330000000000000000e+03,-1.429192625264752714e-01,0.000000000000000000e+00
1.331000000000000000e+03,-1.377752937595111415e+00,0.000000000000000000e+00
1.332000000000000000e+03,-8.979383315678156618e-01,0.000000000000000000e+00
1.333000000000000000e+03,-1.003571485585745382e+00,0.000000000000000000e+00
1.334000000000000000e+03,-9.661876241263671616e-01,0.000000000000000000e+00
1.335000000000000000e+03,-1.233922614072989976e+00,0.000000000000000000e+00
1.336000000000000000e+03,-8.696251464391261399e-01,0.000000000000000000e+00
1.337000000000000000e+03,-6.058217397871077381e-01,0.000000000000000000e+00
1.338000000000000000e+03,-4.493682582774747303e-01,0.000000000000000000e+00
1.339000000000000000e+03,-6.466628604765700672e-01,0.000000000000000000e+00
1.340000000000000000e+03,1.077647688319640223e-01,0.000000000000000000e+00
1.341000000000000000e+03,-1.839749954739864496e-02,0.000000000000000000e+00
1.342000000000000000e+03,1.006298681399599437e-01,0.000000000000000000e+00
1.343000000000000000e+03,4.473160283379811197e-01,0.000000000000000000e+00
1.344000000000000000e+03,9.679624694467569013e-01,0.000000000000000000e+00
1.345000000000000000e+03,-2.424225152752975398e-01,0.000000000000000000e+00
1.346000000000000000e+03,-3.489223625903748460e-01,0.000000000000000000e+00
1.347000000000000000e+03,-1.123215607410878780e+00,0.000000000000000000e+00
1.348000000000000000e+03,-1.493705887248044206e+00,0.000000000000000000e+00
1.349000000000000000e+03,-1.246437292589538837e+00,0.000000000000000000e+00
1.350000000000000000e+03,-1.724699764797339885e+00,0.000000000000000000e+00
1.351000000000000000e+03,-1.416436743334889226e+00,0.000000000000000000e+00
1.352000000000000000e+03,-9.812457141464934196e-01,0.000000000000000000e+00
1.353000000000000000e+03,-5.438475930914978829e-01,0.000000000000000000e+00
1.354000000000000000e+03,-1.017331462211646276e+00,0.000000000000000000e+00
1.355000000000000000e+03,-6.389738215377221975e-01,0.000000000000000000e+00
1.356000000000000000e+03,-5.173696245870961219e-01,0.000000000000000000e+00
1.357000000000000000e+03,-7.319877910169675372e-01,0.000000000000000000e+00
1.358000000000000000e+03,-3.095459221824172769e-01,0.000000000000000000e+00
1.359000000000000000e+03,-3.521963185592613677e-01,0.000000000000000000e+00
1.360000000000000000e+03,-3.771606147794623332e-01,0.000000000000000000e+00
1.361000000000000000e+03,-2.497629108159385158e-01,0.000000000000000000e+00
1.362000000000000000e+03,-2.850292713168391390e-01,0.000000000000000000e+00
1.363000000000000000e+03,-2.853683221989636865e-01,0.000000000000000000e+00
1.364000000000000000e+03,-6.026272601256171813e-01,0.000000000000000000e+00
1.365000000000000000e+03,-4.359218170421921140e-02,0.000000000000000000e+00
1.366000000000000000e+03,-3.638048821778108177e-01,0.000000000000000000e+00
1.367000000000000000e+03,-2.829751547785158347e-02,0.000000000000000000e+00
1.368000000000000000e+03,-1.274098982077045139e-01,0.000000000000000000e+00
1.369000000000000000e+03,6.169090221064598561e-02,0.000000000000000000e+00
1.370000000000000000e+03,-6.966888438577617526e-02,0.000000000000000000e+00
1.371000000000000000e+03,-6.043197150661774181e-02,0.000000000000000000e+00
1.372000000000000000e+03,-1.963870273011986689e-01,0.000000000000000000e+00
1.373000000000000000e+03,3.386607143369373407e-01,0.000000000000000000e+00
1.374000000000000000e+03,-7.312401263219768521e-02,0.000000000000000000e+00
1.375000000000000000e+03,2.317346931093154094e-01,0.000000000000000000e+00
1.376000000000000000e+03,3.004138831855397984e-01,0.000000000000000000e+00
1.377000000000000000e+03,3.177747139252473652e-01,0.000000000000000000e+00
1.378000000000000000e+03,5.180628926809078827e-01,0.000000000000000000e+00
1.379000000000000000e+03,7.901530358359427630e-01,0.000000000000000000e+00
1.380000000000000000e+03,8.668831706123460989e-01,0.000000000000000000e+00
1.381000000000000000e+03,9.899542548809778797e-01,0.000000000000000000e+00
1.382000000000000000e+03,1.670826940004010164e-01,0.000000000000000000e+00
1.383000000000000000e+03,2.039201648563303548e-01,0.000000000000000000e+00
1.384000000000000000e+03,-3.140123074562428673e-02,0.000000000000000000e+00
1.385000000000000000e+03,2.105717765465198454e-01,0.000000000000000000e+00
1.386000000000000000e+03,5.178346314874336664e-02,0.000000000000000000e+00
1.387000000000000000e+03,2.855965167385753567e+00,0.000000000000000000e+00
1.388000000000000000e+03,4.248691371633861458e+00,0.000000000000000000e+00
1.389000000000000000e+03,4.519418834160235932e-01,1.000000000000000000e+00
1.390000000000000000e+03,5.953957132642440087e-01,0.000000000000000000e+00
1.391000000000000000e+03,-8.951773290420753648e-01,0.000000000000000000e+00
1.392000000000000000e+03,-1.281923687642413379e-01,0.000000000000000000e+00
1.393000000000000000e+03,-5.150304454529827103e-01,0.000000000000000000e+00
1.394000000000000000e+03,-1.750956219073982467e-01,0.000000000000000000e+00
1.395000000000000000e+03,-7.468128196321028867e-01,0.000000000000000000e+00
1.396000000000000000e+03,1.341490774968588651e-01,0.000000000000000000e+00
1.397000000000000000e+03,-6.318959060536830097e-02,0.000000000000000000e+00
1.398000000000000000e+03,-2.264163552671483517e-02,0.000000000000000000e+00
1.399000000000000000e+03,3.369980985309745103e-01,0.000000000000000000e+00
1.400000000000000000e+03,7.286702596467895532e-01,0.000000000000000000e+00
1.401000000000000000e+03,9.350803220157055673e-01,0.000000000000000000e+00
1.402000000000000000e+03,8.653458522677170972e-01,0.000000000000000000e+00
1.403000000000000000e+03,1.442869769892968224e+00,0.000000000000000000e+00
1.404000000000000000e+03,9.788932810154430397e-01,0.000000000000000000e+00
1.405000000000000000e+03,1.042834146268730500e+00,0.000000000000000000e+00
1.406000000000000000e+03,2.184854831325844793e-01,0.000000000000000000e+00
1.407000000000000000e+03,-8.937910476620058997e-01,0.000000000000000000e+00
1.408000000000000000e+03,-9.011346826328999748e-01,0.000000000000000000e+00
1.409000000000000000e+03,-1.288505108038036973e+00,0.000000000000000000e+00
1.410000000000000000e+03,-1.466546470436401295e+00,0.000000000000000000e+00
1.411000000000000000e+03,-1.053172955510931930e+00,0.000000000000000000e+00
1.412000000000000000e+03,-8.734506838921971550e-01,0.000000000000000000e+00
1.413000000000000000e+03,-9.240566061152706290e-01,0.000000000000000000e+00
1.414000000000000000e+03,-8.083849794221732443e-01,0.000000000000000000e+00
1.415000000000000000e+03,-7.843636655103845001e-01,0.000000000000000000e+00
1.416000000000000000e+03,-6.793465994200675873e-01,0.000000000000000000e+00
1.417000000000000000e+03,-6.467410381421340171e-01,0.000000000000000000e+00
1.418000000000000000e+03,3.547557916020895735e-02,0.000000000000000000e+00
1.419000000000000000e+03,-5.172309277903874847e-01,0.000000000000000000e+00
1.420000000000000000e+03,-2.892649181771744793e-01,0.000000000000000000e+00
1.421000000000000000e+03,-8.761395424212337080e-02,0.000000000000000000e+00
1.422000000000000000e+03,1.069582894642888693e-01,0.000000000000000000e+00
1.423000000000000000e+03,-2.387838751412162119e-01,0.000000000000000000e+00
1.424000000000000000e+03,4.004358351928760662e-02,0.000000000000000000e+00
1.425000000000000000e+03,-4.433781270900529620e-02,0.000000000000000000e+00
1.426000000000000000e+03,4.126004155442950516e-01,0.000000000000000000e+00
1.427000000000000000e+03,2.666527702500103708e-02,0.000000000000000000e+00
1.428000000000000000e+03,1.410635796768767158e-01,0.000000000000000000e+00
1.429000000000000000e+03,-6.476044532605187976e-02,0.000000000000000000e+00
1.430000000000000000e+03,4.955548442210097049e-01,0.000000000000000000e+00
1.431000000000000000e+03,-2.096951291635535397e-01,0.000000000000000000e+00
1.432000000000000000e+03,4.360616379378799978e-01,0.000000000000000000e+00
1.433000000000000000e+03,3.303645333153981123e-01,0.000000000000000000e+00
1.434000000000000000e+03,1.540557851391000099e-01,0.000000000000000000e+00
1.435000000000000000e+03,1.504765604691057912e-01,0.000000000000000000e+00
1.436000000000000000e+03,2.037043304086156303e-01,0.000000000000000000e+00
1.437000000000000000e+03,-8.343583308496087952e-03,0.000000000000000000e+00
1.438000000000000000e+03,2.323387862950123395e-01,0.000000000000000000e+00
1.439000000000000000e+03,6.466506808441346843e-01,0.000000000000000000e+00
1.440000000000000000e+03,3.651061117891638008e-01,0.000000000000000000e+00
1.441000000000000000e+03,7.542128603725966052e-01,0.000000000000000000e+00
1.442000000000000000e+03,4.534748852431865207e-01,0.000000000000000000e+00
1.443000000000000000e+03,4.830962540852575260e-01,0.000000000000000000e+00
1.444000000000000000e+03,4.183223091674674599e-02,0.000000000000000000e+00
1.445000000000000000e+03,-3.381955921962807587e-01,0.000000000000000000e+00
1.446000000000000000e+03,2.204495189958690093e-01,0.000000000000000000e+00
1.447000000000000000e+03,-5.286380177560220384e-01,0.000000000000000000e+00
1.448000000000000000e+03,2.598033359180633273e+00,0.000000000000000000e+00
1.449000000000000000e+03,3.882161548069735790e+00,0.000000000000000000e+00
1.450000000000000000e+03,5.966989895096022067e-01,1.000000000000000000e+00
1.451000000000000000e+03,-2.256096231432233590e-01,0.000000000000000000e+00
1.452000000000000000e+03,-5.295171011998827115e-01,0.000000000000000000e+00
1.453000000000000000e+03,-6.966130187802466178e-01,0.000000000000000000e+00
1.454000000000000000e+03,-1.026054884715083659e+00,0.000000000000000000e+00
1.455000000000000000e+03,-5.872349582037185434e-02,0.000000000000000000e+00
1.456000000000000000e+03,-5.806029387362015015e-01,0.000000000000000000e+00
1.457000000000000000e+03,-6.253888886328139440e-01,0.000000000000000000e+00
1.458000000000000000e+03,-2.306359117452524421e-01,0.000000000000000000e+00
1.459000000000000000e+03,3.641388833965908400e-02,0.000000000000000000e+00
1.460000000000000000e+03,1.461289081462258943e-01,0.000000000000000000e+00
1.461000000000000000e+03,4.465648007145299192e-01,0.000000000000000000e+00
1.462000000000000000e+03,2.188707253347001169e-01,0.000000000000000000e+00
1.463000000000000000e+03,5.575717149157446428e-01,0.000000000000000000e+00
1.464000000000000000e+03,7.309809102464726038e-01,0.000000000000000000e+00
1.465000000000000000e+03,1.157360681987103623e+00,0.000000000000000000e+00
1.466000000000000000e+03,8.465697155462993395e-01,0.000000000000000000e+00
1.467000000000000000e+03,3.061515917238262219e-01,0.000000000000000000e+00
1.468000000000000000e+03,-8.223514117387064060e-01,0.000000000000000000e+00
1.469000000000000000e+03,-1.619385460662213561e+00,0.000000000000000000e+00
1.470000000000000000e+03,-1.289331416392534235e+00,0.000000000000000000e+00
1.471000000000000000e+03,-1.527962138796779223e+00,0.000000000000000000e+00
1.472000000000000000e+03,-1.507890097404292362e+00,0.000000000000000000e+00
1.473000000000000000e+03,-9.314607068394665790e-01,0.000000000000000000e+00
1.474000000000000000e+03,-1.235032973609572871e+00,0.000000000000000000e+00
1.475000000000000000e+03,-8.723139297934374703e-01,0.000000000000000000e+00
1.476000000000000000e+03,-7.521936032179976639e-01,0.000000000000000000e+00
1.477000000000000000e+03,-9.032210977366021964e-01,0.000000000000000000e+00
1.478000000000000000e+03,-4.815017444715743444e-01,0.000000000000000000e+00
1.479000000000000000e+03,-1.449716367702721387e-01,0.000000000000000000e+00
1.480000000000000000e+03,-1.445647762419210169e-01,0.000000000000000000e+00
1.481000000000000000e+03,-2.539057414938720170e-01,0.000000000000000000e+00
1.482000000000000000e+03,-5.656361141347972243e-02,0.000000000000000000e+00
1.483000000000000000e+03,-2.102492588440659227e-01,0.000000000000000000e+00
1.484000000000000000e+03,2.178355708942188718e-01,0.000000000000000000e+00
1.485000000000000000e+03,-1.847612896106537450e-02,0.000000000000000000e+00
1.486000000000000000e+03,3.676453857597760111e-01,0.000000000000000000e+00
1.487000000000000000e+03,2.758610350178165027e-01,0.000000000000000000e+00
1.488000000000000000e+03,-5.341479798446654992e-02,0.000000000000000000e+00
1.489000000000000000e+03,1.707573042635508465e-01,0.000000000000000000e+00
1.490000000000000000e+03,4.119755936857180112e-01,0.000000000000000000e+00
1.491000000000000000e+03,-1.642036945827940742e-01,0.000000000000000000e+00
1.492000000000000000e+03,4.543608272934203107e-01,0.000000000000000000e+00
1.493000000000000000e+03,1.379292013422932228e-01,0.000000000000000000e+00
1.494000000000000000e+03,1.739354799366701620e-01,0.000000000000000000e+00
1.495000000000000000e+03,1.547398496133332302e-01,0.000000000000000000e+00
1.496000000000000000e+03,3.462695137919222788e-01,0.000000000000000000e+00
1.497000000000000000e+03,2.922338792050017120e-01,0.000000000000000000e+00
1.498000000000000000e+03,3.089076643730807592e-01,0.000000000000000000e+00
1.499000000000000000e+03,1.654354921354227181e-02,0.000000000000000000e+00
1.500000000000000000e+03,2.705321122170744053e-01,0.000000000000000000e+00
1.501000000000000000e+03,4.194280886233960892e-01,0.000000000000000000e+00
1.502000000000000000e+03,7.414605977308006413e-01,0.000000000000000000e+00
1.503000000000000000e+03,5.318423545078495573e-01,0.000000000000000000e+00
1.504000000000000000e+03,9.710812858677422277e-01,0.000000000000000000e+00
1.505000000000000000e+03,-1.821720101026434169e-01,0.000000000000000000e+00
1.506000000000000000e+03,-1.984308610733354905e-01,0.000000000000000000e+00
1.507000000000000000e+03,-3.373585330786887937e-01,0.000000000000000000e+00
1.508000000000000000e+03,-8.575248250922551385e-02,0.000000000000000000e+00
1.509000000000000000e+03,-3.859088704696242988e-01,0.000000000000000000e+00
1.510000000000000000e+03,3.212411831596944545e+00,0.000000000000000000e+00
1.511000000000000000e+03,2.644510312547335484e+00,1.000000000000000000e+00
1.512000000000000000e+03,1.142445325955670186e-02,0.000000000000000000e+00
1.513000000000000000e+03,-1.155522906598070165e-01,0.000000000000000000e+00
1.514000000000000000e+03,-1.038177564065731362e+00,0.000000000000000000e+00
1.515000000000000000e+03,-9.111904953145846253e-01,0.000000000000000000e+00
1.516000000000000000e+03,-8.801570249182671946e-01,0.000000000000000000e+00
1.517000000000000000e+03,-7.940928763415581182e-01,0.000000000000000000e+00
1.518000000000000000e+03,-6.344389523452356183e-01,0.000000000000000000e+00
1.519000000000000000e+03,-4.109373116365329093e-01,0.000000000000000000e+00
1.520000000000000000e+03,1.489761354661985060e-02,0.000000000000000000e+00
1.521000000000000000e+03,-2.979987971005635394e-01,0.000000000000000000e+00
1.522000000000000000e+03,2.948502410341961033e-01,0.000000000000000000e+00
1.523000000000000000e+03,2.546627798348468641e-01,0.000000000000000000e+00
1.524000000000000000e+03,6.378457152841512379e-01,0.000000000000000000e+00
1.525000000000000000e+03,1.057345496457321898e+00,0.000000000000000000e+00
1.526000000000000000e+03,9.580922938483923401e-01,0.000000000000000000e+00
1.527000000000000000e+03,1.269057727094008658e+00,0.000000000000000000e+00
1.528000000000000000e+03,6.964300580483570036e-01,0.000000000000000000e+00
1.529000000000000000e+03,-2.583000702719964389e-02,0.000000000000000000e+00
1.530000000000000000e+03,-9.979165544276172861e-01,0.000000000000000000e+00
1.531000000000000000e+03,-1.364572420168299161e+00,0.000000000000000000e+00
1.532000000000000000e+03,-1.399955852193490280e+00,0.000000000000000000e+00
1.533000000000000000e+03,-1.280385636609973066e+00,0.000000000000000000e+00
1.534000000000000000e+03,-1.151462151171875448e+00,0.000000000000000000e+00
1.535000000000000000e+03,-1.271925978140284519e+00,0.000000000000000000e+00
1.536000000000000000e+03,-7.775981541388463647e-01,0.000000000000000000e+00
1.537000000000000000e+03,-1.047372701623550562e+00,0.000000000000000000e+00
1.538000000000000000e+03,-8.324394574119147183e-01,0.000000000000000000e+00
1.539000000000000000e+03,-2.014342380503266194e-01,0.000000000000000000e+00
1.540000000000000000e+03,-7.257684221602248575e-01,0.000000000000000000e+00
1.541000000000000000e+03,-3.629417550304875895e-01,0.000000000000000000e+00
1.542000000000000000e+03,-3.454778943753114562e-01,0.000000000000000000e+00
1.543000000000000000e+03,2.686859848274647175e-02,0.000000000000000000e+00
1.544000000000000000e+03,-5.618915336549690220e-01,0.000000000000000000e+00
1.545000000000000000e+03,1.981756119964000196e-01,0.000000000000000000e+00
1.546000000000000000e+03,-2.634212019491168344e-01,0.000000000000000000e+00
1.547000000000000000e+03,-2.798759583134108331e-01,0.000000000000000000e+00
1.548000000000000000e+03,-1.014665715174323801e-01,0.000000000000000000e+00
1.549000000000000000e+03,1.807037417900080045e-01,0.000000000000000000e+00
1.550000000000000000e+03,1.508445708232569182e-01,0.000000000000000000e+00
1.551000000000000000e+03,2.319563291960994034e-01,0.000000000000000000e+00
1.552000000000000000e+03,4.950543248412656722e-02,0.000000000000000000e+00
1.553000000000000000e+03,3.716128749789111008e-01,0.000000000000000000e+00
1.554000000000000000e+03,2.342392419482728361e-01,0.000000000000000000e+00
1.555000000000000000e+03,3.482424608930391186e-01,0.000000000000000000e+00
1.556000000000000000e+03,1.655670630391777032e-01,0.000000000000000000e+00
1.557000000000000000e+03,4.597026728896267400e-01,0.000000000000000000e+00
1.558000000000000000e+03,3.469010970299678531e-01,0.000000000000000000e+00
1.559000000000000000e+03,4.161558122892995357e-03,0.000000000000000000e+00
1.560000000000000000e+03,6.063890361645593030e-01,0.000000000000000000e+00
1.561000000000000000e+03,8.108129889763531217e-01,0.000000000000000000e+00
1.562000000000000000e+03,9.405627370231849360e-01,0.000000000000000000e+00
1.563000000000000000e+03,1.018826475372703655e+00,0.000000000000000000e+00
1.564000000000000000e+03,3.066444991106039297e-01,0.000000000000000000e+00
1.565000000000000000e+03,-1.840608677045350102e-04,0.000000000000000000e+00
1.566000000000000000e+03,-2.989581795715409718e-01,0.000000000000000000e+00
1.567000000000000000e+03,-2.031609598774709521e-02,0.000000000000000000e+00
1.568000000000000000e+03,-3.657426029175815940e-01,0.000000000000000000e+00
1.569000000000000000e+03,1.703096644332852350e+00,0.000000000000000000e+00
1.570000000000000000e+03,3.632484603395455203e+00,0.000000000000000000e+00
1.571000000000000000e+03,8.868356189817950819e-01,1.000000000000000000e+00
1.572000000000000000e+03,3.869107173787881271e-01,0.000000000000000000e+00
1.573000000000000000e+03,-5.186454087773265664e-01,0.000000000000000000e+00
1.574000000000000000e+03,-4.632444301989929736e-01,0.000000000000000000e+00
1.575000000000000000e+03,-1.150518817232742075e+00,0.000000000000000000e+00
1.576000000000000000e+03,-5.672067422035085293e-01,0.000000000000000000e+00
1.577000000000000000e+03,-2.612309910949209835e-01,0.000000000000000000e+00
1.578000000000000000e+03,-1.741356788222181429e-01,0.000000000000000000e+00
1.579000000000000000e+03,-3.036428389126906158e-01,0.000000000000000000e+00
1.580000000000000000e+03,-2.275145462797627249e-01,0.000000000000000000e+00
1.581000000000000000e+03,-4.114922284819429177e-02,0.000000000000000000e+00
1.582000000000000000e+03,2.836229419936948659e-01,0.000000000000000000e+00
1.583000000000000000e+03,7.036056866088246098e-01,0.000000000000000000e+00
1.584000000000000000e+03,8.554442812360858461e-01,0.000000000000000000e+00
1.585000000000000000e+03,1.165474748377046899e+00,0.000000000000000000e+00
1.586000000000000000e+03,9.039482745009523867e-01,0.000000000000000000e+00
1.587000000000000000e+03,5.125262815237788816e-01,0.000000000000000000e+00
