timestamp,ecg_measurement,qrs_detected
0.000000000000000000e+00,-3.864537671536831254e-01,0.000000000000000000e+00
1.000000000000000000e+00,-1.179908083124677626e-01,0.000000000000000000e+00
2.000000000000000000e+00,-3.499919185514938080e-02,0.000000000000000000e+00
3.000000000000000000e+00,-4.116410222418780476e-03,0.000000000000000000e+00
4.000000000000000000e+00,6.742917349858895681e-02,0.000000000000000000e+00
5.000000000000000000e+00,-2.747047710543689715e-04,0.000000000000000000e+00
6.000000000000000000e+00,3.174194143645964888e-02,0.000000000000000000e+00
7.000000000000000000e+00,-5.612910059471507562e-01,0.000000000000000000e+00
8.000000000000000000e+00,-5.784658537041038884e-02,0.000000000000000000e+00
9.000000000000000000e+00,-2.395934515909425855e-01,0.000000000000000000e+00
1.000000000000000000e+01,-2.649002754537655435e-01,0.000000000000000000e+00
1.100000000000000000e+01,-3.900195234581387282e-01,0.000000000000000000e+00
1.200000000000000000e+01,9.549945984554748524e-01,0.000000000000000000e+00
1.300000000000000000e+01,4.619798575009425257e+00,0.000000000000000000e+00
1.400000000000000000e+01,5.025671499815277388e-01,1.000000000000000000e+00
1.500000000000000000e+01,-1.488729352564429620e+00,0.000000000000000000e+00
1.600000000000000000e+01,-1.857538459476435699e+00,0.000000000000000000e+00
1.700000000000000000e+01,-1.293977059650982975e+00,0.000000000000000000e+00
1.800000000000000000e+01,-6.705341413004954898e-01,0.000000000000000000e+00
1.900000000000000000e+01,-3.212907255814970719e-01,0.000000000000000000e+00
2.000000000000000000e+01,-2.128411735171420460e-03,0.000000000000000000e+00
2.100000000000000000e+01,1.566256834061656722e-01,0.000000000000000000e+00
2.200000000000000000e+01,2.102784909553201687e-01,0.000000000000000000e+00
2.300000000000000000e+01,2.247452719477591454e-01,0.000000000000000000e+00
2.400000000000000000e+01,4.289157005100725506e-01,0.000000000000000000e+00
2.500000000000000000e+01,8.009693487516842403e-01,0.000000000000000000e+00
2.600000000000000000e+01,7.936333317676278476e-01,0.000000000000000000e+00
2.700000000000000000e+01,9.590945273060710319e-01,0.000000000000000000e+00
2.800000000000000000e+01,9.041427433137935177e-01,0.000000000000000000e+00
2.900000000000000000e+01,5.617062198116280491e-01,0.000000000000000000e+00
3.000000000000000000e+01,-2.794569621178377705e-01,0.000000000000000000e+00
3.100000000000000000e+01,-1.949022523042169830e-01,0.000000000000000000e+00
3.200000000000000000e+01,-4.771035976149501923e-01,0.000000000000000000e+00
3.300000000000000000e+01,-6.917948704168590535e-01,0.000000000000000000e+00
3.400000000000000000e+01,-4.631661912685979821e-01,0.000000000000000000e+00
3.500000000000000000e+01,-6.041323726061593735e-01,0.000000000000000000e+00
3.600000000000000000e+01,-6.940325551303700991e-01,0.000000000000000000e+00
3.700000000000000000e+01,-2.833571876333002559e-01,0.000000000000000000e+00
3.800000000000000000e+01,-3.862597639647596393e-01,0.000000000000000000e+00
3.900000000000000000e+01,-3.179413221260524169e-01,0.000000000000000000e+00
4.000000000000000000e+01,-3.619310789630411085e-01,0.000000000000000000e+00
4.100000000000000000e+01,-1.359823004707502378e-02,0.000000000000000000e+00
4.200000000000000000e+01,-1.492302046189452891e-01,0.000000000000000000e+00
4.300000000000000000e+01,2.403534105972056356e-01,0.000000000000000000e+00
4.400000000000000000e+01,7.558255889783745129e-02,0.000000000000000000e+00
4.500000000000000000e+01,-8.775654632290490198e-02,0.000000000000000000e+00
4.600000000000000000e+01,3.790581423708378611e-02,0.000000000000000000e+00
4.700000000000000000e+01,-1.641546730328601045e-01,0.000000000000000000e+00
4.800000000000000000e+01,-1.008977574868509253e-01,0.000000000000000000e+00
4.900000000000000000e+01,-2.197148968137429270e-01,0.000000000000000000e+00
5.000000000000000000e+01,-2.802061669057533955e-01,0.000000000000000000e+00
5.100000000000000000e+01,-1.127880461452761551e-01,0.000000000000000000e+00
5.200000000000000000e+01,-2.364909286778909825e-01,0.000000000000000000e+00
5.300000000000000000e+01,4.725667171334917427e+00,0.000000000000000000e+00
5.400000000000000000e+01,1.966125445161364116e+00,1.000000000000000000e+00
5.500000000000000000e+01,-1.366648770979457250e+00,0.000000000000000000e+00
5.600000000000000000e+01,-1.475466262462824529e+00,0.000000000000000000e+00
5.700000000000000000e+01,-2.016730432445087651e+00,0.000000000000000000e+00
5.800000000000000000e+01,-8.028853150431598529e-01,0.000000000000000000e+00
5.900000000000000000e+01,-1.379904200253100066e-01,0.000000000000000000e+00
6.000000000000000000e+01,-1.347370046142823061e-02,0.000000000000000000e+00
6.100000000000000000e+01,7.355382385097024300e-02,0.000000000000000000e+00
6.200000000000000000e+01,2.195089976023822942e-01,0.000000000000000000e+00
6.300000000000000000e+01,1.651124301841698505e-01,0.000000000000000000e+00
6.400000000000000000e+01,6.140571350979745491e-01,0.000000000000000000e+00
6.500000000000000000e+01,7.157193159878780797e-01,0.000000000000000000e+00
6.600000000000000000e+01,6.663804419080214814e-01,0.000000000000000000e+00
6.700000000000000000e+01,1.244025586231092495e+00,0.000000000000000000e+00
6.800000000000000000e+01,1.062588864284303103e+00,0.000000000000000000e+00
6.900000000000000000e+01,6.982248437449939393e-01,0.000000000000000000e+00
7.000000000000000000e+01,6.280008305248141465e-02,0.000000000000000000e+00
7.100000000000000000e+01,-5.183133895730077656e-01,0.000000000000000000e+00
7.200000000000000000e+01,-3.062835119563938613e-01,0.000000000000000000e+00
7.300000000000000000e+01,-6.494845226573808805e-01,0.000000000000000000e+00
7.400000000000000000e+01,-3.965895041747927730e-01,0.000000000000000000e+00
7.500000000000000000e+01,-7.608198616052311847e-01,0.000000000000000000e+00
7.600000000000000000e+01,-3.577529997952453300e-01,0.000000000000000000e+00
7.700000000000000000e+01,-4.814162740963561227e-01,0.000000000000000000e+00
7.800000000000000000e+01,-4.212064438820003476e-01,0.000000000000000000e+00
7.900000000000000000e+01,-3.047651114906577141e-01,0.000000000000000000e+00
8.000000000000000000e+01,-2.617389813075330918e-01,0.000000000000000000e+00
8.100000000000000000e+01,-2.083116609264603070e-01,0.000000000000000000e+00
8.200000000000000000e+01,-1.109579665427214423e-01,0.000000000000000000e+00
8.300000000000000000e+01,-4.030671970606677923e-02,0.000000000000000000e+00
8.400000000000000000e+01,1.408807048013077934e-01,0.000000000000000000e+00
8.500000000000000000e+01,1.727362403122583157e-01,0.000000000000000000e+00
8.600000000000000000e+01,-8.432862906077517873e-02,0.000000000000000000e+00
8.700000000000000000e+01,5.161660616043184380e-02,0.000000000000000000e+00
8.800000000000000000e+01,-5.197090105035750973e-01,0.000000000000000000e+00
8.900000000000000000e+01,9.776305023908510305e-02,0.000000000000000000e+00
9.000000000000000000e+01,-4.472465641667249803e-01,0.000000000000000000e+00
9.100000000000000000e+01,9.414403589818461093e-02,0.000000000000000000e+00
9.200000000000000000e+01,-8.288091323362263285e-01,0.000000000000000000e+00
9.300000000000000000e+01,1.827427658871419558e+00,0.000000000000000000e+00
9.400000000000000000e+01,5.000344429659116408e+00,0.000000000000000000e+00
9.500000000000000000e+01,-1.537894680216116972e-01,1.000000000000000000e+00
9.600000000000000000e+01,-1.241818109924739177e+00,0.000000000000000000e+00
9.700000000000000000e+01,-2.185616543139112355e+00,0.000000000000000000e+00
9.800000000000000000e+01,-1.276947130895426330e+00,0.000000000000000000e+00
9.900000000000000000e+01,-4.348788866052663571e-01,0.000000000000000000e+00
1.000000000000000000e+02,1.393008562744620371e-01,0.000000000000000000e+00
1.010000000000000000e+02,-3.312064151676429036e-02,0.000000000000000000e+00
1.020000000000000000e+02,1.434550091976443953e-01,0.000000000000000000e+00
1.030000000000000000e+02,2.348555607518331700e-01,0.000000000000000000e+00
1.040000000000000000e+02,2.854779114016343100e-01,0.000000000000000000e+00
1.050000000000000000e+02,3.975046979765426980e-01,0.000000000000000000e+00
1.060000000000000000e+02,8.736833602036551127e-01,0.000000000000000000e+00
1.070000000000000000e+02,5.134654887431667758e-01,0.000000000000000000e+00
1.080000000000000000e+02,1.297867755463797179e+00,0.000000000000000000e+00
1.090000000000000000e+02,8.890388563926837628e-01,0.000000000000000000e+00
1.100000000000000000e+02,4.091915210930024971e-01,0.000000000000000000e+00
1.110000000000000000e+02,-1.310346132694825694e-01,0.000000000000000000e+00
1.120000000000000000e+02,-5.261207102440206285e-01,0.000000000000000000e+00
1.130000000000000000e+02,-6.571708679026758704e-01,0.000000000000000000e+00
1.140000000000000000e+02,-8.119009727824344491e-01,0.000000000000000000e+00
1.150000000000000000e+02,-3.292787044455616763e-01,0.000000000000000000e+00
1.160000000000000000e+02,-6.205955303513286392e-01,0.000000000000000000e+00
1.170000000000000000e+02,-6.429434154074193941e-01,0.000000000000000000e+00
1.180000000000000000e+02,-1.696073445869712704e-01,0.000000000000000000e+00
1.190000000000000000e+02,-5.760093343402457045e-01,0.000000000000000000e+00
1.200000000000000000e+02,-2.571578663183979874e-01,0.000000000000000000e+00
1.210000000000000000e+02,-1.832416089253238178e-01,0.000000000000000000e+00
1.220000000000000000e+02,-1.991219025064779047e-01,0.000000000000000000e+00
1.230000000000000000e+02,-1.288812557950213267e-01,0.000000000000000000e+00
1.240000000000000000e+02,4.455809666087700432e-02,0.000000000000000000e+00
1.250000000000000000e+02,1.641555999789668652e-01,0.000000000000000000e+00
1.260000000000000000e+02,1.826224975383774485e-01,0.000000000000000000e+00
1.270000000000000000e+02,-2.060396393706863671e-01,0.000000000000000000e+00
1.280000000000000000e+02,4.253580788520377326e-02,0.000000000000000000e+00
1.290000000000000000e+02,-6.760508675228167341e-01,0.000000000000000000e+00
1.300000000000000000e+02,2.192618119949261424e-01,0.000000000000000000e+00
1.310000000000000000e+02,-4.301704336720220123e-01,0.000000000000000000e+00
1.320000000000000000e+02,-1.139432275362086272e-01,0.000000000000000000e+00
1.330000000000000000e+02,-6.819714044692388732e-01,0.000000000000000000e+00
1.340000000000000000e+02,3.032742835934529868e+00,0.000000000000000000e+00
1.350000000000000000e+02,3.647460447317586230e+00,0.000000000000000000e+00
1.360000000000000000e+02,-6.509020518784083276e-01,1.000000000000000000e+00
1.370000000000000000e+02,-1.575948207959613656e+00,0.000000000000000000e+00
1.380000000000000000e+02,-1.784687264689033492e+00,0.000000000000000000e+00
1.390000000000000000e+02,-1.121181986527342245e+00,0.000000000000000000e+00
1.400000000000000000e+02,-4.105200321757015436e-01,0.000000000000000000e+00
1.410000000000000000e+02,1.025261793486649253e-01,0.000000000000000000e+00
1.420000000000000000e+02,-2.619697865962308803e-01,0.000000000000000000e+00
1.430000000000000000e+02,2.297135389599384847e-01,0.000000000000000000e+00
1.440000000000000000e+02,7.687590123369973313e-03,0.000000000000000000e+00
1.450000000000000000e+02,3.670889201985442774e-01,0.000000000000000000e+00
1.460000000000000000e+02,3.567628767288261171e-01,0.000000000000000000e+00
1.470000000000000000e+02,7.253772648501257692e-01,0.000000000000000000e+00
1.480000000000000000e+02,6.862950645692168505e-01,0.000000000000000000e+00
1.490000000000000000e+02,9.754060066971551590e-01,0.000000000000000000e+00
1.500000000000000000e+02,6.902728252594084735e-01,0.000000000000000000e+00
1.510000000000000000e+02,2.172796179053947674e-01,0.000000000000000000e+00
1.520000000000000000e+02,-1.873401402598815213e-01,0.000000000000000000e+00
1.530000000000000000e+02,-6.558262886817705084e-01,0.000000000000000000e+00
1.540000000000000000e+02,-4.928170854518136301e-01,0.000000000000000000e+00
1.550000000000000000e+02,-5.266999431559291622e-01,0.000000000000000000e+00
1.560000000000000000e+02,-6.857194997192097574e-01,0.000000000000000000e+00
1.570000000000000000e+02,-2.774495302343171765e-01,0.000000000000000000e+00
1.580000000000000000e+02,-6.980846537338563085e-01,0.000000000000000000e+00
1.590000000000000000e+02,-1.940470354321489899e-01,0.000000000000000000e+00
1.600000000000000000e+02,-4.786702679432584540e-01,0.000000000000000000e+00
1.610000000000000000e+02,-3.674243487509510353e-01,0.000000000000000000e+00
1.620000000000000000e+02,-2.545406212266418944e-01,0.000000000000000000e+00
1.630000000000000000e+02,-1.342093625885110997e-01,0.000000000000000000e+00
1.640000000000000000e+02,-7.170780081948535667e-02,0.000000000000000000e+00
1.650000000000000000e+02,2.418965814659146951e-01,0.000000000000000000e+00
1.660000000000000000e+02,-2.529390551214290572e-01,0.000000000000000000e+00
1.670000000000000000e+02,1.957452074590183000e-01,0.000000000000000000e+00
1.680000000000000000e+02,6.972096142353610693e-02,0.000000000000000000e+00
1.690000000000000000e+02,-5.327444389444865314e-01,0.000000000000000000e+00
1.700000000000000000e+02,1.246130471081417085e-02,0.000000000000000000e+00
1.710000000000000000e+02,-1.376594476263760247e-01,0.000000000000000000e+00
1.720000000000000000e+02,-2.572872670831404252e-01,0.000000000000000000e+00
1.730000000000000000e+02,-2.689465548202266132e-01,0.000000000000000000e+00
1.740000000000000000e+02,1.608958259557576875e-01,0.000000000000000000e+00
1.750000000000000000e+02,4.706165514005468786e+00,0.000000000000000000e+00
1.760000000000000000e+02,1.384681005724081704e+00,1.000000000000000000e+00
1.770000000000000000e+02,-1.457470969690060070e+00,0.000000000000000000e+00
1.780000000000000000e+02,-1.658008064234002932e+00,0.000000000000000000e+00
1.790000000000000000e+02,-1.650507711903946406e+00,0.000000000000000000e+00
1.800000000000000000e+02,-7.206714627663505235e-01,0.000000000000000000e+00
1.810000000000000000e+02,5.288422321183867958e-02,0.000000000000000000e+00
1.820000000000000000e+02,-2.443198520186178058e-01,0.000000000000000000e+00
1.830000000000000000e+02,2.214943288327684279e-01,0.000000000000000000e+00
1.840000000000000000e+02,1.173365445279024588e-01,0.000000000000000000e+00
1.850000000000000000e+02,3.330829323395352315e-01,0.000000000000000000e+00
1.860000000000000000e+02,3.266053057218412659e-01,0.000000000000000000e+00
1.870000000000000000e+02,6.600910544669802427e-01,0.000000000000000000e+00
1.880000000000000000e+02,7.338746578565781276e-01,0.000000000000000000e+00
1.890000000000000000e+02,8.636024294992621364e-01,0.000000000000000000e+00
1.900000000000000000e+02,1.108825488184852048e+00,0.000000000000000000e+00
1.910000000000000000e+02,4.605796594127097854e-01,0.000000000000000000e+00
1.920000000000000000e+02,1.525916696029284980e-01,0.000000000000000000e+00
1.930000000000000000e+02,-3.101873306584537748e-01,0.000000000000000000e+00
1.940000000000000000e+02,-5.134154321600349347e-01,0.000000000000000000e+00
1.950000000000000000e+02,-4.875539441021969345e-01,0.000000000000000000e+00
1.960000000000000000e+02,-5.105710764051196726e-01,0.000000000000000000e+00
1.970000000000000000e+02,-3.113638846839947294e-01,0.000000000000000000e+00
1.980000000000000000e+02,-6.437344511113753942e-01,0.000000000000000000e+00
1.990000000000000000e+02,-2.097453396201451326e-01,0.000000000000000000e+00
2.000000000000000000e+02,-2.523849560860004226e-01,0.000000000000000000e+00
2.010000000000000000e+02,-4.215136921154025162e-01,0.000000000000000000e+00
2.020000000000000000e+02,1.555395248288646282e-01,0.000000000000000000e+00
2.030000000000000000e+02,-6.518704648784373612e-02,0.000000000000000000e+00
2.040000000000000000e+02,-3.903893134895549122e-01,0.000000000000000000e+00
2.050000000000000000e+02,3.173267690647778028e-01,0.000000000000000000e+00
2.060000000000000000e+02,1.369317585640754398e-01,0.000000000000000000e+00
2.070000000000000000e+02,2.852395711373359455e-01,0.000000000000000000e+00
2.080000000000000000e+02,-4.639445227632364201e-03,0.000000000000000000e+00
2.090000000000000000e+02,-1.414056483270444420e-01,0.000000000000000000e+00
2.100000000000000000e+02,-1.827219174289225756e-01,0.000000000000000000e+00
2.110000000000000000e+02,-5.072525847247817687e-02,0.000000000000000000e+00
2.120000000000000000e+02,-1.065003245778506497e-01,0.000000000000000000e+00
2.130000000000000000e+02,5.169688018310655830e-02,0.000000000000000000e+00
2.140000000000000000e+02,-9.661516592219319133e-01,0.000000000000000000e+00
2.150000000000000000e+02,3.761909192885033892e+00,0.000000000000000000e+00
2.160000000000000000e+02,3.253953049513904183e+00,0.000000000000000000e+00
2.170000000000000000e+02,-9.388870692025651499e-01,1.000000000000000000e+00
2.180000000000000000e+02,-1.725092629640388120e+00,0.000000000000000000e+00
2.190000000000000000e+02,-1.676799606773980544e+00,0.000000000000000000e+00
2.200000000000000000e+02,-1.071288077307653852e+00,0.000000000000000000e+00
2.210000000000000000e+02,-4.601526802377986503e-01,0.000000000000000000e+00
2.220000000000000000e+02,1.606848988851731774e-01,0.000000000000000000e+00
2.230000000000000000e+02,-1.916628553840634130e-01,0.000000000000000000e+00
2.240000000000000000e+02,2.638963603138655412e-01,0.000000000000000000e+00
2.250000000000000000e+02,1.235079524415068353e-01,0.000000000000000000e+00
2.260000000000000000e+02,3.270520570626465062e-01,0.000000000000000000e+00
2.270000000000000000e+02,4.309074524892731461e-01,0.000000000000000000e+00
2.280000000000000000e+02,7.854531296617490721e-01,0.000000000000000000e+00
2.290000000000000000e+02,1.081215935790066585e+00,0.000000000000000000e+00
2.300000000000000000e+02,7.544182855363339435e-01,0.000000000000000000e+00
2.310000000000000000e+02,7.269708332761380953e-01,0.000000000000000000e+00
2.320000000000000000e+02,5.454761298864668762e-01,0.000000000000000000e+00
2.330000000000000000e+02,-6.671162278916873412e-01,0.000000000000000000e+00
2.340000000000000000e+02,-3.499169901121635951e-01,0.000000000000000000e+00
2.350000000000000000e+02,-5.984141250515052635e-01,0.000000000000000000e+00
2.360000000000000000e+02,-6.966057407702532789e-01,0.000000000000000000e+00
2.370000000000000000e+02,-5.466846320284732830e-01,0.000000000000000000e+00
2.380000000000000000e+02,-3.757186378277012073e-01,0.000000000000000000e+00
2.390000000000000000e+02,-5.993044854749025596e-01,0.000000000000000000e+00
2.400000000000000000e+02,-4.547607543234543637e-01,0.000000000000000000e+00
2.410000000000000000e+02,-4.314248569869231359e-02,0.000000000000000000e+00
2.420000000000000000e+02,-5.456498718455635721e-01,0.000000000000000000e+00
2.430000000000000000e+02,-3.418897704778148250e-01,0.000000000000000000e+00
2.440000000000000000e+02,1.773288871927621857e-01,0.000000000000000000e+00
2.450000000000000000e+02,-1.038250641104098981e-01,0.000000000000000000e+00
2.460000000000000000e+02,-2.132913862931316851e-01,0.000000000000000000e+00
2.470000000000000000e+02,2.424257877766613500e-01,0.000000000000000000e+00
2.480000000000000000e+02,-8.501403050513660353e-02,0.000000000000000000e+00
2.490000000000000000e+02,-4.752208590889475323e-03,0.000000000000000000e+00
2.500000000000000000e+02,1.737275017377493125e-01,0.000000000000000000e+00
2.510000000000000000e+02,-4.252983331845309745e-01,0.000000000000000000e+00
2.520000000000000000e+02,5.463804666197154790e-03,0.000000000000000000e+00
2.530000000000000000e+02,-4.761833939999027820e-01,0.000000000000000000e+00
2.540000000000000000e+02,3.478583441078714200e-01,0.000000000000000000e+00
2.550000000000000000e+02,-1.082004313402078921e+00,0.000000000000000000e+00
2.560000000000000000e+02,1.965424537976498742e+00,0.000000000000000000e+00
2.570000000000000000e+02,4.603332791489387787e+00,0.000000000000000000e+00
2.580000000000000000e+02,-2.869240287613431528e-01,1.000000000000000000e+00
2.590000000000000000e+02,-1.415119165971193249e+00,0.000000000000000000e+00
2.600000000000000000e+02,-1.996905610571638512e+00,0.000000000000000000e+00
2.610000000000000000e+02,-1.402305439680518129e+00,0.000000000000000000e+00
2.620000000000000000e+02,-6.003492643488550495e-01,0.000000000000000000e+00
2.630000000000000000e+02,1.550438563472850964e-03,0.000000000000000000e+00
2.640000000000000000e+02,7.951233875869637147e-02,0.000000000000000000e+00
2.650000000000000000e+02,-1.017371805311130251e-01,0.000000000000000000e+00
2.660000000000000000e+02,3.089093448207214099e-01,0.000000000000000000e+00
2.670000000000000000e+02,3.595252459492992991e-01,0.000000000000000000e+00
2.680000000000000000e+02,1.778592019706106142e-01,0.000000000000000000e+00
2.690000000000000000e+02,1.111964131148949875e+00,0.000000000000000000e+00
2.700000000000000000e+02,6.144493655757566897e-01,0.000000000000000000e+00
2.710000000000000000e+02,9.894745921268129907e-01,0.000000000000000000e+00
2.720000000000000000e+02,1.012880810290363032e+00,0.000000000000000000e+00
2.730000000000000000e+02,2.161989650452434686e-01,0.000000000000000000e+00
2.740000000000000000e+02,-1.448242550213074131e-01,0.000000000000000000e+00
2.750000000000000000e+02,-3.717265417566976149e-01,0.000000000000000000e+00
2.760000000000000000e+02,-6.551761023743067902e-01,0.000000000000000000e+00
2.770000000000000000e+02,-4.994921753981679258e-01,0.000000000000000000e+00
2.780000000000000000e+02,-6.397592759252119787e-01,0.000000000000000000e+00
2.790000000000000000e+02,-4.877270017715599759e-01,0.000000000000000000e+00
2.800000000000000000e+02,-4.393530641769525236e-01,0.000000000000000000e+00
2.810000000000000000e+02,-4.278262637929436951e-01,0.000000000000000000e+00
2.820000000000000000e+02,-3.541019233852678583e-01,0.000000000000000000e+00
2.830000000000000000e+02,-4.841512069059928369e-01,0.000000000000000000e+00
2.840000000000000000e+02,-8.190540534455330313e-02,0.000000000000000000e+00
2.850000000000000000e+02,-1.029624918768604486e-01,0.000000000000000000e+00
2.860000000000000000e+02,-3.176663863650469044e-01,0.000000000000000000e+00
2.870000000000000000e+02,7.186615312775319897e-02,0.000000000000000000e+00
2.880000000000000000e+02,2.103801793814089327e-01,0.000000000000000000e+00
2.890000000000000000e+02,1.781308298278351243e-01,0.000000000000000000e+00
2.900000000000000000e+02,-5.751742204098759387e-02,0.000000000000000000e+00
2.910000000000000000e+02,-3.743787132429584469e-02,0.000000000000000000e+00
2.920000000000000000e+02,-1.963966213029523233e-01,0.000000000000000000e+00
2.930000000000000000e+02,-2.842277463044636798e-01,0.000000000000000000e+00
2.940000000000000000e+02,-6.963665377917956090e-02,0.000000000000000000e+00
2.950000000000000000e+02,1.572539524968519578e-02,0.000000000000000000e+00
2.960000000000000000e+02,-9.622875835704046699e-01,0.000000000000000000e+00
2.970000000000000000e+02,1.486902877133934320e+00,0.000000000000000000e+00
2.980000000000000000e+02,5.075722831415745873e+00,0.000000000000000000e+00
2.990000000000000000e+02,5.756773733306354002e-01,1.000000000000000000e+00
3.000000000000000000e+02,-1.778136905559189351e+00,0.000000000000000000e+00
3.010000000000000000e+02,-2.141198756354610655e+00,0.000000000000000000e+00
3.020000000000000000e+02,-1.522018387973515852e+00,0.000000000000000000e+00
3.030000000000000000e+02,-6.159767785398558848e-01,0.000000000000000000e+00
3.040000000000000000e+02,4.730173152535557118e-02,0.000000000000000000e+00
3.050000000000000000e+02,-1.013770276062763570e-01,0.000000000000000000e+00
3.060000000000000000e+02,1.786365193541413487e-01,0.000000000000000000e+00
3.070000000000000000e+02,1.919863146981685975e-02,0.000000000000000000e+00
3.080000000000000000e+02,4.015228037822455853e-01,0.000000000000000000e+00
3.090000000000000000e+02,4.186052434998095984e-01,0.000000000000000000e+00
3.100000000000000000e+02,8.905716321580251504e-01,0.000000000000000000e+00
3.110000000000000000e+02,8.906491908734984753e-01,0.000000000000000000e+00
3.120000000000000000e+02,1.046501227540695078e+00,0.000000000000000000e+00
3.130000000000000000e+02,9.858256094985446971e-01,0.000000000000000000e+00
3.140000000000000000e+02,5.115372605572674480e-01,0.000000000000000000e+00
3.150000000000000000e+02,-1.105943206722273670e-01,0.000000000000000000e+00
3.160000000000000000e+02,-4.564647585597600976e-01,0.000000000000000000e+00
3.170000000000000000e+02,-5.906976559756370593e-01,0.000000000000000000e+00
3.180000000000000000e+02,-6.073275623103755461e-01,0.000000000000000000e+00
3.190000000000000000e+02,-5.514349964670206550e-01,0.000000000000000000e+00
3.200000000000000000e+02,-5.937477187398190193e-01,0.000000000000000000e+00
3.210000000000000000e+02,-1.567072110438576804e-01,0.000000000000000000e+00
3.220000000000000000e+02,-6.723446703957075554e-01,0.000000000000000000e+00
3.230000000000000000e+02,-4.356159978821925738e-01,0.000000000000000000e+00
3.240000000000000000e+02,-2.179364888986981275e-01,0.000000000000000000e+00
3.250000000000000000e+02,-9.578623063229517454e-02,0.000000000000000000e+00
3.260000000000000000e+02,-2.396715986008279842e-01,0.000000000000000000e+00
3.270000000000000000e+02,-2.242994346174659037e-01,0.000000000000000000e+00
3.280000000000000000e+02,-2.805237400883902610e-01,0.000000000000000000e+00
3.290000000000000000e+02,1.272955919637804023e-01,0.000000000000000000e+00
3.300000000000000000e+02,1.933742626343644966e-01,0.000000000000000000e+00
3.310000000000000000e+02,5.895799989301027388e-02,0.000000000000000000e+00
3.320000000000000000e+02,1.982288460934772054e-02,0.000000000000000000e+00
3.330000000000000000e+02,-1.325281942738776586e-01,0.000000000000000000e+00
3.340000000000000000e+02,-2.965189100861524985e-01,0.000000000000000000e+00
3.350000000000000000e+02,-7.128458919073642208e-02,0.000000000000000000e+00
3.360000000000000000e+02,-1.500335524829098932e-01,0.000000000000000000e+00
3.370000000000000000e+02,-1.833353066333119896e-01,0.000000000000000000e+00
3.380000000000000000e+02,-5.280604022231611960e-01,0.000000000000000000e+00
3.390000000000000000e+02,4.212482981120864167e+00,0.000000000000000000e+00
3.400000000000000000e+02,2.613259110308387534e+00,1.000000000000000000e+00
3.410000000000000000e+02,-1.176470210664728233e+00,0.000000000000000000e+00
3.420000000000000000e+02,-1.420186646669818087e+00,0.000000000000000000e+00
3.430000000000000000e+02,-1.854283682307028114e+00,0.000000000000000000e+00
3.440000000000000000e+02,-9.881125366666562160e-01,0.000000000000000000e+00
3.450000000000000000e+02,-1.322669297875270211e-01,0.000000000000000000e+00
3.460000000000000000e+02,9.492348740531660056e-02,0.000000000000000000e+00
3.470000000000000000e+02,1.244940509331956408e-02,0.000000000000000000e+00
3.480000000000000000e+02,1.882168701236028585e-01,0.000000000000000000e+00
3.490000000000000000e+02,7.668156856737001759e-02,0.000000000000000000e+00
3.500000000000000000e+02,5.871930184634648331e-01,0.000000000000000000e+00
3.510000000000000000e+02,4.188422637526147407e-01,0.000000000000000000e+00
3.520000000000000000e+02,8.833578887016949599e-01,0.000000000000000000e+00
3.530000000000000000e+02,9.313934986261733773e-01,0.000000000000000000e+00
3.540000000000000000e+02,1.078097902925620577e+00,0.000000000000000000e+00
3.550000000000000000e+02,5.719270121135261453e-01,0.000000000000000000e+00
3.560000000000000000e+02,3.073305788580206199e-01,0.000000000000000000e+00
3.570000000000000000e+02,-3.548558455073175799e-01,0.000000000000000000e+00
3.580000000000000000e+02,-5.397850845956808641e-01,0.000000000000000000e+00
3.590000000000000000e+02,-5.856232463323227666e-01,0.000000000000000000e+00
3.600000000000000000e+02,-4.558910997688244149e-01,0.000000000000000000e+00
3.610000000000000000e+02,-5.909097687265898458e-01,0.000000000000000000e+00
3.620000000000000000e+02,-3.492698872735050530e-01,0.000000000000000000e+00
3.630000000000000000e+02,-6.014383079048782887e-01,0.000000000000000000e+00
3.640000000000000000e+02,-2.176207197450017172e-01,0.000000000000000000e+00
3.650000000000000000e+02,-4.215914108853429654e-01,0.000000000000000000e+00
3.660000000000000000e+02,-1.481064099514396437e-01,0.000000000000000000e+00
3.670000000000000000e+02,-3.876458786357652175e-01,0.000000000000000000e+00
3.680000000000000000e+02,-7.315500079540607214e-02,0.000000000000000000e+00
3.690000000000000000e+02,-1.533344053080394342e-01,0.000000000000000000e+00
3.700000000000000000e+02,1.113871407848359557e-01,0.000000000000000000e+00
3.710000000000000000e+02,8.045595928162881105e-02,0.000000000000000000e+00
3.720000000000000000e+02,8.550505802035161806e-02,0.000000000000000000e+00
3.730000000000000000e+02,4.381821287979232454e-02,0.000000000000000000e+00
3.740000000000000000e+02,-4.350909546013856377e-01,0.000000000000000000e+00
3.750000000000000000e+02,-5.085330304238643712e-02,0.000000000000000000e+00
3.760000000000000000e+02,-1.607121685661620503e-01,0.000000000000000000e+00
3.770000000000000000e+02,-2.801439416750207689e-01,0.000000000000000000e+00
3.780000000000000000e+02,-1.165292157845780746e-01,0.000000000000000000e+00
3.790000000000000000e+02,-6.760705194116105599e-01,0.000000000000000000e+00
3.800000000000000000e+02,3.632394953389628700e+00,0.000000000000000000e+00
3.810000000000000000e+02,2.882031619071482087e+00,0.000000000000000000e+00
3.820000000000000000e+02,-9.788394587940904001e-01,1.000000000000000000e+00
3.830000000000000000e+02,-1.429174348170170861e+00,0.000000000000000000e+00
3.840000000000000000e+02,-2.126792748851920489e+00,0.000000000000000000e+00
3.850000000000000000e+02,-7.473737240160643891e-01,0.000000000000000000e+00
3.860000000000000000e+02,-2.629073311415449643e-01,0.000000000000000000e+00
3.870000000000000000e+02,-2.402887902415414695e-02,0.000000000000000000e+00
3.880000000000000000e+02,-1.658510827825302250e-02,0.000000000000000000e+00
3.890000000000000000e+02,1.202605664785745820e-01,0.000000000000000000e+00
3.900000000000000000e+02,7.897139496995665697e-02,0.000000000000000000e+00
3.910000000000000000e+02,3.658093395524125158e-01,0.000000000000000000e+00
3.920000000000000000e+02,4.207627698039868580e-01,0.000000000000000000e+00
3.930000000000000000e+02,7.678361239930027171e-01,0.000000000000000000e+00
3.940000000000000000e+02,7.485870036752816370e-01,0.000000000000000000e+00
3.950000000000000000e+02,9.408671836586625092e-01,0.000000000000000000e+00
3.960000000000000000e+02,6.832137788228273001e-01,0.000000000000000000e+00
3.970000000000000000e+02,1.890357887195670827e-01,0.000000000000000000e+00
3.980000000000000000e+02,-3.036588405301535731e-01,0.000000000000000000e+00
3.990000000000000000e+02,-5.501022776649352464e-01,0.000000000000000000e+00
4.000000000000000000e+02,-4.141605279422481689e-01,0.000000000000000000e+00
4.010000000000000000e+02,-5.238502693411197786e-01,0.000000000000000000e+00
4.020000000000000000e+02,-6.205992046622971214e-01,0.000000000000000000e+00
4.030000000000000000e+02,-3.100571770131612670e-01,0.000000000000000000e+00
4.040000000000000000e+02,-4.271247765305795641e-01,0.000000000000000000e+00
4.050000000000000000e+02,-3.422911978982768333e-01,0.000000000000000000e+00
4.060000000000000000e+02,-2.113775260729399696e-01,0.000000000000000000e+00
4.070000000000000000e+02,3.116706861103376094e-02,0.000000000000000000e+00
4.080000000000000000e+02,-5.977902570657115389e-01,0.000000000000000000e+00
4.090000000000000000e+02,1.966622977058189725e-02,0.000000000000000000e+00
4.100000000000000000e+02,1.321375484229745934e-01,0.000000000000000000e+00
4.110000000000000000e+02,-1.095910947967953936e-01,0.000000000000000000e+00
4.120000000000000000e+02,2.055254214426653903e-01,0.000000000000000000e+00
4.130000000000000000e+02,2.209670403962063490e-01,0.000000000000000000e+00
4.140000000000000000e+02,-3.783357062722148695e-02,0.000000000000000000e+00
4.150000000000000000e+02,-3.042378863854756088e-01,0.000000000000000000e+00
4.160000000000000000e+02,-1.962667507406588574e-01,0.000000000000000000e+00
4.170000000000000000e+02,-1.455200288073892900e-01,0.000000000000000000e+00
4.180000000000000000e+02,-3.789416917518326211e-01,0.000000000000000000e+00
4.190000000000000000e+02,5.861598507591338214e-02,0.000000000000000000e+00
4.200000000000000000e+02,-1.029993829946063366e+00,0.000000000000000000e+00
4.210000000000000000e+02,3.332135170325728257e+00,0.000000000000000000e+00
4.220000000000000000e+02,3.533193353425130301e+00,0.000000000000000000e+00
4.230000000000000000e+02,-1.009278911701696035e+00,1.000000000000000000e+00
4.240000000000000000e+02,-1.340612335448221559e+00,0.000000000000000000e+00
4.250000000000000000e+02,-2.171418732356216186e+00,0.000000000000000000e+00
4.260000000000000000e+02,-9.064501567830660633e-01,0.000000000000000000e+00
4.270000000000000000e+02,-2.348400785270768898e-01,0.000000000000000000e+00
4.280000000000000000e+02,5.647337845634696485e-03,0.000000000000000000e+00
4.290000000000000000e+02,3.892751520179611041e-02,0.000000000000000000e+00
4.300000000000000000e+02,3.216943709998237311e-01,0.000000000000000000e+00
4.310000000000000000e+02,4.741956238895098097e-02,0.000000000000000000e+00
4.320000000000000000e+02,5.449075476771557680e-01,0.000000000000000000e+00
4.330000000000000000e+02,5.066815838085579893e-01,0.000000000000000000e+00
4.340000000000000000e+02,8.368738913304367699e-01,0.000000000000000000e+00
4.350000000000000000e+02,9.039935480052653238e-01,0.000000000000000000e+00
4.360000000000000000e+02,1.207644583616597211e+00,0.000000000000000000e+00
4.370000000000000000e+02,6.230436700244667003e-01,0.000000000000000000e+00
4.380000000000000000e+02,1.845346987231069324e-01,0.000000000000000000e+00
4.390000000000000000e+02,-9.299066655865655118e-02,0.000000000000000000e+00
4.400000000000000000e+02,-5.759814613218754431e-01,0.000000000000000000e+00
4.410000000000000000e+02,-5.479712474004931888e-01,0.000000000000000000e+00
4.420000000000000000e+02,-5.556179136513403893e-01,0.000000000000000000e+00
4.430000000000000000e+02,-7.721187054548130924e-01,0.000000000000000000e+00
4.440000000000000000e+02,-2.257037995753733428e-01,0.000000000000000000e+00
4.450000000000000000e+02,-3.450426201191210684e-01,0.000000000000000000e+00
4.460000000000000000e+02,-7.626605611650857375e-01,0.000000000000000000e+00
4.470000000000000000e+02,-1.582996665280962112e-01,0.000000000000000000e+00
4.480000000000000000e+02,-4.476016301935171193e-01,0.000000000000000000e+00
4.490000000000000000e+02,-1.072425655737355155e-01,0.000000000000000000e+00
4.500000000000000000e+02,-5.192447215541556860e-01,0.000000000000000000e+00
4.510000000000000000e+02,-1.341316997171138406e-02,0.000000000000000000e+00
4.520000000000000000e+02,5.479257255666122178e-02,0.000000000000000000e+00
4.530000000000000000e+02,6.563744296202995987e-02,0.000000000000000000e+00
4.540000000000000000e+02,1.362120767812687039e-01,0.000000000000000000e+00
4.550000000000000000e+02,2.798110559180259083e-01,0.000000000000000000e+00
4.560000000000000000e+02,-1.210454181667423995e-01,0.000000000000000000e+00
4.570000000000000000e+02,6.375657527748469777e-02,0.000000000000000000e+00
4.580000000000000000e+02,-2.885321815167589121e-01,0.000000000000000000e+00
4.590000000000000000e+02,-6.496098183841834961e-02,0.000000000000000000e+00
4.600000000000000000e+02,-2.458321431703557325e-01,0.000000000000000000e+00
4.610000000000000000e+02,4.722702006485025167e-02,0.000000000000000000e+00
4.620000000000000000e+02,-8.418630944785273629e-01,0.000000000000000000e+00
4.630000000000000000e+02,3.296603347762534497e+00,0.000000000000000000e+00
4.640000000000000000e+02,3.993126167256199732e+00,0.000000000000000000e+00
4.650000000000000000e+02,-9.387659209402370308e-01,1.000000000000000000e+00
4.660000000000000000e+02,-1.397563369431789493e+00,0.000000000000000000e+00
4.670000000000000000e+02,-2.254391357434211596e+00,0.000000000000000000e+00
4.680000000000000000e+02,-1.039111015748988232e+00,0.000000000000000000e+00
4.690000000000000000e+02,-9.107328574200491663e-04,0.000000000000000000e+00
4.700000000000000000e+02,-9.420113245621668241e-02,0.000000000000000000e+00
4.710000000000000000e+02,-2.859165582521501214e-01,0.000000000000000000e+00
4.720000000000000000e+02,4.346532841297029437e-01,0.000000000000000000e+00
4.730000000000000000e+02,2.855014346760363364e-01,0.000000000000000000e+00
4.740000000000000000e+02,3.880216071733438854e-01,0.000000000000000000e+00
4.750000000000000000e+02,1.156024203840932962e-01,0.000000000000000000e+00
4.760000000000000000e+02,9.293527674154099527e-01,0.000000000000000000e+00
4.770000000000000000e+02,7.870096535713383412e-01,0.000000000000000000e+00
4.780000000000000000e+02,1.141451611456220538e+00,0.000000000000000000e+00
4.790000000000000000e+02,6.437022879777032358e-01,0.000000000000000000e+00
4.800000000000000000e+02,2.408871100275926658e-01,0.000000000000000000e+00
4.810000000000000000e+02,-8.692083191309657453e-02,0.000000000000000000e+00
4.820000000000000000e+02,-6.252533563813722495e-01,0.000000000000000000e+00
4.830000000000000000e+02,-6.126176484944726441e-01,0.000000000000000000e+00
4.840000000000000000e+02,-3.837271210691057255e-01,0.000000000000000000e+00
4.850000000000000000e+02,-7.749431100374916115e-01,0.000000000000000000e+00
4.860000000000000000e+02,-3.427787973128407217e-01,0.000000000000000000e+00
4.870000000000000000e+02,-6.653568032902470453e-01,0.000000000000000000e+00
4.880000000000000000e+02,-3.919948834796472825e-01,0.000000000000000000e+00
4.890000000000000000e+02,-1.031970342717940942e-01,0.000000000000000000e+00
4.900000000000000000e+02,-1.672079261413728091e-01,0.000000000000000000e+00
4.910000000000000000e+02,-5.676012594560331248e-01,0.000000000000000000e+00
4.920000000000000000e+02,-1.081867076318388798e-01,0.000000000000000000e+00
4.930000000000000000e+02,-2.170838663249223810e-01,0.000000000000000000e+00
4.940000000000000000e+02,1.383949400089414805e-01,0.000000000000000000e+00
4.950000000000000000e+02,5.057181878050832219e-02,0.000000000000000000e+00
4.960000000000000000e+02,1.442479166753002640e-01,0.000000000000000000e+00
4.970000000000000000e+02,1.103552696433938302e-01,0.000000000000000000e+00
4.980000000000000000e+02,-1.375320791003668552e-01,0.000000000000000000e+00
4.990000000000000000e+02,-3.158439275470369401e-01,0.000000000000000000e+00
5.000000000000000000e+02,-1.673138927617620342e-01,0.000000000000000000e+00
5.010000000000000000e+02,-1.666731967348814014e-01,0.000000000000000000e+00
5.020000000000000000e+02,-7.800195894436973143e-02,0.000000000000000000e+00
5.030000000000000000e+02,-5.000899832562081260e-01,0.000000000000000000e+00
5.040000000000000000e+02,1.173293855124328128e-01,0.000000000000000000e+00
5.050000000000000000e+02,4.872898126994247292e+00,0.000000000000000000e+00
5.060000000000000000e+02,1.495085114829305395e+00,1.000000000000000000e+00
5.070000000000000000e+02,-9.965519319446491942e-01,0.000000000000000000e+00
5.080000000000000000e+02,-1.967302988109324025e+00,0.000000000000000000e+00
5.090000000000000000e+02,-2.050145218804574121e+00,0.000000000000000000e+00
5.100000000000000000e+02,-3.179797148613281998e-01,0.000000000000000000e+00
5.110000000000000000e+02,-6.953375907345392404e-02,0.000000000000000000e+00
5.120000000000000000e+02,-1.224806812910935461e-01,0.000000000000000000e+00
5.130000000000000000e+02,-2.208149642424064515e-02,0.000000000000000000e+00
5.140000000000000000e+02,3.707807492733209975e-01,0.000000000000000000e+00
5.150000000000000000e+02,3.544390931476279483e-01,0.000000000000000000e+00
5.160000000000000000e+02,2.665350067460285355e-01,0.000000000000000000e+00
5.170000000000000000e+02,5.697861953215094255e-01,0.000000000000000000e+00
5.180000000000000000e+02,8.643299082417736923e-01,0.000000000000000000e+00
5.190000000000000000e+02,1.244837629211173802e+00,0.000000000000000000e+00
5.200000000000000000e+02,9.740967076626518839e-01,0.000000000000000000e+00
5.210000000000000000e+02,1.513374695247745039e-01,0.000000000000000000e+00
5.220000000000000000e+02,3.040695390883149107e-01,0.000000000000000000e+00
5.230000000000000000e+02,-6.862575717406369513e-01,0.000000000000000000e+00
5.240000000000000000e+02,-2.296211397711344082e-01,0.000000000000000000e+00
5.250000000000000000e+02,-8.534574330125135333e-01,0.000000000000000000e+00
5.260000000000000000e+02,-6.847983108600452784e-01,0.000000000000000000e+00
5.270000000000000000e+02,-3.716040778717131787e-01,0.000000000000000000e+00
5.280000000000000000e+02,-5.716543186987087521e-01,0.000000000000000000e+00
5.290000000000000000e+02,-5.476337440762586439e-01,0.000000000000000000e+00
5.300000000000000000e+02,-2.559402255659469216e-01,0.000000000000000000e+00
5.310000000000000000e+02,-7.728296784294655941e-01,0.000000000000000000e+00
5.320000000000000000e+02,-4.811188185122837468e-02,0.000000000000000000e+00
5.330000000000000000e+02,-2.165059540010988715e-01,0.000000000000000000e+00
5.340000000000000000e+02,-4.058213749567560757e-01,0.000000000000000000e+00
5.350000000000000000e+02,-5.451934381402107239e-03,0.000000000000000000e+00
5.360000000000000000e+02,-1.224888847333247266e-01,0.000000000000000000e+00
5.370000000000000000e+02,-1.034920088507076535e-01,0.000000000000000000e+00
5.380000000000000000e+02,1.747214353099706685e-01,0.000000000000000000e+00
5.390000000000000000e+02,2.899187549721903845e-01,0.000000000000000000e+00
5.400000000000000000e+02,5.789107361777843380e-02,0.000000000000000000e+00
5.410000000000000000e+02,-1.159098156368463528e-01,0.000000000000000000e+00
5.420000000000000000e+02,-1.704916436599916429e-01,0.000000000000000000e+00
5.430000000000000000e+02,-1.427296148630142480e-01,0.000000000000000000e+00
5.440000000000000000e+02,-1.542308827409467620e-01,0.000000000000000000e+00
5.450000000000000000e+02,5.988453276538296954e-02,0.000000000000000000e+00
5.460000000000000000e+02,-6.207017456444323678e-01,0.000000000000000000e+00
5.470000000000000000e+02,6.663705566270295977e-01,0.000000000000000000e+00
5.480000000000000000e+02,4.872893616554872409e+00,0.000000000000000000e+00
5.490000000000000000e+02,7.559565100901145529e-01,1.000000000000000000e+00
5.500000000000000000e+02,-1.340641347754559787e+00,0.000000000000000000e+00
5.510000000000000000e+02,-1.839296203156959741e+00,0.000000000000000000e+00
5.520000000000000000e+02,-1.487412599306280558e+00,0.000000000000000000e+00
5.530000000000000000e+02,-5.639748884786228711e-01,0.000000000000000000e+00
5.540000000000000000e+02,-1.264054530781008046e-01,0.000000000000000000e+00
5.550000000000000000e+02,1.431191246411190887e-01,0.000000000000000000e+00
5.560000000000000000e+02,6.058526088684822869e-02,0.000000000000000000e+00
5.570000000000000000e+02,1.585494024382680667e-01,0.000000000000000000e+00
5.580000000000000000e+02,2.908872481344474403e-01,0.000000000000000000e+00
5.590000000000000000e+02,5.668943296610178262e-01,0.000000000000000000e+00
5.600000000000000000e+02,5.974488284516819014e-01,0.000000000000000000e+00
5.610000000000000000e+02,9.144629967194735087e-01,0.000000000000000000e+00
5.620000000000000000e+02,9.113596818196835203e-01,0.000000000000000000e+00
5.630000000000000000e+02,9.682285517244206829e-01,0.000000000000000000e+00
5.640000000000000000e+02,6.136900686445206921e-01,0.000000000000000000e+00
5.650000000000000000e+02,2.426173791461262025e-02,0.000000000000000000e+00
5.660000000000000000e+02,-4.090230492638096682e-01,0.000000000000000000e+00
5.670000000000000000e+02,-6.061042326929361179e-01,0.000000000000000000e+00
5.680000000000000000e+02,-2.896820943190176467e-01,0.000000000000000000e+00
5.690000000000000000e+02,-9.454569560891311619e-01,0.000000000000000000e+00
5.700000000000000000e+02,-3.842570827359275687e-01,0.000000000000000000e+00
5.710000000000000000e+02,-2.472761367063743276e-01,0.000000000000000000e+00
5.720000000000000000e+02,-6.046097890587804891e-01,0.000000000000000000e+00
5.730000000000000000e+02,-2.550559998840774556e-01,0.000000000000000000e+00
5.740000000000000000e+02,-2.086885517512033217e-01,0.000000000000000000e+00
5.750000000000000000e+02,-2.761134880043393802e-01,0.000000000000000000e+00
5.760000000000000000e+02,-2.293892298632543292e-01,0.000000000000000000e+00
5.770000000000000000e+02,-2.900624900632082226e-01,0.000000000000000000e+00
5.780000000000000000e+02,1.644598576281929361e-02,0.000000000000000000e+00
5.790000000000000000e+02,-5.115045697036730427e-02,0.000000000000000000e+00
5.800000000000000000e+02,4.251930090233134452e-02,0.000000000000000000e+00
5.810000000000000000e+02,1.561002697368381320e-01,0.000000000000000000e+00
5.820000000000000000e+02,-1.270977855434974602e-01,0.000000000000000000e+00
5.830000000000000000e+02,1.370883756011033981e-02,0.000000000000000000e+00
5.840000000000000000e+02,-3.603773350339637416e-01,0.000000000000000000e+00
5.850000000000000000e+02,-2.450461772400324423e-01,0.000000000000000000e+00
5.860000000000000000e+02,-2.835568202718014574e-01,0.000000000000000000e+00
5.870000000000000000e+02,-1.247103083222484976e-01,0.000000000000000000e+00
5.880000000000000000e+02,-5.008234563380886684e-01,0.000000000000000000e+00
5.890000000000000000e+02,1.451116531444925251e+00,0.000000000000000000e+00
5.900000000000000000e+02,4.439702987533481249e+00,0.000000000000000000e+00
5.910000000000000000e+02,-4.377617878399469586e-01,1.000000000000000000e+00
5.920000000000000000e+02,-1.193214772716152838e+00,0.000000000000000000e+00
5.930000000000000000e+02,-1.683939979978857693e+00,0.000000000000000000e+00
5.940000000000000000e+02,-1.348600282998047240e+00,0.000000000000000000e+00
5.950000000000000000e+02,-5.642315589177437918e-01,0.000000000000000000e+00
5.960000000000000000e+02,-9.372435793088164380e-02,0.000000000000000000e+00
5.970000000000000000e+02,-7.665069945302916722e-03,0.000000000000000000e+00
5.980000000000000000e+02,1.128803564341112342e-01,0.000000000000000000e+00
5.990000000000000000e+02,1.699745886983486109e-01,0.000000000000000000e+00
6.000000000000000000e+02,1.979900425097307903e-01,0.000000000000000000e+00
6.010000000000000000e+02,3.043007703325705804e-01,0.000000000000000000e+00
6.020000000000000000e+02,8.096802800477249651e-01,0.000000000000000000e+00
6.030000000000000000e+02,6.885779739027986235e-01,0.000000000000000000e+00
6.040000000000000000e+02,1.037293940843495577e+00,0.000000000000000000e+00
6.050000000000000000e+02,6.558656549769316113e-01,0.000000000000000000e+00
6.060000000000000000e+02,4.278407666096263884e-01,0.000000000000000000e+00
6.070000000000000000e+02,-1.045655358409631336e-01,0.000000000000000000e+00
6.080000000000000000e+02,-4.315170590125144701e-01,0.000000000000000000e+00
6.090000000000000000e+02,-6.553439836402968899e-01,0.000000000000000000e+00
6.100000000000000000e+02,-4.639427315931554108e-01,0.000000000000000000e+00
6.110000000000000000e+02,-6.567109194949917184e-01,0.000000000000000000e+00
6.120000000000000000e+02,-2.920525373984557693e-01,0.000000000000000000e+00
6.130000000000000000e+02,-4.130331475317494117e-01,0.000000000000000000e+00
6.140000000000000000e+02,-3.745270743022762749e-01,0.000000000000000000e+00
6.150000000000000000e+02,-3.198555801123775799e-01,0.000000000000000000e+00
6.160000000000000000e+02,-1.798900360829285561e-01,0.000000000000000000e+00
6.170000000000000000e+02,-3.231955052045778487e-01,0.000000000000000000e+00
6.180000000000000000e+02,-1.440151793524954487e-03,0.000000000000000000e+00
6.190000000000000000e+02,-6.482603714230565639e-02,0.000000000000000000e+00
6.200000000000000000e+02,1.895212110236955683e-01,0.000000000000000000e+00
6.210000000000000000e+02,1.928674683556561298e-01,0.000000000000000000e+00
6.220000000000000000e+02,1.631447160345793623e-01,0.000000000000000000e+00
6.230000000000000000e+02,-9.747471612933492069e-02,0.000000000000000000e+00
6.240000000000000000e+02,2.980820746755585837e-02,0.000000000000000000e+00
6.250000000000000000e+02,-3.040921649000949967e-01,0.000000000000000000e+00
6.260000000000000000e+02,8.103636550423562457e-02,0.000000000000000000e+00
6.270000000000000000e+02,-3.350946918543435404e-01,0.000000000000000000e+00
6.280000000000000000e+02,9.114719301646784233e-02,0.000000000000000000e+00
6.290000000000000000e+02,-9.182929501516305937e-01,0.000000000000000000e+00
6.300000000000000000e+02,3.168411951356664424e+00,0.000000000000000000e+00
6.310000000000000000e+02,3.407709798222717357e+00,0.000000000000000000e+00
6.320000000000000000e+02,-9.415173195933084216e-01,1.000000000000000000e+00
6.330000000000000000e+02,-1.410784879704132688e+00,0.000000000000000000e+00
6.340000000000000000e+02,-1.929961806459333795e+00,0.000000000000000000e+00
6.350000000000000000e+02,-8.904651630435768128e-01,0.000000000000000000e+00
6.360000000000000000e+02,-2.830188749646013191e-01,0.000000000000000000e+00
6.370000000000000000e+02,9.277829915767286939e-02,0.000000000000000000e+00
6.380000000000000000e+02,-9.456072948028718117e-02,0.000000000000000000e+00
6.390000000000000000e+02,3.274720938123616976e-01,0.000000000000000000e+00
6.400000000000000000e+02,4.447872217583558330e-01,0.000000000000000000e+00
6.410000000000000000e+02,2.047838927775999240e-01,0.000000000000000000e+00
6.420000000000000000e+02,6.898349302043678133e-01,0.000000000000000000e+00
6.430000000000000000e+02,8.039048006512115041e-01,0.000000000000000000e+00
6.440000000000000000e+02,9.182782526323439720e-01,0.000000000000000000e+00
6.450000000000000000e+02,1.173650399779920139e+00,0.000000000000000000e+00
6.460000000000000000e+02,6.403884635971770489e-01,0.000000000000000000e+00
6.470000000000000000e+02,2.936078935441753246e-01,0.000000000000000000e+00
6.480000000000000000e+02,-1.401908316320510939e-01,0.000000000000000000e+00
6.490000000000000000e+02,-5.960045342867248408e-01,0.000000000000000000e+00
6.500000000000000000e+02,-5.389819174236821775e-01,0.000000000000000000e+00
6.510000000000000000e+02,-6.176043597738269941e-01,0.000000000000000000e+00
6.520000000000000000e+02,-3.983468612172457179e-01,0.000000000000000000e+00
6.530000000000000000e+02,-6.899388474872494292e-01,0.000000000000000000e+00
6.540000000000000000e+02,-2.889316267066103228e-01,0.000000000000000000e+00
6.550000000000000000e+02,-4.102926738108911286e-01,0.000000000000000000e+00
6.560000000000000000e+02,-3.492999280468775947e-01,0.000000000000000000e+00
6.570000000000000000e+02,-3.861846647216203299e-01,0.000000000000000000e+00
6.580000000000000000e+02,-1.702762720003539176e-01,0.000000000000000000e+00
6.590000000000000000e+02,-1.521109917573061632e-01,0.000000000000000000e+00
6.600000000000000000e+02,-1.567954260645285924e-01,0.000000000000000000e+00
6.610000000000000000e+02,3.844843479118036089e-02,0.000000000000000000e+00
6.620000000000000000e+02,2.103186124877850227e-01,0.000000000000000000e+00
6.630000000000000000e+02,9.702877207870996834e-02,0.000000000000000000e+00
6.640000000000000000e+02,1.661664611668281499e-01,0.000000000000000000e+00
6.650000000000000000e+02,-1.237768802940240054e-01,0.000000000000000000e+00
6.660000000000000000e+02,-9.347205361614381591e-02,0.000000000000000000e+00
6.670000000000000000e+02,-3.880513282459739366e-01,0.000000000000000000e+00
6.680000000000000000e+02,-1.999395629325743939e-02,0.000000000000000000e+00
6.690000000000000000e+02,-2.209023447114318583e-01,0.000000000000000000e+00
6.700000000000000000e+02,-4.023869667388559335e-01,0.000000000000000000e+00
6.710000000000000000e+02,-8.369069062604111986e-02,0.000000000000000000e+00
6.720000000000000000e+02,4.714653402602049681e+00,0.000000000000000000e+00
6.730000000000000000e+02,1.686685455286567104e+00,1.000000000000000000e+00
6.740000000000000000e+02,-1.155995068707765361e+00,0.000000000000000000e+00
6.750000000000000000e+02,-1.935351590903692021e+00,0.000000000000000000e+00
6.760000000000000000e+02,-1.932972827998813425e+00,0.000000000000000000e+00
6.770000000000000000e+02,-5.057299335407914320e-01,0.000000000000000000e+00
6.780000000000000000e+02,-2.456965962027375938e-01,0.000000000000000000e+00
6.790000000000000000e+02,5.754833634704896277e-03,0.000000000000000000e+00
6.800000000000000000e+02,4.712154609104930031e-02,0.000000000000000000e+00
6.810000000000000000e+02,1.612929394649656734e-01,0.000000000000000000e+00
6.820000000000000000e+02,3.778179346068170075e-01,0.000000000000000000e+00
6.830000000000000000e+02,5.764955868187362498e-01,0.000000000000000000e+00
6.840000000000000000e+02,4.950450034026590007e-01,0.000000000000000000e+00
6.850000000000000000e+02,6.841480442660564654e-01,0.000000000000000000e+00
6.860000000000000000e+02,1.155654772681079967e+00,0.000000000000000000e+00
6.870000000000000000e+02,1.008696074838473455e+00,0.000000000000000000e+00
6.880000000000000000e+02,4.821427321349519013e-01,0.000000000000000000e+00
6.890000000000000000e+02,5.296447826759118765e-02,0.000000000000000000e+00
6.900000000000000000e+02,-5.429033541680972075e-01,0.000000000000000000e+00
6.910000000000000000e+02,-4.765658483705851878e-01,0.000000000000000000e+00
6.920000000000000000e+02,-5.938116636703784090e-01,0.000000000000000000e+00
6.930000000000000000e+02,-5.717099110166078413e-01,0.000000000000000000e+00
6.940000000000000000e+02,-5.871071063030690595e-01,0.000000000000000000e+00
6.950000000000000000e+02,-5.035859814376650867e-01,0.000000000000000000e+00
6.960000000000000000e+02,-3.592728932464581693e-01,0.000000000000000000e+00
6.970000000000000000e+02,-6.855196602401343320e-01,0.000000000000000000e+00
6.980000000000000000e+02,-9.396995390223883415e-02,0.000000000000000000e+00
6.990000000000000000e+02,-2.941686989536392849e-01,0.000000000000000000e+00
7.000000000000000000e+02,-3.545838451653045009e-01,0.000000000000000000e+00
7.010000000000000000e+02,-1.056393580179584568e-01,0.000000000000000000e+00
7.020000000000000000e+02,-5.735367990725855070e-02,0.000000000000000000e+00
7.030000000000000000e+02,5.650738797996585072e-02,0.000000000000000000e+00
7.040000000000000000e+02,2.885659774172760206e-01,0.000000000000000000e+00
7.050000000000000000e+02,2.622562634920812957e-02,0.000000000000000000e+00
7.060000000000000000e+02,-5.490331566849616651e-01,0.000000000000000000e+00
7.070000000000000000e+02,-3.156871597956136810e-01,0.000000000000000000e+00
7.080000000000000000e+02,1.319438246607823051e-01,0.000000000000000000e+00
7.090000000000000000e+02,-4.910419016760753097e-01,0.000000000000000000e+00
7.100000000000000000e+02,4.881407108501533559e-02,0.000000000000000000e+00
7.110000000000000000e+02,-9.332857069833147001e-01,0.000000000000000000e+00
7.120000000000000000e+02,1.636331771827272963e+00,0.000000000000000000e+00
7.130000000000000000e+02,4.678230855656991594e+00,0.000000000000000000e+00
7.140000000000000000e+02,7.876743736758913539e-02,1.000000000000000000e+00
7.150000000000000000e+02,-1.238042045992904905e+00,0.000000000000000000e+00
7.160000000000000000e+02,-2.418566344808047219e+00,0.000000000000000000e+00
7.170000000000000000e+02,-1.190643928756452530e+00,0.000000000000000000e+00
7.180000000000000000e+02,-4.055127536715248393e-01,0.000000000000000000e+00
7.190000000000000000e+02,-1.959162155030272079e-01,0.000000000000000000e+00
7.200000000000000000e+02,1.105841872607273985e-01,0.000000000000000000e+00
7.210000000000000000e+02,1.949519991779612160e-01,0.000000000000000000e+00
7.220000000000000000e+02,1.099531827844307252e-01,0.000000000000000000e+00
7.230000000000000000e+02,2.839902491483253244e-01,0.000000000000000000e+00
7.240000000000000000e+02,6.051019929340906156e-01,0.000000000000000000e+00
7.250000000000000000e+02,6.716933651460356147e-01,0.000000000000000000e+00
7.260000000000000000e+02,1.037222622083082468e+00,0.000000000000000000e+00
7.270000000000000000e+02,9.943059012928948670e-01,0.000000000000000000e+00
7.280000000000000000e+02,8.436315778501543017e-01,0.000000000000000000e+00
7.290000000000000000e+02,5.148435457997030396e-01,0.000000000000000000e+00
7.300000000000000000e+02,-2.293030894856330770e-01,0.000000000000000000e+00
7.310000000000000000e+02,-4.577198766218189552e-01,0.000000000000000000e+00
7.320000000000000000e+02,-6.116876793904391096e-01,0.000000000000000000e+00
7.330000000000000000e+02,-6.428463452525458033e-01,0.000000000000000000e+00
7.340000000000000000e+02,-5.698131787717316543e-01,0.000000000000000000e+00
7.350000000000000000e+02,-6.408353884095868702e-01,0.000000000000000000e+00
7.360000000000000000e+02,-4.076858022351774191e-01,0.000000000000000000e+00
7.370000000000000000e+02,-4.392700929635914298e-01,0.000000000000000000e+00
7.380000000000000000e+02,-2.158379111283305063e-01,0.000000000000000000e+00
7.390000000000000000e+02,-2.878980515755754088e-01,0.000000000000000000e+00
7.400000000000000000e+02,-3.134234747936064935e-01,0.000000000000000000e+00
7.410000000000000000e+02,-7.883952345455845501e-02,0.000000000000000000e+00
7.420000000000000000e+02,-2.560475955005626220e-02,0.000000000000000000e+00
7.430000000000000000e+02,8.876627933585819544e-03,0.000000000000000000e+00
7.440000000000000000e+02,9.334297310376907242e-02,0.000000000000000000e+00
7.450000000000000000e+02,4.013111258565049688e-01,0.000000000000000000e+00
7.460000000000000000e+02,3.596457780775842022e-02,0.000000000000000000e+00
7.470000000000000000e+02,-1.528716683766410400e-01,0.000000000000000000e+00
7.480000000000000000e+02,-1.317462403408320611e-02,0.000000000000000000e+00
7.490000000000000000e+02,-2.618647452366704154e-01,0.000000000000000000e+00
7.500000000000000000e+02,-1.679094003087606146e-01,0.000000000000000000e+00
7.510000000000000000e+02,-4.817041787526878810e-02,0.000000000000000000e+00
7.520000000000000000e+02,-4.797459872292624827e-01,0.000000000000000000e+00
7.530000000000000000e+02,-9.032536510282827835e-02,0.000000000000000000e+00
7.540000000000000000e+02,4.685867516057485638e+00,0.000000000000000000e+00
7.550000000000000000e+02,1.693178517488961976e+00,1.000000000000000000e+00
7.560000000000000000e+02,-1.333441469458664042e+00,0.000000000000000000e+00
7.570000000000000000e+02,-1.337422653582839072e+00,0.000000000000000000e+00
7.580000000000000000e+02,-1.985045495664112813e+00,0.000000000000000000e+00
7.590000000000000000e+02,-7.315486410836934406e-01,0.000000000000000000e+00
7.600000000000000000e+02,-3.373167772688391575e-02,0.000000000000000000e+00
7.610000000000000000e+02,-1.069793693318975419e-01,0.000000000000000000e+00
7.620000000000000000e+02,9.097114557012569991e-02,0.000000000000000000e+00
7.630000000000000000e+02,2.424458872676799326e-01,0.000000000000000000e+00
7.640000000000000000e+02,1.795559663155826546e-01,0.000000000000000000e+00
7.650000000000000000e+02,4.389951234551591197e-01,0.000000000000000000e+00
7.660000000000000000e+02,5.532377572834072943e-01,0.000000000000000000e+00
7.670000000000000000e+02,9.896940183859367357e-01,0.000000000000000000e+00
7.680000000000000000e+02,7.903153748400494338e-01,0.000000000000000000e+00
7.690000000000000000e+02,1.076590113599792176e+00,0.000000000000000000e+00
7.700000000000000000e+02,6.446964161218878830e-01,0.000000000000000000e+00
7.710000000000000000e+02,-8.911793718814010890e-02,0.000000000000000000e+00
7.720000000000000000e+02,-3.694914071774651476e-01,0.000000000000000000e+00
7.730000000000000000e+02,-4.357475794720548357e-01,0.000000000000000000e+00
7.740000000000000000e+02,-7.764903267051065372e-01,0.000000000000000000e+00
7.750000000000000000e+02,-4.660594107631204075e-01,0.000000000000000000e+00
7.760000000000000000e+02,-6.643206621528421341e-01,0.000000000000000000e+00
7.770000000000000000e+02,-4.195176071556813158e-01,0.000000000000000000e+00
7.780000000000000000e+02,-4.779558152997731013e-01,0.000000000000000000e+00
7.790000000000000000e+02,-2.996980708062439991e-01,0.000000000000000000e+00
7.800000000000000000e+02,-4.175050890957355265e-01,0.000000000000000000e+00
7.810000000000000000e+02,-9.967687439472942834e-02,0.000000000000000000e+00
7.820000000000000000e+02,-3.516573992347536426e-01,0.000000000000000000e+00
7.830000000000000000e+02,-1.565557019627484836e-01,0.000000000000000000e+00
7.840000000000000000e+02,2.621863359000769361e-02,0.000000000000000000e+00
7.850000000000000000e+02,1.840711884281946153e-01,0.000000000000000000e+00
7.860000000000000000e+02,3.651171205157633520e-02,0.000000000000000000e+00
7.870000000000000000e+02,-7.859659485944615886e-02,0.000000000000000000e+00
7.880000000000000000e+02,7.620466974802170279e-02,0.000000000000000000e+00
7.890000000000000000e+02,-1.883357579336079612e-01,0.000000000000000000e+00
7.900000000000000000e+02,-4.486648318146884695e-01,0.000000000000000000e+00
7.910000000000000000e+02,8.392826821495262546e-02,0.000000000000000000e+00
7.920000000000000000e+02,-1.829760664442206530e-01,0.000000000000000000e+00
7.930000000000000000e+02,-4.874928089542431286e-01,0.000000000000000000e+00
7.940000000000000000e+02,3.027992701195313940e-01,0.000000000000000000e+00
7.950000000000000000e+02,4.597852887407259281e+00,0.000000000000000000e+00
7.960000000000000000e+02,1.182444455406934436e+00,1.000000000000000000e+00
7.970000000000000000e+02,-1.482887152799860830e+00,0.000000000000000000e+00
7.980000000000000000e+02,-1.542396222117469184e+00,0.000000000000000000e+00
7.990000000000000000e+02,-1.646784149476855585e+00,0.000000000000000000e+00
8.000000000000000000e+02,-9.779662094520146232e-01,0.000000000000000000e+00
8.010000000000000000e+02,2.640835101163493404e-01,0.000000000000000000e+00
8.020000000000000000e+02,-1.498177468006222091e-01,0.000000000000000000e+00
8.030000000000000000e+02,1.203380891350116014e-02,0.000000000000000000e+00
8.040000000000000000e+02,3.796351070987393772e-01,0.000000000000000000e+00
8.050000000000000000e+02,2.136048008135953049e-03,0.000000000000000000e+00
8.060000000000000000e+02,5.644056125609621111e-01,0.000000000000000000e+00
8.070000000000000000e+02,6.847997993817396267e-01,0.000000000000000000e+00
8.080000000000000000e+02,7.903556137344797117e-01,0.000000000000000000e+00
8.090000000000000000e+02,1.076673059419233747e+00,0.000000000000000000e+00
8.100000000000000000e+02,8.941802308525181875e-01,0.000000000000000000e+00
8.110000000000000000e+02,2.866897395090551304e-01,0.000000000000000000e+00
8.120000000000000000e+02,2.162011348365589225e-01,0.000000000000000000e+00
8.130000000000000000e+02,-5.239972592658819206e-01,0.000000000000000000e+00
8.140000000000000000e+02,-5.257514808161873887e-01,0.000000000000000000e+00
8.150000000000000000e+02,-3.765887085539776358e-01,0.000000000000000000e+00
8.160000000000000000e+02,-7.530148867238647403e-01,0.000000000000000000e+00
8.170000000000000000e+02,-4.439403667162675204e-01,0.000000000000000000e+00
8.180000000000000000e+02,-3.310136136495067105e-01,0.000000000000000000e+00
8.190000000000000000e+02,-5.708293473329285606e-01,0.000000000000000000e+00
8.200000000000000000e+02,-2.203277520141108947e-01,0.000000000000000000e+00
8.210000000000000000e+02,-3.065563615211105430e-01,0.000000000000000000e+00
8.220000000000000000e+02,-4.792854486929462032e-01,0.000000000000000000e+00
8.230000000000000000e+02,7.692180060457984303e-02,0.000000000000000000e+00
8.240000000000000000e+02,-4.248059501271320149e-01,0.000000000000000000e+00
8.250000000000000000e+02,1.222920479889518242e-01,0.000000000000000000e+00
8.260000000000000000e+02,1.850740684550003234e-01,0.000000000000000000e+00
8.270000000000000000e+02,1.470115318017446160e-01,0.000000000000000000e+00
8.280000000000000000e+02,-6.591001646758294641e-02,0.000000000000000000e+00
8.290000000000000000e+02,-1.034136677421731293e-01,0.000000000000000000e+00
8.300000000000000000e+02,-2.395144573171963664e-01,0.000000000000000000e+00
8.310000000000000000e+02,-1.038721552542021080e-02,0.000000000000000000e+00
8.320000000000000000e+02,-2.236370051438268114e-01,0.000000000000000000e+00
8.330000000000000000e+02,-1.349253383408471618e-01,0.000000000000000000e+00
8.340000000000000000e+02,-8.775757726176969253e-01,0.000000000000000000e+00
8.350000000000000000e+02,2.096714204955352212e+00,0.000000000000000000e+00
8.360000000000000000e+02,4.407363740908715855e+00,0.000000000000000000e+00
8.370000000000000000e+02,-4.811678881540381592e-01,1.000000000000000000e+00
8.380000000000000000e+02,-1.311995811350542773e+00,0.000000000000000000e+00
8.390000000000000000e+02,-2.118886660827686619e+00,0.000000000000000000e+00
8.400000000000000000e+02,-1.285856645571907375e+00,0.000000000000000000e+00
8.410000000000000000e+02,-4.039039398469613240e-01,0.000000000000000000e+00
8.420000000000000000e+02,2.935896844951834880e-02,0.000000000000000000e+00
8.430000000000000000e+02,-8.502998814838057251e-02,0.000000000000000000e+00
8.440000000000000000e+02,3.482978034066201434e-01,0.000000000000000000e+00
8.450000000000000000e+02,1.519382967870557266e-01,0.000000000000000000e+00
8.460000000000000000e+02,3.106340972517499521e-01,0.000000000000000000e+00
8.470000000000000000e+02,5.608645857478354868e-01,0.000000000000000000e+00
8.480000000000000000e+02,8.024418547108714828e-01,0.000000000000000000e+00
8.490000000000000000e+02,9.654448416720861070e-01,0.000000000000000000e+00
8.500000000000000000e+02,1.059115028744191944e+00,0.000000000000000000e+00
8.510000000000000000e+02,7.688720055244694374e-01,0.000000000000000000e+00
8.520000000000000000e+02,4.968005784193608165e-01,0.000000000000000000e+00
8.530000000000000000e+02,-2.643521498197700104e-01,0.000000000000000000e+00
8.540000000000000000e+02,-4.480252309290715940e-01,0.000000000000000000e+00
8.550000000000000000e+02,-6.040919571986653747e-01,0.000000000000000000e+00
8.560000000000000000e+02,-3.586964962697765658e-01,0.000000000000000000e+00
8.570000000000000000e+02,-8.434070920605729604e-01,0.000000000000000000e+00
8.580000000000000000e+02,-3.643826356447081860e-01,0.000000000000000000e+00
8.590000000000000000e+02,-5.110739610535917077e-01,0.000000000000000000e+00
8.600000000000000000e+02,-2.371720416907684426e-01,0.000000000000000000e+00
8.610000000000000000e+02,-4.658810483007410630e-01,0.000000000000000000e+00
8.620000000000000000e+02,-2.967747334375757107e-01,0.000000000000000000e+00
8.630000000000000000e+02,-3.574811798983589251e-01,0.000000000000000000e+00
8.640000000000000000e+02,3.201880031956967632e-02,0.000000000000000000e+00
8.650000000000000000e+02,-3.207250493004865088e-01,0.000000000000000000e+00
8.660000000000000000e+02,2.062084765404971487e-01,0.000000000000000000e+00
8.670000000000000000e+02,5.210441539191935229e-02,0.000000000000000000e+00
8.680000000000000000e+02,2.081265454088412625e-01,0.000000000000000000e+00
8.690000000000000000e+02,-1.963721241493282255e-01,0.000000000000000000e+00
8.700000000000000000e+02,-8.344438054866723520e-02,0.000000000000000000e+00
8.710000000000000000e+02,-2.519932489685885457e-01,0.000000000000000000e+00
8.720000000000000000e+02,-4.061440400318828969e-02,0.000000000000000000e+00
8.730000000000000000e+02,-3.801722064432640491e-01,0.000000000000000000e+00
8.740000000000000000e+02,1.259452313682995483e-01,0.000000000000000000e+00
8.750000000000000000e+02,-1.065125007457863981e+00,0.000000000000000000e+00
8.760000000000000000e+02,2.084098367278241604e+00,0.000000000000000000e+00
8.770000000000000000e+02,4.688186632560073619e+00,0.000000000000000000e+00
8.780000000000000000e+02,-1.745620682700751158e-01,1.000000000000000000e+00
8.790000000000000000e+02,-1.363631381273693988e+00,0.000000000000000000e+00
8.800000000000000000e+02,-2.300594579359989567e+00,0.000000000000000000e+00
8.810000000000000000e+02,-1.167676516683078480e+00,0.000000000000000000e+00
8.820000000000000000e+02,-3.141511828132156903e-01,0.000000000000000000e+00
8.830000000000000000e+02,-1.195093956174806682e-01,0.000000000000000000e+00
8.840000000000000000e+02,1.315827776750566613e-01,0.000000000000000000e+00
8.850000000000000000e+02,1.977928963986358146e-01,0.000000000000000000e+00
8.860000000000000000e+02,3.112480140300827314e-01,0.000000000000000000e+00
8.870000000000000000e+02,2.879743380231333250e-01,0.000000000000000000e+00
8.880000000000000000e+02,6.486503946349880811e-01,0.000000000000000000e+00
8.890000000000000000e+02,7.593060023496118749e-01,0.000000000000000000e+00
8.900000000000000000e+02,8.295900911440458048e-01,0.000000000000000000e+00
8.910000000000000000e+02,1.214645480711239456e+00,0.000000000000000000e+00
8.920000000000000000e+02,1.000498899020083154e+00,0.000000000000000000e+00
8.930000000000000000e+02,2.614610414815351502e-01,0.000000000000000000e+00
8.940000000000000000e+02,-5.343170188286685413e-02,0.000000000000000000e+00
8.950000000000000000e+02,-6.664435285886673999e-01,0.000000000000000000e+00
8.960000000000000000e+02,-6.358207898479736331e-01,0.000000000000000000e+00
8.970000000000000000e+02,-5.389377328443837323e-01,0.000000000000000000e+00
8.980000000000000000e+02,-7.543743181816646715e-01,0.000000000000000000e+00
8.990000000000000000e+02,-3.667943114330599053e-01,0.000000000000000000e+00
9.000000000000000000e+02,-5.763677928725592370e-01,0.000000000000000000e+00
9.010000000000000000e+02,-4.490012564309156518e-01,0.000000000000000000e+00
9.020000000000000000e+02,-4.604305240082715578e-01,0.000000000000000000e+00
9.030000000000000000e+02,-1.737520474978265228e-01,0.000000000000000000e+00
9.040000000000000000e+02,-4.121161526128930275e-01,0.000000000000000000e+00
9.050000000000000000e+02,-7.043305490542815794e-02,0.000000000000000000e+00
9.060000000000000000e+02,-5.759523331888747461e-02,0.000000000000000000e+00
9.070000000000000000e+02,-5.031892591867189596e-02,0.000000000000000000e+00
9.080000000000000000e+02,2.573494249622452767e-01,0.000000000000000000e+00
9.090000000000000000e+02,1.051561964397913218e-01,0.000000000000000000e+00
9.100000000000000000e+02,-6.839479053057077873e-02,0.000000000000000000e+00
9.110000000000000000e+02,-4.314649514352477538e-02,0.000000000000000000e+00
9.120000000000000000e+02,-4.919517346056512253e-01,0.000000000000000000e+00
9.130000000000000000e+02,2.960093861134548490e-02,0.000000000000000000e+00
9.140000000000000000e+02,-2.126314985242066524e-01,0.000000000000000000e+00
9.150000000000000000e+02,-8.245512645272919106e-02,0.000000000000000000e+00
9.160000000000000000e+02,-8.832407744664694249e-01,0.000000000000000000e+00
9.170000000000000000e+02,2.762300063593027044e+00,0.000000000000000000e+00
9.180000000000000000e+02,3.950121865477091987e+00,0.000000000000000000e+00
9.190000000000000000e+02,-7.991135712808830061e-01,1.000000000000000000e+00
9.200000000000000000e+02,-1.353195897957319760e+00,0.000000000000000000e+00
9.210000000000000000e+02,-2.165782090609021715e+00,0.000000000000000000e+00
9.220000000000000000e+02,-1.050574400681438370e+00,0.000000000000000000e+00
9.230000000000000000e+02,-5.603757499027637312e-01,0.000000000000000000e+00
9.240000000000000000e+02,6.907956438431854529e-02,0.000000000000000000e+00
9.250000000000000000e+02,3.038544706491794201e-02,0.000000000000000000e+00
9.260000000000000000e+02,2.613070400063111642e-01,0.000000000000000000e+00
9.270000000000000000e+02,-1.705988829253459252e-02,0.000000000000000000e+00
9.280000000000000000e+02,5.261702124383269563e-01,0.000000000000000000e+00
9.290000000000000000e+02,4.105037964796975913e-01,0.000000000000000000e+00
9.300000000000000000e+02,9.813686908287601041e-01,0.000000000000000000e+00
9.310000000000000000e+02,8.125371523084593539e-01,0.000000000000000000e+00
9.320000000000000000e+02,9.467106678092499505e-01,0.000000000000000000e+00
9.330000000000000000e+02,9.549367002916264724e-01,0.000000000000000000e+00
9.340000000000000000e+02,3.740696577809631829e-01,0.000000000000000000e+00
9.350000000000000000e+02,-4.684359917294803055e-01,0.000000000000000000e+00
9.360000000000000000e+02,-2.969482406450094647e-01,0.000000000000000000e+00
9.370000000000000000e+02,-7.876696021081884824e-01,0.000000000000000000e+00
9.380000000000000000e+02,-5.770119444930166264e-01,0.000000000000000000e+00
9.390000000000000000e+02,-5.907176009260440841e-01,0.000000000000000000e+00
9.400000000000000000e+02,-5.958447845731947856e-01,0.000000000000000000e+00
9.410000000000000000e+02,-3.656122424583677089e-01,0.000000000000000000e+00
9.420000000000000000e+02,-4.844714375812955165e-01,0.000000000000000000e+00
9.430000000000000000e+02,-2.684465596519054476e-01,0.000000000000000000e+00
9.440000000000000000e+02,-3.291290807085974213e-01,0.000000000000000000e+00
9.450000000000000000e+02,-1.911719613057852596e-01,0.000000000000000000e+00
9.460000000000000000e+02,-6.999180831722240370e-02,0.000000000000000000e+00
9.470000000000000000e+02,-1.605722314990379873e-01,0.000000000000000000e+00
9.480000000000000000e+02,3.326504259874366043e-02,0.000000000000000000e+00
9.490000000000000000e+02,2.797463146072244888e-01,0.000000000000000000e+00
9.500000000000000000e+02,-1.482362326161084931e-01,0.000000000000000000e+00
9.510000000000000000e+02,6.929179395598576707e-02,0.000000000000000000e+00
9.520000000000000000e+02,-1.946670528723045204e-02,0.000000000000000000e+00
9.530000000000000000e+02,-4.556706278631990070e-01,0.000000000000000000e+00
9.540000000000000000e+02,-9.351870239088715814e-03,0.000000000000000000e+00
9.550000000000000000e+02,-2.799051650743650255e-01,0.000000000000000000e+00
9.560000000000000000e+02,3.187266801365414709e-02,0.000000000000000000e+00
9.570000000000000000e+02,-9.655765143000771822e-01,0.000000000000000000e+00
9.580000000000000000e+02,3.439821340003843542e+00,0.000000000000000000e+00
9.590000000000000000e+02,3.263862639597174375e+00,0.000000000000000000e+00
9.600000000000000000e+02,-8.860814613124143868e-01,1.000000000000000000e+00
9.610000000000000000e+02,-1.343907019092331456e+00,0.000000000000000000e+00
9.620000000000000000e+02,-1.979198168910540234e+00,0.000000000000000000e+00
9.630000000000000000e+02,-1.023418213888946715e+00,0.000000000000000000e+00
9.640000000000000000e+02,-3.461682896972058110e-01,0.000000000000000000e+00
9.650000000000000000e+02,1.675600782699470381e-01,0.000000000000000000e+00
9.660000000000000000e+02,-1.222311858093271253e-01,0.000000000000000000e+00
9.670000000000000000e+02,3.029979965140604525e-01,0.000000000000000000e+00
9.680000000000000000e+02,4.281593330123131119e-02,0.000000000000000000e+00
9.690000000000000000e+02,4.719106702799444886e-01,0.000000000000000000e+00
9.700000000000000000e+02,5.552664023993644227e-01,0.000000000000000000e+00
9.710000000000000000e+02,9.031294021465489097e-01,0.000000000000000000e+00
9.720000000000000000e+02,9.499659775160944619e-01,0.000000000000000000e+00
9.730000000000000000e+02,1.008701000894397293e+00,0.000000000000000000e+00
9.740000000000000000e+02,7.952071682448309531e-01,0.000000000000000000e+00
9.750000000000000000e+02,1.014195606543994016e-01,0.000000000000000000e+00
9.760000000000000000e+02,-2.117770294058353431e-01,0.000000000000000000e+00
9.770000000000000000e+02,-4.685154274126903107e-01,0.000000000000000000e+00
9.780000000000000000e+02,-6.806948873905104280e-01,0.000000000000000000e+00
9.790000000000000000e+02,-5.049745945054410212e-01,0.000000000000000000e+00
9.800000000000000000e+02,-6.580190157608879487e-01,0.000000000000000000e+00
9.810000000000000000e+02,-3.160091351424576533e-01,0.000000000000000000e+00
9.820000000000000000e+02,-6.043471514078443407e-01,0.000000000000000000e+00
9.830000000000000000e+02,-3.135327126431706191e-01,0.000000000000000000e+00
9.840000000000000000e+02,-4.907352048044538728e-01,0.000000000000000000e+00
9.850000000000000000e+02,-1.433173752507890808e-01,0.000000000000000000e+00
9.860000000000000000e+02,-1.741837002456960160e-01,0.000000000000000000e+00
9.870000000000000000e+02,-2.822441889119424174e-01,0.000000000000000000e+00
9.880000000000000000e+02,6.756540364734736626e-02,0.000000000000000000e+00
9.890000000000000000e+02,1.705687515099686968e-01,0.000000000000000000e+00
9.900000000000000000e+02,-1.828618425584838114e-01,0.000000000000000000e+00
9.910000000000000000e+02,2.607679665772954514e-01,0.000000000000000000e+00
9.920000000000000000e+02,-2.825965697812820587e-01,0.000000000000000000e+00
9.930000000000000000e+02,-2.780789980415411256e-01,0.000000000000000000e+00
9.940000000000000000e+02,-1.781952154351056639e-01,0.000000000000000000e+00
9.950000000000000000e+02,-5.268906917495725928e-01,0.000000000000000000e+00
9.960000000000000000e+02,5.052126779789292699e-02,0.000000000000000000e+00
9.970000000000000000e+02,-5.360016021025244548e-01,0.000000000000000000e+00
9.980000000000000000e+02,1.714147411337466342e-01,0.000000000000000000e+00
9.990000000000000000e+02,4.490817193076829916e+00,0.000000000000000000e+00
1.000000000000000000e+03,1.449974955971893298e+00,1.000000000000000000e+00
1.001000000000000000e+03,-1.349324046466275906e+00,0.000000000000000000e+00
1.002000000000000000e+03,-1.680259618830213242e+00,0.000000000000000000e+00
1.003000000000000000e+03,-1.740935866430260326e+00,0.000000000000000000e+00
1.004000000000000000e+03,-5.431039767020939824e-01,0.000000000000000000e+00
1.005000000000000000e+03,-2.528239264801657865e-02,0.000000000000000000e+00
1.006000000000000000e+03,9.190656283726508780e-02,0.000000000000000000e+00
1.007000000000000000e+03,1.757640921176986948e-01,0.000000000000000000e+00
1.008000000000000000e+03,2.220113663085225841e-01,0.000000000000000000e+00
1.009000000000000000e+03,3.338147778693515422e-01,0.000000000000000000e+00
1.010000000000000000e+03,8.368575192202436508e-01,0.000000000000000000e+00
1.011000000000000000e+03,7.384955872957182921e-01,0.000000000000000000e+00
1.012000000000000000e+03,9.555654618690340163e-01,0.000000000000000000e+00
1.013000000000000000e+03,9.702082845833075453e-01,0.000000000000000000e+00
1.014000000000000000e+03,1.064790439950910717e+00,0.000000000000000000e+00
1.015000000000000000e+03,5.720563052358608180e-01,0.000000000000000000e+00
1.016000000000000000e+03,1.516478266944893960e-01,0.000000000000000000e+00
1.017000000000000000e+03,-3.779073775190615603e-01,0.000000000000000000e+00
1.018000000000000000e+03,-4.271182621568565541e-01,0.000000000000000000e+00
1.019000000000000000e+03,-6.333059019827047553e-01,0.000000000000000000e+00
1.020000000000000000e+03,-4.357016972163266777e-01,0.000000000000000000e+00
1.021000000000000000e+03,-4.611916501835000570e-01,0.000000000000000000e+00
1.022000000000000000e+03,-7.841339433816777449e-01,0.000000000000000000e+00
1.023000000000000000e+03,-2.830210266820957776e-01,0.000000000000000000e+00
1.024000000000000000e+03,3.994282014511910811e-03,0.000000000000000000e+00
1.025000000000000000e+03,-6.267919200288621928e-01,0.000000000000000000e+00
1.026000000000000000e+03,-5.167913901754039863e-01,0.000000000000000000e+00
1.027000000000000000e+03,1.183309111665411389e-01,0.000000000000000000e+00
1.028000000000000000e+03,-1.804338569468514619e-01,0.000000000000000000e+00
1.029000000000000000e+03,-3.245731489341060483e-01,0.000000000000000000e+00
1.030000000000000000e+03,2.782919875016138245e-01,0.000000000000000000e+00
1.031000000000000000e+03,4.253094676151121002e-03,0.000000000000000000e+00
1.032000000000000000e+03,1.988608354220925412e-01,0.000000000000000000e+00
1.033000000000000000e+03,-1.193848648917407163e-01,0.000000000000000000e+00
1.034000000000000000e+03,-3.318688507811495270e-01,0.000000000000000000e+00
1.035000000000000000e+03,4.558006094751371196e-02,0.000000000000000000e+00
1.036000000000000000e+03,-2.744297936397965265e-01,0.000000000000000000e+00
1.037000000000000000e+03,-5.100285300377429554e-01,0.000000000000000000e+00
1.038000000000000000e+03,-1.484269252963275887e-01,0.000000000000000000e+00
1.039000000000000000e+03,-4.193028486979583636e-01,0.000000000000000000e+00
1.040000000000000000e+03,4.391433486652557505e+00,0.000000000000000000e+00
1.041000000000000000e+03,2.257943928141399326e+00,1.000000000000000000e+00
1.042000000000000000e+03,-1.326721538855831328e+00,0.000000000000000000e+00
1.043000000000000000e+03,-1.906778804270400585e+00,0.000000000000000000e+00
1.044000000000000000e+03,-1.868029662403307700e+00,0.000000000000000000e+00
1.045000000000000000e+03,-5.587599044395890058e-01,0.000000000000000000e+00
1.046000000000000000e+03,-4.266586407863563468e-01,0.000000000000000000e+00
1.047000000000000000e+03,-3.433855609662355562e-02,0.000000000000000000e+00
1.048000000000000000e+03,2.793448208703652735e-01,0.000000000000000000e+00
1.049000000000000000e+03,-1.176481327222791418e-01,0.000000000000000000e+00
1.050000000000000000e+03,1.666619943010453353e-01,0.000000000000000000e+00
1.051000000000000000e+03,5.618889537705822335e-01,0.000000000000000000e+00
1.052000000000000000e+03,4.581096657136309314e-01,0.000000000000000000e+00
1.053000000000000000e+03,1.035515363404643674e+00,0.000000000000000000e+00
1.054000000000000000e+03,9.497042027968962685e-01,0.000000000000000000e+00
1.055000000000000000e+03,1.048395877434521228e+00,0.000000000000000000e+00
1.056000000000000000e+03,6.010055637493902925e-01,0.000000000000000000e+00
1.057000000000000000e+03,5.046228971988955814e-02,0.000000000000000000e+00
1.058000000000000000e+03,-4.229006477651265916e-01,0.000000000000000000e+00
1.059000000000000000e+03,-4.625371577231318643e-01,0.000000000000000000e+00
1.060000000000000000e+03,-7.794805261121701134e-01,0.000000000000000000e+00
1.061000000000000000e+03,-4.628647673300410048e-01,0.000000000000000000e+00
1.062000000000000000e+03,-6.172438834085691717e-01,0.000000000000000000e+00
1.063000000000000000e+03,-5.375498399164028163e-01,0.000000000000000000e+00
1.064000000000000000e+03,-2.335673851098254428e-01,0.000000000000000000e+00
1.065000000000000000e+03,-4.038419958347118088e-01,0.000000000000000000e+00
1.066000000000000000e+03,-3.449080670451781794e-01,0.000000000000000000e+00
1.067000000000000000e+03,-2.375643484115153303e-01,0.000000000000000000e+00
1.068000000000000000e+03,-1.048032348959121035e-01,0.000000000000000000e+00
1.069000000000000000e+03,-1.821239321855649129e-01,0.000000000000000000e+00
1.070000000000000000e+03,4.453608740204145766e-01,0.000000000000000000e+00
1.071000000000000000e+03,-1.586160825439590916e-01,0.000000000000000000e+00
1.072000000000000000e+03,6.171176411605831108e-02,0.000000000000000000e+00
1.073000000000000000e+03,-1.136130591369061832e-01,0.000000000000000000e+00
1.074000000000000000e+03,-2.722449558798368807e-01,0.000000000000000000e+00
1.075000000000000000e+03,-2.908936629916209493e-01,0.000000000000000000e+00
1.076000000000000000e+03,-7.760580003751815781e-02,0.000000000000000000e+00
1.077000000000000000e+03,-2.972849763365877918e-01,0.000000000000000000e+00
1.078000000000000000e+03,5.250951662307672824e-02,0.000000000000000000e+00
1.079000000000000000e+03,-9.399268267423671608e-01,0.000000000000000000e+00
1.080000000000000000e+03,3.716366052453166091e+00,0.000000000000000000e+00
1.081000000000000000e+03,3.241730437977339285e+00,0.000000000000000000e+00
1.082000000000000000e+03,-8.314049145877331348e-01,1.000000000000000000e+00
1.083000000000000000e+03,-1.537851678597992100e+00,0.000000000000000000e+00
1.084000000000000000e+03,-1.903155278987157750e+00,0.000000000000000000e+00
1.085000000000000000e+03,-8.861642013545596441e-01,0.000000000000000000e+00
1.086000000000000000e+03,-4.565440042065924686e-01,0.000000000000000000e+00
1.087000000000000000e+03,4.001428646273724743e-01,0.000000000000000000e+00
1.088000000000000000e+03,-2.997591997111154760e-01,0.000000000000000000e+00
1.089000000000000000e+03,1.718754831256519844e-01,0.000000000000000000e+00
1.090000000000000000e+03,3.555808354540223593e-01,0.000000000000000000e+00
1.091000000000000000e+03,5.982789390421774378e-01,0.000000000000000000e+00
1.092000000000000000e+03,1.172189341758103909e-01,0.000000000000000000e+00
1.093000000000000000e+03,1.048831948535068781e+00,0.000000000000000000e+00
1.094000000000000000e+03,8.535902819738101499e-01,0.000000000000000000e+00
1.095000000000000000e+03,1.175895091098980272e+00,0.000000000000000000e+00
1.096000000000000000e+03,5.600441522042410858e-01,0.000000000000000000e+00
1.097000000000000000e+03,3.747139003249660982e-01,0.000000000000000000e+00
1.098000000000000000e+03,-4.810409647177487091e-01,0.000000000000000000e+00
1.099000000000000000e+03,-4.618396612584199645e-01,0.000000000000000000e+00
1.100000000000000000e+03,-6.281616510969920686e-01,0.000000000000000000e+00
1.101000000000000000e+03,-5.692742148224517740e-01,0.000000000000000000e+00
1.102000000000000000e+03,-5.701004963180666962e-01,0.000000000000000000e+00
1.103000000000000000e+03,-4.783441897274037236e-01,0.000000000000000000e+00
1.104000000000000000e+03,-6.622374872955717473e-01,0.000000000000000000e+00
1.105000000000000000e+03,-2.315613629854460995e-02,0.000000000000000000e+00
1.106000000000000000e+03,-5.305342402320832873e-01,0.000000000000000000e+00
1.107000000000000000e+03,-3.250455996716909435e-01,0.000000000000000000e+00
1.108000000000000000e+03,-2.887578661742934427e-01,0.000000000000000000e+00
1.109000000000000000e+03,-9.940599631347155074e-02,0.000000000000000000e+00
1.110000000000000000e+03,-2.388606645299702902e-01,0.000000000000000000e+00
1.111000000000000000e+03,1.834368162477292008e-01,0.000000000000000000e+00
1.112000000000000000e+03,3.791641949741061945e-02,0.000000000000000000e+00
1.113000000000000000e+03,2.259729430256908200e-01,0.000000000000000000e+00
1.114000000000000000e+03,-2.467179350994271603e-01,0.000000000000000000e+00
1.115000000000000000e+03,-3.320708146058659604e-02,0.000000000000000000e+00
1.116000000000000000e+03,-3.018204136783630975e-01,0.000000000000000000e+00
1.117000000000000000e+03,-1.282231837811199371e-01,0.000000000000000000e+00
1.118000000000000000e+03,-2.649941135741566423e-01,0.000000000000000000e+00
1.119000000000000000e+03,-1.329965963807873131e-01,0.000000000000000000e+00
1.120000000000000000e+03,-6.933387389532907896e-01,0.000000000000000000e+00
1.121000000000000000e+03,3.392516693682058548e+00,0.000000000000000000e+00
1.122000000000000000e+03,3.229191433144047441e+00,0.000000000000000000e+00
1.123000000000000000e+03,-9.027920017919992546e-01,1.000000000000000000e+00
1.124000000000000000e+03,-1.391716982473478303e+00,0.000000000000000000e+00
1.125000000000000000e+03,-1.831434685684234953e+00,0.000000000000000000e+00
1.126000000000000000e+03,-9.185207072673506890e-01,0.000000000000000000e+00
1.127000000000000000e+03,-3.750468868931746136e-01,0.000000000000000000e+00
1.128000000000000000e+03,1.049897575192699217e-01,0.000000000000000000e+00
1.129000000000000000e+03,-1.380525410587351010e-01,0.000000000000000000e+00
1.130000000000000000e+03,3.667707741423802403e-01,0.000000000000000000e+00
1.131000000000000000e+03,2.042914408659739778e-01,0.000000000000000000e+00
1.132000000000000000e+03,2.684554492207278376e-01,0.000000000000000000e+00
1.133000000000000000e+03,6.701920763750318644e-01,0.000000000000000000e+00
1.134000000000000000e+03,8.425986484658151143e-01,0.000000000000000000e+00
1.135000000000000000e+03,5.762603354732571681e-01,0.000000000000000000e+00
1.136000000000000000e+03,1.255890368320075945e+00,0.000000000000000000e+00
1.137000000000000000e+03,8.294031844141317444e-01,0.000000000000000000e+00
1.138000000000000000e+03,4.232214710678201541e-01,0.000000000000000000e+00
1.139000000000000000e+03,-7.964029456614863944e-01,0.000000000000000000e+00
1.140000000000000000e+03,-4.622931507145583430e-01,0.000000000000000000e+00
1.141000000000000000e+03,-6.689370031727496224e-01,0.000000000000000000e+00
1.142000000000000000e+03,-5.314911549340695096e-01,0.000000000000000000e+00
1.143000000000000000e+03,-4.343119843990704276e-01,0.000000000000000000e+00
1.144000000000000000e+03,-6.423866756769305297e-01,0.000000000000000000e+00
1.145000000000000000e+03,-4.026573105922174323e-01,0.000000000000000000e+00
1.146000000000000000e+03,-4.261590233682562845e-01,0.000000000000000000e+00
1.147000000000000000e+03,-2.644435269128578292e-01,0.000000000000000000e+00
1.148000000000000000e+03,-1.573816046790374179e-01,0.000000000000000000e+00
1.149000000000000000e+03,-4.133494848589370774e-01,0.000000000000000000e+00
1.150000000000000000e+03,-7.629381460369046020e-02,0.000000000000000000e+00
1.151000000000000000e+03,3.711728924817158104e-01,0.000000000000000000e+00
1.152000000000000000e+03,2.256399653117531490e-01,0.000000000000000000e+00
1.153000000000000000e+03,-3.746743233726438360e-01,0.000000000000000000e+00
1.154000000000000000e+03,2.670179181495200334e-03,0.000000000000000000e+00
1.155000000000000000e+03,-2.952256029924670358e-02,0.000000000000000000e+00
1.156000000000000000e+03,-3.146796593212919380e-01,0.000000000000000000e+00
1.157000000000000000e+03,-2.840688875468670715e-03,0.000000000000000000e+00
1.158000000000000000e+03,-2.402152454895488676e-01,0.000000000000000000e+00
1.159000000000000000e+03,2.259019771956317577e-02,0.000000000000000000e+00
1.160000000000000000e+03,-9.108803795431698047e-01,0.000000000000000000e+00
1.161000000000000000e+03,1.807383909117787235e+00,0.000000000000000000e+00
1.162000000000000000e+03,4.566508675254425498e+00,0.000000000000000000e+00
1.163000000000000000e+03,-2.061394810806851385e-01,1.000000000000000000e+00
1.164000000000000000e+03,-1.085140345438308840e+00,0.000000000000000000e+00
1.165000000000000000e+03,-2.146766364345881861e+00,0.000000000000000000e+00
1.166000000000000000e+03,-1.404653090746383892e+00,0.000000000000000000e+00
1.167000000000000000e+03,-3.749404277668449970e-01,0.000000000000000000e+00
1.168000000000000000e+03,-3.915976311590754766e-02,0.000000000000000000e+00
1.169000000000000000e+03,-6.640318863973840302e-02,0.000000000000000000e+00
1.170000000000000000e+03,3.173438868311516114e-01,0.000000000000000000e+00
1.171000000000000000e+03,-3.145855686901808529e-02,0.000000000000000000e+00
1.172000000000000000e+03,5.296058201028704948e-01,0.000000000000000000e+00
1.173000000000000000e+03,4.992013994978830027e-01,0.000000000000000000e+00
1.174000000000000000e+03,6.286680439257362751e-01,0.000000000000000000e+00
1.175000000000000000e+03,1.093536034998745743e+00,0.000000000000000000e+00
1.176000000000000000e+03,1.202440757241712843e+00,0.000000000000000000e+00
1.177000000000000000e+03,3.875900965774347062e-01,0.000000000000000000e+00
1.178000000000000000e+03,5.432198109366523919e-01,0.000000000000000000e+00
1.179000000000000000e+03,-3.601672113947846920e-01,0.000000000000000000e+00
1.180000000000000000e+03,-4.742288390024732569e-01,0.000000000000000000e+00
1.181000000000000000e+03,-5.007041708915865863e-01,0.000000000000000000e+00
1.182000000000000000e+03,-6.487966135599364526e-01,0.000000000000000000e+00
1.183000000000000000e+03,-6.041520240702558109e-01,0.000000000000000000e+00
1.184000000000000000e+03,-4.979599774352579944e-01,0.000000000000000000e+00
1.185000000000000000e+03,-4.330426454888730570e-01,0.000000000000000000e+00
1.186000000000000000e+03,-3.349621940974497059e-01,0.000000000000000000e+00
1.187000000000000000e+03,-4.122941130335837090e-01,0.000000000000000000e+00
1.188000000000000000e+03,-2.973060259961104457e-01,0.000000000000000000e+00
1.189000000000000000e+03,-3.182602128765122385e-01,0.000000000000000000e+00
1.190000000000000000e+03,-2.120842704049011596e-01,0.000000000000000000e+00
1.191000000000000000e+03,-1.514347819155926339e-02,0.000000000000000000e+00
1.192000000000000000e+03,1.064150699139104900e-01,0.000000000000000000e+00
1.193000000000000000e+03,9.150146269090801698e-02,0.000000000000000000e+00
1.194000000000000000e+03,2.918077865408481575e-01,0.000000000000000000e+00
1.195000000000000000e+03,-1.493506171642883795e-01,0.000000000000000000e+00
1.196000000000000000e+03,-1.429150884162450341e-01,0.000000000000000000e+00
1.197000000000000000e+03,-2.716414608976783218e-01,0.000000000000000000e+00
1.198000000000000000e+03,-1.251198023519498326e-01,0.000000000000000000e+00
1.199000000000000000e+03,-1.825879242055366558e-01,0.000000000000000000e+00
1.200000000000000000e+03,5.638441960391739338e-02,0.000000000000000000e+00
1.201000000000000000e+03,-1.028833255171586858e+00,0.000000000000000000e+00
1.202000000000000000e+03,4.161485446941266986e+00,0.000000000000000000e+00
1.203000000000000000e+03,2.851101971854910655e+00,0.000000000000000000e+00
1.204000000000000000e+03,-1.151043123949539337e+00,1.000000000000000000e+00
1.205000000000000000e+03,-1.504462359591816734e+00,0.000000000000000000e+00
1.206000000000000000e+03,-2.111824806239117613e+00,0.000000000000000000e+00
1.207000000000000000e+03,-9.655042872944925580e-01,0.000000000000000000e+00
1.208000000000000000e+03,-7.249552686807561597e-02,0.000000000000000000e+00
1.209000000000000000e+03,-1.467558316357350234e-01,0.000000000000000000e+00
1.210000000000000000e+03,8.259025449617214687e-02,0.000000000000000000e+00
1.211000000000000000e+03,3.147314132249676155e-02,0.000000000000000000e+00
1.212000000000000000e+03,3.159601272515165649e-01,0.000000000000000000e+00
1.213000000000000000e+03,3.779343900063383832e-01,0.000000000000000000e+00
1.214000000000000000e+03,5.387918148980158639e-01,0.000000000000000000e+00
1.215000000000000000e+03,1.015916371705249288e+00,0.000000000000000000e+00
1.216000000000000000e+03,7.607834010524023860e-01,0.000000000000000000e+00
1.217000000000000000e+03,1.217195616546011383e+00,0.000000000000000000e+00
1.218000000000000000e+03,6.279956603885300526e-01,0.000000000000000000e+00
1.219000000000000000e+03,-5.181986262553717193e-02,0.000000000000000000e+00
1.220000000000000000e+03,-1.655079156462203327e-01,0.000000000000000000e+00
1.221000000000000000e+03,-5.605994771513258534e-01,0.000000000000000000e+00
1.222000000000000000e+03,-4.558569067755474657e-01,0.000000000000000000e+00
1.223000000000000000e+03,-5.980535331429095436e-01,0.000000000000000000e+00
1.224000000000000000e+03,-4.186879246031813273e-01,0.000000000000000000e+00
1.225000000000000000e+03,-5.368861894269753021e-01,0.000000000000000000e+00
1.226000000000000000e+03,-3.133166780659700779e-01,0.000000000000000000e+00
1.227000000000000000e+03,-3.622276612544644281e-01,0.000000000000000000e+00
1.228000000000000000e+03,-2.741899526142279053e-01,0.000000000000000000e+00
1.229000000000000000e+03,-1.687593609819374452e-01,0.000000000000000000e+00
1.230000000000000000e+03,-2.162016944488101833e-01,0.000000000000000000e+00
1.231000000000000000e+03,9.183339305643106742e-03,0.000000000000000000e+00
1.232000000000000000e+03,1.855595458082133220e-01,0.000000000000000000e+00
1.233000000000000000e+03,-3.450127753260592151e-02,0.000000000000000000e+00
1.234000000000000000e+03,2.575594048338818998e-01,0.000000000000000000e+00
1.235000000000000000e+03,-2.301083495468535800e-01,0.000000000000000000e+00
1.236000000000000000e+03,-1.108893280414307986e-01,0.000000000000000000e+00
1.237000000000000000e+03,-2.002027282845640355e-01,0.000000000000000000e+00
1.238000000000000000e+03,-2.358638378622752441e-01,0.000000000000000000e+00
1.239000000000000000e+03,-1.792341454264472222e-01,0.000000000000000000e+00
1.240000000000000000e+03,-9.348222522217691788e-02,0.000000000000000000e+00
1.241000000000000000e+03,-8.262563507401655682e-01,0.000000000000000000e+00
1.242000000000000000e+03,3.990746687641061996e+00,0.000000000000000000e+00
1.243000000000000000e+03,3.260071768293248073e+00,0.000000000000000000e+00
1.244000000000000000e+03,-1.208694372028854103e+00,1.000000000000000000e+00
1.245000000000000000e+03,-1.324188905851643838e+00,0.000000000000000000e+00
1.246000000000000000e+03,-2.313211270165781208e+00,0.000000000000000000e+00
1.247000000000000000e+03,-7.958058234475895443e-01,0.000000000000000000e+00
1.248000000000000000e+03,-2.004849964421796527e-01,0.000000000000000000e+00
1.249000000000000000e+03,-8.907729415000051332e-02,0.000000000000000000e+00
1.250000000000000000e+03,1.650124949143072506e-01,0.000000000000000000e+00
1.251000000000000000e+03,9.949133755306784066e-02,0.000000000000000000e+00
1.252000000000000000e+03,9.629389885795827664e-02,0.000000000000000000e+00
1.253000000000000000e+03,6.185037021463973828e-01,0.000000000000000000e+00
1.254000000000000000e+03,4.330272848347498926e-01,0.000000000000000000e+00
1.255000000000000000e+03,8.090487735048801365e-01,0.000000000000000000e+00
1.256000000000000000e+03,9.567288096716313195e-01,0.000000000000000000e+00
1.257000000000000000e+03,1.107520027830551257e+00,0.000000000000000000e+00
1.258000000000000000e+03,7.916135257257690405e-01,0.000000000000000000e+00
1.259000000000000000e+03,-8.197151025897973786e-02,0.000000000000000000e+00
1.260000000000000000e+03,-4.738364882811434420e-01,0.000000000000000000e+00
1.261000000000000000e+03,-2.483349090020803285e-01,0.000000000000000000e+00
1.262000000000000000e+03,-7.359187344638410400e-01,0.000000000000000000e+00
1.263000000000000000e+03,-7.708827066217232016e-01,0.000000000000000000e+00
1.264000000000000000e+03,-5.089842045276609106e-01,0.000000000000000000e+00
1.265000000000000000e+03,-2.889862397420512319e-01,0.000000000000000000e+00
1.266000000000000000e+03,-4.243488050850065529e-01,0.000000000000000000e+00
1.267000000000000000e+03,-8.070218607349983753e-01,0.000000000000000000e+00
1.268000000000000000e+03,-4.512197921051162020e-01,0.000000000000000000e+00
1.269000000000000000e+03,-3.675374144944292265e-01,0.000000000000000000e+00
1.270000000000000000e+03,-1.590877740286297803e-01,0.000000000000000000e+00
1.271000000000000000e+03,-2.396309715061021584e-01,0.000000000000000000e+00
1.272000000000000000e+03,-1.530794415103967354e-01,0.000000000000000000e+00
1.273000000000000000e+03,-1.597004350466033756e-02,0.000000000000000000e+00
1.274000000000000000e+03,1.143182767303311531e-01,0.000000000000000000e+00
1.275000000000000000e+03,1.683453743632529476e-01,0.000000000000000000e+00
1.276000000000000000e+03,-1.420761015278451667e-01,0.000000000000000000e+00
1.277000000000000000e+03,8.463270559756584654e-02,0.000000000000000000e+00
1.278000000000000000e+03,-4.538003300620221947e-01,0.000000000000000000e+00
1.279000000000000000e+03,-9.058175849564141513e-02,0.000000000000000000e+00
1.280000000000000000e+03,-2.236197874504962657e-01,0.000000000000000000e+00
1.281000000000000000e+03,-1.209669910966414685e-01,0.000000000000000000e+00
1.282000000000000000e+03,-7.150534070261966857e-01,0.000000000000000000e+00
1.283000000000000000e+03,1.969397062675704024e+00,0.000000000000000000e+00
1.284000000000000000e+03,4.418488803262621722e+00,0.000000000000000000e+00
1.285000000000000000e+03,-2.354080169359602515e-01,1.000000000000000000e+00
1.286000000000000000e+03,-1.282481250909879522e+00,0.000000000000000000e+00
1.287000000000000000e+03,-1.945073264629900267e+00,0.000000000000000000e+00
1.288000000000000000e+03,-1.308676858501929940e+00,0.000000000000000000e+00
1.289000000000000000e+03,-4.438541191460990132e-01,0.000000000000000000e+00
1.290000000000000000e+03,6.590388988249110125e-02,0.000000000000000000e+00
1.291000000000000000e+03,-3.401556055984285287e-02,0.000000000000000000e+00
1.292000000000000000e+03,7.606261794251147068e-02,0.000000000000000000e+00
1.293000000000000000e+03,2.019339629557990179e-01,0.000000000000000000e+00
1.294000000000000000e+03,5.303665095257976692e-01,0.000000000000000000e+00
1.295000000000000000e+03,3.951211097736253564e-01,0.000000000000000000e+00
1.296000000000000000e+03,6.975961304239175487e-01,0.000000000000000000e+00
1.297000000000000000e+03,9.781305338331409693e-01,0.000000000000000000e+00
1.298000000000000000e+03,1.045012497374873561e+00,0.000000000000000000e+00
1.299000000000000000e+03,8.437285712564609463e-01,0.000000000000000000e+00
1.300000000000000000e+03,2.482164534945715262e-01,0.000000000000000000e+00
1.301000000000000000e+03,-2.045930216805798008e-01,0.000000000000000000e+00
1.302000000000000000e+03,-4.370611247086125806e-01,0.000000000000000000e+00
1.303000000000000000e+03,-6.850607710370066883e-01,0.000000000000000000e+00
1.304000000000000000e+03,-4.733790827277158941e-01,0.000000000000000000e+00
1.305000000000000000e+03,-4.472723091068461776e-01,0.000000000000000000e+00
1.306000000000000000e+03,-4.561898970488494909e-01,0.000000000000000000e+00
1.307000000000000000e+03,-7.018012013722741971e-01,0.000000000000000000e+00
1.308000000000000000e+03,-1.245527058974157802e-01,0.000000000000000000e+00
1.309000000000000000e+03,-2.918510465908035201e-01,0.000000000000000000e+00
1.310000000000000000e+03,-3.087041527931271845e-01,0.000000000000000000e+00
1.311000000000000000e+03,-7.823322431921921061e-02,0.000000000000000000e+00
1.312000000000000000e+03,-4.007321527558961871e-01,0.000000000000000000e+00
1.313000000000000000e+03,2.580414189972412772e-02,0.000000000000000000e+00
1.314000000000000000e+03,3.202540073233046680e-01,0.000000000000000000e+00
1.315000000000000000e+03,2.015772391239132599e-01,0.000000000000000000e+00
1.316000000000000000e+03,1.342753013380771632e-01,0.000000000000000000e+00
1.317000000000000000e+03,-7.200253759247243757e-01,0.000000000000000000e+00
1.318000000000000000e+03,-1.842123140112085222e-01,0.000000000000000000e+00
1.319000000000000000e+03,-8.646979195937898321e-02,0.000000000000000000e+00
1.320000000000000000e+03,-1.741716499097934190e-01,0.000000000000000000e+00
1.321000000000000000e+03,-7.022769525589460382e-02,0.000000000000000000e+00
1.322000000000000000e+03,-6.682732577623650139e-01,0.000000000000000000e+00
1.323000000000000000e+03,1.451364245080974280e+00,0.000000000000000000e+00
1.324000000000000000e+03,4.618916589530178030e+00,0.000000000000000000e+00
1.325000000000000000e+03,-5.588679212685035425e-02,1.000000000000000000e+00
1.326000000000000000e+03,-1.249976316355198902e+00,0.000000000000000000e+00
1.327000000000000000e+03,-1.728357247254316942e+00,0.000000000000000000e+00
1.328000000000000000e+03,-1.408785262362414414e+00,0.000000000000000000e+00
1.329000000000000000e+03,-8.075459483190468024e-01,0.000000000000000000e+00
1.330000000000000000e+03,1.453502472448534311e-01,0.000000000000000000e+00
1.331000000000000000e+03,4.709059981359951103e-02,0.000000000000000000e+00
1.332000000000000000e+03,1.183169694631582142e-01,0.000000000000000000e+00
1.333000000000000000e+03,2.565911270754085427e-01,0.000000000000000000e+00
1.334000000000000000e+03,1.136560271312754417e-01,0.000000000000000000e+00
1.335000000000000000e+03,5.047839964034694926e-01,0.000000000000000000e+00
1.336000000000000000e+03,9.709198869981877644e-01,0.000000000000000000e+00
1.337000000000000000e+03,9.360057800793945004e-01,0.000000000000000000e+00
1.338000000000000000e+03,9.596907047997812468e-01,0.000000000000000000e+00
1.339000000000000000e+03,6.025911453975253407e-01,0.000000000000000000e+00
1.340000000000000000e+03,4.600619049923524440e-01,0.000000000000000000e+00
1.341000000000000000e+03,-2.366026044577224652e-01,0.000000000000000000e+00
1.342000000000000000e+03,-3.833042266370142448e-01,0.000000000000000000e+00
1.343000000000000000e+03,-6.364162216017277274e-01,0.000000000000000000e+00
1.344000000000000000e+03,-6.624514299744014290e-01,0.000000000000000000e+00
1.345000000000000000e+03,-6.144658361674079083e-01,0.000000000000000000e+00
1.346000000000000000e+03,-3.345593784797695758e-01,0.000000000000000000e+00
1.347000000000000000e+03,-4.392787357059788622e-01,0.000000000000000000e+00
1.348000000000000000e+03,-4.686484381443670744e-01,0.000000000000000000e+00
1.349000000000000000e+03,-3.557058040196879323e-01,0.000000000000000000e+00
1.350000000000000000e+03,-3.201691701606158014e-01,0.000000000000000000e+00
1.351000000000000000e+03,-2.986198753402525274e-01,0.000000000000000000e+00
1.352000000000000000e+03,5.965761378121432756e-02,0.000000000000000000e+00
1.353000000000000000e+03,-2.923231880701773755e-01,0.000000000000000000e+00
1.354000000000000000e+03,1.549935773988895815e-01,0.000000000000000000e+00
1.355000000000000000e+03,-2.642629261679303732e-03,0.000000000000000000e+00
1.356000000000000000e+03,1.747283417809832318e-01,0.000000000000000000e+00
1.357000000000000000e+03,5.891541052180604421e-02,0.000000000000000000e+00
1.358000000000000000e+03,-2.880721732397086843e-01,0.000000000000000000e+00
1.359000000000000000e+03,-2.276818476757078435e-01,0.000000000000000000e+00
1.360000000000000000e+03,-6.607536377012875051e-02,0.000000000000000000e+00
1.361000000000000000e+03,-2.904970815733948220e-01,0.000000000000000000e+00
1.362000000000000000e+03,-5.795625081102292325e-02,0.000000000000000000e+00
1.363000000000000000e+03,-7.738947607980894983e-01,0.000000000000000000e+00
1.364000000000000000e+03,3.887930632548485921e+00,0.000000000000000000e+00
1.365000000000000000e+03,3.018509035001616159e+00,0.000000000000000000e+00
1.366000000000000000e+03,-9.949021359431128309e-01,1.000000000000000000e+00
1.367000000000000000e+03,-1.364354478029543571e+00,0.000000000000000000e+00
1.368000000000000000e+03,-2.292398868039613014e+00,0.000000000000000000e+00
1.369000000000000000e+03,-6.573631937009244419e-01,0.000000000000000000e+00
1.370000000000000000e+03,-5.543346952995128474e-01,0.000000000000000000e+00
1.371000000000000000e+03,5.379768569535099687e-02,0.000000000000000000e+00
1.372000000000000000e+03,2.691919842178422950e-01,0.000000000000000000e+00
1.373000000000000000e+03,2.171746210793276677e-02,0.000000000000000000e+00
1.374000000000000000e+03,1.891071857262985323e-01,0.000000000000000000e+00
1.375000000000000000e+03,5.889616350911319742e-01,0.000000000000000000e+00
1.376000000000000000e+03,4.367277139182045853e-01,0.000000000000000000e+00
1.377000000000000000e+03,9.785331444585354532e-01,0.000000000000000000e+00
1.378000000000000000e+03,9.570456674329944624e-01,0.000000000000000000e+00
1.379000000000000000e+03,1.088915057318101676e+00,0.000000000000000000e+00
1.380000000000000000e+03,7.021959521497503909e-01,0.000000000000000000e+00
1.381000000000000000e+03,1.953027921906894115e-01,0.000000000000000000e+00
1.382000000000000000e+03,-2.310139247557104758e-01,0.000000000000000000e+00
1.383000000000000000e+03,-6.162497932144354040e-01,0.000000000000000000e+00
1.384000000000000000e+03,-5.753521733395350335e-01,0.000000000000000000e+00
1.385000000000000000e+03,-5.037636662520929010e-01,0.000000000000000000e+00
1.386000000000000000e+03,-5.248975380689777648e-01,0.000000000000000000e+00
1.387000000000000000e+03,-4.071231453009112045e-01,0.000000000000000000e+00
1.388000000000000000e+03,-5.493353827949201129e-01,0.000000000000000000e+00
1.389000000000000000e+03,-5.133624304666183358e-01,0.000000000000000000e+00
1.390000000000000000e+03,-4.139791032532418869e-01,0.000000000000000000e+00
1.391000000000000000e+03,-1.357463785553498503e-01,0.000000000000000000e+00
1.392000000000000000e+03,-1.649951209827447418e-01,0.000000000000000000e+00
1.393000000000000000e+03,-2.861811287808764259e-01,0.000000000000000000e+00
1.394000000000000000e+03,-1.323314514184524004e-01,0.000000000000000000e+00
1.395000000000000000e+03,1.954645862840841963e-01,0.000000000000000000e+00
1.396000000000000000e+03,1.128204326775161109e-01,0.000000000000000000e+00
1.397000000000000000e+03,2.238945145744498932e-01,0.000000000000000000e+00
1.398000000000000000e+03,-2.217940343595656283e-01,0.000000000000000000e+00
1.399000000000000000e+03,-1.528814190984134902e-01,0.000000000000000000e+00
1.400000000000000000e+03,-2.911908168564194543e-01,0.000000000000000000e+00
1.401000000000000000e+03,-7.483031342862088431e-02,0.000000000000000000e+00
1.402000000000000000e+03,-2.605036315647260570e-01,0.000000000000000000e+00
1.403000000000000000e+03,-3.621760696309934691e-01,0.000000000000000000e+00
1.404000000000000000e+03,-2.885807641305566662e-01,0.000000000000000000e+00
1.405000000000000000e+03,4.458607948347023786e+00,0.000000000000000000e+00
1.406000000000000000e+03,2.287108087633695330e+00,1.000000000000000000e+00
1.407000000000000000e+03,-1.177900417436417824e+00,0.000000000000000000e+00
1.408000000000000000e+03,-1.949804981157121642e+00,0.000000000000000000e+00
1.409000000000000000e+03,-1.899073088663914666e+00,0.000000000000000000e+00
1.410000000000000000e+03,-7.411066757491376888e-01,0.000000000000000000e+00
1.411000000000000000e+03,-1.560043885094584415e-01,0.000000000000000000e+00
1.412000000000000000e+03,1.454377296490684257e-01,0.000000000000000000e+00
1.413000000000000000e+03,-1.258746481879795542e-01,0.000000000000000000e+00
1.414000000000000000e+03,1.582445082739008801e-01,0.000000000000000000e+00
1.415000000000000000e+03,5.691202356836988496e-01,0.000000000000000000e+00
1.416000000000000000e+03,2.662496468280673989e-01,0.000000000000000000e+00
1.417000000000000000e+03,3.522882128254976597e-01,0.000000000000000000e+00
1.418000000000000000e+03,1.066606033102094342e+00,0.000000000000000000e+00
1.419000000000000000e+03,9.033623723939072647e-01,0.000000000000000000e+00
1.420000000000000000e+03,1.168628767464061635e+00,0.000000000000000000e+00
1.421000000000000000e+03,5.680072752334540676e-01,0.000000000000000000e+00
1.422000000000000000e+03,2.906255360880353675e-02,0.000000000000000000e+00
1.423000000000000000e+03,-3.350252193723813332e-01,0.000000000000000000e+00
1.424000000000000000e+03,-5.391294499160024234e-01,0.000000000000000000e+00
1.425000000000000000e+03,-4.468295905371491017e-01,0.000000000000000000e+00
1.426000000000000000e+03,-6.196343157086036113e-01,0.000000000000000000e+00
1.427000000000000000e+03,-5.941128456749694697e-01,0.000000000000000000e+00
1.428000000000000000e+03,-2.794386837081878072e-01,0.000000000000000000e+00
1.429000000000000000e+03,-5.796042438126536300e-01,0.000000000000000000e+00
1.430000000000000000e+03,-2.264626152671855852e-01,0.000000000000000000e+00
1.431000000000000000e+03,-1.460509396289028372e-01,0.000000000000000000e+00
1.432000000000000000e+03,-5.244243297497163114e-01,0.000000000000000000e+00
1.433000000000000000e+03,-1.105037473374799878e-01,0.000000000000000000e+00
1.434000000000000000e+03,5.845071215205842330e-02,0.000000000000000000e+00
1.435000000000000000e+03,-2.063987626844905887e-01,0.000000000000000000e+00
1.436000000000000000e+03,2.049126110329179962e-01,0.000000000000000000e+00
1.437000000000000000e+03,2.601798309942874310e-01,0.000000000000000000e+00
1.438000000000000000e+03,-1.984076480925316410e-01,0.000000000000000000e+00
1.439000000000000000e+03,-1.256009739211533249e-01,0.000000000000000000e+00
1.440000000000000000e+03,-2.542781335259327036e-01,0.000000000000000000e+00
1.441000000000000000e+03,-3.843393782639734774e-02,0.000000000000000000e+00
1.442000000000000000e+03,-3.982867388469105152e-01,0.000000000000000000e+00
1.443000000000000000e+03,-1.746501203421540194e-01,0.000000000000000000e+00
1.444000000000000000e+03,-7.628142851807877545e-01,0.000000000000000000e+00
1.445000000000000000e+03,2.342816898920844881e+00,0.000000000000000000e+00
1.446000000000000000e+03,4.507571744262097724e+00,0.000000000000000000e+00
1.447000000000000000e+03,-4.044645450638105211e-01,1.000000000000000000e+00
1.448000000000000000e+03,-1.488401072525148860e+00,0.000000000000000000e+00
1.449000000000000000e+03,-2.375383723943958358e+00,0.000000000000000000e+00
1.450000000000000000e+03,-1.017698764380551957e+00,0.000000000000000000e+00
1.451000000000000000e+03,-5.082033163615511384e-01,0.000000000000000000e+00
1.452000000000000000e+03,1.889315033578281219e-02,0.000000000000000000e+00
1.453000000000000000e+03,-1.177899633930584861e-01,0.000000000000000000e+00
1.454000000000000000e+03,2.129699726500312029e-01,0.000000000000000000e+00
1.455000000000000000e+03,4.289858957521529986e-02,0.000000000000000000e+00
1.456000000000000000e+03,7.152440012091106913e-01,0.000000000000000000e+00
1.457000000000000000e+03,6.440821908022202787e-03,0.000000000000000000e+00
1.458000000000000000e+03,1.063852975760861908e+00,0.000000000000000000e+00
1.459000000000000000e+03,7.993417614660749404e-01,0.000000000000000000e+00
1.460000000000000000e+03,1.208564567923749555e+00,0.000000000000000000e+00
1.461000000000000000e+03,8.542180530264684712e-01,0.000000000000000000e+00
1.462000000000000000e+03,3.857520055510659795e-01,0.000000000000000000e+00
1.463000000000000000e+03,-3.637894421309736392e-01,0.000000000000000000e+00
1.464000000000000000e+03,-5.405642408768679408e-01,0.000000000000000000e+00
1.465000000000000000e+03,-5.664937684068419577e-01,0.000000000000000000e+00
1.466000000000000000e+03,-6.616328322180593524e-01,0.000000000000000000e+00
1.467000000000000000e+03,-5.495838664934847850e-01,0.000000000000000000e+00
1.468000000000000000e+03,-4.146544873662432740e-01,0.000000000000000000e+00
1.469000000000000000e+03,-5.730329748819401603e-01,0.000000000000000000e+00
1.470000000000000000e+03,-3.233934612068833370e-01,0.000000000000000000e+00
1.471000000000000000e+03,-6.085187525921370577e-01,0.000000000000000000e+00
1.472000000000000000e+03,-6.855586320747433793e-02,0.000000000000000000e+00
1.473000000000000000e+03,-4.190456343980194509e-01,0.000000000000000000e+00
1.474000000000000000e+03,-1.409378006526604277e-01,0.000000000000000000e+00
1.475000000000000000e+03,-1.106541228579688840e-01,0.000000000000000000e+00
1.476000000000000000e+03,6.336341913375139086e-03,0.000000000000000000e+00
1.477000000000000000e+03,3.912858879413590868e-02,0.000000000000000000e+00
1.478000000000000000e+03,2.888822668335813693e-01,0.000000000000000000e+00
1.479000000000000000e+03,-1.663104428687934844e-01,0.000000000000000000e+00
1.480000000000000000e+03,-1.775334271556433807e-01,0.000000000000000000e+00
1.481000000000000000e+03,-2.308817893700016999e-01,0.000000000000000000e+00
1.482000000000000000e+03,2.187329229873823458e-02,0.000000000000000000e+00
1.483000000000000000e+03,-3.834569405544316356e-01,0.000000000000000000e+00
1.484000000000000000e+03,6.670039753174759889e-02,0.000000000000000000e+00
1.485000000000000000e+03,-8.072190490087622905e-01,0.000000000000000000e+00
1.486000000000000000e+03,3.213961161294124125e+00,0.000000000000000000e+00
1.487000000000000000e+03,3.500275407726412880e+00,0.000000000000000000e+00
1.488000000000000000e+03,-7.430616259948087388e-01,1.000000000000000000e+00
1.489000000000000000e+03,-1.498160992533619673e+00,0.000000000000000000e+00
1.490000000000000000e+03,-1.914001164546836442e+00,0.000000000000000000e+00
1.491000000000000000e+03,-9.483406523647001096e-01,0.000000000000000000e+00
1.492000000000000000e+03,-3.974215806206757851e-01,0.000000000000000000e+00
1.493000000000000000e+03,-1.256458637918720089e-01,0.000000000000000000e+00
1.494000000000000000e+03,6.205057427406514281e-02,0.000000000000000000e+00
1.495000000000000000e+03,2.780326074987700680e-01,0.000000000000000000e+00
1.496000000000000000e+03,2.411999841157582702e-01,0.000000000000000000e+00
1.497000000000000000e+03,1.545782859269664022e-01,0.000000000000000000e+00
1.498000000000000000e+03,8.082802038805722011e-01,0.000000000000000000e+00
1.499000000000000000e+03,8.228107219874919442e-01,0.000000000000000000e+00
1.500000000000000000e+03,7.094143529524715719e-01,0.000000000000000000e+00
1.501000000000000000e+03,1.168790043130505829e+00,0.000000000000000000e+00
1.502000000000000000e+03,6.264187516717024673e-01,0.000000000000000000e+00
1.503000000000000000e+03,1.312026422084957844e-01,0.000000000000000000e+00
1.504000000000000000e+03,-1.752690413317536666e-01,0.000000000000000000e+00
1.505000000000000000e+03,-5.246163067340351427e-01,0.000000000000000000e+00
1.506000000000000000e+03,-6.800554062006636258e-01,0.000000000000000000e+00
1.507000000000000000e+03,-4.125347420469235304e-01,0.000000000000000000e+00
1.508000000000000000e+03,-3.562266240373558879e-01,0.000000000000000000e+00
1.509000000000000000e+03,-9.224558987453806980e-01,0.000000000000000000e+00
1.510000000000000000e+03,-2.933314050563325948e-01,0.000000000000000000e+00
1.511000000000000000e+03,-2.773614144359615175e-01,0.000000000000000000e+00
1.512000000000000000e+03,-3.967577653602334387e-01,0.000000000000000000e+00
1.513000000000000000e+03,-4.403908979456964135e-01,0.000000000000000000e+00
1.514000000000000000e+03,-8.103515333256150477e-02,0.000000000000000000e+00
1.515000000000000000e+03,-1.420707853478334337e-01,0.000000000000000000e+00
1.516000000000000000e+03,7.252407334565177943e-02,0.000000000000000000e+00
1.517000000000000000e+03,6.584637562440882885e-02,0.000000000000000000e+00
1.518000000000000000e+03,7.342391536141745778e-02,0.000000000000000000e+00
1.519000000000000000e+03,-1.529718611117625859e-01,0.000000000000000000e+00
1.520000000000000000e+03,1.333862376401304117e-02,0.000000000000000000e+00
1.521000000000000000e+03,-4.128127459854796788e-01,0.000000000000000000e+00
1.522000000000000000e+03,-6.374839340209598193e-02,0.000000000000000000e+00
1.523000000000000000e+03,-3.650873767565770422e-01,0.000000000000000000e+00
1.524000000000000000e+03,9.326479369108479911e-02,0.000000000000000000e+00
1.525000000000000000e+03,-7.723370378229531541e-01,0.000000000000000000e+00
1.526000000000000000e+03,2.951098187591917554e+00,0.000000000000000000e+00
1.527000000000000000e+03,3.606407060679895693e+00,0.000000000000000000e+00
1.528000000000000000e+03,-7.798780868760974982e-01,1.000000000000000000e+00
1.529000000000000000e+03,-1.415348402764117663e+00,0.000000000000000000e+00
1.530000000000000000e+03,-1.939083535622546206e+00,0.000000000000000000e+00
1.531000000000000000e+03,-9.243678291000063663e-01,0.000000000000000000e+00
1.532000000000000000e+03,-5.218140013323365745e-01,0.000000000000000000e+00
1.533000000000000000e+03,8.210561525460968735e-02,0.000000000000000000e+00
1.534000000000000000e+03,4.263561973046110787e-02,0.000000000000000000e+00
1.535000000000000000e+03,1.411920332776570898e-02,0.000000000000000000e+00
1.536000000000000000e+03,3.120252588373605418e-01,0.000000000000000000e+00
1.537000000000000000e+03,3.779484902527015522e-01,0.000000000000000000e+00
1.538000000000000000e+03,3.164568619057463450e-01,0.000000000000000000e+00
1.539000000000000000e+03,9.934610129515337729e-01,0.000000000000000000e+00
1.540000000000000000e+03,1.020452350636839256e+00,0.000000000000000000e+00
1.541000000000000000e+03,1.036605120977596828e+00,0.000000000000000000e+00
1.542000000000000000e+03,8.017787126195742298e-01,0.000000000000000000e+00
1.543000000000000000e+03,3.117523692229586252e-01,0.000000000000000000e+00
1.544000000000000000e+03,-1.843388232098946700e-01,0.000000000000000000e+00
1.545000000000000000e+03,-4.677646758602911348e-01,0.000000000000000000e+00
1.546000000000000000e+03,-4.458881491609397729e-01,0.000000000000000000e+00
1.547000000000000000e+03,-4.995941734902308307e-01,0.000000000000000000e+00
1.548000000000000000e+03,-4.733919688948791116e-01,0.000000000000000000e+00
1.549000000000000000e+03,-4.446117370915541600e-01,0.000000000000000000e+00
1.550000000000000000e+03,-3.018378648738874737e-01,0.000000000000000000e+00
1.551000000000000000e+03,-4.384301987273205303e-01,0.000000000000000000e+00
1.552000000000000000e+03,-3.242412311333133235e-01,0.000000000000000000e+00
1.553000000000000000e+03,-7.627415387820575543e-02,0.000000000000000000e+00
1.554000000000000000e+03,-1.653935178184622046e-01,0.000000000000000000e+00
1.555000000000000000e+03,-1.316025392148263973e-01,0.000000000000000000e+00
1.556000000000000000e+03,1.621394694362960631e-01,0.000000000000000000e+00
1.557000000000000000e+03,2.358902182425695951e-02,0.000000000000000000e+00
1.558000000000000000e+03,4.969348926198009948e-03,0.000000000000000000e+00
1.559000000000000000e+03,-5.381820742545243008e-02,0.000000000000000000e+00
1.560000000000000000e+03,-6.812683380452259907e-02,0.000000000000000000e+00
1.561000000000000000e+03,-5.457786903599534112e-01,0.000000000000000000e+00
1.562000000000000000e+03,3.995995394558630315e-02,0.000000000000000000e+00
1.563000000000000000e+03,-4.682352959260630554e-01,0.000000000000000000e+00
1.564000000000000000e+03,-1.734145538424096133e-01,0.000000000000000000e+00
1.565000000000000000e+03,-9.767591285632805098e-01,0.000000000000000000e+00
1.566000000000000000e+03,3.536215191073455610e+00,0.000000000000000000e+00
1.567000000000000000e+03,3.515917478355680803e+00,0.000000000000000000e+00
1.568000000000000000e+03,-1.093292851458680826e+00,1.000000000000000000e+00
1.569000000000000000e+03,-1.391323885545861838e+00,0.000000000000000000e+00
1.570000000000000000e+03,-2.122735589568076620e+00,0.000000000000000000e+00
1.571000000000000000e+03,-1.016241356498148951e+00,0.000000000000000000e+00
1.572000000000000000e+03,-4.446443127307936338e-01,0.000000000000000000e+00
1.573000000000000000e+03,-2.371184393595275261e-02,0.000000000000000000e+00
1.574000000000000000e+03,5.455007036045057128e-02,0.000000000000000000e+00
1.575000000000000000e+03,2.341740922311034145e-01,0.000000000000000000e+00
1.576000000000000000e+03,1.109582323045809477e-01,0.000000000000000000e+00
1.577000000000000000e+03,3.071352606804516605e-01,0.000000000000000000e+00
1.578000000000000000e+03,4.174179806190411735e-01,0.000000000000000000e+00
1.579000000000000000e+03,8.842582933277246537e-01,0.000000000000000000e+00
1.580000000000000000e+03,7.517541077096653312e-01,0.000000000000000000e+00
1.581000000000000000e+03,9.671071255201064698e-01,0.000000000000000000e+00
1.582000000000000000e+03,8.073172266477051107e-01,0.000000000000000000e+00
1.583000000000000000e+03,9.567884986268541947e-02,0.000000000000000000e+00
1.584000000000000000e+03,-2.823647252463618029e-01,0.000000000000000000e+00
1.585000000000000000e+03,-6.441213775718491741e-01,0.000000000000000000e+00
