timestamp,ecg_measurement,qrs_detected
0.000000000000000000e+00,-4.470937859913381301e-02,0.000000000000000000e+00
1.000000000000000000e+00,3.325413041431850292e-02,0.000000000000000000e+00
2.000000000000000000e+00,1.651248923237705890e-01,0.000000000000000000e+00
3.000000000000000000e+00,2.220259714389810277e-02,0.000000000000000000e+00
4.000000000000000000e+00,-1.667761903184009076e-01,0.000000000000000000e+00
5.000000000000000000e+00,1.330793803574791268e-01,0.000000000000000000e+00
6.000000000000000000e+00,-4.815199806383094194e-01,0.000000000000000000e+00
7.000000000000000000e+00,-1.617371704765596940e-01,0.000000000000000000e+00
8.000000000000000000e+00,-2.637622321720879404e-01,0.000000000000000000e+00
9.000000000000000000e+00,-7.058436278024921018e-02,0.000000000000000000e+00
1.000000000000000000e+01,-8.438521640250736811e-01,0.000000000000000000e+00
1.100000000000000000e+01,2.486840440665099461e+00,0.000000000000000000e+00
1.200000000000000000e+01,3.536582702014223312e+00,0.000000000000000000e+00
1.300000000000000000e+01,-6.886607834764425506e-01,1.000000000000000000e+00
1.400000000000000000e+01,-1.268499201888529493e+00,0.000000000000000000e+00
1.500000000000000000e+01,-1.962001112672530301e+00,0.000000000000000000e+00
1.600000000000000000e+01,-1.044155339142851968e+00,0.000000000000000000e+00
1.700000000000000000e+01,-4.316404795249563775e-01,0.000000000000000000e+00
1.800000000000000000e+01,2.095822486159464870e-01,0.000000000000000000e+00
1.900000000000000000e+01,-8.229338736749805538e-02,0.000000000000000000e+00
2.000000000000000000e+01,3.055928841221957626e-01,0.000000000000000000e+00
2.100000000000000000e+01,7.437639456394053161e-02,0.000000000000000000e+00
2.200000000000000000e+01,2.962966256175172952e-01,0.000000000000000000e+00
2.300000000000000000e+01,6.595560081877870351e-01,0.000000000000000000e+00
2.400000000000000000e+01,6.562137050109706493e-01,0.000000000000000000e+00
2.500000000000000000e+01,7.152166440186201735e-01,0.000000000000000000e+00
2.600000000000000000e+01,1.051985962335975744e+00,0.000000000000000000e+00
2.700000000000000000e+01,8.329494480010461999e-01,0.000000000000000000e+00
2.800000000000000000e+01,1.382888595743881344e-01,0.000000000000000000e+00
2.900000000000000000e+01,-2.623836221273411207e-01,0.000000000000000000e+00
3.000000000000000000e+01,-5.358973764833249165e-01,0.000000000000000000e+00
3.100000000000000000e+01,-4.843466604605640713e-01,0.000000000000000000e+00
3.200000000000000000e+01,-5.003011147533809044e-01,0.000000000000000000e+00
3.300000000000000000e+01,-6.475570286940829368e-01,0.000000000000000000e+00
3.400000000000000000e+01,-4.938525819113696591e-01,0.000000000000000000e+00
3.500000000000000000e+01,-5.403854179663905022e-01,0.000000000000000000e+00
3.600000000000000000e+01,-2.903739795867270601e-01,0.000000000000000000e+00
3.700000000000000000e+01,-5.109684515501506930e-01,0.000000000000000000e+00
3.800000000000000000e+01,-2.746159118783741415e-01,0.000000000000000000e+00
3.900000000000000000e+01,-3.704487348502899513e-01,0.000000000000000000e+00
4.000000000000000000e+01,-1.738304045217542448e-01,0.000000000000000000e+00
4.100000000000000000e+01,-9.252704293057595342e-02,0.000000000000000000e+00
4.200000000000000000e+01,-1.012164825046038275e-01,0.000000000000000000e+00
4.300000000000000000e+01,1.109500968209548438e-01,0.000000000000000000e+00
4.400000000000000000e+01,2.445660227499606154e-01,0.000000000000000000e+00
4.500000000000000000e+01,-1.625014156328493664e-01,0.000000000000000000e+00
4.600000000000000000e+01,-3.375081779599035936e-02,0.000000000000000000e+00
4.700000000000000000e+01,-3.861398371859383061e-01,0.000000000000000000e+00
4.800000000000000000e+01,-1.812058448386238141e-01,0.000000000000000000e+00
4.900000000000000000e+01,-1.977141959972881502e-01,0.000000000000000000e+00
5.000000000000000000e+01,5.788835276536445640e-02,0.000000000000000000e+00
5.100000000000000000e+01,-1.038060378615680790e+00,0.000000000000000000e+00
5.200000000000000000e+01,2.954691829006213855e+00,0.000000000000000000e+00
5.300000000000000000e+01,3.648754929663561519e+00,0.000000000000000000e+00
5.400000000000000000e+01,-6.670502759898394585e-01,1.000000000000000000e+00
5.500000000000000000e+01,-1.361411298555027516e+00,0.000000000000000000e+00
5.600000000000000000e+01,-2.136485891884762456e+00,0.000000000000000000e+00
5.700000000000000000e+01,-9.890930133098811972e-01,0.000000000000000000e+00
5.800000000000000000e+01,-4.123483466914792395e-01,0.000000000000000000e+00
5.900000000000000000e+01,8.668626710948502956e-02,0.000000000000000000e+00
6.000000000000000000e+01,2.888185285333062791e-02,0.000000000000000000e+00
6.100000000000000000e+01,2.521545748198829040e-01,0.000000000000000000e+00
6.200000000000000000e+01,1.175177238969593585e-01,0.000000000000000000e+00
6.300000000000000000e+01,4.194845289362499341e-01,0.000000000000000000e+00
6.400000000000000000e+01,4.957430883665580046e-01,0.000000000000000000e+00
6.500000000000000000e+01,8.045920877161851781e-01,0.000000000000000000e+00
6.600000000000000000e+01,8.117688228486275026e-01,0.000000000000000000e+00
6.700000000000000000e+01,1.031834718945149776e+00,0.000000000000000000e+00
6.800000000000000000e+01,8.119336945940812678e-01,0.000000000000000000e+00
6.900000000000000000e+01,3.290375528275497619e-01,0.000000000000000000e+00
7.000000000000000000e+01,-1.586728927502999709e-01,0.000000000000000000e+00
7.100000000000000000e+01,-3.858534114441474205e-01,0.000000000000000000e+00
7.200000000000000000e+01,-4.210606015047075878e-01,0.000000000000000000e+00
7.300000000000000000e+01,-5.012067624945500954e-01,0.000000000000000000e+00
7.400000000000000000e+01,-5.876752728250118629e-01,0.000000000000000000e+00
7.500000000000000000e+01,-2.754692159922328965e-01,0.000000000000000000e+00
7.600000000000000000e+01,-5.177998265623638963e-01,0.000000000000000000e+00
7.700000000000000000e+01,-4.125852303989592795e-01,0.000000000000000000e+00
7.800000000000000000e+01,-3.116194266701139970e-01,0.000000000000000000e+00
7.900000000000000000e+01,-2.476684809249218022e-01,0.000000000000000000e+00
8.000000000000000000e+01,-2.400379553554856937e-01,0.000000000000000000e+00
8.100000000000000000e+01,-6.584763945250886319e-02,0.000000000000000000e+00
8.200000000000000000e+01,-1.523037246355268270e-01,0.000000000000000000e+00
8.300000000000000000e+01,1.630552739087946512e-01,0.000000000000000000e+00
8.400000000000000000e+01,1.021205901363672480e-01,0.000000000000000000e+00
8.500000000000000000e+01,3.096939429961714785e-02,0.000000000000000000e+00
8.600000000000000000e+01,-1.693566407961309001e-02,0.000000000000000000e+00
8.700000000000000000e+01,-1.528106541003084740e-01,0.000000000000000000e+00
8.800000000000000000e+01,-3.759420465177344961e-01,0.000000000000000000e+00
8.900000000000000000e+01,-2.747690020953046444e-02,0.000000000000000000e+00
9.000000000000000000e+01,-1.134284839003317086e-01,0.000000000000000000e+00
9.100000000000000000e+01,-3.644396109220536806e-01,0.000000000000000000e+00
9.200000000000000000e+01,-1.173646903814968973e-01,0.000000000000000000e+00
9.300000000000000000e+01,4.428457113795973399e+00,0.000000000000000000e+00
9.400000000000000000e+01,1.543643002290562727e+00,1.000000000000000000e+00
9.500000000000000000e+01,-1.102616104594504209e+00,0.000000000000000000e+00
9.600000000000000000e+01,-1.508009982846511221e+00,0.000000000000000000e+00
9.700000000000000000e+01,-1.777668346083182582e+00,0.000000000000000000e+00
9.800000000000000000e+01,-7.866863866101430069e-01,0.000000000000000000e+00
9.900000000000000000e+01,-1.589401978220549572e-01,0.000000000000000000e+00
1.000000000000000000e+02,1.378696461157315756e-01,0.000000000000000000e+00
1.010000000000000000e+02,-6.651951332959198104e-02,0.000000000000000000e+00
1.020000000000000000e+02,2.376389411373359684e-01,0.000000000000000000e+00
1.030000000000000000e+02,1.537539735043673139e-01,0.000000000000000000e+00
1.040000000000000000e+02,4.043964132482418816e-01,0.000000000000000000e+00
1.050000000000000000e+02,7.021282364701506573e-01,0.000000000000000000e+00
1.060000000000000000e+02,5.518208287042657423e-01,0.000000000000000000e+00
1.070000000000000000e+02,9.722998568191799640e-01,0.000000000000000000e+00
1.080000000000000000e+02,1.106917808197909414e+00,0.000000000000000000e+00
1.090000000000000000e+02,3.860846293563360287e-01,0.000000000000000000e+00
1.100000000000000000e+02,3.494280769376315043e-02,0.000000000000000000e+00
1.110000000000000000e+02,-1.422809067135364369e-01,0.000000000000000000e+00
1.120000000000000000e+02,-6.526055671198881525e-01,0.000000000000000000e+00
1.130000000000000000e+02,-7.190998179067762397e-01,0.000000000000000000e+00
1.140000000000000000e+02,-3.761961845704676621e-01,0.000000000000000000e+00
1.150000000000000000e+02,-6.367881097877794438e-01,0.000000000000000000e+00
1.160000000000000000e+02,-4.570848746267898721e-01,0.000000000000000000e+00
1.170000000000000000e+02,-2.789409308557013745e-01,0.000000000000000000e+00
1.180000000000000000e+02,-4.481748010449653208e-01,0.000000000000000000e+00
1.190000000000000000e+02,-3.561708475611585212e-01,0.000000000000000000e+00
1.200000000000000000e+02,-2.124190406198128434e-01,0.000000000000000000e+00
1.210000000000000000e+02,-2.801505787174626838e-01,0.000000000000000000e+00
1.220000000000000000e+02,-4.885841621730636214e-02,0.000000000000000000e+00
1.230000000000000000e+02,3.288126066151182691e-02,0.000000000000000000e+00
1.240000000000000000e+02,-1.582101381171349408e-01,0.000000000000000000e+00
1.250000000000000000e+02,3.329633762669575447e-01,0.000000000000000000e+00
1.260000000000000000e+02,-6.779258647274373495e-02,0.000000000000000000e+00
1.270000000000000000e+02,-1.330653665594226098e-01,0.000000000000000000e+00
1.280000000000000000e+02,-3.794411076510789682e-01,0.000000000000000000e+00
1.290000000000000000e+02,-2.851631591776060751e-02,0.000000000000000000e+00
1.300000000000000000e+02,-1.876580491736029588e-01,0.000000000000000000e+00
1.310000000000000000e+02,3.708718349166000711e-02,0.000000000000000000e+00
1.320000000000000000e+02,-8.499651385907259771e-01,0.000000000000000000e+00
1.330000000000000000e+02,1.500821005023816657e+00,0.000000000000000000e+00
1.340000000000000000e+02,4.331970121422027198e+00,0.000000000000000000e+00
1.350000000000000000e+02,-2.853995414126992425e-01,1.000000000000000000e+00
1.360000000000000000e+02,-1.096690621990741521e+00,0.000000000000000000e+00
1.370000000000000000e+02,-1.540628958697964901e+00,0.000000000000000000e+00
1.380000000000000000e+02,-1.077539229426242473e+00,0.000000000000000000e+00
1.390000000000000000e+02,-7.047829801736499311e-01,0.000000000000000000e+00
1.400000000000000000e+02,-1.551263016384027693e-01,0.000000000000000000e+00
1.410000000000000000e+02,1.155526286846990797e-01,0.000000000000000000e+00
1.420000000000000000e+02,2.890423767763873955e-02,0.000000000000000000e+00
1.430000000000000000e+02,1.816426527886827735e-01,0.000000000000000000e+00
1.440000000000000000e+02,3.587359867802382141e-01,0.000000000000000000e+00
1.450000000000000000e+02,2.528820475909934751e-01,0.000000000000000000e+00
1.460000000000000000e+02,7.012073004869331383e-01,0.000000000000000000e+00
1.470000000000000000e+02,6.979234912689544768e-01,0.000000000000000000e+00
1.480000000000000000e+02,7.779415199629552413e-01,0.000000000000000000e+00
1.490000000000000000e+02,8.944077586920872180e-01,0.000000000000000000e+00
1.500000000000000000e+02,2.981520193570009747e-01,0.000000000000000000e+00
1.510000000000000000e+02,-1.063476151657026803e-01,0.000000000000000000e+00
1.520000000000000000e+02,-3.958783616973228781e-01,0.000000000000000000e+00
1.530000000000000000e+02,-5.957732435885322309e-01,0.000000000000000000e+00
1.540000000000000000e+02,-5.521961036579505766e-01,0.000000000000000000e+00
1.550000000000000000e+02,-5.386992824715252093e-01,0.000000000000000000e+00
1.560000000000000000e+02,-5.045097380455650926e-01,0.000000000000000000e+00
1.570000000000000000e+02,-5.816501574102960204e-01,0.000000000000000000e+00
1.580000000000000000e+02,-3.793691202597458956e-01,0.000000000000000000e+00
1.590000000000000000e+02,-3.912966779613838986e-01,0.000000000000000000e+00
1.600000000000000000e+02,-2.662581821885602329e-01,0.000000000000000000e+00
1.610000000000000000e+02,-2.348641916416900621e-01,0.000000000000000000e+00
1.620000000000000000e+02,-1.314330507567518236e-01,0.000000000000000000e+00
1.630000000000000000e+02,4.818646139794910237e-03,0.000000000000000000e+00
1.640000000000000000e+02,7.589217901006167777e-02,0.000000000000000000e+00
1.650000000000000000e+02,1.291277532835255759e-01,0.000000000000000000e+00
1.660000000000000000e+02,-7.028732282888280718e-03,0.000000000000000000e+00
1.670000000000000000e+02,-1.168131316634424960e-01,0.000000000000000000e+00
1.680000000000000000e+02,-2.557006560312264365e-01,0.000000000000000000e+00
1.690000000000000000e+02,-5.624023895639939513e-02,0.000000000000000000e+00
1.700000000000000000e+02,-2.285023757637092146e-01,0.000000000000000000e+00
1.710000000000000000e+02,5.378690283389676863e-02,0.000000000000000000e+00
1.720000000000000000e+02,-5.872321662432736789e-01,0.000000000000000000e+00
1.730000000000000000e+02,1.481527844970955465e+00,0.000000000000000000e+00
1.740000000000000000e+02,4.184660115536535052e+00,0.000000000000000000e+00
1.750000000000000000e+02,2.126502243650382068e-02,1.000000000000000000e+00
1.760000000000000000e+02,-8.761460579887097033e-01,0.000000000000000000e+00
1.770000000000000000e+02,-1.840566578060206737e+00,0.000000000000000000e+00
1.780000000000000000e+02,-1.249021276716298479e+00,0.000000000000000000e+00
1.790000000000000000e+02,-2.959388665453909772e-01,0.000000000000000000e+00
1.800000000000000000e+02,3.379608147464439188e-02,0.000000000000000000e+00
1.810000000000000000e+02,-2.511468957975472316e-01,0.000000000000000000e+00
1.820000000000000000e+02,4.732156199820962139e-01,0.000000000000000000e+00
1.830000000000000000e+02,2.996936593086402256e-01,0.000000000000000000e+00
1.840000000000000000e+02,3.860120051844485034e-01,0.000000000000000000e+00
1.850000000000000000e+02,1.226028526853476797e-01,0.000000000000000000e+00
1.860000000000000000e+02,1.002810981551442993e+00,0.000000000000000000e+00
1.870000000000000000e+02,5.909328799643158714e-01,0.000000000000000000e+00
1.880000000000000000e+02,8.486745424632181622e-01,0.000000000000000000e+00
1.890000000000000000e+02,7.976370858164957278e-01,0.000000000000000000e+00
1.900000000000000000e+02,4.201427601143030155e-01,0.000000000000000000e+00
1.910000000000000000e+02,-3.788072234637109709e-02,0.000000000000000000e+00
1.920000000000000000e+02,-4.353395782748465948e-01,0.000000000000000000e+00
1.930000000000000000e+02,-7.023475595495903834e-01,0.000000000000000000e+00
1.940000000000000000e+02,-5.465719148367593760e-01,0.000000000000000000e+00
1.950000000000000000e+02,-3.061709552123677569e-01,0.000000000000000000e+00
1.960000000000000000e+02,-6.631709503726640476e-01,0.000000000000000000e+00
1.970000000000000000e+02,-5.276081345974846792e-01,0.000000000000000000e+00
1.980000000000000000e+02,-3.852900578556445743e-01,0.000000000000000000e+00
1.990000000000000000e+02,-3.718707680313536601e-01,0.000000000000000000e+00
2.000000000000000000e+02,-2.517982732830696402e-01,0.000000000000000000e+00
2.010000000000000000e+02,-3.709134130492590664e-01,0.000000000000000000e+00
2.020000000000000000e+02,-8.801419547588514025e-03,0.000000000000000000e+00
2.030000000000000000e+02,-1.503213698649689400e-01,0.000000000000000000e+00
2.040000000000000000e+02,1.725746587394451914e-01,0.000000000000000000e+00
2.050000000000000000e+02,5.900354552542714376e-02,0.000000000000000000e+00
2.060000000000000000e+02,1.322058311724278457e-01,0.000000000000000000e+00
2.070000000000000000e+02,-2.155692509861284467e-01,0.000000000000000000e+00
2.080000000000000000e+02,-1.210481582696460723e-01,0.000000000000000000e+00
2.090000000000000000e+02,-3.887877898776752605e-01,0.000000000000000000e+00
2.100000000000000000e+02,-1.778471871021191364e-01,0.000000000000000000e+00
2.110000000000000000e+02,-2.321615503126440438e-01,0.000000000000000000e+00
2.120000000000000000e+02,-3.862216275770092855e-01,0.000000000000000000e+00
2.130000000000000000e+02,-9.629348793098826964e-02,0.000000000000000000e+00
2.140000000000000000e+02,4.264784989202374810e+00,0.000000000000000000e+00
2.150000000000000000e+02,1.479313601567998848e+00,1.000000000000000000e+00
2.160000000000000000e+02,-1.104354951957795317e+00,0.000000000000000000e+00
2.170000000000000000e+02,-1.706876843056031490e+00,0.000000000000000000e+00
2.180000000000000000e+02,-1.633440289583715899e+00,0.000000000000000000e+00
2.190000000000000000e+02,-9.276586534112317706e-01,0.000000000000000000e+00
2.200000000000000000e+02,1.465295323602200731e-02,0.000000000000000000e+00
2.210000000000000000e+02,7.536469009535469443e-02,0.000000000000000000e+00
2.220000000000000000e+02,-1.256757897435817617e-01,0.000000000000000000e+00
2.230000000000000000e+02,6.877623997941732792e-02,0.000000000000000000e+00
2.240000000000000000e+02,2.138898921069742332e-01,0.000000000000000000e+00
2.250000000000000000e+02,4.739958368010782075e-01,0.000000000000000000e+00
2.260000000000000000e+02,5.237932563311766820e-01,0.000000000000000000e+00
2.270000000000000000e+02,8.337941754077362599e-01,0.000000000000000000e+00
2.280000000000000000e+02,9.622459248046600910e-01,0.000000000000000000e+00
2.290000000000000000e+02,1.046390071053132198e+00,0.000000000000000000e+00
2.300000000000000000e+02,6.016022080227662050e-01,0.000000000000000000e+00
2.310000000000000000e+02,-4.109609810446906812e-03,0.000000000000000000e+00
2.320000000000000000e+02,-1.562230241093510164e-01,0.000000000000000000e+00
2.330000000000000000e+02,-6.395879941486269926e-01,0.000000000000000000e+00
2.340000000000000000e+02,-3.846462923657021915e-01,0.000000000000000000e+00
2.350000000000000000e+02,-4.368575592766705817e-01,0.000000000000000000e+00
2.360000000000000000e+02,-7.818418777502907924e-01,0.000000000000000000e+00
2.370000000000000000e+02,-2.352557090877394896e-01,0.000000000000000000e+00
2.380000000000000000e+02,-2.360486607363809497e-01,0.000000000000000000e+00
2.390000000000000000e+02,-6.594260627647277051e-01,0.000000000000000000e+00
2.400000000000000000e+02,-2.685963627302361822e-01,0.000000000000000000e+00
2.410000000000000000e+02,-2.574213064757503444e-01,0.000000000000000000e+00
2.420000000000000000e+02,-1.293258822233088745e-01,0.000000000000000000e+00
2.430000000000000000e+02,-2.587751039269199638e-02,0.000000000000000000e+00
2.440000000000000000e+02,-1.040177708041124943e-01,0.000000000000000000e+00
2.450000000000000000e+02,9.933445809243024449e-02,0.000000000000000000e+00
2.460000000000000000e+02,1.383743106658014699e-01,0.000000000000000000e+00
2.470000000000000000e+02,-4.406414763399735257e-02,0.000000000000000000e+00
2.480000000000000000e+02,-1.258442750755318917e-01,0.000000000000000000e+00
2.490000000000000000e+02,-2.416775067314108072e-01,0.000000000000000000e+00
2.500000000000000000e+02,-9.033398862459417200e-02,0.000000000000000000e+00
2.510000000000000000e+02,-3.558664842325655608e-01,0.000000000000000000e+00
2.520000000000000000e+02,7.924687416289992459e-02,0.000000000000000000e+00
2.530000000000000000e+02,-8.832173682698922779e-01,0.000000000000000000e+00
2.540000000000000000e+02,2.519032514689990787e+00,0.000000000000000000e+00
2.550000000000000000e+02,3.886747403602054618e+00,0.000000000000000000e+00
2.560000000000000000e+02,-5.275080363111062098e-01,1.000000000000000000e+00
2.570000000000000000e+02,-1.252664961711836389e+00,0.000000000000000000e+00
2.580000000000000000e+02,-2.052476542373466106e+00,0.000000000000000000e+00
2.590000000000000000e+02,-1.038792269852331973e+00,0.000000000000000000e+00
2.600000000000000000e+02,-3.803177069251859610e-01,0.000000000000000000e+00
2.610000000000000000e+02,5.281538230586736021e-02,0.000000000000000000e+00
2.620000000000000000e+02,6.616127393776274901e-03,0.000000000000000000e+00
2.630000000000000000e+02,2.669361596303960193e-01,0.000000000000000000e+00
2.640000000000000000e+02,7.082102098136097180e-03,0.000000000000000000e+00
2.650000000000000000e+02,4.974393788655822046e-01,0.000000000000000000e+00
2.660000000000000000e+02,3.433293633175391046e-01,0.000000000000000000e+00
2.670000000000000000e+02,9.618799250223641906e-01,0.000000000000000000e+00
2.680000000000000000e+02,7.184396174452851724e-01,0.000000000000000000e+00
2.690000000000000000e+02,1.118417244819299494e+00,0.000000000000000000e+00
2.700000000000000000e+02,8.615770640017139659e-01,0.000000000000000000e+00
2.710000000000000000e+02,2.390333344941358296e-01,0.000000000000000000e+00
2.720000000000000000e+02,-1.842759587040523617e-01,0.000000000000000000e+00
2.730000000000000000e+02,-3.748672977255291805e-01,0.000000000000000000e+00
2.740000000000000000e+02,-6.796836913410336800e-01,0.000000000000000000e+00
2.750000000000000000e+02,-4.386528153837217503e-01,0.000000000000000000e+00
2.760000000000000000e+02,-6.229820332873258204e-01,0.000000000000000000e+00
2.770000000000000000e+02,-4.537935292511026675e-01,0.000000000000000000e+00
2.780000000000000000e+02,-5.068506943911090801e-01,0.000000000000000000e+00
2.790000000000000000e+02,-3.547602096141050376e-01,0.000000000000000000e+00
2.800000000000000000e+02,-3.382969730382844875e-01,0.000000000000000000e+00
2.810000000000000000e+02,-1.914696539482844406e-01,0.000000000000000000e+00
2.820000000000000000e+02,-3.143208868004908063e-01,0.000000000000000000e+00
2.830000000000000000e+02,-2.891103402685468726e-01,0.000000000000000000e+00
2.840000000000000000e+02,2.175923486591420652e-01,0.000000000000000000e+00
2.850000000000000000e+02,-1.777337218660660773e-02,0.000000000000000000e+00
2.860000000000000000e+02,-1.506933736110637953e-03,0.000000000000000000e+00
2.870000000000000000e+02,2.802087079088024998e-02,0.000000000000000000e+00
2.880000000000000000e+02,-3.564676433922195353e-02,0.000000000000000000e+00
2.890000000000000000e+02,-4.921719979708278903e-01,0.000000000000000000e+00
2.900000000000000000e+02,-1.273515360208963831e-01,0.000000000000000000e+00
2.910000000000000000e+02,-3.809104728741845025e-01,0.000000000000000000e+00
2.920000000000000000e+02,2.490572377020076333e-01,0.000000000000000000e+00
2.930000000000000000e+02,-9.256974939710892469e-01,0.000000000000000000e+00
2.940000000000000000e+02,1.746098023673489319e+00,0.000000000000000000e+00
2.950000000000000000e+02,4.202717995702037079e+00,0.000000000000000000e+00
2.960000000000000000e+02,-4.250935830853996289e-01,1.000000000000000000e+00
2.970000000000000000e+02,-1.005855384359668481e+00,0.000000000000000000e+00
2.980000000000000000e+02,-2.075606575103686957e+00,0.000000000000000000e+00
2.990000000000000000e+02,-1.090122610240255252e+00,0.000000000000000000e+00
3.000000000000000000e+02,-5.316772330000206770e-01,0.000000000000000000e+00
3.010000000000000000e+02,1.022340563672345243e-01,0.000000000000000000e+00
3.020000000000000000e+02,-6.144750365560731897e-02,0.000000000000000000e+00
3.030000000000000000e+02,1.265198758969825477e-01,0.000000000000000000e+00
3.040000000000000000e+02,6.030797916607014142e-02,0.000000000000000000e+00
3.050000000000000000e+02,3.660146533440336580e-01,0.000000000000000000e+00
3.060000000000000000e+02,3.672130201387334147e-01,0.000000000000000000e+00
3.070000000000000000e+02,6.599988995681858039e-01,0.000000000000000000e+00
3.080000000000000000e+02,8.150259003066689933e-01,0.000000000000000000e+00
3.090000000000000000e+02,1.124740685166831122e+00,0.000000000000000000e+00
3.100000000000000000e+02,5.563759150900613459e-01,0.000000000000000000e+00
3.110000000000000000e+02,5.694868344386221359e-01,0.000000000000000000e+00
3.120000000000000000e+02,-6.263933002115440463e-02,0.000000000000000000e+00
3.130000000000000000e+02,-5.573305685717699909e-01,0.000000000000000000e+00
3.140000000000000000e+02,-4.906663302293019502e-01,0.000000000000000000e+00
3.150000000000000000e+02,-5.045636795000137953e-01,0.000000000000000000e+00
3.160000000000000000e+02,-7.954444163232343712e-01,0.000000000000000000e+00
3.170000000000000000e+02,-1.741940734771240396e-01,0.000000000000000000e+00
3.180000000000000000e+02,-5.910836420686743642e-01,0.000000000000000000e+00
3.190000000000000000e+02,-3.982270656716425661e-01,0.000000000000000000e+00
3.200000000000000000e+02,-3.901707937569602880e-01,0.000000000000000000e+00
3.210000000000000000e+02,-1.176752200327342707e-01,0.000000000000000000e+00
3.220000000000000000e+02,-4.152517251174679958e-01,0.000000000000000000e+00
3.230000000000000000e+02,4.561950327421582935e-02,0.000000000000000000e+00
3.240000000000000000e+02,-2.728543460665570075e-01,0.000000000000000000e+00
3.250000000000000000e+02,1.587628840130291263e-01,0.000000000000000000e+00
3.260000000000000000e+02,6.347948362707175884e-02,0.000000000000000000e+00
3.270000000000000000e+02,-1.305968237542658693e-02,0.000000000000000000e+00
3.280000000000000000e+02,6.178125772019388284e-02,0.000000000000000000e+00
3.290000000000000000e+02,1.221801846201470976e-01,0.000000000000000000e+00
3.300000000000000000e+02,-5.472227141580072729e-01,0.000000000000000000e+00
3.310000000000000000e+02,9.436424661590915586e-02,0.000000000000000000e+00
3.320000000000000000e+02,-1.957911632966031212e-01,0.000000000000000000e+00
3.330000000000000000e+02,3.159695701644334442e-01,0.000000000000000000e+00
3.340000000000000000e+02,-1.046435124132664374e+00,0.000000000000000000e+00
3.350000000000000000e+02,2.446872640322459880e+00,0.000000000000000000e+00
3.360000000000000000e+02,3.323977050748755158e+00,0.000000000000000000e+00
3.370000000000000000e+02,-6.286120519939024653e-01,1.000000000000000000e+00
3.380000000000000000e+02,-9.806476858855538437e-01,0.000000000000000000e+00
3.390000000000000000e+02,-1.858485765390177180e+00,0.000000000000000000e+00
3.400000000000000000e+02,-1.056193891489080938e+00,0.000000000000000000e+00
3.410000000000000000e+02,-3.370376986805662112e-01,0.000000000000000000e+00
3.420000000000000000e+02,1.121438008411213549e-01,0.000000000000000000e+00
3.430000000000000000e+02,-1.238744198245812084e-01,0.000000000000000000e+00
3.440000000000000000e+02,1.389451358914106094e-01,0.000000000000000000e+00
3.450000000000000000e+02,2.714108748249232650e-01,0.000000000000000000e+00
3.460000000000000000e+02,2.581286177935984139e-01,0.000000000000000000e+00
3.470000000000000000e+02,2.161828988387860251e-01,0.000000000000000000e+00
3.480000000000000000e+02,8.307526503615251245e-01,0.000000000000000000e+00
3.490000000000000000e+02,6.155621388857943632e-01,0.000000000000000000e+00
3.500000000000000000e+02,1.100199013781526736e+00,0.000000000000000000e+00
3.510000000000000000e+02,7.803362223164463929e-01,0.000000000000000000e+00
3.520000000000000000e+02,3.162211409099482395e-01,0.000000000000000000e+00
3.530000000000000000e+02,-2.172252860913259087e-01,0.000000000000000000e+00
3.540000000000000000e+02,-4.877716897630894333e-01,0.000000000000000000e+00
3.550000000000000000e+02,-4.942549998989756999e-01,0.000000000000000000e+00
3.560000000000000000e+02,-6.145166297457137494e-01,0.000000000000000000e+00
3.570000000000000000e+02,-5.033268647755626546e-01,0.000000000000000000e+00
3.580000000000000000e+02,-4.633235377180122683e-01,0.000000000000000000e+00
3.590000000000000000e+02,-5.357809053581461534e-01,0.000000000000000000e+00
3.600000000000000000e+02,-2.483423407563555840e-01,0.000000000000000000e+00
3.610000000000000000e+02,-3.873788838741827334e-01,0.000000000000000000e+00
3.620000000000000000e+02,-2.472308256594063780e-01,0.000000000000000000e+00
3.630000000000000000e+02,-1.682311034979458719e-01,0.000000000000000000e+00
3.640000000000000000e+02,1.174594636555245826e-02,0.000000000000000000e+00
3.650000000000000000e+02,-2.506949009515926571e-02,0.000000000000000000e+00
3.660000000000000000e+02,4.008255020136779895e-02,0.000000000000000000e+00
3.670000000000000000e+02,1.789589848885638212e-01,0.000000000000000000e+00
3.680000000000000000e+02,2.964814343955898476e-02,0.000000000000000000e+00
3.690000000000000000e+02,-7.985445056864534652e-02,0.000000000000000000e+00
3.700000000000000000e+02,-3.147478758315944147e-01,0.000000000000000000e+00
3.710000000000000000e+02,6.845855713898305051e-02,0.000000000000000000e+00
3.720000000000000000e+02,-3.411438191428764477e-01,0.000000000000000000e+00
3.730000000000000000e+02,2.229030773033971805e-02,0.000000000000000000e+00
3.740000000000000000e+02,-6.323030485612505247e-01,0.000000000000000000e+00
3.750000000000000000e+02,5.077823516772217438e-01,0.000000000000000000e+00
3.760000000000000000e+02,4.599431931058254541e+00,0.000000000000000000e+00
3.770000000000000000e+02,6.865129969373392482e-01,1.000000000000000000e+00
3.780000000000000000e+02,-1.126430764600624190e+00,0.000000000000000000e+00
3.790000000000000000e+02,-1.746965634763967490e+00,0.000000000000000000e+00
3.800000000000000000e+02,-1.509064833900954250e+00,0.000000000000000000e+00
3.810000000000000000e+02,-4.725288932173725143e-01,0.000000000000000000e+00
3.820000000000000000e+02,-2.245950586665170223e-01,0.000000000000000000e+00
3.830000000000000000e+02,1.777567117997345958e-01,0.000000000000000000e+00
3.840000000000000000e+02,-2.949161185165449436e-02,0.000000000000000000e+00
3.850000000000000000e+02,2.289063310349008784e-01,0.000000000000000000e+00
3.860000000000000000e+02,4.022912787852189753e-01,0.000000000000000000e+00
3.870000000000000000e+02,2.600711490512382928e-01,0.000000000000000000e+00
3.880000000000000000e+02,6.524852901606282840e-01,0.000000000000000000e+00
3.890000000000000000e+02,1.055617850093462540e+00,0.000000000000000000e+00
3.900000000000000000e+02,6.002320294724347027e-01,0.000000000000000000e+00
3.910000000000000000e+02,9.934281356215516334e-01,0.000000000000000000e+00
3.920000000000000000e+02,5.446530016529140816e-01,0.000000000000000000e+00
3.930000000000000000e+02,-9.598087234496616160e-02,0.000000000000000000e+00
3.940000000000000000e+02,-2.475949126559109648e-01,0.000000000000000000e+00
3.950000000000000000e+02,-4.868662244896245772e-01,0.000000000000000000e+00
3.960000000000000000e+02,-7.142459062920619717e-01,0.000000000000000000e+00
3.970000000000000000e+02,-3.851902130025572357e-01,0.000000000000000000e+00
3.980000000000000000e+02,-5.331536054163592553e-01,0.000000000000000000e+00
3.990000000000000000e+02,-4.582520527635121077e-01,0.000000000000000000e+00
4.000000000000000000e+02,-4.138400156323878698e-01,0.000000000000000000e+00
4.010000000000000000e+02,-4.132675202247307333e-01,0.000000000000000000e+00
4.020000000000000000e+02,-3.163076314372936237e-01,0.000000000000000000e+00
4.030000000000000000e+02,-1.556623564338318055e-01,0.000000000000000000e+00
4.040000000000000000e+02,-3.386587313355379769e-01,0.000000000000000000e+00
4.050000000000000000e+02,-1.678437633737932810e-01,0.000000000000000000e+00
4.060000000000000000e+02,1.452467678266027573e-01,0.000000000000000000e+00
4.070000000000000000e+02,1.347108448760343524e-01,0.000000000000000000e+00
4.080000000000000000e+02,4.281462965643816065e-02,0.000000000000000000e+00
4.090000000000000000e+02,5.517042744457481551e-02,0.000000000000000000e+00
4.100000000000000000e+02,-2.228318167104107461e-01,0.000000000000000000e+00
4.110000000000000000e+02,-7.258628995539173623e-02,0.000000000000000000e+00
4.120000000000000000e+02,-3.128315806630542761e-01,0.000000000000000000e+00
4.130000000000000000e+02,-1.663167368915914046e-01,0.000000000000000000e+00
4.140000000000000000e+02,1.136356265355593920e-02,0.000000000000000000e+00
4.150000000000000000e+02,-4.524501898775087905e-01,0.000000000000000000e+00
4.160000000000000000e+02,-1.863166953756467681e-01,0.000000000000000000e+00
4.170000000000000000e+02,4.551671668080703448e+00,0.000000000000000000e+00
4.180000000000000000e+02,1.434945340329319530e+00,1.000000000000000000e+00
4.190000000000000000e+02,-1.174303706989087148e+00,0.000000000000000000e+00
4.200000000000000000e+02,-1.678897835828087048e+00,0.000000000000000000e+00
4.210000000000000000e+02,-1.940512384357258036e+00,0.000000000000000000e+00
4.220000000000000000e+02,-5.182242513388118921e-01,0.000000000000000000e+00
4.230000000000000000e+02,-2.309959032186181538e-01,0.000000000000000000e+00
4.240000000000000000e+02,-3.418788804403668363e-02,0.000000000000000000e+00
4.250000000000000000e+02,1.323117417002879215e-01,0.000000000000000000e+00
4.260000000000000000e+02,1.781623747496320354e-01,0.000000000000000000e+00
4.270000000000000000e+02,2.340101673727414400e-01,0.000000000000000000e+00
4.280000000000000000e+02,4.675648406712946681e-01,0.000000000000000000e+00
4.290000000000000000e+02,4.770241367462964011e-01,0.000000000000000000e+00
4.300000000000000000e+02,8.177782724506844625e-01,0.000000000000000000e+00
4.310000000000000000e+02,8.110127759526025715e-01,0.000000000000000000e+00
4.320000000000000000e+02,8.846003738800274352e-01,0.000000000000000000e+00
4.330000000000000000e+02,6.187521184525769380e-01,0.000000000000000000e+00
4.340000000000000000e+02,-7.754198974244792819e-02,0.000000000000000000e+00
4.350000000000000000e+02,-2.575206353317999741e-01,0.000000000000000000e+00
4.360000000000000000e+02,-6.626963829229233216e-01,0.000000000000000000e+00
4.370000000000000000e+02,-5.235170281886313282e-01,0.000000000000000000e+00
4.380000000000000000e+02,-5.326059299362536636e-01,0.000000000000000000e+00
4.390000000000000000e+02,-5.606302031222973881e-01,0.000000000000000000e+00
4.400000000000000000e+02,-4.203107688910976414e-01,0.000000000000000000e+00
4.410000000000000000e+02,-4.305310617411932106e-01,0.000000000000000000e+00
4.420000000000000000e+02,-3.568446958378973521e-01,0.000000000000000000e+00
4.430000000000000000e+02,-3.471296286376943097e-01,0.000000000000000000e+00
4.440000000000000000e+02,-2.965361161998836814e-01,0.000000000000000000e+00
4.450000000000000000e+02,-2.118001112112976314e-01,0.000000000000000000e+00
4.460000000000000000e+02,-1.004894547421922441e-01,0.000000000000000000e+00
4.470000000000000000e+02,-7.759964783594879012e-02,0.000000000000000000e+00
4.480000000000000000e+02,2.993531915924805276e-01,0.000000000000000000e+00
4.490000000000000000e+02,-8.208378725433905510e-02,0.000000000000000000e+00
4.500000000000000000e+02,1.683908275786717146e-01,0.000000000000000000e+00
4.510000000000000000e+02,1.623477906730182857e-02,0.000000000000000000e+00
4.520000000000000000e+02,-4.280689516350880686e-01,0.000000000000000000e+00
4.530000000000000000e+02,-2.450014303126202830e-01,0.000000000000000000e+00
4.540000000000000000e+02,-1.661196265926725701e-01,0.000000000000000000e+00
4.550000000000000000e+02,-1.026614328616348160e-01,0.000000000000000000e+00
4.560000000000000000e+02,-6.022595769520545650e-01,0.000000000000000000e+00
4.570000000000000000e+02,2.741810452133869869e-01,0.000000000000000000e+00
4.580000000000000000e+02,4.641919804694341067e+00,0.000000000000000000e+00
4.590000000000000000e+02,1.091006912804088236e+00,1.000000000000000000e+00
4.600000000000000000e+02,-1.071984221535658532e+00,0.000000000000000000e+00
4.610000000000000000e+02,-1.830103613829708875e+00,0.000000000000000000e+00
4.620000000000000000e+02,-1.622872764694546222e+00,0.000000000000000000e+00
4.630000000000000000e+02,-4.627549729431985059e-01,0.000000000000000000e+00
4.640000000000000000e+02,-6.077824701590412403e-03,0.000000000000000000e+00
4.650000000000000000e+02,-1.755123272887395558e-01,0.000000000000000000e+00
4.660000000000000000e+02,2.717625985453523407e-01,0.000000000000000000e+00
4.670000000000000000e+02,1.741620799303476019e-01,0.000000000000000000e+00
4.680000000000000000e+02,4.117211075489921046e-01,0.000000000000000000e+00
4.690000000000000000e+02,3.344132967098028542e-01,0.000000000000000000e+00
4.700000000000000000e+02,6.706188441184733895e-01,0.000000000000000000e+00
4.710000000000000000e+02,7.357612934821268214e-01,0.000000000000000000e+00
4.720000000000000000e+02,1.152630727357192741e+00,0.000000000000000000e+00
4.730000000000000000e+02,8.428153266082027972e-01,0.000000000000000000e+00
4.740000000000000000e+02,5.649619364625654283e-01,0.000000000000000000e+00
4.750000000000000000e+02,2.610600631932288862e-01,0.000000000000000000e+00
4.760000000000000000e+02,-4.717915713972887226e-01,0.000000000000000000e+00
4.770000000000000000e+02,-3.463879864374567186e-01,0.000000000000000000e+00
4.780000000000000000e+02,-5.713842811560937429e-01,0.000000000000000000e+00
4.790000000000000000e+02,-6.244304047426351145e-01,0.000000000000000000e+00
4.800000000000000000e+02,-3.278886614824383927e-01,0.000000000000000000e+00
4.810000000000000000e+02,-3.370606981289770432e-01,0.000000000000000000e+00
4.820000000000000000e+02,-5.644682698488949768e-01,0.000000000000000000e+00
4.830000000000000000e+02,-2.599905462718222759e-01,0.000000000000000000e+00
4.840000000000000000e+02,-1.644687769261399257e-01,0.000000000000000000e+00
4.850000000000000000e+02,-3.413565741732484948e-01,0.000000000000000000e+00
4.860000000000000000e+02,-2.094060842316712578e-01,0.000000000000000000e+00
4.870000000000000000e+02,-1.393712121084155486e-01,0.000000000000000000e+00
4.880000000000000000e+02,-5.978090107665826741e-02,0.000000000000000000e+00
4.890000000000000000e+02,-5.711603874148692139e-02,0.000000000000000000e+00
4.900000000000000000e+02,1.175960520834327949e-01,0.000000000000000000e+00
4.910000000000000000e+02,1.439424696284828942e-01,0.000000000000000000e+00
4.920000000000000000e+02,-7.422033376100577520e-03,0.000000000000000000e+00
4.930000000000000000e+02,6.155451521465426373e-02,0.000000000000000000e+00
4.940000000000000000e+02,-2.998570222720385869e-01,0.000000000000000000e+00
4.950000000000000000e+02,-2.369267952294413782e-01,0.000000000000000000e+00
4.960000000000000000e+02,4.831641491640947805e-02,0.000000000000000000e+00
4.970000000000000000e+02,-2.630485132574312268e-01,0.000000000000000000e+00
4.980000000000000000e+02,-6.718010896878670035e-01,0.000000000000000000e+00
4.990000000000000000e+02,8.758099733136661680e-01,0.000000000000000000e+00
5.000000000000000000e+02,4.142082866632947891e+00,0.000000000000000000e+00
5.010000000000000000e+02,5.779141489321388825e-01,1.000000000000000000e+00
5.020000000000000000e+02,-1.307322932683637751e+00,0.000000000000000000e+00
5.030000000000000000e+02,-1.568342484856977359e+00,0.000000000000000000e+00
5.040000000000000000e+02,-1.617676041114908481e+00,0.000000000000000000e+00
5.050000000000000000e+02,-5.168434892687058246e-01,0.000000000000000000e+00
5.060000000000000000e+02,-4.027490904158022300e-02,0.000000000000000000e+00
5.070000000000000000e+02,-1.168949538020849083e-01,0.000000000000000000e+00
5.080000000000000000e+02,9.660855306132845599e-02,0.000000000000000000e+00
5.090000000000000000e+02,2.800128859309467533e-01,0.000000000000000000e+00
5.100000000000000000e+02,8.153165375568782736e-02,0.000000000000000000e+00
5.110000000000000000e+02,4.012998662517113790e-01,0.000000000000000000e+00
5.120000000000000000e+02,6.173187987746573402e-01,0.000000000000000000e+00
5.130000000000000000e+02,7.745711451597550035e-01,0.000000000000000000e+00
5.140000000000000000e+02,9.330265034567329918e-01,0.000000000000000000e+00
5.150000000000000000e+02,9.052022972927830091e-01,0.000000000000000000e+00
5.160000000000000000e+02,5.402206916248578628e-01,0.000000000000000000e+00
5.170000000000000000e+02,-6.717507269644078238e-02,0.000000000000000000e+00
5.180000000000000000e+02,-4.196098129616106509e-01,0.000000000000000000e+00
5.190000000000000000e+02,-2.980055027656814959e-01,0.000000000000000000e+00
5.200000000000000000e+02,-5.400250432962697689e-01,0.000000000000000000e+00
5.210000000000000000e+02,-8.210102625959215805e-01,0.000000000000000000e+00
5.220000000000000000e+02,-3.652975937044507515e-01,0.000000000000000000e+00
5.230000000000000000e+02,-5.434220605764802370e-01,0.000000000000000000e+00
5.240000000000000000e+02,-4.652826132043958451e-01,0.000000000000000000e+00
5.250000000000000000e+02,-3.384642684796103085e-01,0.000000000000000000e+00
5.260000000000000000e+02,-4.165509764245440283e-01,0.000000000000000000e+00
5.270000000000000000e+02,-1.308400161541415641e-01,0.000000000000000000e+00
5.280000000000000000e+02,-2.471583404182269850e-01,0.000000000000000000e+00
5.290000000000000000e+02,-1.833432042249007188e-01,0.000000000000000000e+00
5.300000000000000000e+02,-7.167715883692020451e-02,0.000000000000000000e+00
5.310000000000000000e+02,2.372224970227933827e-01,0.000000000000000000e+00
5.320000000000000000e+02,3.670374543196839451e-02,0.000000000000000000e+00
5.330000000000000000e+02,2.857978791789417272e-02,0.000000000000000000e+00
5.340000000000000000e+02,-1.801875634911159207e-01,0.000000000000000000e+00
5.350000000000000000e+02,-1.069282646824856187e-01,0.000000000000000000e+00
5.360000000000000000e+02,-1.230264432368777250e-01,0.000000000000000000e+00
5.370000000000000000e+02,-2.642499611795365855e-01,0.000000000000000000e+00
5.380000000000000000e+02,-1.120696699713513850e-01,0.000000000000000000e+00
5.390000000000000000e+02,-5.918239548953554419e-01,0.000000000000000000e+00
5.400000000000000000e+02,4.880046659269148268e-01,0.000000000000000000e+00
5.410000000000000000e+02,4.134277585919822862e+00,0.000000000000000000e+00
5.420000000000000000e+02,8.008936757501956549e-01,1.000000000000000000e+00
5.430000000000000000e+02,-8.880392181070925206e-01,0.000000000000000000e+00
5.440000000000000000e+02,-1.637463029623646982e+00,0.000000000000000000e+00
5.450000000000000000e+02,-1.676724718917051105e+00,0.000000000000000000e+00
5.460000000000000000e+02,-4.598227836251784217e-01,0.000000000000000000e+00
5.470000000000000000e+02,-2.578292488846486430e-01,0.000000000000000000e+00
5.480000000000000000e+02,7.095499623810548606e-02,0.000000000000000000e+00
5.490000000000000000e+02,1.956491319300582288e-01,0.000000000000000000e+00
5.500000000000000000e+02,1.279202928239694392e-01,0.000000000000000000e+00
5.510000000000000000e+02,2.406706090933515840e-01,0.000000000000000000e+00
5.520000000000000000e+02,4.795334504872913461e-01,0.000000000000000000e+00
5.530000000000000000e+02,4.582089099984016922e-01,0.000000000000000000e+00
5.540000000000000000e+02,8.955132936358742857e-01,0.000000000000000000e+00
5.550000000000000000e+02,8.275398926473909178e-01,0.000000000000000000e+00
5.560000000000000000e+02,9.249807463721820833e-01,0.000000000000000000e+00
5.570000000000000000e+02,6.427602402728885833e-01,0.000000000000000000e+00
5.580000000000000000e+02,-1.645177177841299632e-01,0.000000000000000000e+00
5.590000000000000000e+02,-2.388933470422952843e-01,0.000000000000000000e+00
5.600000000000000000e+02,-3.126997824674005444e-01,0.000000000000000000e+00
5.610000000000000000e+02,-6.762461269740512870e-01,0.000000000000000000e+00
5.620000000000000000e+02,-6.768100283685668517e-01,0.000000000000000000e+00
5.630000000000000000e+02,-3.223086528192281031e-01,0.000000000000000000e+00
5.640000000000000000e+02,-5.787125027397538313e-01,0.000000000000000000e+00
5.650000000000000000e+02,-2.921214354306379546e-01,0.000000000000000000e+00
5.660000000000000000e+02,-3.481771052153222468e-01,0.000000000000000000e+00
5.670000000000000000e+02,-3.253046899061518560e-01,0.000000000000000000e+00
5.680000000000000000e+02,-1.236804201904189854e-01,0.000000000000000000e+00
5.690000000000000000e+02,-2.840764065795889359e-01,0.000000000000000000e+00
5.700000000000000000e+02,-4.869826251401593829e-03,0.000000000000000000e+00
5.710000000000000000e+02,2.119755055979977709e-01,0.000000000000000000e+00
5.720000000000000000e+02,9.407121803164712748e-02,0.000000000000000000e+00
5.730000000000000000e+02,1.101282502310363572e-02,0.000000000000000000e+00
5.740000000000000000e+02,-1.232014451402580965e-02,0.000000000000000000e+00
5.750000000000000000e+02,2.984631485541525478e-02,0.000000000000000000e+00
5.760000000000000000e+02,-3.316708472849171363e-01,0.000000000000000000e+00
5.770000000000000000e+02,-1.075260084619938383e-01,0.000000000000000000e+00
5.780000000000000000e+02,-2.587636986832745345e-01,0.000000000000000000e+00
5.790000000000000000e+02,4.437893806340407338e-02,0.000000000000000000e+00
5.800000000000000000e+02,-9.341934904857255306e-01,0.000000000000000000e+00
5.810000000000000000e+02,1.755870105066696052e+00,0.000000000000000000e+00
5.820000000000000000e+02,4.173174159077962742e+00,0.000000000000000000e+00
5.830000000000000000e+02,5.334016883972458184e-02,1.000000000000000000e+00
5.840000000000000000e+02,-1.203771510329510130e+00,0.000000000000000000e+00
5.850000000000000000e+02,-1.874449638347358782e+00,0.000000000000000000e+00
5.860000000000000000e+02,-1.208177762157178980e+00,0.000000000000000000e+00
5.870000000000000000e+02,-6.247774012488371831e-01,0.000000000000000000e+00
5.880000000000000000e+02,2.358959639267599676e-02,0.000000000000000000e+00
5.890000000000000000e+02,-1.074821383143685638e-01,0.000000000000000000e+00
5.900000000000000000e+02,1.990527897425560522e-01,0.000000000000000000e+00
5.910000000000000000e+02,8.645094515884714503e-02,0.000000000000000000e+00
5.920000000000000000e+02,3.920800868969612774e-01,0.000000000000000000e+00
5.930000000000000000e+02,3.653890645850834118e-01,0.000000000000000000e+00
5.940000000000000000e+02,6.221120126511432424e-01,0.000000000000000000e+00
5.950000000000000000e+02,9.047039548596728098e-01,0.000000000000000000e+00
5.960000000000000000e+02,9.623636319384936133e-01,0.000000000000000000e+00
5.970000000000000000e+02,7.827324475372375856e-01,0.000000000000000000e+00
5.980000000000000000e+02,4.967684974942762066e-01,0.000000000000000000e+00
5.990000000000000000e+02,-1.254516130231884130e-01,0.000000000000000000e+00
6.000000000000000000e+02,-4.175401794053005267e-01,0.000000000000000000e+00
6.010000000000000000e+02,-5.128935250204884611e-01,0.000000000000000000e+00
6.020000000000000000e+02,-4.300395511032645834e-01,0.000000000000000000e+00
6.030000000000000000e+02,-7.052964034808514304e-01,0.000000000000000000e+00
6.040000000000000000e+02,-3.615801102897010511e-01,0.000000000000000000e+00
6.050000000000000000e+02,-5.362471614023830435e-01,0.000000000000000000e+00
6.060000000000000000e+02,-3.180754818651736482e-01,0.000000000000000000e+00
6.070000000000000000e+02,-2.883017689037618014e-01,0.000000000000000000e+00
6.080000000000000000e+02,-3.176188716184891181e-01,0.000000000000000000e+00
6.090000000000000000e+02,-2.672528245514720346e-01,0.000000000000000000e+00
6.100000000000000000e+02,-2.000249318973862933e-01,0.000000000000000000e+00
6.110000000000000000e+02,-1.785931023214102076e-01,0.000000000000000000e+00
6.120000000000000000e+02,7.256203460645203884e-02,0.000000000000000000e+00
6.130000000000000000e+02,9.622138397214145822e-02,0.000000000000000000e+00
6.140000000000000000e+02,2.199942230379078600e-01,0.000000000000000000e+00
6.150000000000000000e+02,-1.018829268616552042e-01,0.000000000000000000e+00
6.160000000000000000e+02,2.453060459185593331e-02,0.000000000000000000e+00
6.170000000000000000e+02,-3.706495899217351897e-01,0.000000000000000000e+00
6.180000000000000000e+02,-1.647049414548641399e-01,0.000000000000000000e+00
6.190000000000000000e+02,-2.417755315144025641e-01,0.000000000000000000e+00
6.200000000000000000e+02,-2.951860673878393265e-02,0.000000000000000000e+00
6.210000000000000000e+02,-8.223411803072631088e-01,0.000000000000000000e+00
6.220000000000000000e+02,1.301782213187304915e+00,0.000000000000000000e+00
6.230000000000000000e+02,4.381133865354950530e+00,0.000000000000000000e+00
6.240000000000000000e+02,1.981412918247567045e-01,1.000000000000000000e+00
6.250000000000000000e+02,-1.041654597860111497e+00,0.000000000000000000e+00
6.260000000000000000e+02,-1.952319048556985681e+00,0.000000000000000000e+00
6.270000000000000000e+02,-1.491088446582053528e+00,0.000000000000000000e+00
6.280000000000000000e+02,-5.532252831531019321e-01,0.000000000000000000e+00
6.290000000000000000e+02,1.445698986018037653e-02,0.000000000000000000e+00
6.300000000000000000e+02,-1.497565916931401231e-01,0.000000000000000000e+00
6.310000000000000000e+02,1.083414229877579238e-01,0.000000000000000000e+00
6.320000000000000000e+02,9.472501217698606202e-02,0.000000000000000000e+00
6.330000000000000000e+02,3.675032886837122925e-01,0.000000000000000000e+00
6.340000000000000000e+02,1.998246424123189813e-01,0.000000000000000000e+00
6.350000000000000000e+02,7.584357772910793605e-01,0.000000000000000000e+00
6.360000000000000000e+02,8.510296317428145407e-01,0.000000000000000000e+00
6.370000000000000000e+02,1.056405638751963583e+00,0.000000000000000000e+00
6.380000000000000000e+02,8.752837132449400315e-01,0.000000000000000000e+00
6.390000000000000000e+02,6.055942396372112624e-01,0.000000000000000000e+00
6.400000000000000000e+02,-1.537377563026058602e-01,0.000000000000000000e+00
6.410000000000000000e+02,-3.045795969321610785e-01,0.000000000000000000e+00
6.420000000000000000e+02,-5.490077256190916133e-01,0.000000000000000000e+00
6.430000000000000000e+02,-4.128513023123861481e-01,0.000000000000000000e+00
6.440000000000000000e+02,-5.907808005965825560e-01,0.000000000000000000e+00
6.450000000000000000e+02,-4.163162778810641784e-01,0.000000000000000000e+00
6.460000000000000000e+02,-4.214832935981873696e-01,0.000000000000000000e+00
6.470000000000000000e+02,-2.797815691140516092e-01,0.000000000000000000e+00
6.480000000000000000e+02,-3.471002759833824447e-01,0.000000000000000000e+00
6.490000000000000000e+02,-1.581892720274787612e-01,0.000000000000000000e+00
6.500000000000000000e+02,-2.026111595466118520e-01,0.000000000000000000e+00
6.510000000000000000e+02,-2.769131404385020145e-01,0.000000000000000000e+00
6.520000000000000000e+02,4.774182650490137181e-02,0.000000000000000000e+00
6.530000000000000000e+02,-6.266885867933980059e-02,0.000000000000000000e+00
6.540000000000000000e+02,1.233108838127347090e-01,0.000000000000000000e+00
6.550000000000000000e+02,1.673327549044466289e-01,0.000000000000000000e+00
6.560000000000000000e+02,5.457734855997528611e-02,0.000000000000000000e+00
6.570000000000000000e+02,-1.575234784469905364e-02,0.000000000000000000e+00
6.580000000000000000e+02,-1.907157599437576956e-01,0.000000000000000000e+00
6.590000000000000000e+02,-2.538932148718689441e-01,0.000000000000000000e+00
6.600000000000000000e+02,-1.303664153040877960e-01,0.000000000000000000e+00
6.610000000000000000e+02,4.761696878767593399e-02,0.000000000000000000e+00
6.620000000000000000e+02,-8.594719176884001444e-01,0.000000000000000000e+00
6.630000000000000000e+02,1.103066969989720203e+00,0.000000000000000000e+00
6.640000000000000000e+02,4.602216867084886864e+00,0.000000000000000000e+00
6.650000000000000000e+02,2.251673861861075987e-01,1.000000000000000000e+00
6.660000000000000000e+02,-1.156244868103598833e+00,0.000000000000000000e+00
6.670000000000000000e+02,-1.690838128842713006e+00,0.000000000000000000e+00
6.680000000000000000e+02,-1.421328236021743185e+00,0.000000000000000000e+00
6.690000000000000000e+02,-9.440209378616929436e-01,0.000000000000000000e+00
6.700000000000000000e+02,-1.271322798340106253e-01,0.000000000000000000e+00
6.710000000000000000e+02,1.087436435699384446e-01,0.000000000000000000e+00
6.720000000000000000e+02,-6.688950021355592745e-02,0.000000000000000000e+00
6.730000000000000000e+02,1.622191337690333524e-01,0.000000000000000000e+00
6.740000000000000000e+02,4.002816975248499332e-01,0.000000000000000000e+00
6.750000000000000000e+02,1.769027136173863812e-01,0.000000000000000000e+00
6.760000000000000000e+02,5.951957091482910078e-01,0.000000000000000000e+00
6.770000000000000000e+02,7.808778292210744043e-01,0.000000000000000000e+00
6.780000000000000000e+02,1.000393233438141127e+00,0.000000000000000000e+00
6.790000000000000000e+02,8.895777637070636512e-01,0.000000000000000000e+00
6.800000000000000000e+02,3.146603219957031516e-01,0.000000000000000000e+00
6.810000000000000000e+02,1.969314327609856807e-01,0.000000000000000000e+00
6.820000000000000000e+02,-3.906915589156761404e-01,0.000000000000000000e+00
6.830000000000000000e+02,-4.900730235062576989e-01,0.000000000000000000e+00
6.840000000000000000e+02,-7.772555473900472078e-01,0.000000000000000000e+00
6.850000000000000000e+02,-8.234318053231576284e-01,0.000000000000000000e+00
6.860000000000000000e+02,-4.226183194151622580e-01,0.000000000000000000e+00
6.870000000000000000e+02,-2.946015705407601382e-01,0.000000000000000000e+00
6.880000000000000000e+02,-8.846906760759329913e-01,0.000000000000000000e+00
6.890000000000000000e+02,-4.236430454716181293e-01,0.000000000000000000e+00
6.900000000000000000e+02,-3.185569279768118989e-01,0.000000000000000000e+00
6.910000000000000000e+02,-4.032555187504505145e-01,0.000000000000000000e+00
6.920000000000000000e+02,-1.218213613728641315e-01,0.000000000000000000e+00
6.930000000000000000e+02,-2.644581092978113279e-01,0.000000000000000000e+00
6.940000000000000000e+02,-2.785629518352153999e-01,0.000000000000000000e+00
6.950000000000000000e+02,3.516109514025258370e-02,0.000000000000000000e+00
6.960000000000000000e+02,1.813673143287168887e-01,0.000000000000000000e+00
6.970000000000000000e+02,1.624895465804089278e-01,0.000000000000000000e+00
6.980000000000000000e+02,-1.476023916930052637e-01,0.000000000000000000e+00
6.990000000000000000e+02,-1.527855301423440282e-01,0.000000000000000000e+00
7.000000000000000000e+02,-2.411545453823541740e-01,0.000000000000000000e+00
7.010000000000000000e+02,-1.326118779257386415e-01,0.000000000000000000e+00
7.020000000000000000e+02,-1.829108781704768261e-01,0.000000000000000000e+00
7.030000000000000000e+02,-8.066441571856747261e-02,0.000000000000000000e+00
7.040000000000000000e+02,-6.001698631525662631e-01,0.000000000000000000e+00
7.050000000000000000e+02,3.518743556153076657e+00,0.000000000000000000e+00
7.060000000000000000e+02,2.488174044827346609e+00,0.000000000000000000e+00
7.070000000000000000e+02,-9.215260270850187396e-01,1.000000000000000000e+00
7.080000000000000000e+02,-1.215192073233912096e+00,0.000000000000000000e+00
7.090000000000000000e+02,-1.849632982674105364e+00,0.000000000000000000e+00
7.100000000000000000e+02,-7.710849119712028799e-01,0.000000000000000000e+00
7.110000000000000000e+02,-3.025778381655911398e-01,0.000000000000000000e+00
7.120000000000000000e+02,1.757746143693762753e-01,0.000000000000000000e+00
7.130000000000000000e+02,6.432538708351942525e-02,0.000000000000000000e+00
7.140000000000000000e+02,1.694194468922810837e-01,0.000000000000000000e+00
7.150000000000000000e+02,4.354016879324206779e-01,0.000000000000000000e+00
7.160000000000000000e+02,3.524045417465938579e-01,0.000000000000000000e+00
7.170000000000000000e+02,6.326897126204782396e-01,0.000000000000000000e+00
7.180000000000000000e+02,8.366843201033081767e-01,0.000000000000000000e+00
7.190000000000000000e+02,9.464411249375637158e-01,0.000000000000000000e+00
7.200000000000000000e+02,9.162493398120661325e-01,0.000000000000000000e+00
7.210000000000000000e+02,8.049232181549478282e-01,0.000000000000000000e+00
7.220000000000000000e+02,3.416091216456700885e-01,0.000000000000000000e+00
7.230000000000000000e+02,-1.890578400218649591e-01,0.000000000000000000e+00
7.240000000000000000e+02,-3.320586066947459059e-01,0.000000000000000000e+00
7.250000000000000000e+02,-5.574051946725768758e-01,0.000000000000000000e+00
7.260000000000000000e+02,-3.260049563745321954e-01,0.000000000000000000e+00
7.270000000000000000e+02,-5.020174898313741751e-01,0.000000000000000000e+00
7.280000000000000000e+02,-3.492350354048642802e-01,0.000000000000000000e+00
7.290000000000000000e+02,-4.023727147813796479e-01,0.000000000000000000e+00
7.300000000000000000e+02,-3.757931109448898743e-01,0.000000000000000000e+00
7.310000000000000000e+02,-1.560117486169621259e-01,0.000000000000000000e+00
7.320000000000000000e+02,-2.509551183765448279e-01,0.000000000000000000e+00
7.330000000000000000e+02,-3.588265889942455211e-01,0.000000000000000000e+00
7.340000000000000000e+02,5.661285976546055754e-02,0.000000000000000000e+00
7.350000000000000000e+02,9.503537634023354053e-02,0.000000000000000000e+00
7.360000000000000000e+02,-1.157029789380843582e-01,0.000000000000000000e+00
7.370000000000000000e+02,2.056729350298769632e-01,0.000000000000000000e+00
7.380000000000000000e+02,-3.664972550722593592e-02,0.000000000000000000e+00
7.390000000000000000e+02,-3.138390887754044511e-01,0.000000000000000000e+00
7.400000000000000000e+02,-7.426229378986429208e-02,0.000000000000000000e+00
7.410000000000000000e+02,-2.993989825148049913e-02,0.000000000000000000e+00
7.420000000000000000e+02,-3.458694635029234687e-01,0.000000000000000000e+00
7.430000000000000000e+02,1.276695063292236643e-01,0.000000000000000000e+00
7.440000000000000000e+02,-9.198624250249902712e-01,0.000000000000000000e+00
7.450000000000000000e+02,2.076729683396777659e+00,0.000000000000000000e+00
7.460000000000000000e+02,3.928609389690728371e+00,0.000000000000000000e+00
7.470000000000000000e+02,-7.515857165096897496e-01,1.000000000000000000e+00
7.480000000000000000e+02,-1.066972240174463682e+00,0.000000000000000000e+00
7.490000000000000000e+02,-1.741920857141713075e+00,0.000000000000000000e+00
7.500000000000000000e+02,-1.356150618574840427e+00,0.000000000000000000e+00
7.510000000000000000e+02,-4.891046458049818080e-01,0.000000000000000000e+00
7.520000000000000000e+02,2.758247250704182196e-01,0.000000000000000000e+00
7.530000000000000000e+02,-2.543094532785908912e-01,0.000000000000000000e+00
7.540000000000000000e+02,8.933200161023167885e-02,0.000000000000000000e+00
7.550000000000000000e+02,2.743641734112742814e-01,0.000000000000000000e+00
7.560000000000000000e+02,8.626558608354585600e-02,0.000000000000000000e+00
7.570000000000000000e+02,3.871625181532731830e-01,0.000000000000000000e+00
7.580000000000000000e+02,8.103253321216402627e-01,0.000000000000000000e+00
7.590000000000000000e+02,6.030853939998970237e-01,0.000000000000000000e+00
7.600000000000000000e+02,1.012421024875536757e+00,0.000000000000000000e+00
7.610000000000000000e+02,7.472569723904128880e-01,0.000000000000000000e+00
7.620000000000000000e+02,3.200856692313754359e-01,0.000000000000000000e+00
7.630000000000000000e+02,-2.380009066133544349e-01,0.000000000000000000e+00
7.640000000000000000e+02,-3.351514388236707109e-01,0.000000000000000000e+00
7.650000000000000000e+02,-7.574653390431658195e-01,0.000000000000000000e+00
7.660000000000000000e+02,-5.124883990166885228e-01,0.000000000000000000e+00
7.670000000000000000e+02,-3.713465575270953889e-01,0.000000000000000000e+00
7.680000000000000000e+02,-4.971130368082879447e-01,0.000000000000000000e+00
7.690000000000000000e+02,-6.047636985369788665e-01,0.000000000000000000e+00
7.700000000000000000e+02,-2.017655515834620716e-01,0.000000000000000000e+00
7.710000000000000000e+02,-3.063883812250496330e-01,0.000000000000000000e+00
7.720000000000000000e+02,-4.525396473296705024e-01,0.000000000000000000e+00
7.730000000000000000e+02,-2.661144447714225980e-01,0.000000000000000000e+00
7.740000000000000000e+02,-7.266570287919228710e-02,0.000000000000000000e+00
7.750000000000000000e+02,-2.509034392221504706e-01,0.000000000000000000e+00
7.760000000000000000e+02,3.086907590815327618e-01,0.000000000000000000e+00
7.770000000000000000e+02,-9.167056185609838079e-03,0.000000000000000000e+00
7.780000000000000000e+02,3.426764298050311019e-02,0.000000000000000000e+00
7.790000000000000000e+02,-1.411169989322329787e-01,0.000000000000000000e+00
7.800000000000000000e+02,-1.682988500598071036e-01,0.000000000000000000e+00
7.810000000000000000e+02,-1.022425541648707276e-01,0.000000000000000000e+00
7.820000000000000000e+02,-2.099532858772802657e-01,0.000000000000000000e+00
7.830000000000000000e+02,-2.033118671479601791e-01,0.000000000000000000e+00
7.840000000000000000e+02,-3.873690044221597684e-01,0.000000000000000000e+00
7.850000000000000000e+02,-1.558727738513819294e-01,0.000000000000000000e+00
7.860000000000000000e+02,4.257365332593139762e+00,0.000000000000000000e+00
7.870000000000000000e+02,1.664086780297296064e+00,1.000000000000000000e+00
7.880000000000000000e+02,-8.987002627645678254e-01,0.000000000000000000e+00
7.890000000000000000e+02,-1.882209214672089681e+00,0.000000000000000000e+00
7.900000000000000000e+02,-1.568028446904823348e+00,0.000000000000000000e+00
7.910000000000000000e+02,-4.434890715555689922e-01,0.000000000000000000e+00
7.920000000000000000e+02,-3.514670739455015847e-01,0.000000000000000000e+00
7.930000000000000000e+02,-5.927713026047664452e-02,0.000000000000000000e+00
7.940000000000000000e+02,3.882043081345313840e-01,0.000000000000000000e+00
7.950000000000000000e+02,5.706674449665692650e-02,0.000000000000000000e+00
7.960000000000000000e+02,2.682972501663613563e-02,0.000000000000000000e+00
7.970000000000000000e+02,5.238801055314341593e-01,0.000000000000000000e+00
7.980000000000000000e+02,7.101231908937863935e-01,0.000000000000000000e+00
7.990000000000000000e+02,8.053814767063131042e-01,0.000000000000000000e+00
8.000000000000000000e+02,6.143317595186931213e-01,0.000000000000000000e+00
8.010000000000000000e+02,7.975829236979676828e-01,0.000000000000000000e+00
8.020000000000000000e+02,6.612788305418939583e-01,0.000000000000000000e+00
8.030000000000000000e+02,3.104123809436954984e-01,0.000000000000000000e+00
8.040000000000000000e+02,-5.574241987577912560e-01,0.000000000000000000e+00
8.050000000000000000e+02,-7.057073240640098222e-01,0.000000000000000000e+00
8.060000000000000000e+02,-5.617929935206443792e-01,0.000000000000000000e+00
8.070000000000000000e+02,-6.218792796402788925e-01,0.000000000000000000e+00
8.080000000000000000e+02,-2.640563012874915239e-01,0.000000000000000000e+00
8.090000000000000000e+02,-6.579398072875893844e-01,0.000000000000000000e+00
8.100000000000000000e+02,-3.308489151268320105e-01,0.000000000000000000e+00
8.110000000000000000e+02,-5.392100349812090077e-01,0.000000000000000000e+00
8.120000000000000000e+02,-6.455207279289218447e-02,0.000000000000000000e+00
8.130000000000000000e+02,-4.700568179267072821e-01,0.000000000000000000e+00
8.140000000000000000e+02,-1.064013707080081889e-01,0.000000000000000000e+00
8.150000000000000000e+02,9.414181579281263867e-02,0.000000000000000000e+00
8.160000000000000000e+02,2.609957895927672578e-01,0.000000000000000000e+00
8.170000000000000000e+02,-2.674705481340808877e-01,0.000000000000000000e+00
8.180000000000000000e+02,5.984983563744693952e-02,0.000000000000000000e+00
8.190000000000000000e+02,-8.591588827511232110e-03,0.000000000000000000e+00
8.200000000000000000e+02,9.768205710952487797e-02,0.000000000000000000e+00
8.210000000000000000e+02,-4.460976216707195907e-01,0.000000000000000000e+00
8.220000000000000000e+02,-2.476444590949150870e-01,0.000000000000000000e+00
8.230000000000000000e+02,-2.879589052594354048e-01,0.000000000000000000e+00
8.240000000000000000e+02,7.762524336290047011e-02,0.000000000000000000e+00
8.250000000000000000e+02,-1.018630013197083350e+00,0.000000000000000000e+00
8.260000000000000000e+02,2.536057378779088545e+00,0.000000000000000000e+00
8.270000000000000000e+02,3.997071806198791322e+00,0.000000000000000000e+00
8.280000000000000000e+02,-5.208356073725927127e-01,1.000000000000000000e+00
8.290000000000000000e+02,-1.369654274097898083e+00,0.000000000000000000e+00
8.300000000000000000e+02,-2.091804287517249783e+00,0.000000000000000000e+00
8.310000000000000000e+02,-8.952243441568464855e-01,0.000000000000000000e+00
8.320000000000000000e+02,-5.204371298731080842e-01,0.000000000000000000e+00
8.330000000000000000e+02,8.785853806048132819e-02,0.000000000000000000e+00
8.340000000000000000e+02,7.589821242885413932e-02,0.000000000000000000e+00
8.350000000000000000e+02,2.506050254268553101e-01,0.000000000000000000e+00
8.360000000000000000e+02,2.913521938835569314e-01,0.000000000000000000e+00
8.370000000000000000e+02,3.510116594670356638e-01,0.000000000000000000e+00
8.380000000000000000e+02,4.609528516870000647e-01,0.000000000000000000e+00
8.390000000000000000e+02,8.712656251041953626e-01,0.000000000000000000e+00
8.400000000000000000e+02,8.079788340443552208e-01,0.000000000000000000e+00
8.410000000000000000e+02,8.930715709121892498e-01,0.000000000000000000e+00
8.420000000000000000e+02,7.608931051594367556e-01,0.000000000000000000e+00
8.430000000000000000e+02,4.461242897785102635e-01,0.000000000000000000e+00
8.440000000000000000e+02,-1.917921673801225579e-01,0.000000000000000000e+00
8.450000000000000000e+02,-4.146756223572312106e-01,0.000000000000000000e+00
8.460000000000000000e+02,-6.920655913041201535e-01,0.000000000000000000e+00
8.470000000000000000e+02,-5.531837034385074237e-01,0.000000000000000000e+00
8.480000000000000000e+02,-5.823091456784869058e-01,0.000000000000000000e+00
8.490000000000000000e+02,-3.028649450928815323e-01,0.000000000000000000e+00
8.500000000000000000e+02,-5.026969603886157767e-01,0.000000000000000000e+00
8.510000000000000000e+02,-2.827942387862018014e-01,0.000000000000000000e+00
8.520000000000000000e+02,-4.630763700984978914e-01,0.000000000000000000e+00
8.530000000000000000e+02,-1.505005809997858046e-01,0.000000000000000000e+00
8.540000000000000000e+02,-3.577837777638280814e-01,0.000000000000000000e+00
8.550000000000000000e+02,-4.070890959050681851e-02,0.000000000000000000e+00
8.560000000000000000e+02,-1.083809925488941617e-01,0.000000000000000000e+00
8.570000000000000000e+02,3.479003599407202996e-02,0.000000000000000000e+00
8.580000000000000000e+02,4.878358938175593462e-02,0.000000000000000000e+00
8.590000000000000000e+02,3.218818411642981880e-01,0.000000000000000000e+00
8.600000000000000000e+02,-9.487618732376755515e-02,0.000000000000000000e+00
8.610000000000000000e+02,-1.510636079397400522e-01,0.000000000000000000e+00
8.620000000000000000e+02,-1.785087660030623413e-01,0.000000000000000000e+00
8.630000000000000000e+02,-2.944778838004769028e-01,0.000000000000000000e+00
8.640000000000000000e+02,-1.443709410601876630e-01,0.000000000000000000e+00
8.650000000000000000e+02,9.324909155619397205e-02,0.000000000000000000e+00
8.660000000000000000e+02,-8.614881698245228092e-01,0.000000000000000000e+00
8.670000000000000000e+02,2.223784630573977683e+00,0.000000000000000000e+00
8.680000000000000000e+02,3.625827901821101928e+00,0.000000000000000000e+00
8.690000000000000000e+02,-2.690219930190401731e-01,1.000000000000000000e+00
8.700000000000000000e+02,-9.264083538031336884e-01,0.000000000000000000e+00
8.710000000000000000e+02,-2.016312563010663528e+00,0.000000000000000000e+00
8.720000000000000000e+02,-1.045593697743770090e+00,0.000000000000000000e+00
8.730000000000000000e+02,-5.058820726145772939e-01,0.000000000000000000e+00
8.740000000000000000e+02,-4.456249132036758064e-03,0.000000000000000000e+00
8.750000000000000000e+02,4.636941496749608094e-02,0.000000000000000000e+00
8.760000000000000000e+02,-8.348736421996240734e-03,0.000000000000000000e+00
8.770000000000000000e+02,2.434650000474607445e-01,0.000000000000000000e+00
8.780000000000000000e+02,3.826081438056230244e-01,0.000000000000000000e+00
8.790000000000000000e+02,2.708344379392784718e-01,0.000000000000000000e+00
8.800000000000000000e+02,6.560316777323765836e-01,0.000000000000000000e+00
8.810000000000000000e+02,6.809039171814917912e-01,0.000000000000000000e+00
8.820000000000000000e+02,1.044624819622709699e+00,0.000000000000000000e+00
8.830000000000000000e+02,6.710346446320547553e-01,0.000000000000000000e+00
8.840000000000000000e+02,4.589040884262313158e-01,0.000000000000000000e+00
8.850000000000000000e+02,-3.126489735884810939e-01,0.000000000000000000e+00
8.860000000000000000e+02,-2.989624155264422600e-01,0.000000000000000000e+00
8.870000000000000000e+02,-6.135441547627831227e-01,0.000000000000000000e+00
8.880000000000000000e+02,-5.620921780730526729e-01,0.000000000000000000e+00
8.890000000000000000e+02,-5.113347561531155216e-01,0.000000000000000000e+00
8.900000000000000000e+02,-5.629827732470192858e-01,0.000000000000000000e+00
8.910000000000000000e+02,-4.072290573804834279e-01,0.000000000000000000e+00
8.920000000000000000e+02,-3.293181488305410021e-01,0.000000000000000000e+00
8.930000000000000000e+02,-4.398846092251801898e-01,0.000000000000000000e+00
8.940000000000000000e+02,-1.981265065559655592e-01,0.000000000000000000e+00
8.950000000000000000e+02,-2.611540411129912864e-01,0.000000000000000000e+00
8.960000000000000000e+02,-1.031773650065894166e-01,0.000000000000000000e+00
8.970000000000000000e+02,-8.841766679149805352e-02,0.000000000000000000e+00
8.980000000000000000e+02,2.216274372626272360e-01,0.000000000000000000e+00
8.990000000000000000e+02,-3.853790199091339935e-02,0.000000000000000000e+00
9.000000000000000000e+02,2.116450047374910659e-01,0.000000000000000000e+00
9.010000000000000000e+02,-3.220553876979283942e-02,0.000000000000000000e+00
9.020000000000000000e+02,-4.419414485734544235e-02,0.000000000000000000e+00
9.030000000000000000e+02,-1.960138358011463133e-01,0.000000000000000000e+00
9.040000000000000000e+02,-7.739615748253127030e-03,0.000000000000000000e+00
9.050000000000000000e+02,-2.687027546109388432e-01,0.000000000000000000e+00
9.060000000000000000e+02,5.462192100199444317e-02,0.000000000000000000e+00
9.070000000000000000e+02,-6.151701232718368439e-01,0.000000000000000000e+00
9.080000000000000000e+02,2.964294459167243545e+00,0.000000000000000000e+00
9.090000000000000000e+02,3.110493547005904080e+00,0.000000000000000000e+00
9.100000000000000000e+02,-7.097399993466995127e-01,1.000000000000000000e+00
9.110000000000000000e+02,-1.143512422313689436e+00,0.000000000000000000e+00
9.120000000000000000e+02,-1.835568725162194825e+00,0.000000000000000000e+00
9.130000000000000000e+02,-6.481132983806328074e-01,0.000000000000000000e+00
9.140000000000000000e+02,-5.002721331609902844e-01,0.000000000000000000e+00
9.150000000000000000e+02,1.311135503643130924e-02,0.000000000000000000e+00
9.160000000000000000e+02,1.188780014847507366e-01,0.000000000000000000e+00
9.170000000000000000e+02,1.418756519633329605e-02,0.000000000000000000e+00
9.180000000000000000e+02,2.015654696852245409e-02,0.000000000000000000e+00
9.190000000000000000e+02,3.417751194444568763e-01,0.000000000000000000e+00
9.200000000000000000e+02,3.915455129789828792e-01,0.000000000000000000e+00
9.210000000000000000e+02,5.530058703872755554e-01,0.000000000000000000e+00
9.220000000000000000e+02,7.777542253160366625e-01,0.000000000000000000e+00
9.230000000000000000e+02,9.053024626108243655e-01,0.000000000000000000e+00
9.240000000000000000e+02,5.741555024021625098e-01,0.000000000000000000e+00
9.250000000000000000e+02,1.975202633837978561e-01,0.000000000000000000e+00
9.260000000000000000e+02,-3.202298353791189767e-01,0.000000000000000000e+00
9.270000000000000000e+02,-4.192189727406313571e-01,0.000000000000000000e+00
9.280000000000000000e+02,-6.123208474491983466e-01,0.000000000000000000e+00
9.290000000000000000e+02,-5.778390667743087405e-01,0.000000000000000000e+00
9.300000000000000000e+02,-5.129612986086062865e-01,0.000000000000000000e+00
9.310000000000000000e+02,-4.123183553078934582e-01,0.000000000000000000e+00
9.320000000000000000e+02,-5.035732864421211818e-01,0.000000000000000000e+00
9.330000000000000000e+02,-4.213408099218856062e-01,0.000000000000000000e+00
9.340000000000000000e+02,-3.031614508661622520e-01,0.000000000000000000e+00
9.350000000000000000e+02,-3.097631285829794412e-01,0.000000000000000000e+00
9.360000000000000000e+02,-1.822701771963375350e-01,0.000000000000000000e+00
9.370000000000000000e+02,-9.282446259187621118e-02,0.000000000000000000e+00
9.380000000000000000e+02,5.938991579345779051e-03,0.000000000000000000e+00
9.390000000000000000e+02,3.448405577854465887e-02,0.000000000000000000e+00
9.400000000000000000e+02,7.271597627740292169e-02,0.000000000000000000e+00
9.410000000000000000e+02,9.428216363342900586e-02,0.000000000000000000e+00
9.420000000000000000e+02,-1.328302124401695428e-01,0.000000000000000000e+00
9.430000000000000000e+02,-2.115451100000282081e-01,0.000000000000000000e+00
9.440000000000000000e+02,-1.349461980081436696e-01,0.000000000000000000e+00
9.450000000000000000e+02,-1.661632678336269486e-01,0.000000000000000000e+00
9.460000000000000000e+02,-1.582745199500248945e-01,0.000000000000000000e+00
9.470000000000000000e+02,-3.882447391588539354e-01,0.000000000000000000e+00
9.480000000000000000e+02,7.882759530393722291e-02,0.000000000000000000e+00
9.490000000000000000e+02,4.292212943537966119e+00,0.000000000000000000e+00
9.500000000000000000e+02,1.163356976004755516e+00,1.000000000000000000e+00
9.510000000000000000e+02,-9.698913491335844350e-01,0.000000000000000000e+00
9.520000000000000000e+02,-1.620404611637862313e+00,0.000000000000000000e+00
9.530000000000000000e+02,-1.690617557318460085e+00,0.000000000000000000e+00
9.540000000000000000e+02,-6.791617414297034250e-01,0.000000000000000000e+00
9.550000000000000000e+02,-1.130603868263896361e-01,0.000000000000000000e+00
9.560000000000000000e+02,4.529522312760268787e-02,0.000000000000000000e+00
9.570000000000000000e+02,1.152388576331768964e-02,0.000000000000000000e+00
9.580000000000000000e+02,2.439818518517907764e-01,0.000000000000000000e+00
9.590000000000000000e+02,2.463417769290586201e-01,0.000000000000000000e+00
9.600000000000000000e+02,3.476532326629761527e-01,0.000000000000000000e+00
9.610000000000000000e+02,5.843759894272266830e-01,0.000000000000000000e+00
9.620000000000000000e+02,8.257141413867207236e-01,0.000000000000000000e+00
9.630000000000000000e+02,8.755657665544226420e-01,0.000000000000000000e+00
9.640000000000000000e+02,8.926992442829466690e-01,0.000000000000000000e+00
9.650000000000000000e+02,6.645658131387907064e-01,0.000000000000000000e+00
9.660000000000000000e+02,4.269127284218059148e-02,0.000000000000000000e+00
9.670000000000000000e+02,-4.232500935442759515e-01,0.000000000000000000e+00
9.680000000000000000e+02,-4.635277937620492783e-01,0.000000000000000000e+00
9.690000000000000000e+02,-5.868183670397361107e-01,0.000000000000000000e+00
9.700000000000000000e+02,-5.215431445318806647e-01,0.000000000000000000e+00
9.710000000000000000e+02,-4.793492030282982541e-01,0.000000000000000000e+00
9.720000000000000000e+02,-5.287333547681478674e-01,0.000000000000000000e+00
9.730000000000000000e+02,-3.795288533486760874e-01,0.000000000000000000e+00
9.740000000000000000e+02,-3.676760267801549298e-01,0.000000000000000000e+00
9.750000000000000000e+02,-1.495507071484996897e-01,0.000000000000000000e+00
9.760000000000000000e+02,-3.967760506828811873e-01,0.000000000000000000e+00
9.770000000000000000e+02,-1.911105813108746332e-01,0.000000000000000000e+00
9.780000000000000000e+02,-7.409682380078319586e-02,0.000000000000000000e+00
9.790000000000000000e+02,5.686038580596004810e-02,0.000000000000000000e+00
9.800000000000000000e+02,-1.536573812844280185e-01,0.000000000000000000e+00
9.810000000000000000e+02,1.906765699876879216e-01,0.000000000000000000e+00
9.820000000000000000e+02,1.168891400128112684e-01,0.000000000000000000e+00
9.830000000000000000e+02,-1.579447118536901618e-01,0.000000000000000000e+00
9.840000000000000000e+02,-2.586626698071350372e-01,0.000000000000000000e+00
9.850000000000000000e+02,-1.748946793638326419e-02,0.000000000000000000e+00
9.860000000000000000e+02,-2.567147751011929491e-01,0.000000000000000000e+00
9.870000000000000000e+02,-1.107233733198357273e-01,0.000000000000000000e+00
9.880000000000000000e+02,-5.228810000301140626e-01,0.000000000000000000e+00
9.890000000000000000e+02,3.464541858244219452e-01,0.000000000000000000e+00
9.900000000000000000e+02,4.427913588790524102e+00,0.000000000000000000e+00
9.910000000000000000e+02,1.045769846553712634e+00,1.000000000000000000e+00
9.920000000000000000e+02,-1.172859298294750552e+00,0.000000000000000000e+00
9.930000000000000000e+02,-1.662269712515237030e+00,0.000000000000000000e+00
9.940000000000000000e+02,-1.652852090768138327e+00,0.000000000000000000e+00
9.950000000000000000e+02,-5.732456886225213433e-01,0.000000000000000000e+00
9.960000000000000000e+02,5.083647786267005662e-03,0.000000000000000000e+00
9.970000000000000000e+02,1.094704997081207137e-01,0.000000000000000000e+00
9.980000000000000000e+02,-2.125211566603626978e-02,0.000000000000000000e+00
9.990000000000000000e+02,2.554533369112344521e-01,0.000000000000000000e+00
1.000000000000000000e+03,2.799639628687096704e-01,0.000000000000000000e+00
1.001000000000000000e+03,3.827074131890653708e-01,0.000000000000000000e+00
1.002000000000000000e+03,4.935371652540367915e-01,0.000000000000000000e+00
1.003000000000000000e+03,7.457037005848949907e-01,0.000000000000000000e+00
1.004000000000000000e+03,8.017908826820148160e-01,0.000000000000000000e+00
1.005000000000000000e+03,9.648226157918032841e-01,0.000000000000000000e+00
1.006000000000000000e+03,4.535722143519925198e-01,0.000000000000000000e+00
1.007000000000000000e+03,7.594103625186278406e-02,0.000000000000000000e+00
1.008000000000000000e+03,-3.727446004284007963e-01,0.000000000000000000e+00
1.009000000000000000e+03,-5.648244647858132739e-01,0.000000000000000000e+00
1.010000000000000000e+03,-4.595109520723201224e-01,0.000000000000000000e+00
1.011000000000000000e+03,-6.510718555836889632e-01,0.000000000000000000e+00
1.012000000000000000e+03,-3.528110771108279309e-01,0.000000000000000000e+00
1.013000000000000000e+03,-5.534486622002637857e-01,0.000000000000000000e+00
1.014000000000000000e+03,-4.532539071515488960e-01,0.000000000000000000e+00
1.015000000000000000e+03,-3.506036566799727305e-01,0.000000000000000000e+00
1.016000000000000000e+03,-3.618963900089683383e-01,0.000000000000000000e+00
1.017000000000000000e+03,-2.263835541010450758e-01,0.000000000000000000e+00
1.018000000000000000e+03,-2.412524292475707322e-01,0.000000000000000000e+00
1.019000000000000000e+03,4.640195650780882045e-03,0.000000000000000000e+00
1.020000000000000000e+03,-1.358176103493542453e-01,0.000000000000000000e+00
1.021000000000000000e+03,2.177019406170242477e-01,0.000000000000000000e+00
1.022000000000000000e+03,1.661569861414025351e-01,0.000000000000000000e+00
1.023000000000000000e+03,1.076807213672070079e-01,0.000000000000000000e+00
1.024000000000000000e+03,-5.086809034038030503e-02,0.000000000000000000e+00
1.025000000000000000e+03,-1.909564142552518384e-01,0.000000000000000000e+00
1.026000000000000000e+03,-1.208067570796159118e-01,0.000000000000000000e+00
1.027000000000000000e+03,3.718927379894258062e-02,0.000000000000000000e+00
1.028000000000000000e+03,-1.429204956398897053e-01,0.000000000000000000e+00
1.029000000000000000e+03,-3.318540461769545202e-01,0.000000000000000000e+00
1.030000000000000000e+03,2.850787919872484477e-01,0.000000000000000000e+00
1.031000000000000000e+03,4.549003064756444559e+00,0.000000000000000000e+00
1.032000000000000000e+03,1.417799611565227602e+00,1.000000000000000000e+00
1.033000000000000000e+03,-1.247616905403292398e+00,0.000000000000000000e+00
1.034000000000000000e+03,-1.570171541113943192e+00,0.000000000000000000e+00
1.035000000000000000e+03,-1.574318289841202922e+00,0.000000000000000000e+00
1.036000000000000000e+03,-6.306415729534022852e-01,0.000000000000000000e+00
1.037000000000000000e+03,-7.596411505693072275e-02,0.000000000000000000e+00
1.038000000000000000e+03,6.456377887606204458e-02,0.000000000000000000e+00
1.039000000000000000e+03,-2.531179733991684166e-02,0.000000000000000000e+00
1.040000000000000000e+03,1.462918341158175595e-01,0.000000000000000000e+00
1.041000000000000000e+03,2.082790141913464788e-01,0.000000000000000000e+00
1.042000000000000000e+03,4.121085199929426235e-01,0.000000000000000000e+00
1.043000000000000000e+03,5.628258078069906523e-01,0.000000000000000000e+00
1.044000000000000000e+03,6.399444062665089472e-01,0.000000000000000000e+00
1.045000000000000000e+03,9.748707076492209023e-01,0.000000000000000000e+00
1.046000000000000000e+03,9.755019105862362538e-01,0.000000000000000000e+00
1.047000000000000000e+03,4.975549861582237998e-01,0.000000000000000000e+00
1.048000000000000000e+03,-1.295448023304519580e-01,0.000000000000000000e+00
1.049000000000000000e+03,-3.286723931601210347e-01,0.000000000000000000e+00
1.050000000000000000e+03,-6.743599492769307702e-01,0.000000000000000000e+00
1.051000000000000000e+03,-6.050403415548701869e-01,0.000000000000000000e+00
1.052000000000000000e+03,-4.976190000835866156e-01,0.000000000000000000e+00
1.053000000000000000e+03,-6.253712555738308865e-01,0.000000000000000000e+00
1.054000000000000000e+03,-5.538379276736582479e-01,0.000000000000000000e+00
1.055000000000000000e+03,-5.088238409585479349e-01,0.000000000000000000e+00
1.056000000000000000e+03,-3.111663947064847169e-01,0.000000000000000000e+00
1.057000000000000000e+03,-2.128608867953236394e-01,0.000000000000000000e+00
1.058000000000000000e+03,-4.039411642980877959e-01,0.000000000000000000e+00
1.059000000000000000e+03,-2.611561491659340484e-01,0.000000000000000000e+00
1.060000000000000000e+03,-3.798171657042480331e-02,0.000000000000000000e+00
1.061000000000000000e+03,-1.701042652615833151e-01,0.000000000000000000e+00
1.062000000000000000e+03,1.858852174461477214e-01,0.000000000000000000e+00
1.063000000000000000e+03,-2.612343253080220973e-02,0.000000000000000000e+00
1.064000000000000000e+03,4.613224192229808951e-02,0.000000000000000000e+00
1.065000000000000000e+03,-1.797494009116525626e-01,0.000000000000000000e+00
1.066000000000000000e+03,-3.922175386035518796e-02,0.000000000000000000e+00
1.067000000000000000e+03,-3.186798604013182934e-01,0.000000000000000000e+00
1.068000000000000000e+03,3.997730850878698089e-02,0.000000000000000000e+00
1.069000000000000000e+03,-2.339588766220434546e-01,0.000000000000000000e+00
1.070000000000000000e+03,-3.234276991361155207e-01,0.000000000000000000e+00
1.071000000000000000e+03,-1.873512410584860233e-01,0.000000000000000000e+00
1.072000000000000000e+03,3.821336683429849224e+00,0.000000000000000000e+00
1.073000000000000000e+03,1.893078971887918627e+00,1.000000000000000000e+00
1.074000000000000000e+03,-1.023406279777642869e+00,0.000000000000000000e+00
1.075000000000000000e+03,-1.304664801849668931e+00,0.000000000000000000e+00
1.076000000000000000e+03,-1.696151784764189374e+00,0.000000000000000000e+00
1.077000000000000000e+03,-6.811313827775229424e-01,0.000000000000000000e+00
1.078000000000000000e+03,-2.198815584689141067e-01,0.000000000000000000e+00
1.079000000000000000e+03,6.118461702054241863e-02,0.000000000000000000e+00
1.080000000000000000e+03,6.972515558951811188e-02,0.000000000000000000e+00
1.081000000000000000e+03,1.584420682169075389e-01,0.000000000000000000e+00
1.082000000000000000e+03,2.233303593484449179e-01,0.000000000000000000e+00
1.083000000000000000e+03,2.217125249978480761e-01,0.000000000000000000e+00
1.084000000000000000e+03,5.329217380831201556e-01,0.000000000000000000e+00
1.085000000000000000e+03,7.436684189647673193e-01,0.000000000000000000e+00
1.086000000000000000e+03,7.834205876482499553e-01,0.000000000000000000e+00
1.087000000000000000e+03,8.543367338375866815e-01,0.000000000000000000e+00
1.088000000000000000e+03,6.504584933838024607e-01,0.000000000000000000e+00
1.089000000000000000e+03,1.869381538343445059e-01,0.000000000000000000e+00
1.090000000000000000e+03,-2.638507204634501502e-01,0.000000000000000000e+00
1.091000000000000000e+03,-5.395584214571070847e-01,0.000000000000000000e+00
1.092000000000000000e+03,-5.860755380170372675e-01,0.000000000000000000e+00
1.093000000000000000e+03,-6.279768345876997060e-01,0.000000000000000000e+00
1.094000000000000000e+03,-3.621311847380647153e-01,0.000000000000000000e+00
1.095000000000000000e+03,-3.644158084775863671e-01,0.000000000000000000e+00
1.096000000000000000e+03,-4.201287441062121486e-01,0.000000000000000000e+00
1.097000000000000000e+03,-4.537020005456335325e-01,0.000000000000000000e+00
1.098000000000000000e+03,-1.461075969130950503e-01,0.000000000000000000e+00
1.099000000000000000e+03,-2.623957067800766763e-01,0.000000000000000000e+00
1.100000000000000000e+03,-2.021834850293032504e-01,0.000000000000000000e+00
1.101000000000000000e+03,-2.242057735287837639e-02,0.000000000000000000e+00
1.102000000000000000e+03,-4.143717862456396811e-02,0.000000000000000000e+00
1.103000000000000000e+03,4.770836395929971274e-02,0.000000000000000000e+00
1.104000000000000000e+03,3.538360907264995747e-01,0.000000000000000000e+00
1.105000000000000000e+03,-1.173722930964086475e-01,0.000000000000000000e+00
1.106000000000000000e+03,-1.797797627564540757e-01,0.000000000000000000e+00
1.107000000000000000e+03,-7.609616161189679262e-02,0.000000000000000000e+00
1.108000000000000000e+03,-1.508810803134193711e-02,0.000000000000000000e+00
1.109000000000000000e+03,-5.973158154478642734e-01,0.000000000000000000e+00
1.110000000000000000e+03,-2.933521880101565976e-02,0.000000000000000000e+00
1.111000000000000000e+03,-7.306785003887016350e-01,0.000000000000000000e+00
1.112000000000000000e+03,2.009396227184243600e+00,0.000000000000000000e+00
1.113000000000000000e+03,3.685531057780126130e+00,0.000000000000000000e+00
1.114000000000000000e+03,-4.127710638473393590e-01,1.000000000000000000e+00
1.115000000000000000e+03,-1.152347643558651713e+00,0.000000000000000000e+00
1.116000000000000000e+03,-1.849829699276723805e+00,0.000000000000000000e+00
1.117000000000000000e+03,-1.048510208264556542e+00,0.000000000000000000e+00
1.118000000000000000e+03,-4.824396670157499734e-01,0.000000000000000000e+00
1.119000000000000000e+03,-1.635737781868767601e-02,0.000000000000000000e+00
1.120000000000000000e+03,1.624031127098710808e-02,0.000000000000000000e+00
1.121000000000000000e+03,1.368022441152152713e-01,0.000000000000000000e+00
1.122000000000000000e+03,2.434937831136072817e-01,0.000000000000000000e+00
1.123000000000000000e+03,2.471158153470025820e-01,0.000000000000000000e+00
1.124000000000000000e+03,4.902999669883832956e-01,0.000000000000000000e+00
1.125000000000000000e+03,7.023105828905202852e-01,0.000000000000000000e+00
1.126000000000000000e+03,7.050099963814805415e-01,0.000000000000000000e+00
1.127000000000000000e+03,1.162163095197587870e+00,0.000000000000000000e+00
1.128000000000000000e+03,9.821200961274623165e-01,0.000000000000000000e+00
1.129000000000000000e+03,-2.720837027351738491e-02,0.000000000000000000e+00
1.130000000000000000e+03,-1.630762425090813150e-01,0.000000000000000000e+00
1.131000000000000000e+03,-1.675513040481849958e-01,0.000000000000000000e+00
1.132000000000000000e+03,-3.715034879260892264e-01,0.000000000000000000e+00
1.133000000000000000e+03,-6.653205813196131357e-01,0.000000000000000000e+00
1.134000000000000000e+03,-8.141649264056090018e-01,0.000000000000000000e+00
1.135000000000000000e+03,-4.204677211688381822e-01,0.000000000000000000e+00
1.136000000000000000e+03,-2.522051084015172751e-01,0.000000000000000000e+00
1.137000000000000000e+03,-3.368511992561170620e-01,0.000000000000000000e+00
1.138000000000000000e+03,-4.209501667813488335e-01,0.000000000000000000e+00
1.139000000000000000e+03,-6.731076292544055373e-02,0.000000000000000000e+00
1.140000000000000000e+03,-3.070248893516079880e-01,0.000000000000000000e+00
1.141000000000000000e+03,3.715021857516847409e-02,0.000000000000000000e+00
1.142000000000000000e+03,-1.436719354775550517e-01,0.000000000000000000e+00
1.143000000000000000e+03,1.103324771809078148e-01,0.000000000000000000e+00
1.144000000000000000e+03,1.014714447817948867e-01,0.000000000000000000e+00
1.145000000000000000e+03,-1.379903239835612166e-02,0.000000000000000000e+00
1.146000000000000000e+03,-1.336385976905970219e-01,0.000000000000000000e+00
1.147000000000000000e+03,-3.096792193386128655e-01,0.000000000000000000e+00
1.148000000000000000e+03,-2.108806915816046346e-01,0.000000000000000000e+00
1.149000000000000000e+03,-1.383375158604081279e-01,0.000000000000000000e+00
1.150000000000000000e+03,-1.682143066956803545e-01,0.000000000000000000e+00
1.151000000000000000e+03,-7.540560746608429010e-01,0.000000000000000000e+00
1.152000000000000000e+03,2.163102028506167951e+00,0.000000000000000000e+00
1.153000000000000000e+03,3.801823831837176648e+00,0.000000000000000000e+00
1.154000000000000000e+03,-5.309166191893279763e-01,1.000000000000000000e+00
1.155000000000000000e+03,-1.142553757093792255e+00,0.000000000000000000e+00
1.156000000000000000e+03,-1.762359510647476757e+00,0.000000000000000000e+00
1.157000000000000000e+03,-1.131933993130410432e+00,0.000000000000000000e+00
1.158000000000000000e+03,-3.967200924515426053e-01,0.000000000000000000e+00
1.159000000000000000e+03,1.605686330013640084e-01,0.000000000000000000e+00
1.160000000000000000e+03,-5.265976358403114121e-02,0.000000000000000000e+00
1.161000000000000000e+03,3.391824362899824030e-01,0.000000000000000000e+00
1.162000000000000000e+03,1.079680998477943882e-01,0.000000000000000000e+00
1.163000000000000000e+03,4.569534071866323544e-01,0.000000000000000000e+00
1.164000000000000000e+03,2.406162283139102187e-01,0.000000000000000000e+00
1.165000000000000000e+03,6.801963009465402665e-01,0.000000000000000000e+00
1.166000000000000000e+03,1.024406631008869528e+00,0.000000000000000000e+00
1.167000000000000000e+03,9.259169820562924702e-01,0.000000000000000000e+00
1.168000000000000000e+03,7.538809853864834043e-01,0.000000000000000000e+00
1.169000000000000000e+03,2.991956516453131987e-01,0.000000000000000000e+00
1.170000000000000000e+03,-1.869693604883533034e-01,0.000000000000000000e+00
1.171000000000000000e+03,-2.968459968768394353e-01,0.000000000000000000e+00
1.172000000000000000e+03,-6.895578304311174023e-01,0.000000000000000000e+00
1.173000000000000000e+03,-6.274081968625353500e-01,0.000000000000000000e+00
1.174000000000000000e+03,-4.607830022477756304e-01,0.000000000000000000e+00
1.175000000000000000e+03,-3.578643741213111684e-01,0.000000000000000000e+00
1.176000000000000000e+03,-5.800298081910852943e-01,0.000000000000000000e+00
1.177000000000000000e+03,-2.941628103777088610e-01,0.000000000000000000e+00
1.178000000000000000e+03,-4.339339495518562684e-01,0.000000000000000000e+00
1.179000000000000000e+03,-1.834291838064682489e-01,0.000000000000000000e+00
1.180000000000000000e+03,-4.871209376632189558e-01,0.000000000000000000e+00
1.181000000000000000e+03,1.133919667108461010e-01,0.000000000000000000e+00
1.182000000000000000e+03,-6.818130202551961339e-02,0.000000000000000000e+00
1.183000000000000000e+03,-6.328046082495053515e-02,0.000000000000000000e+00
1.184000000000000000e+03,2.558694038942991855e-01,0.000000000000000000e+00
1.185000000000000000e+03,1.443378003826952249e-01,0.000000000000000000e+00
1.186000000000000000e+03,-4.987585914252419261e-01,0.000000000000000000e+00
1.187000000000000000e+03,-2.693746309260198341e-02,0.000000000000000000e+00
1.188000000000000000e+03,-2.747837530771553016e-01,0.000000000000000000e+00
1.189000000000000000e+03,-1.918290288725568726e-01,0.000000000000000000e+00
1.190000000000000000e+03,-2.835783384697100340e-01,0.000000000000000000e+00
1.191000000000000000e+03,-3.171587199375058841e-01,0.000000000000000000e+00
1.192000000000000000e+03,1.484429583582127787e-01,0.000000000000000000e+00
1.193000000000000000e+03,4.473655770782199781e+00,0.000000000000000000e+00
1.194000000000000000e+03,1.276548134622604191e+00,1.000000000000000000e+00
1.195000000000000000e+03,-1.181549915006828266e+00,0.000000000000000000e+00
1.196000000000000000e+03,-1.548927505148330663e+00,0.000000000000000000e+00
1.197000000000000000e+03,-1.650855449576930312e+00,0.000000000000000000e+00
1.198000000000000000e+03,-7.087103871799469434e-01,0.000000000000000000e+00
1.199000000000000000e+03,1.460785935940342971e-02,0.000000000000000000e+00
1.200000000000000000e+03,2.208991072081499252e-01,0.000000000000000000e+00
1.201000000000000000e+03,-2.012852878566295453e-02,0.000000000000000000e+00
1.202000000000000000e+03,-7.812557077157573915e-02,0.000000000000000000e+00
1.203000000000000000e+03,4.099895489891204892e-01,0.000000000000000000e+00
1.204000000000000000e+03,4.754764841415862198e-01,0.000000000000000000e+00
1.205000000000000000e+03,3.580547869945229777e-01,0.000000000000000000e+00
1.206000000000000000e+03,6.359024361874516806e-01,0.000000000000000000e+00
1.207000000000000000e+03,1.078550051250033670e+00,0.000000000000000000e+00
1.208000000000000000e+03,7.254574190200950845e-01,0.000000000000000000e+00
1.209000000000000000e+03,6.005525853101656431e-01,0.000000000000000000e+00
1.210000000000000000e+03,-1.650743047482708115e-01,0.000000000000000000e+00
1.211000000000000000e+03,-1.492126022589922718e-01,0.000000000000000000e+00
1.212000000000000000e+03,-5.841691589864501655e-01,0.000000000000000000e+00
1.213000000000000000e+03,-4.301387540898810591e-01,0.000000000000000000e+00
1.214000000000000000e+03,-4.934981865561143821e-01,0.000000000000000000e+00
1.215000000000000000e+03,-5.744279508262475353e-01,0.000000000000000000e+00
1.216000000000000000e+03,-3.982003763456605228e-01,0.000000000000000000e+00
1.217000000000000000e+03,-4.107785196031975006e-01,0.000000000000000000e+00
1.218000000000000000e+03,-5.404600097832354955e-01,0.000000000000000000e+00
1.219000000000000000e+03,-2.116393907036597521e-01,0.000000000000000000e+00
1.220000000000000000e+03,-3.651750858856838700e-01,0.000000000000000000e+00
1.221000000000000000e+03,-5.099318885864994461e-02,0.000000000000000000e+00
1.222000000000000000e+03,-1.509821321550243178e-01,0.000000000000000000e+00
1.223000000000000000e+03,2.396065798739586694e-01,0.000000000000000000e+00
1.224000000000000000e+03,2.432796305043258105e-03,0.000000000000000000e+00
1.225000000000000000e+03,-1.511682546392011800e-02,0.000000000000000000e+00
1.226000000000000000e+03,-8.620638410783434957e-02,0.000000000000000000e+00
1.227000000000000000e+03,-1.197169500712549212e-01,0.000000000000000000e+00
1.228000000000000000e+03,-4.319603139615774690e-01,0.000000000000000000e+00
1.229000000000000000e+03,-6.763599151408911103e-02,0.000000000000000000e+00
1.230000000000000000e+03,-3.991585437370386291e-01,0.000000000000000000e+00
1.231000000000000000e+03,7.387481199848750825e-03,0.000000000000000000e+00
1.232000000000000000e+03,-8.533606608000208205e-01,0.000000000000000000e+00
1.233000000000000000e+03,3.456261014167970380e+00,0.000000000000000000e+00
1.234000000000000000e+03,3.131746632985536127e+00,0.000000000000000000e+00
1.235000000000000000e+03,-1.026099760754243029e+00,1.000000000000000000e+00
1.236000000000000000e+03,-1.187887933523336770e+00,0.000000000000000000e+00
1.237000000000000000e+03,-1.954076066154648794e+00,0.000000000000000000e+00
1.238000000000000000e+03,-1.095704618684780307e+00,0.000000000000000000e+00
1.239000000000000000e+03,-1.573176733379413605e-01,0.000000000000000000e+00
1.240000000000000000e+03,-1.077029203438440857e-01,0.000000000000000000e+00
1.241000000000000000e+03,-1.363114373237684085e-01,0.000000000000000000e+00
1.242000000000000000e+03,2.646374106013517080e-01,0.000000000000000000e+00
1.243000000000000000e+03,1.507890474928095248e-01,0.000000000000000000e+00
1.244000000000000000e+03,4.794991696109666690e-01,0.000000000000000000e+00
1.245000000000000000e+03,4.155416338911038232e-01,0.000000000000000000e+00
1.246000000000000000e+03,8.193155497752658833e-01,0.000000000000000000e+00
1.247000000000000000e+03,8.006250112713031442e-01,0.000000000000000000e+00
1.248000000000000000e+03,9.796852116371891350e-01,0.000000000000000000e+00
1.249000000000000000e+03,8.279140942837209804e-01,0.000000000000000000e+00
1.250000000000000000e+03,4.027975373315220708e-02,0.000000000000000000e+00
1.251000000000000000e+03,-7.096040852735600868e-02,0.000000000000000000e+00
1.252000000000000000e+03,-6.646973309533287244e-01,0.000000000000000000e+00
1.253000000000000000e+03,-6.366799425723792538e-01,0.000000000000000000e+00
1.254000000000000000e+03,-3.874573070665047192e-01,0.000000000000000000e+00
1.255000000000000000e+03,-3.741163949013107670e-01,0.000000000000000000e+00
1.256000000000000000e+03,-7.380480847804100630e-01,0.000000000000000000e+00
1.257000000000000000e+03,-6.146133669281764744e-01,0.000000000000000000e+00
1.258000000000000000e+03,-3.561902184864951248e-01,0.000000000000000000e+00
1.259000000000000000e+03,-2.115995711529058687e-01,0.000000000000000000e+00
1.260000000000000000e+03,-4.266813352508992407e-01,0.000000000000000000e+00
1.261000000000000000e+03,-2.309512576796965144e-01,0.000000000000000000e+00
1.262000000000000000e+03,-5.788423620951243381e-02,0.000000000000000000e+00
1.263000000000000000e+03,-9.577026059779969458e-02,0.000000000000000000e+00
1.264000000000000000e+03,3.075910508141149191e-01,0.000000000000000000e+00
1.265000000000000000e+03,1.543007263278969032e-01,0.000000000000000000e+00
1.266000000000000000e+03,-5.664342798984643018e-02,0.000000000000000000e+00
1.267000000000000000e+03,3.906875145999744864e-02,0.000000000000000000e+00
1.268000000000000000e+03,-3.700861836697589835e-01,0.000000000000000000e+00
1.269000000000000000e+03,-2.707573712119650811e-01,0.000000000000000000e+00
1.270000000000000000e+03,-1.351647227047190203e-01,0.000000000000000000e+00
1.271000000000000000e+03,8.867882298917596079e-03,0.000000000000000000e+00
1.272000000000000000e+03,-7.031258359614314113e-01,0.000000000000000000e+00
1.273000000000000000e+03,9.373855862264396377e-01,0.000000000000000000e+00
1.274000000000000000e+03,4.475624703235822288e+00,0.000000000000000000e+00
1.275000000000000000e+03,5.027892372967992518e-01,1.000000000000000000e+00
1.276000000000000000e+03,-1.024252861507060519e+00,0.000000000000000000e+00
1.277000000000000000e+03,-1.541909794757375662e+00,0.000000000000000000e+00
1.278000000000000000e+03,-1.486304253122165964e+00,0.000000000000000000e+00
1.279000000000000000e+03,-5.555320922841535669e-01,0.000000000000000000e+00
1.280000000000000000e+03,6.400563700751521479e-02,0.000000000000000000e+00
1.281000000000000000e+03,2.975594434010574163e-02,0.000000000000000000e+00
1.282000000000000000e+03,9.311635057060310694e-02,0.000000000000000000e+00
1.283000000000000000e+03,2.891701489923064194e-01,0.000000000000000000e+00
1.284000000000000000e+03,2.041161594176717775e-01,0.000000000000000000e+00
1.285000000000000000e+03,5.260930825053830029e-01,0.000000000000000000e+00
1.286000000000000000e+03,8.348524158690483477e-01,0.000000000000000000e+00
1.287000000000000000e+03,7.258615665450852683e-01,0.000000000000000000e+00
1.288000000000000000e+03,8.457337667444868590e-01,0.000000000000000000e+00
1.289000000000000000e+03,8.554424637567270562e-01,0.000000000000000000e+00
1.290000000000000000e+03,4.412574452106753364e-01,0.000000000000000000e+00
1.291000000000000000e+03,1.809467650269882405e-02,0.000000000000000000e+00
1.292000000000000000e+03,-3.287733635748268379e-01,0.000000000000000000e+00
1.293000000000000000e+03,-5.525657027077265360e-01,0.000000000000000000e+00
1.294000000000000000e+03,-5.878037270053425578e-01,0.000000000000000000e+00
1.295000000000000000e+03,-3.858156786167244445e-01,0.000000000000000000e+00
1.296000000000000000e+03,-5.278319618094888810e-01,0.000000000000000000e+00
1.297000000000000000e+03,-5.342198076549471430e-01,0.000000000000000000e+00
1.298000000000000000e+03,-1.528819244529728283e-01,0.000000000000000000e+00
1.299000000000000000e+03,-1.440799447003043021e-01,0.000000000000000000e+00
1.300000000000000000e+03,-5.250573903073221249e-01,0.000000000000000000e+00
1.301000000000000000e+03,-2.314940708322287821e-01,0.000000000000000000e+00
1.302000000000000000e+03,-9.073784256026463588e-03,0.000000000000000000e+00
1.303000000000000000e+03,-4.115111324608761818e-04,0.000000000000000000e+00
1.304000000000000000e+03,1.822173724961399788e-02,0.000000000000000000e+00
1.305000000000000000e+03,-8.146530826909324785e-02,0.000000000000000000e+00
1.306000000000000000e+03,4.140541050265353698e-03,0.000000000000000000e+00
1.307000000000000000e+03,-1.252314807221049098e-01,0.000000000000000000e+00
1.308000000000000000e+03,-7.320849757142772196e-02,0.000000000000000000e+00
1.309000000000000000e+03,-4.667078233377288665e-01,0.000000000000000000e+00
1.310000000000000000e+03,-1.072022433361057708e-01,0.000000000000000000e+00
1.311000000000000000e+03,-2.376034528577288529e-01,0.000000000000000000e+00
1.312000000000000000e+03,-8.643324398753804427e-02,0.000000000000000000e+00
1.313000000000000000e+03,-9.219985044980432143e-01,0.000000000000000000e+00
1.314000000000000000e+03,1.876721647316755837e+00,0.000000000000000000e+00
1.315000000000000000e+03,3.839842473764513819e+00,0.000000000000000000e+00
1.316000000000000000e+03,-4.834535021732680460e-01,1.000000000000000000e+00
1.317000000000000000e+03,-1.090894687224963855e+00,0.000000000000000000e+00
1.318000000000000000e+03,-1.968978300636209822e+00,0.000000000000000000e+00
1.319000000000000000e+03,-1.101101531995895000e+00,0.000000000000000000e+00
1.320000000000000000e+03,-4.318281086167009564e-01,0.000000000000000000e+00
1.321000000000000000e+03,1.014366939693986530e-01,0.000000000000000000e+00
1.322000000000000000e+03,-2.752053393980466098e-02,0.000000000000000000e+00
1.323000000000000000e+03,2.017573041357562658e-01,0.000000000000000000e+00
1.324000000000000000e+03,1.067540690985292473e-01,0.000000000000000000e+00
1.325000000000000000e+03,4.002431273673604517e-01,0.000000000000000000e+00
1.326000000000000000e+03,2.771195253232712763e-01,0.000000000000000000e+00
1.327000000000000000e+03,8.313969131740125418e-01,0.000000000000000000e+00
1.328000000000000000e+03,7.251259830227563263e-01,0.000000000000000000e+00
1.329000000000000000e+03,1.045129169494317889e+00,0.000000000000000000e+00
1.330000000000000000e+03,8.017412467912522489e-01,0.000000000000000000e+00
1.331000000000000000e+03,4.599272486802565285e-01,0.000000000000000000e+00
1.332000000000000000e+03,-5.382006882148625791e-03,0.000000000000000000e+00
1.333000000000000000e+03,-4.728025225479655647e-01,0.000000000000000000e+00
1.334000000000000000e+03,-4.499692784144184166e-01,0.000000000000000000e+00
1.335000000000000000e+03,-1.215416096125905843e-01,0.000000000000000000e+00
1.336000000000000000e+03,-5.026639542143545025e-01,0.000000000000000000e+00
1.337000000000000000e+03,-7.767259245890485442e-01,0.000000000000000000e+00
1.338000000000000000e+03,-2.698625398360314787e-01,0.000000000000000000e+00
1.339000000000000000e+03,-1.283694949469114666e-01,0.000000000000000000e+00
1.340000000000000000e+03,-9.702825579319747373e-02,0.000000000000000000e+00
1.341000000000000000e+03,-1.272402329816962330e-01,0.000000000000000000e+00
1.342000000000000000e+03,-5.440429629690493041e-01,0.000000000000000000e+00
1.343000000000000000e+03,-4.200597579653166935e-01,0.000000000000000000e+00
1.344000000000000000e+03,-1.027546515560707335e-02,0.000000000000000000e+00
1.345000000000000000e+03,-3.874214910323971195e-02,0.000000000000000000e+00
1.346000000000000000e+03,-1.161800122042348921e-01,0.000000000000000000e+00
1.347000000000000000e+03,-2.850446176483730637e-02,0.000000000000000000e+00
1.348000000000000000e+03,2.242178597871495246e-02,0.000000000000000000e+00
1.349000000000000000e+03,-3.935450825593375113e-01,0.000000000000000000e+00
1.350000000000000000e+03,-2.704560325266354703e-01,0.000000000000000000e+00
1.351000000000000000e+03,-1.409149822205673086e-01,0.000000000000000000e+00
1.352000000000000000e+03,-2.063333173248309005e-01,0.000000000000000000e+00
1.353000000000000000e+03,-4.125900490881901361e-01,0.000000000000000000e+00
1.354000000000000000e+03,4.476571586509484751e-02,0.000000000000000000e+00
1.355000000000000000e+03,4.217524817625807110e+00,0.000000000000000000e+00
1.356000000000000000e+03,1.176648236094722355e+00,1.000000000000000000e+00
1.357000000000000000e+03,-1.044887827842782446e+00,0.000000000000000000e+00
1.358000000000000000e+03,-1.713205215337689546e+00,0.000000000000000000e+00
1.359000000000000000e+03,-1.535798485495809551e+00,0.000000000000000000e+00
1.360000000000000000e+03,-7.124890113050013074e-01,0.000000000000000000e+00
1.361000000000000000e+03,-6.719757257429598285e-02,0.000000000000000000e+00
1.362000000000000000e+03,-1.032368760203549590e-01,0.000000000000000000e+00
1.363000000000000000e+03,5.592291464603587475e-02,0.000000000000000000e+00
1.364000000000000000e+03,2.843169510223079732e-01,0.000000000000000000e+00
1.365000000000000000e+03,2.918617120362169137e-01,0.000000000000000000e+00
1.366000000000000000e+03,2.617152664478298862e-01,0.000000000000000000e+00
1.367000000000000000e+03,7.123350091711242449e-01,0.000000000000000000e+00
1.368000000000000000e+03,8.275191309085311309e-01,0.000000000000000000e+00
1.369000000000000000e+03,7.087891863359128131e-01,0.000000000000000000e+00
1.370000000000000000e+03,1.026563601379843149e+00,0.000000000000000000e+00
1.371000000000000000e+03,4.163860861654287149e-01,0.000000000000000000e+00
1.372000000000000000e+03,2.274065947121556019e-01,0.000000000000000000e+00
1.373000000000000000e+03,-4.588689963587076481e-01,0.000000000000000000e+00
1.374000000000000000e+03,-4.684963559882356354e-01,0.000000000000000000e+00
1.375000000000000000e+03,-3.805686166072250742e-01,0.000000000000000000e+00
1.376000000000000000e+03,-6.433786309938955839e-01,0.000000000000000000e+00
1.377000000000000000e+03,-3.285201960730482762e-01,0.000000000000000000e+00
1.378000000000000000e+03,-3.281237380888630817e-01,0.000000000000000000e+00
1.379000000000000000e+03,-4.428706884096976770e-01,0.000000000000000000e+00
1.380000000000000000e+03,-4.625693628910251820e-01,0.000000000000000000e+00
1.381000000000000000e+03,-3.978109595406998933e-01,0.000000000000000000e+00
1.382000000000000000e+03,-1.616565068899024071e-01,0.000000000000000000e+00
1.383000000000000000e+03,-2.215127926592658225e-01,0.000000000000000000e+00
1.384000000000000000e+03,-2.136917165717914513e-01,0.000000000000000000e+00
1.385000000000000000e+03,-9.450836190687389449e-02,0.000000000000000000e+00
1.386000000000000000e+03,2.840922938136130615e-01,0.000000000000000000e+00
1.387000000000000000e+03,-1.964627976869577630e-02,0.000000000000000000e+00
1.388000000000000000e+03,-9.040398054356293955e-02,0.000000000000000000e+00
1.389000000000000000e+03,3.350805892572219363e-02,0.000000000000000000e+00
1.390000000000000000e+03,-4.399969868524942762e-01,0.000000000000000000e+00
1.391000000000000000e+03,-1.955020029503908574e-01,0.000000000000000000e+00
1.392000000000000000e+03,-1.902411961376557492e-01,0.000000000000000000e+00
1.393000000000000000e+03,-3.379181210143504359e-03,0.000000000000000000e+00
1.394000000000000000e+03,-8.324343160205205372e-01,0.000000000000000000e+00
1.395000000000000000e+03,1.226115744327723078e+00,0.000000000000000000e+00
1.396000000000000000e+03,4.520308266390827612e+00,0.000000000000000000e+00
1.397000000000000000e+03,3.859075614790576925e-01,1.000000000000000000e+00
1.398000000000000000e+03,-1.231563718723803103e+00,0.000000000000000000e+00
1.399000000000000000e+03,-1.843983724727870754e+00,0.000000000000000000e+00
1.400000000000000000e+03,-1.366004720976096154e+00,0.000000000000000000e+00
1.401000000000000000e+03,-4.155768847441719260e-01,0.000000000000000000e+00
1.402000000000000000e+03,-6.269674856965712362e-02,0.000000000000000000e+00
1.403000000000000000e+03,7.519739785629610263e-02,0.000000000000000000e+00
1.404000000000000000e+03,1.980406107126901627e-01,0.000000000000000000e+00
1.405000000000000000e+03,2.721775003665789505e-01,0.000000000000000000e+00
1.406000000000000000e+03,3.596491389047153930e-01,0.000000000000000000e+00
1.407000000000000000e+03,2.952328558701747263e-01,0.000000000000000000e+00
1.408000000000000000e+03,7.778559961697008029e-01,0.000000000000000000e+00
1.409000000000000000e+03,9.843617844811692885e-01,0.000000000000000000e+00
1.410000000000000000e+03,8.470866503074755416e-01,0.000000000000000000e+00
1.411000000000000000e+03,7.439804859274322668e-01,0.000000000000000000e+00
1.412000000000000000e+03,5.339359784106698648e-01,0.000000000000000000e+00
1.413000000000000000e+03,-1.303729352960229515e-01,0.000000000000000000e+00
1.414000000000000000e+03,-3.692503432119673135e-01,0.000000000000000000e+00
1.415000000000000000e+03,-5.217472975705312876e-01,0.000000000000000000e+00
1.416000000000000000e+03,-7.116821229431529172e-01,0.000000000000000000e+00
1.417000000000000000e+03,-2.662513386796735437e-01,0.000000000000000000e+00
1.418000000000000000e+03,-3.833164501387976153e-01,0.000000000000000000e+00
1.419000000000000000e+03,-7.625104856457983749e-01,0.000000000000000000e+00
1.420000000000000000e+03,-2.207742371443489893e-01,0.000000000000000000e+00
1.421000000000000000e+03,-2.790415186596942876e-01,0.000000000000000000e+00
1.422000000000000000e+03,-4.794027794534365117e-01,0.000000000000000000e+00
1.423000000000000000e+03,-4.193098501244318377e-01,0.000000000000000000e+00
1.424000000000000000e+03,-1.415902212879402433e-01,0.000000000000000000e+00
1.425000000000000000e+03,-8.669242556046469206e-02,0.000000000000000000e+00
1.426000000000000000e+03,1.306589121474218407e-01,0.000000000000000000e+00
1.427000000000000000e+03,-2.480241105513104546e-02,0.000000000000000000e+00
1.428000000000000000e+03,1.208836800064619216e-01,0.000000000000000000e+00
1.429000000000000000e+03,-7.144310744255677470e-02,0.000000000000000000e+00
1.430000000000000000e+03,1.383152103720418635e-01,0.000000000000000000e+00
1.431000000000000000e+03,-4.306079972638180986e-01,0.000000000000000000e+00
1.432000000000000000e+03,-3.832629306203233499e-01,0.000000000000000000e+00
1.433000000000000000e+03,-2.230721319809057523e-01,0.000000000000000000e+00
1.434000000000000000e+03,-2.764358682524337141e-01,0.000000000000000000e+00
1.435000000000000000e+03,-5.620850829222338030e-01,0.000000000000000000e+00
1.436000000000000000e+03,3.342269136269409913e+00,0.000000000000000000e+00
1.437000000000000000e+03,2.978144779731018321e+00,0.000000000000000000e+00
1.438000000000000000e+03,-8.880104223387634832e-01,1.000000000000000000e+00
1.439000000000000000e+03,-1.523871314874931659e+00,0.000000000000000000e+00
1.440000000000000000e+03,-1.919997947573080399e+00,0.000000000000000000e+00
1.441000000000000000e+03,-8.136197884250532253e-01,0.000000000000000000e+00
1.442000000000000000e+03,-2.203478771234732847e-01,0.000000000000000000e+00
1.443000000000000000e+03,-5.493332210687696532e-02,0.000000000000000000e+00
1.444000000000000000e+03,1.097275802934185307e-01,0.000000000000000000e+00
1.445000000000000000e+03,3.554595897166138441e-01,0.000000000000000000e+00
1.446000000000000000e+03,-1.862008645203898638e-01,0.000000000000000000e+00
1.447000000000000000e+03,6.251013292999094695e-01,0.000000000000000000e+00
1.448000000000000000e+03,6.701949911535859394e-01,0.000000000000000000e+00
1.449000000000000000e+03,8.420394709440297554e-01,0.000000000000000000e+00
1.450000000000000000e+03,4.381594316011461210e-01,0.000000000000000000e+00
1.451000000000000000e+03,1.029746968679827068e+00,0.000000000000000000e+00
1.452000000000000000e+03,5.619808625417479497e-01,0.000000000000000000e+00
1.453000000000000000e+03,3.656542199354257394e-01,0.000000000000000000e+00
1.454000000000000000e+03,-4.459170953195252252e-01,0.000000000000000000e+00
1.455000000000000000e+03,-3.833228018500366985e-01,0.000000000000000000e+00
1.456000000000000000e+03,-4.811878508673094745e-01,0.000000000000000000e+00
1.457000000000000000e+03,-5.457463411254235286e-01,0.000000000000000000e+00
1.458000000000000000e+03,-7.673808811021809451e-01,0.000000000000000000e+00
1.459000000000000000e+03,-1.410567503519099819e-01,0.000000000000000000e+00
1.460000000000000000e+03,-4.740192575768203409e-01,0.000000000000000000e+00
1.461000000000000000e+03,-6.225699445561375667e-01,0.000000000000000000e+00
1.462000000000000000e+03,-2.502609121557661798e-01,0.000000000000000000e+00
1.463000000000000000e+03,-2.128928259744383104e-03,0.000000000000000000e+00
1.464000000000000000e+03,-5.305758529958455316e-01,0.000000000000000000e+00
1.465000000000000000e+03,-1.257749364246532608e-01,0.000000000000000000e+00
1.466000000000000000e+03,-7.974489759822592228e-02,0.000000000000000000e+00
1.467000000000000000e+03,2.441511412466878250e-01,0.000000000000000000e+00
1.468000000000000000e+03,1.925091789734287018e-01,0.000000000000000000e+00
1.469000000000000000e+03,1.559635983060782272e-02,0.000000000000000000e+00
1.470000000000000000e+03,-2.506214312897753552e-02,0.000000000000000000e+00
1.471000000000000000e+03,-1.447974082272801000e-01,0.000000000000000000e+00
1.472000000000000000e+03,-1.635196558187033133e-01,0.000000000000000000e+00
1.473000000000000000e+03,3.318913955090109502e-02,0.000000000000000000e+00
1.474000000000000000e+03,-3.186668500512776503e-01,0.000000000000000000e+00
1.475000000000000000e+03,-4.717036913341694782e-02,0.000000000000000000e+00
1.476000000000000000e+03,-8.123042114437536432e-01,0.000000000000000000e+00
1.477000000000000000e+03,3.003738420655589270e+00,0.000000000000000000e+00
1.478000000000000000e+03,3.281578844588870059e+00,0.000000000000000000e+00
1.479000000000000000e+03,-8.192573958890427832e-01,1.000000000000000000e+00
1.480000000000000000e+03,-1.061707094791509709e+00,0.000000000000000000e+00
1.481000000000000000e+03,-1.810943277743038538e+00,0.000000000000000000e+00
1.482000000000000000e+03,-1.130379312068447328e+00,0.000000000000000000e+00
1.483000000000000000e+03,-2.397980461246615458e-01,0.000000000000000000e+00
1.484000000000000000e+03,2.791039110326102857e-01,0.000000000000000000e+00
1.485000000000000000e+03,1.473390073417175580e-02,0.000000000000000000e+00
1.486000000000000000e+03,-1.824968156705064973e-02,0.000000000000000000e+00
1.487000000000000000e+03,1.548387693607594373e-01,0.000000000000000000e+00
1.488000000000000000e+03,2.356629750616439922e-01,0.000000000000000000e+00
1.489000000000000000e+03,5.064095875484394549e-01,0.000000000000000000e+00
1.490000000000000000e+03,8.073009622967969312e-01,0.000000000000000000e+00
1.491000000000000000e+03,5.407793109790570707e-01,0.000000000000000000e+00
1.492000000000000000e+03,1.101528202842607218e+00,0.000000000000000000e+00
1.493000000000000000e+03,6.122971385657979271e-01,0.000000000000000000e+00
1.494000000000000000e+03,2.213889056289521373e-01,0.000000000000000000e+00
1.495000000000000000e+03,-1.286306420590839217e-01,0.000000000000000000e+00
1.496000000000000000e+03,-5.148597261491613120e-01,0.000000000000000000e+00
1.497000000000000000e+03,-4.876237787536151225e-01,0.000000000000000000e+00
1.498000000000000000e+03,-6.280321207830417141e-01,0.000000000000000000e+00
1.499000000000000000e+03,-5.403050090158560970e-01,0.000000000000000000e+00
1.500000000000000000e+03,-3.674113634383048277e-01,0.000000000000000000e+00
1.501000000000000000e+03,-4.912565137914816638e-01,0.000000000000000000e+00
1.502000000000000000e+03,-3.290063021289568734e-01,0.000000000000000000e+00
1.503000000000000000e+03,-3.645574507779076323e-01,0.000000000000000000e+00
1.504000000000000000e+03,-8.534994370588931678e-02,0.000000000000000000e+00
1.505000000000000000e+03,-1.406721989951839613e-01,0.000000000000000000e+00
1.506000000000000000e+03,-2.492005777862852101e-01,0.000000000000000000e+00
1.507000000000000000e+03,-4.285184633494353718e-02,0.000000000000000000e+00
1.508000000000000000e+03,3.439148776986906131e-01,0.000000000000000000e+00
1.509000000000000000e+03,-1.072241717730373772e-01,0.000000000000000000e+00
1.510000000000000000e+03,4.798167511773381369e-03,0.000000000000000000e+00
1.511000000000000000e+03,5.745467729846333999e-02,0.000000000000000000e+00
1.512000000000000000e+03,-8.220875283230870412e-02,0.000000000000000000e+00
1.513000000000000000e+03,-3.147876017085753375e-01,0.000000000000000000e+00
1.514000000000000000e+03,1.100824973170332413e-02,0.000000000000000000e+00
1.515000000000000000e+03,2.885144589216739278e-03,0.000000000000000000e+00
1.516000000000000000e+03,-5.168634896936381562e-01,0.000000000000000000e+00
1.517000000000000000e+03,6.852347748404569172e-02,0.000000000000000000e+00
1.518000000000000000e+03,4.331683322825114146e+00,0.000000000000000000e+00
1.519000000000000000e+03,1.333648163331198511e+00,1.000000000000000000e+00
1.520000000000000000e+03,-1.270077678895081164e+00,0.000000000000000000e+00
1.521000000000000000e+03,-1.504861165937195544e+00,0.000000000000000000e+00
1.522000000000000000e+03,-1.621451754961984459e+00,0.000000000000000000e+00
1.523000000000000000e+03,-6.107894471849240059e-01,0.000000000000000000e+00
1.524000000000000000e+03,-1.928948644559416170e-01,0.000000000000000000e+00
1.525000000000000000e+03,3.378613083489269420e-02,0.000000000000000000e+00
1.526000000000000000e+03,-9.708671580486116087e-03,0.000000000000000000e+00
1.527000000000000000e+03,2.383604801080791424e-01,0.000000000000000000e+00
1.528000000000000000e+03,1.535771978682734795e-01,0.000000000000000000e+00
1.529000000000000000e+03,3.473231053445556271e-01,0.000000000000000000e+00
1.530000000000000000e+03,4.877686912554372034e-01,0.000000000000000000e+00
1.531000000000000000e+03,7.716175878686166723e-01,0.000000000000000000e+00
1.532000000000000000e+03,7.714562501835335873e-01,0.000000000000000000e+00
1.533000000000000000e+03,9.746535125742902261e-01,0.000000000000000000e+00
1.534000000000000000e+03,4.873765951330824575e-01,0.000000000000000000e+00
1.535000000000000000e+03,-1.174000757896220548e-01,0.000000000000000000e+00
1.536000000000000000e+03,-2.326294531352100792e-01,0.000000000000000000e+00
1.537000000000000000e+03,-4.525378775473638537e-01,0.000000000000000000e+00
1.538000000000000000e+03,-6.342926287743579916e-01,0.000000000000000000e+00
1.539000000000000000e+03,-3.456746381904789445e-01,0.000000000000000000e+00
1.540000000000000000e+03,-4.325466294307964699e-01,0.000000000000000000e+00
1.541000000000000000e+03,-6.571216293807587983e-01,0.000000000000000000e+00
1.542000000000000000e+03,-1.572857348490059315e-01,0.000000000000000000e+00
1.543000000000000000e+03,-1.655085368671505297e-01,0.000000000000000000e+00
1.544000000000000000e+03,-2.489034702458291504e-01,0.000000000000000000e+00
1.545000000000000000e+03,-7.147515683912896156e-01,0.000000000000000000e+00
1.546000000000000000e+03,-2.395212914825911588e-02,0.000000000000000000e+00
1.547000000000000000e+03,-8.340738370461117657e-02,0.000000000000000000e+00
1.548000000000000000e+03,-5.197332286579667976e-02,0.000000000000000000e+00
1.549000000000000000e+03,-8.364277480392745545e-02,0.000000000000000000e+00
1.550000000000000000e+03,-3.713715081933239431e-02,0.000000000000000000e+00
1.551000000000000000e+03,-4.368450919361015206e-02,0.000000000000000000e+00
1.552000000000000000e+03,-4.991268483515477056e-02,0.000000000000000000e+00
1.553000000000000000e+03,-4.573100171179914630e-01,0.000000000000000000e+00
1.554000000000000000e+03,-1.715709771476007783e-01,0.000000000000000000e+00
1.555000000000000000e+03,-3.368401060463980801e-01,0.000000000000000000e+00
1.556000000000000000e+03,9.949137191949617917e-03,0.000000000000000000e+00
1.557000000000000000e+03,-7.896985746070999124e-01,0.000000000000000000e+00
1.558000000000000000e+03,2.981814168029464529e+00,0.000000000000000000e+00
1.559000000000000000e+03,3.147781009166430000e+00,0.000000000000000000e+00
1.560000000000000000e+03,-9.220779442184433572e-01,1.000000000000000000e+00
1.561000000000000000e+03,-1.146116004328631366e+00,0.000000000000000000e+00
1.562000000000000000e+03,-1.937360774265101560e+00,0.000000000000000000e+00
1.563000000000000000e+03,-8.525971657185622554e-01,0.000000000000000000e+00
1.564000000000000000e+03,-2.199713771522008587e-01,0.000000000000000000e+00
1.565000000000000000e+03,1.138950772415371106e-02,0.000000000000000000e+00
1.566000000000000000e+03,1.753934848420262149e-01,0.000000000000000000e+00
1.567000000000000000e+03,1.139046930929267371e-01,0.000000000000000000e+00
1.568000000000000000e+03,6.021109648950961207e-02,0.000000000000000000e+00
1.569000000000000000e+03,7.351020522563050941e-01,0.000000000000000000e+00
1.570000000000000000e+03,2.514808460867844486e-01,0.000000000000000000e+00
1.571000000000000000e+03,6.699892837991985317e-01,0.000000000000000000e+00
1.572000000000000000e+03,1.079540205763602323e+00,0.000000000000000000e+00
1.573000000000000000e+03,1.198118783469056536e+00,0.000000000000000000e+00
1.574000000000000000e+03,4.094212505405986913e-01,0.000000000000000000e+00
1.575000000000000000e+03,2.807942322772148946e-01,0.000000000000000000e+00
1.576000000000000000e+03,-1.374592540048760192e-01,0.000000000000000000e+00
1.577000000000000000e+03,-4.487016338775068891e-01,0.000000000000000000e+00
1.578000000000000000e+03,-4.571688667218904434e-01,0.000000000000000000e+00
1.579000000000000000e+03,-5.416099484499199423e-01,0.000000000000000000e+00
1.580000000000000000e+03,-4.662239764355105565e-01,0.000000000000000000e+00
1.581000000000000000e+03,-4.878511620481586486e-01,0.000000000000000000e+00
1.582000000000000000e+03,-4.379255294877825166e-01,0.000000000000000000e+00
1.583000000000000000e+03,-2.967671665440611006e-01,0.000000000000000000e+00
1.584000000000000000e+03,-2.960425971770482279e-01,0.000000000000000000e+00
1.585000000000000000e+03,-3.165524719661424458e-01,0.000000000000000000e+00
