timestamp,ecg_measurement,qrs_detected
0.000000000000000000e+00,1.442741718509327475e-01,0.000000000000000000e+00
1.000000000000000000e+00,-5.669822073634781141e-03,0.000000000000000000e+00
2.000000000000000000e+00,-2.217846699833814217e-01,0.000000000000000000e+00
3.000000000000000000e+00,-1.104110550194953161e-01,0.000000000000000000e+00
4.000000000000000000e+00,-3.578439900258520989e-01,0.000000000000000000e+00
5.000000000000000000e+00,-3.228160223430285303e-01,0.000000000000000000e+00
6.000000000000000000e+00,-1.858527415518908266e-01,0.000000000000000000e+00
7.000000000000000000e+00,-2.446418984494685700e-01,0.000000000000000000e+00
8.000000000000000000e+00,-1.436920686687647164e-01,0.000000000000000000e+00
9.000000000000000000e+00,-6.535283851005685429e-02,0.000000000000000000e+00
1.000000000000000000e+01,-2.132635653616757609e-01,0.000000000000000000e+00
1.100000000000000000e+01,-6.167416318342182346e-02,0.000000000000000000e+00
1.200000000000000000e+01,-3.070149493563497679e-03,0.000000000000000000e+00
1.300000000000000000e+01,5.978680655941916861e-02,0.000000000000000000e+00
1.400000000000000000e+01,1.190946089067307506e-01,0.000000000000000000e+00
1.500000000000000000e+01,4.413152293487378197e-02,0.000000000000000000e+00
1.600000000000000000e+01,-2.648933377104819784e-02,0.000000000000000000e+00
1.700000000000000000e+01,1.527984808263896932e-01,0.000000000000000000e+00
1.800000000000000000e+01,9.091477386432124733e-04,0.000000000000000000e+00
1.900000000000000000e+01,5.451916643816244468e-02,0.000000000000000000e+00
2.000000000000000000e+01,1.237076418447984466e-01,0.000000000000000000e+00
2.100000000000000000e+01,3.183766484739572467e-02,0.000000000000000000e+00
2.200000000000000000e+01,1.335564829245092927e-02,0.000000000000000000e+00
2.300000000000000000e+01,2.158508961692802430e-01,0.000000000000000000e+00
2.400000000000000000e+01,-7.044217964867688364e-02,0.000000000000000000e+00
2.500000000000000000e+01,2.228005489460758992e-01,0.000000000000000000e+00
2.600000000000000000e+01,4.835376661565387452e-02,0.000000000000000000e+00
2.700000000000000000e+01,2.952140680884230983e-01,0.000000000000000000e+00
2.800000000000000000e+01,2.448966009163318636e-01,0.000000000000000000e+00
2.900000000000000000e+01,4.892289129778318868e-01,0.000000000000000000e+00
3.000000000000000000e+01,5.471743321461199905e-01,0.000000000000000000e+00
3.100000000000000000e+01,3.254746953401242981e-01,0.000000000000000000e+00
3.200000000000000000e+01,-2.905331109365054121e-01,0.000000000000000000e+00
3.300000000000000000e+01,-1.950203302327983002e-01,0.000000000000000000e+00
3.400000000000000000e+01,-4.524632542023268589e-01,0.000000000000000000e+00
3.500000000000000000e+01,-5.416948996240663478e-02,0.000000000000000000e+00
3.600000000000000000e+01,-6.019353655095278643e-01,0.000000000000000000e+00
3.700000000000000000e+01,1.653626768933882829e+00,0.000000000000000000e+00
3.800000000000000000e+01,6.158158838206218455e+00,0.000000000000000000e+00
3.900000000000000000e+01,-2.365169124233909681e+00,1.000000000000000000e+00
4.000000000000000000e+01,-1.459029600260878690e+00,0.000000000000000000e+00
4.100000000000000000e+01,-1.088235748560717031e+00,0.000000000000000000e+00
4.200000000000000000e+01,-8.948822534187070854e-01,0.000000000000000000e+00
4.300000000000000000e+01,-8.827783522876979649e-01,0.000000000000000000e+00
4.400000000000000000e+01,-5.595827827458417225e-01,0.000000000000000000e+00
4.500000000000000000e+01,-5.573827723705265802e-01,0.000000000000000000e+00
4.600000000000000000e+01,-3.634380636737758463e-01,0.000000000000000000e+00
4.700000000000000000e+01,-2.616757099600618419e-01,0.000000000000000000e+00
4.800000000000000000e+01,-3.507615009848055743e-01,0.000000000000000000e+00
4.900000000000000000e+01,-3.771016737671229607e-02,0.000000000000000000e+00
5.000000000000000000e+01,-3.577535620904416236e-01,0.000000000000000000e+00
5.100000000000000000e+01,3.589019236029526994e-01,0.000000000000000000e+00
5.200000000000000000e+01,6.235587973410298274e-02,0.000000000000000000e+00
5.300000000000000000e+01,3.469546325402873554e-01,0.000000000000000000e+00
5.400000000000000000e+01,3.163216794421377931e-01,0.000000000000000000e+00
5.500000000000000000e+01,1.545589143424063172e-01,0.000000000000000000e+00
5.600000000000000000e+01,-9.685376941565705666e-02,0.000000000000000000e+00
5.700000000000000000e+01,-1.179993821274111926e-01,0.000000000000000000e+00
5.800000000000000000e+01,-3.359631136401971530e-01,0.000000000000000000e+00
5.900000000000000000e+01,-1.457642417841831517e-01,0.000000000000000000e+00
6.000000000000000000e+01,-2.852745335042630170e-01,0.000000000000000000e+00
6.100000000000000000e+01,-1.073326705377616597e-01,0.000000000000000000e+00
6.200000000000000000e+01,-3.808400812943321667e-01,0.000000000000000000e+00
6.300000000000000000e+01,-7.076566892381484786e-02,0.000000000000000000e+00
6.400000000000000000e+01,-2.270304450908965099e-01,0.000000000000000000e+00
6.500000000000000000e+01,1.123782789220983541e-01,0.000000000000000000e+00
6.600000000000000000e+01,-6.857993174835300132e-02,0.000000000000000000e+00
6.700000000000000000e+01,4.701761393515391935e-02,0.000000000000000000e+00
6.800000000000000000e+01,-6.538712477043679208e-03,0.000000000000000000e+00
6.900000000000000000e+01,1.466712659846103606e-01,0.000000000000000000e+00
7.000000000000000000e+01,-9.285595306567848151e-02,0.000000000000000000e+00
7.100000000000000000e+01,3.278566233312009137e-01,0.000000000000000000e+00
7.200000000000000000e+01,-8.605408370560420350e-02,0.000000000000000000e+00
7.300000000000000000e+01,2.260462739246233699e-01,0.000000000000000000e+00
7.400000000000000000e+01,-1.293028768230948186e-02,0.000000000000000000e+00
7.500000000000000000e+01,1.815623568542742705e-01,0.000000000000000000e+00
7.600000000000000000e+01,6.655056929521178943e-02,0.000000000000000000e+00
7.700000000000000000e+01,1.887043093755907675e-01,0.000000000000000000e+00
7.800000000000000000e+01,1.674849128361374506e-01,0.000000000000000000e+00
7.900000000000000000e+01,1.870404808431800070e-01,0.000000000000000000e+00
8.000000000000000000e+01,1.437412671420912162e-02,0.000000000000000000e+00
8.100000000000000000e+01,3.054251319074501869e-01,0.000000000000000000e+00
8.200000000000000000e+01,1.118388785070533603e-01,0.000000000000000000e+00
8.300000000000000000e+01,4.299942468483691216e-01,0.000000000000000000e+00
8.400000000000000000e+01,8.086092144461592968e-02,0.000000000000000000e+00
8.500000000000000000e+01,6.472820935124542485e-01,0.000000000000000000e+00
8.600000000000000000e+01,6.592724740566194841e-01,0.000000000000000000e+00
8.700000000000000000e+01,3.466320865339412860e-01,0.000000000000000000e+00
8.800000000000000000e+01,-5.325798663656776677e-01,0.000000000000000000e+00
8.900000000000000000e+01,6.716148122852870495e-02,0.000000000000000000e+00
9.000000000000000000e+01,-7.278993102923430047e-01,0.000000000000000000e+00
9.100000000000000000e+01,2.308525386643947575e-01,0.000000000000000000e+00
9.200000000000000000e+01,-7.636018944016428334e-01,0.000000000000000000e+00
9.300000000000000000e+01,3.219904605456614721e+00,0.000000000000000000e+00
9.400000000000000000e+01,4.963367549913957788e+00,0.000000000000000000e+00
9.500000000000000000e+01,-3.416371442791664048e+00,1.000000000000000000e+00
9.600000000000000000e+01,-8.501191381031322214e-01,0.000000000000000000e+00
9.700000000000000000e+01,-1.323484817293903992e+00,0.000000000000000000e+00
9.800000000000000000e+01,-7.311366240576244735e-01,0.000000000000000000e+00
9.900000000000000000e+01,-7.430513336450745854e-01,0.000000000000000000e+00
1.000000000000000000e+02,-3.828457629236591830e-01,0.000000000000000000e+00
1.010000000000000000e+02,-7.172155888468989549e-01,0.000000000000000000e+00
1.020000000000000000e+02,-3.797695223950054433e-01,0.000000000000000000e+00
1.030000000000000000e+02,-3.956043089047356909e-01,0.000000000000000000e+00
1.040000000000000000e+02,-7.227692260119555900e-02,0.000000000000000000e+00
1.050000000000000000e+02,-2.403510367895607958e-01,0.000000000000000000e+00
1.060000000000000000e+02,4.319867040648536771e-02,0.000000000000000000e+00
1.070000000000000000e+02,-3.704147396574182516e-02,0.000000000000000000e+00
1.080000000000000000e+02,8.966032571017598651e-02,0.000000000000000000e+00
1.090000000000000000e+02,1.878340574352315995e-01,0.000000000000000000e+00
1.100000000000000000e+02,2.373522180249993396e-01,0.000000000000000000e+00
1.110000000000000000e+02,-1.452995784570130979e-03,0.000000000000000000e+00
1.120000000000000000e+02,-1.196283257295346347e-01,0.000000000000000000e+00
1.130000000000000000e+02,-3.059719899899125406e-01,0.000000000000000000e+00
1.140000000000000000e+02,-2.548733526517406589e-01,0.000000000000000000e+00
1.150000000000000000e+02,-3.453865706933333390e-01,0.000000000000000000e+00
1.160000000000000000e+02,-4.342057881350569470e-01,0.000000000000000000e+00
1.170000000000000000e+02,-1.627034884704941509e-01,0.000000000000000000e+00
1.180000000000000000e+02,-3.191964992670110468e-01,0.000000000000000000e+00
1.190000000000000000e+02,-1.966127807074011524e-01,0.000000000000000000e+00
1.200000000000000000e+02,-2.383124099473964141e-01,0.000000000000000000e+00
1.210000000000000000e+02,-1.014917162947099605e-01,0.000000000000000000e+00
1.220000000000000000e+02,-2.587150914928664294e-02,0.000000000000000000e+00
1.230000000000000000e+02,1.339283123253125207e-01,0.000000000000000000e+00
1.240000000000000000e+02,-8.814885794217361403e-02,0.000000000000000000e+00
1.250000000000000000e+02,1.651809522677760989e-01,0.000000000000000000e+00
1.260000000000000000e+02,-1.635025453715596017e-02,0.000000000000000000e+00
1.270000000000000000e+02,2.012602515693917571e-01,0.000000000000000000e+00
1.280000000000000000e+02,5.636090639853151563e-02,0.000000000000000000e+00
1.290000000000000000e+02,1.560441087443792396e-01,0.000000000000000000e+00
1.300000000000000000e+02,2.080103299169159536e-01,0.000000000000000000e+00
1.310000000000000000e+02,-2.194791728712388798e-03,0.000000000000000000e+00
1.320000000000000000e+02,1.600671048272166719e-01,0.000000000000000000e+00
1.330000000000000000e+02,2.338896099184518407e-01,0.000000000000000000e+00
1.340000000000000000e+02,1.362706255645647069e-01,0.000000000000000000e+00
1.350000000000000000e+02,1.272193633973644766e-01,0.000000000000000000e+00
1.360000000000000000e+02,2.321563521279720876e-01,0.000000000000000000e+00
1.370000000000000000e+02,4.977103068445287160e-01,0.000000000000000000e+00
1.380000000000000000e+02,3.321700696428779298e-01,0.000000000000000000e+00
1.390000000000000000e+02,7.642161575103995075e-01,0.000000000000000000e+00
1.400000000000000000e+02,3.365543627831377727e-01,0.000000000000000000e+00
1.410000000000000000e+02,3.469317456039314879e-02,0.000000000000000000e+00
1.420000000000000000e+02,-4.127927723272376559e-01,0.000000000000000000e+00
1.430000000000000000e+02,2.654687388860990996e-02,0.000000000000000000e+00
1.440000000000000000e+02,-6.086781369824491028e-01,0.000000000000000000e+00
1.450000000000000000e+02,3.904072964668468537e-01,0.000000000000000000e+00
1.460000000000000000e+02,-2.342561022582974606e-01,0.000000000000000000e+00
1.470000000000000000e+02,6.256646099947303696e+00,0.000000000000000000e+00
1.480000000000000000e+02,-5.496574246003521624e-01,1.000000000000000000e+00
1.490000000000000000e+02,-2.876953463600635974e+00,0.000000000000000000e+00
1.500000000000000000e+02,-3.802920076047147657e-01,0.000000000000000000e+00
1.510000000000000000e+02,-1.099743335233820174e+00,0.000000000000000000e+00
1.520000000000000000e+02,-3.606930949180021662e-01,0.000000000000000000e+00
1.530000000000000000e+02,-7.181353877833780430e-01,0.000000000000000000e+00
1.540000000000000000e+02,-1.518319150455818278e-01,0.000000000000000000e+00
1.550000000000000000e+02,-4.178358205151170846e-01,0.000000000000000000e+00
1.560000000000000000e+02,-1.799361622264407934e-01,0.000000000000000000e+00
1.570000000000000000e+02,-3.061933684006292733e-01,0.000000000000000000e+00
1.580000000000000000e+02,5.677323269368235448e-02,0.000000000000000000e+00
1.590000000000000000e+02,-1.627482627981849117e-01,0.000000000000000000e+00
1.600000000000000000e+02,1.373196876622652385e-01,0.000000000000000000e+00
1.610000000000000000e+02,1.068127112438294196e-01,0.000000000000000000e+00
1.620000000000000000e+02,4.529483139263637548e-01,0.000000000000000000e+00
1.630000000000000000e+02,1.538795072713429746e-01,0.000000000000000000e+00
1.640000000000000000e+02,2.250426973817800103e-01,0.000000000000000000e+00
1.650000000000000000e+02,-1.624274552462135757e-01,0.000000000000000000e+00
1.660000000000000000e+02,-2.058531970976839043e-01,0.000000000000000000e+00
1.670000000000000000e+02,-2.647916137345273091e-01,0.000000000000000000e+00
1.680000000000000000e+02,-2.795158169042352703e-01,0.000000000000000000e+00
1.690000000000000000e+02,-3.194071162437546185e-01,0.000000000000000000e+00
1.700000000000000000e+02,-2.442384903728247181e-01,0.000000000000000000e+00
1.710000000000000000e+02,-3.339565764819634186e-01,0.000000000000000000e+00
1.720000000000000000e+02,-3.324963467836833941e-01,0.000000000000000000e+00
1.730000000000000000e+02,-1.417820097598753437e-01,0.000000000000000000e+00
1.740000000000000000e+02,-1.420450901857434334e-01,0.000000000000000000e+00
1.750000000000000000e+02,-1.490588397444574942e-01,0.000000000000000000e+00
1.760000000000000000e+02,-1.167197149305175020e-02,0.000000000000000000e+00
1.770000000000000000e+02,-1.575899786973892769e-01,0.000000000000000000e+00
1.780000000000000000e+02,1.510482810545188924e-02,0.000000000000000000e+00
1.790000000000000000e+02,6.483108910903328907e-03,0.000000000000000000e+00
1.800000000000000000e+02,-9.440969782998857862e-02,0.000000000000000000e+00
1.810000000000000000e+02,1.015763720186063784e-01,0.000000000000000000e+00
1.820000000000000000e+02,3.610409408473218285e-02,0.000000000000000000e+00
1.830000000000000000e+02,2.950258561626419029e-02,0.000000000000000000e+00
1.840000000000000000e+02,2.852521587308125550e-01,0.000000000000000000e+00
1.850000000000000000e+02,-1.514047160842690865e-01,0.000000000000000000e+00
1.860000000000000000e+02,2.585073081275132134e-01,0.000000000000000000e+00
1.870000000000000000e+02,8.888407302652473474e-02,0.000000000000000000e+00
1.880000000000000000e+02,4.886330985636600510e-01,0.000000000000000000e+00
1.890000000000000000e+02,3.522862057310128248e-01,0.000000000000000000e+00
1.900000000000000000e+02,6.798581128862072331e-01,0.000000000000000000e+00
1.910000000000000000e+02,4.333935233167189316e-01,0.000000000000000000e+00
1.920000000000000000e+02,5.121106435483080421e-01,0.000000000000000000e+00
1.930000000000000000e+02,-4.158855856919004279e-01,0.000000000000000000e+00
1.940000000000000000e+02,-3.698764407376364804e-02,0.000000000000000000e+00
1.950000000000000000e+02,-5.115346342202555796e-01,0.000000000000000000e+00
1.960000000000000000e+02,1.341474974831730338e-01,0.000000000000000000e+00
1.970000000000000000e+02,-3.802266479349536987e-01,0.000000000000000000e+00
1.980000000000000000e+02,3.143059221918579116e+00,0.000000000000000000e+00
1.990000000000000000e+02,4.457628525190329150e+00,0.000000000000000000e+00
2.000000000000000000e+02,-3.561794087100909501e+00,1.000000000000000000e+00
2.010000000000000000e+02,-8.132615360300055052e-01,0.000000000000000000e+00
2.020000000000000000e+02,-9.964391222311016483e-01,0.000000000000000000e+00
2.030000000000000000e+02,-2.353546219332790512e-01,0.000000000000000000e+00
2.040000000000000000e+02,-7.174016491531541861e-01,0.000000000000000000e+00
2.050000000000000000e+02,-9.241894702509698481e-03,0.000000000000000000e+00
2.060000000000000000e+02,-5.885968143342290571e-01,0.000000000000000000e+00
2.070000000000000000e+02,4.166299938848948281e-03,0.000000000000000000e+00
2.080000000000000000e+02,-3.865128091702934032e-01,0.000000000000000000e+00
2.090000000000000000e+02,-1.486646129161605656e-01,0.000000000000000000e+00
2.100000000000000000e+02,-9.993314439115129344e-02,0.000000000000000000e+00
2.110000000000000000e+02,2.089432089309851692e-01,0.000000000000000000e+00
2.120000000000000000e+02,-1.085197605776998947e-02,0.000000000000000000e+00
2.130000000000000000e+02,3.243304405864285700e-01,0.000000000000000000e+00
2.140000000000000000e+02,1.440921382620976576e-01,0.000000000000000000e+00
2.150000000000000000e+02,4.940155150845069731e-01,0.000000000000000000e+00
2.160000000000000000e+02,-1.093039027712049693e-01,0.000000000000000000e+00
2.170000000000000000e+02,1.235557406646435874e-01,0.000000000000000000e+00
2.180000000000000000e+02,-2.844093489587066204e-01,0.000000000000000000e+00
2.190000000000000000e+02,-1.376843953388094122e-01,0.000000000000000000e+00
2.200000000000000000e+02,-5.017467506918779074e-01,0.000000000000000000e+00
2.210000000000000000e+02,-1.468609394420195557e-01,0.000000000000000000e+00
2.220000000000000000e+02,-3.558635817619095754e-01,0.000000000000000000e+00
2.230000000000000000e+02,-4.135502879196765319e-02,0.000000000000000000e+00
2.240000000000000000e+02,-2.595875563166205047e-01,0.000000000000000000e+00
2.250000000000000000e+02,-8.896125404397854652e-02,0.000000000000000000e+00
2.260000000000000000e+02,-1.910497586677556148e-01,0.000000000000000000e+00
2.270000000000000000e+02,-2.455417149928223672e-02,0.000000000000000000e+00
2.280000000000000000e+02,-2.162597385648931947e-01,0.000000000000000000e+00
2.290000000000000000e+02,3.060526747568708128e-01,0.000000000000000000e+00
2.300000000000000000e+02,-1.257585312488450069e-01,0.000000000000000000e+00
2.310000000000000000e+02,2.343241077586341037e-01,0.000000000000000000e+00
2.320000000000000000e+02,-4.077653466266355914e-02,0.000000000000000000e+00
2.330000000000000000e+02,2.524482294660653769e-01,0.000000000000000000e+00
2.340000000000000000e+02,-2.187939139423253354e-01,0.000000000000000000e+00
2.350000000000000000e+02,8.246314084225060681e-02,0.000000000000000000e+00
2.360000000000000000e+02,8.865242279300486472e-02,0.000000000000000000e+00
2.370000000000000000e+02,1.666168782717400432e-01,0.000000000000000000e+00
2.380000000000000000e+02,-1.875847319769937960e-01,0.000000000000000000e+00
2.390000000000000000e+02,3.817605912782900401e-01,0.000000000000000000e+00
2.400000000000000000e+02,4.671276999494387155e-02,0.000000000000000000e+00
2.410000000000000000e+02,5.017974291177499380e-01,0.000000000000000000e+00
2.420000000000000000e+02,1.042521735597872062e-01,0.000000000000000000e+00
2.430000000000000000e+02,8.224718783896134422e-01,0.000000000000000000e+00
2.440000000000000000e+02,3.946000621147980336e-01,0.000000000000000000e+00
2.450000000000000000e+02,5.024202673156269450e-01,0.000000000000000000e+00
2.460000000000000000e+02,-3.605737001328731539e-01,0.000000000000000000e+00
2.470000000000000000e+02,1.423080794461025200e-01,0.000000000000000000e+00
2.480000000000000000e+02,-6.585980892981271317e-01,0.000000000000000000e+00
2.490000000000000000e+02,4.291183546441578178e-01,0.000000000000000000e+00
2.500000000000000000e+02,-8.223621120490142156e-01,0.000000000000000000e+00
2.510000000000000000e+02,4.148988910706348676e+00,0.000000000000000000e+00
2.520000000000000000e+02,4.209712497143270227e+00,0.000000000000000000e+00
2.530000000000000000e+02,-3.458514842325052907e+00,1.000000000000000000e+00
2.540000000000000000e+02,-5.155360767711858472e-01,0.000000000000000000e+00
2.550000000000000000e+02,-1.463662270966835433e+00,0.000000000000000000e+00
2.560000000000000000e+02,-3.722971066646795779e-01,0.000000000000000000e+00
2.570000000000000000e+02,-9.811039593411257087e-01,0.000000000000000000e+00
2.580000000000000000e+02,-2.116333211506058742e-01,0.000000000000000000e+00
2.590000000000000000e+02,-6.036225567720195917e-01,0.000000000000000000e+00
2.600000000000000000e+02,-3.301219514884983219e-01,0.000000000000000000e+00
2.610000000000000000e+02,-6.008892068326349145e-01,0.000000000000000000e+00
2.620000000000000000e+02,-1.898009739286952713e-01,0.000000000000000000e+00
2.630000000000000000e+02,-1.831172474706798114e-01,0.000000000000000000e+00
2.640000000000000000e+02,-1.151153757714394044e-01,0.000000000000000000e+00
2.650000000000000000e+02,1.354861863793175398e-03,0.000000000000000000e+00
2.660000000000000000e+02,1.312778825857724707e-01,0.000000000000000000e+00
2.670000000000000000e+02,1.135978764895810150e-01,0.000000000000000000e+00
2.680000000000000000e+02,3.716278840449119825e-01,0.000000000000000000e+00
2.690000000000000000e+02,-1.268898496628777794e-01,0.000000000000000000e+00
2.700000000000000000e+02,-2.216805768455651637e-01,0.000000000000000000e+00
2.710000000000000000e+02,-2.396045781116988294e-01,0.000000000000000000e+00
2.720000000000000000e+02,-2.502175096134479082e-01,0.000000000000000000e+00
2.730000000000000000e+02,-2.982137355498077347e-01,0.000000000000000000e+00
2.740000000000000000e+02,-3.045223324609774851e-01,0.000000000000000000e+00
2.750000000000000000e+02,-3.600478003761729551e-01,0.000000000000000000e+00
2.760000000000000000e+02,-2.285079881334302343e-01,0.000000000000000000e+00
2.770000000000000000e+02,-2.071413317739175253e-01,0.000000000000000000e+00
2.780000000000000000e+02,-1.431555951464715259e-01,0.000000000000000000e+00
2.790000000000000000e+02,-1.273807809303024174e-01,0.000000000000000000e+00
2.800000000000000000e+02,3.593710160106877022e-02,0.000000000000000000e+00
2.810000000000000000e+02,-1.181764464294370737e-01,0.000000000000000000e+00
2.820000000000000000e+02,9.065491800767788710e-02,0.000000000000000000e+00
2.830000000000000000e+02,3.629333529537438069e-02,0.000000000000000000e+00
2.840000000000000000e+02,-5.663694258304297589e-03,0.000000000000000000e+00
2.850000000000000000e+02,1.045224938619914862e-01,0.000000000000000000e+00
2.860000000000000000e+02,-8.440258352606670386e-03,0.000000000000000000e+00
2.870000000000000000e+02,1.220322465508545534e-01,0.000000000000000000e+00
2.880000000000000000e+02,1.460607903656735984e-01,0.000000000000000000e+00
2.890000000000000000e+02,4.580173151829311159e-03,0.000000000000000000e+00
2.900000000000000000e+02,-3.634972097128304214e-02,0.000000000000000000e+00
2.910000000000000000e+02,8.936419488718221060e-02,0.000000000000000000e+00
2.920000000000000000e+02,1.661433008427026514e-01,0.000000000000000000e+00
2.930000000000000000e+02,2.120014500033410784e-02,0.000000000000000000e+00
2.940000000000000000e+02,2.312090399676652863e-01,0.000000000000000000e+00
2.950000000000000000e+02,1.487815002986183355e-01,0.000000000000000000e+00
2.960000000000000000e+02,3.860637673254505020e-01,0.000000000000000000e+00
2.970000000000000000e+02,6.832223505814232212e-01,0.000000000000000000e+00
2.980000000000000000e+02,5.184396259573882393e-01,0.000000000000000000e+00
2.990000000000000000e+02,5.116333972861295543e-01,0.000000000000000000e+00
3.000000000000000000e+02,-4.185945136802139421e-01,0.000000000000000000e+00
3.010000000000000000e+02,5.770246425362126480e-02,0.000000000000000000e+00
3.020000000000000000e+02,-5.363278085450049470e-01,0.000000000000000000e+00
3.030000000000000000e+02,3.104280279258331277e-01,0.000000000000000000e+00
3.040000000000000000e+02,-8.954357536687022057e-01,0.000000000000000000e+00
3.050000000000000000e+02,3.608230017621351315e+00,0.000000000000000000e+00
3.060000000000000000e+02,4.715443099556211770e+00,0.000000000000000000e+00
3.070000000000000000e+02,-3.427328296806780195e+00,1.000000000000000000e+00
3.080000000000000000e+02,-4.856143061197973343e-01,0.000000000000000000e+00
3.090000000000000000e+02,-1.496937296458510813e+00,0.000000000000000000e+00
3.100000000000000000e+02,-5.968940627479328853e-01,0.000000000000000000e+00
3.110000000000000000e+02,-9.738227310836210515e-01,0.000000000000000000e+00
3.120000000000000000e+02,-2.455807712046135516e-01,0.000000000000000000e+00
3.130000000000000000e+02,-5.840092784316130992e-01,0.000000000000000000e+00
3.140000000000000000e+02,-3.074729345290888594e-01,0.000000000000000000e+00
3.150000000000000000e+02,-5.203694975031356584e-01,0.000000000000000000e+00
3.160000000000000000e+02,-7.208747457782251067e-02,0.000000000000000000e+00
3.170000000000000000e+02,-2.650640468194228050e-01,0.000000000000000000e+00
3.180000000000000000e+02,1.016437710772453706e-01,0.000000000000000000e+00
3.190000000000000000e+02,-1.693466851861080702e-01,0.000000000000000000e+00
3.200000000000000000e+02,4.267659025069288625e-01,0.000000000000000000e+00
3.210000000000000000e+02,7.806603209927664988e-02,0.000000000000000000e+00
3.220000000000000000e+02,3.620980896827756257e-01,0.000000000000000000e+00
3.230000000000000000e+02,-7.636921064932408916e-03,0.000000000000000000e+00
3.240000000000000000e+02,-1.254678807206413838e-01,0.000000000000000000e+00
3.250000000000000000e+02,-3.422326770152493980e-01,0.000000000000000000e+00
3.260000000000000000e+02,-8.238465140260325947e-02,0.000000000000000000e+00
3.270000000000000000e+02,-2.903871432803999397e-01,0.000000000000000000e+00
3.280000000000000000e+02,-1.611835306152464842e-01,0.000000000000000000e+00
3.290000000000000000e+02,-3.370068217013060252e-01,0.000000000000000000e+00
3.300000000000000000e+02,-1.319876077599768105e-01,0.000000000000000000e+00
3.310000000000000000e+02,-4.169035934502661189e-01,0.000000000000000000e+00
3.320000000000000000e+02,-5.176021215839867601e-02,0.000000000000000000e+00
3.330000000000000000e+02,-1.844741445024547788e-01,0.000000000000000000e+00
3.340000000000000000e+02,-3.140719555660452522e-02,0.000000000000000000e+00
3.350000000000000000e+02,-7.828446278669766445e-02,0.000000000000000000e+00
3.360000000000000000e+02,1.636438804399792113e-01,0.000000000000000000e+00
3.370000000000000000e+02,-1.627123195899481400e-01,0.000000000000000000e+00
3.380000000000000000e+02,8.487805877556690859e-02,0.000000000000000000e+00
3.390000000000000000e+02,1.093724321972391472e-01,0.000000000000000000e+00
3.400000000000000000e+02,3.739936669695538562e-02,0.000000000000000000e+00
3.410000000000000000e+02,8.333101714962418138e-02,0.000000000000000000e+00
3.420000000000000000e+02,2.633511813780476940e-01,0.000000000000000000e+00
3.430000000000000000e+02,-1.492074369680166934e-01,0.000000000000000000e+00
3.440000000000000000e+02,1.213511288566075236e-01,0.000000000000000000e+00
3.450000000000000000e+02,-4.080159736372263035e-02,0.000000000000000000e+00
3.460000000000000000e+02,6.303351498912991568e-02,0.000000000000000000e+00
3.470000000000000000e+02,2.867378426541166148e-01,0.000000000000000000e+00
3.480000000000000000e+02,3.987926184171243782e-01,0.000000000000000000e+00
3.490000000000000000e+02,1.898716934242602183e-01,0.000000000000000000e+00
3.500000000000000000e+02,7.731986704123947618e-01,0.000000000000000000e+00
3.510000000000000000e+02,3.710654946838056745e-01,0.000000000000000000e+00
3.520000000000000000e+02,3.455131279991802695e-01,0.000000000000000000e+00
3.530000000000000000e+02,-6.156524393274621643e-01,0.000000000000000000e+00
3.540000000000000000e+02,-2.814085114923561490e-02,0.000000000000000000e+00
3.550000000000000000e+02,-5.546352464850234920e-01,0.000000000000000000e+00
3.560000000000000000e+02,3.057032826030574579e-01,0.000000000000000000e+00
3.570000000000000000e+02,-4.710405609292467322e-01,0.000000000000000000e+00
3.580000000000000000e+02,6.094634796861189585e+00,0.000000000000000000e+00
3.590000000000000000e+02,4.379169073053139072e-01,1.000000000000000000e+00
3.600000000000000000e+02,-3.202085001967625022e+00,0.000000000000000000e+00
3.610000000000000000e+02,-2.243479095305699056e-01,0.000000000000000000e+00
3.620000000000000000e+02,-1.221732876074838936e+00,0.000000000000000000e+00
3.630000000000000000e+02,-3.109362449912554949e-01,0.000000000000000000e+00
3.640000000000000000e+02,-7.886702223269322909e-01,0.000000000000000000e+00
3.650000000000000000e+02,-7.975242785151322178e-02,0.000000000000000000e+00
3.660000000000000000e+02,-6.780342544275406169e-01,0.000000000000000000e+00
3.670000000000000000e+02,8.239368340766432819e-02,0.000000000000000000e+00
3.680000000000000000e+02,-4.095739504482824866e-01,0.000000000000000000e+00
3.690000000000000000e+02,1.937246792767201992e-02,0.000000000000000000e+00
3.700000000000000000e+02,-1.756872127371260361e-01,0.000000000000000000e+00
3.710000000000000000e+02,3.260506423728046221e-01,0.000000000000000000e+00
3.720000000000000000e+02,1.617904964737897078e-01,0.000000000000000000e+00
3.730000000000000000e+02,2.730726439788424553e-01,0.000000000000000000e+00
3.740000000000000000e+02,1.166046478140392584e-01,0.000000000000000000e+00
3.750000000000000000e+02,4.968550126325785854e-01,0.000000000000000000e+00
3.760000000000000000e+02,-3.409448938444323979e-02,0.000000000000000000e+00
3.770000000000000000e+02,-1.298386516158618262e-02,0.000000000000000000e+00
3.780000000000000000e+02,-2.872742943820708605e-01,0.000000000000000000e+00
3.790000000000000000e+02,-1.956645911634129209e-01,0.000000000000000000e+00
3.800000000000000000e+02,-2.977749423095289449e-01,0.000000000000000000e+00
3.810000000000000000e+02,-3.913387890035848610e-02,0.000000000000000000e+00
3.820000000000000000e+02,-3.079070801036801197e-01,0.000000000000000000e+00
3.830000000000000000e+02,-3.282725747351975670e-02,0.000000000000000000e+00
3.840000000000000000e+02,-3.588392513388271032e-01,0.000000000000000000e+00
3.850000000000000000e+02,1.826072356702709842e-01,0.000000000000000000e+00
3.860000000000000000e+02,-2.556926771075139770e-01,0.000000000000000000e+00
3.870000000000000000e+02,1.241185176578008531e-01,0.000000000000000000e+00
3.880000000000000000e+02,-6.156508341988657651e-02,0.000000000000000000e+00
3.890000000000000000e+02,5.299630412794909678e-02,0.000000000000000000e+00
3.900000000000000000e+02,-8.446854592294779362e-02,0.000000000000000000e+00
3.910000000000000000e+02,3.121413981291745743e-01,0.000000000000000000e+00
3.920000000000000000e+02,-1.357789400267796209e-01,0.000000000000000000e+00
3.930000000000000000e+02,2.850271567399458861e-01,0.000000000000000000e+00
3.940000000000000000e+02,-9.046465270361706001e-02,0.000000000000000000e+00
3.950000000000000000e+02,2.273663299577740882e-01,0.000000000000000000e+00
3.960000000000000000e+02,-1.681279778000515923e-01,0.000000000000000000e+00
3.970000000000000000e+02,3.587362157004642671e-01,0.000000000000000000e+00
3.980000000000000000e+02,-1.784113859181019404e-02,0.000000000000000000e+00
3.990000000000000000e+02,4.879386022213743623e-01,0.000000000000000000e+00
4.000000000000000000e+02,2.622734827760253573e-01,0.000000000000000000e+00
4.010000000000000000e+02,7.069927378107173643e-01,0.000000000000000000e+00
4.020000000000000000e+02,2.483386590303045538e-01,0.000000000000000000e+00
4.030000000000000000e+02,1.680199945509862069e-01,0.000000000000000000e+00
4.040000000000000000e+02,-6.637740856039889836e-01,0.000000000000000000e+00
4.050000000000000000e+02,1.753256427542256024e-01,0.000000000000000000e+00
4.060000000000000000e+02,-6.644579882183442310e-01,0.000000000000000000e+00
4.070000000000000000e+02,3.937730256234800996e-01,0.000000000000000000e+00
4.080000000000000000e+02,-7.465481008819294662e-01,0.000000000000000000e+00
4.090000000000000000e+02,5.337784743522664854e+00,0.000000000000000000e+00
4.100000000000000000e+02,1.205570936436000551e+00,1.000000000000000000e+00
4.110000000000000000e+02,-3.560479403905295825e+00,0.000000000000000000e+00
4.120000000000000000e+02,-2.339897187285205349e-01,0.000000000000000000e+00
4.130000000000000000e+02,-1.224969916113180624e+00,0.000000000000000000e+00
4.140000000000000000e+02,-2.410268905357373093e-01,0.000000000000000000e+00
4.150000000000000000e+02,-8.616326714014017618e-01,0.000000000000000000e+00
4.160000000000000000e+02,6.770551997518108045e-02,0.000000000000000000e+00
4.170000000000000000e+02,-5.149945523998403774e-01,0.000000000000000000e+00
4.180000000000000000e+02,-1.088462177187340951e-01,0.000000000000000000e+00
4.190000000000000000e+02,-3.349794874976776970e-01,0.000000000000000000e+00
4.200000000000000000e+02,-4.254254762591835881e-03,0.000000000000000000e+00
4.210000000000000000e+02,-1.135311226036231913e-01,0.000000000000000000e+00
4.220000000000000000e+02,8.468884699902395896e-02,0.000000000000000000e+00
4.230000000000000000e+02,2.020879840069934597e-01,0.000000000000000000e+00
4.240000000000000000e+02,3.657293098677807386e-01,0.000000000000000000e+00
4.250000000000000000e+02,4.191921696477240444e-01,0.000000000000000000e+00
4.260000000000000000e+02,3.799497137808510172e-01,0.000000000000000000e+00
4.270000000000000000e+02,-8.012041357344605597e-02,0.000000000000000000e+00
4.280000000000000000e+02,-1.128651912218500697e-01,0.000000000000000000e+00
4.290000000000000000e+02,-4.479243173130887379e-01,0.000000000000000000e+00
4.300000000000000000e+02,-1.912282288649209405e-01,0.000000000000000000e+00
4.310000000000000000e+02,-3.802244263238874766e-01,0.000000000000000000e+00
4.320000000000000000e+02,-1.597982686282850284e-01,0.000000000000000000e+00
4.330000000000000000e+02,-2.585589984290742049e-01,0.000000000000000000e+00
4.340000000000000000e+02,-1.318997405170496406e-01,0.000000000000000000e+00
4.350000000000000000e+02,-3.085343257837397379e-01,0.000000000000000000e+00
4.360000000000000000e+02,-5.949535708954795110e-02,0.000000000000000000e+00
4.370000000000000000e+02,6.809034135485252624e-03,0.000000000000000000e+00
4.380000000000000000e+02,7.015248636163269602e-02,0.000000000000000000e+00
4.390000000000000000e+02,-9.214809522108692585e-02,0.000000000000000000e+00
4.400000000000000000e+02,-1.084140144768916542e-01,0.000000000000000000e+00
4.410000000000000000e+02,-4.356059201551983756e-02,0.000000000000000000e+00
4.420000000000000000e+02,-8.502309829367259153e-02,0.000000000000000000e+00
4.430000000000000000e+02,4.511459321059360650e-02,0.000000000000000000e+00
4.440000000000000000e+02,2.352779038348794607e-02,0.000000000000000000e+00
4.450000000000000000e+02,7.540729349594207931e-02,0.000000000000000000e+00
4.460000000000000000e+02,-1.370278395593539922e-01,0.000000000000000000e+00
4.470000000000000000e+02,1.289961633950266751e-01,0.000000000000000000e+00
4.480000000000000000e+02,-4.500318677052546346e-02,0.000000000000000000e+00
4.490000000000000000e+02,2.399214499384745569e-01,0.000000000000000000e+00
4.500000000000000000e+02,-4.356684839617094157e-03,0.000000000000000000e+00
4.510000000000000000e+02,4.178126258890194622e-01,0.000000000000000000e+00
4.520000000000000000e+02,2.948472811115145920e-01,0.000000000000000000e+00
4.530000000000000000e+02,7.451404350120235387e-01,0.000000000000000000e+00
4.540000000000000000e+02,4.072575709059259585e-01,0.000000000000000000e+00
4.550000000000000000e+02,2.523088869095143627e-01,0.000000000000000000e+00
4.560000000000000000e+02,-4.941671385910814673e-01,0.000000000000000000e+00
4.570000000000000000e+02,-2.690361559696003574e-02,0.000000000000000000e+00
4.580000000000000000e+02,-6.045480631008606220e-01,0.000000000000000000e+00
4.590000000000000000e+02,3.926403146640585762e-01,0.000000000000000000e+00
4.600000000000000000e+02,-6.376639373862870164e-01,0.000000000000000000e+00
4.610000000000000000e+02,5.645649317926617172e+00,0.000000000000000000e+00
4.620000000000000000e+02,1.707002698061426127e+00,1.000000000000000000e+00
4.630000000000000000e+02,-3.374331428475366934e+00,0.000000000000000000e+00
4.640000000000000000e+02,-2.081564528459552144e-01,0.000000000000000000e+00
4.650000000000000000e+02,-1.322925788486326582e+00,0.000000000000000000e+00
4.660000000000000000e+02,-1.836843673301579161e-01,0.000000000000000000e+00
4.670000000000000000e+02,-8.431935010348934334e-01,0.000000000000000000e+00
4.680000000000000000e+02,-1.653772968433700197e-01,0.000000000000000000e+00
4.690000000000000000e+02,-5.622037014340426353e-01,0.000000000000000000e+00
4.700000000000000000e+02,1.774198924031776927e-03,0.000000000000000000e+00
4.710000000000000000e+02,-4.805575376963412970e-01,0.000000000000000000e+00
4.720000000000000000e+02,1.429857934141084141e-01,0.000000000000000000e+00
4.730000000000000000e+02,-2.172770137951036407e-01,0.000000000000000000e+00
4.740000000000000000e+02,2.242826038895882057e-01,0.000000000000000000e+00
4.750000000000000000e+02,-7.168151399676586655e-02,0.000000000000000000e+00
4.760000000000000000e+02,3.988585012600840418e-01,0.000000000000000000e+00
4.770000000000000000e+02,3.721334381296199229e-02,0.000000000000000000e+00
4.780000000000000000e+02,3.978038305816281595e-01,0.000000000000000000e+00
4.790000000000000000e+02,-1.119836368504519286e-01,0.000000000000000000e+00
4.800000000000000000e+02,-2.860534328262417242e-02,0.000000000000000000e+00
4.810000000000000000e+02,-3.707173552822363161e-01,0.000000000000000000e+00
4.820000000000000000e+02,-1.369836354123948052e-01,0.000000000000000000e+00
4.830000000000000000e+02,-4.915733701655454202e-01,0.000000000000000000e+00
4.840000000000000000e+02,-1.803082731752335410e-01,0.000000000000000000e+00
4.850000000000000000e+02,-4.738924239766913460e-01,0.000000000000000000e+00
4.860000000000000000e+02,7.986236260955160982e-02,0.000000000000000000e+00
4.870000000000000000e+02,-3.985455518782102802e-01,0.000000000000000000e+00
4.880000000000000000e+02,6.283791526958576457e-02,0.000000000000000000e+00
4.890000000000000000e+02,-2.329367446998432123e-01,0.000000000000000000e+00
4.900000000000000000e+02,1.062668277815848605e-01,0.000000000000000000e+00
4.910000000000000000e+02,-2.507587623548251377e-01,0.000000000000000000e+00
4.920000000000000000e+02,9.801932945772399985e-02,0.000000000000000000e+00
4.930000000000000000e+02,-1.464133450276253468e-01,0.000000000000000000e+00
4.940000000000000000e+02,3.416888694215889921e-01,0.000000000000000000e+00
4.950000000000000000e+02,-4.326499367290794276e-03,0.000000000000000000e+00
4.960000000000000000e+02,2.431004920249554280e-01,0.000000000000000000e+00
4.970000000000000000e+02,-1.865845217795173427e-01,0.000000000000000000e+00
4.980000000000000000e+02,3.106963749245892914e-01,0.000000000000000000e+00
4.990000000000000000e+02,-1.628674165376278737e-01,0.000000000000000000e+00
5.000000000000000000e+02,4.729998101160390322e-01,0.000000000000000000e+00
5.010000000000000000e+02,-7.177217374789707227e-02,0.000000000000000000e+00
5.020000000000000000e+02,3.433253859744159753e-01,0.000000000000000000e+00
5.030000000000000000e+02,2.003179253664048309e-01,0.000000000000000000e+00
5.040000000000000000e+02,4.587781513902107200e-01,0.000000000000000000e+00
5.050000000000000000e+02,2.823506549349781847e-01,0.000000000000000000e+00
5.060000000000000000e+02,9.080995933114113239e-01,0.000000000000000000e+00
5.070000000000000000e+02,3.485863710350893818e-01,0.000000000000000000e+00
5.080000000000000000e+02,2.992376458351040935e-01,0.000000000000000000e+00
5.090000000000000000e+02,-4.260255585536250611e-01,0.000000000000000000e+00
5.100000000000000000e+02,3.830582316480415223e-02,0.000000000000000000e+00
5.110000000000000000e+02,-5.279589423981637664e-01,0.000000000000000000e+00
5.120000000000000000e+02,3.585811186818297358e-01,0.000000000000000000e+00
5.130000000000000000e+02,-1.540527044853684220e-03,0.000000000000000000e+00
5.140000000000000000e+02,6.659103596844969886e+00,0.000000000000000000e+00
5.150000000000000000e+02,-5.278221398088279726e-01,1.000000000000000000e+00
5.160000000000000000e+02,-2.366372877362087124e+00,0.000000000000000000e+00
5.170000000000000000e+02,-5.662926940241819196e-01,0.000000000000000000e+00
5.180000000000000000e+02,-1.350328154385892487e+00,0.000000000000000000e+00
5.190000000000000000e+02,-3.720887131459457708e-01,0.000000000000000000e+00
5.200000000000000000e+02,-7.396642389443301990e-01,0.000000000000000000e+00
5.210000000000000000e+02,-3.206358351750237534e-01,0.000000000000000000e+00
5.220000000000000000e+02,-4.856377153304726191e-01,0.000000000000000000e+00
5.230000000000000000e+02,-3.367529955222269278e-01,0.000000000000000000e+00
5.240000000000000000e+02,-2.959386836803568066e-01,0.000000000000000000e+00
5.250000000000000000e+02,-1.164557163913742116e-01,0.000000000000000000e+00
5.260000000000000000e+02,-1.171557540048327739e-01,0.000000000000000000e+00
5.270000000000000000e+02,-1.435917670248621283e-02,0.000000000000000000e+00
5.280000000000000000e+02,8.587376746845297448e-02,0.000000000000000000e+00
5.290000000000000000e+02,1.987621302436280990e-01,0.000000000000000000e+00
5.300000000000000000e+02,2.722856749468169912e-01,0.000000000000000000e+00
5.310000000000000000e+02,1.368410089218494163e-01,0.000000000000000000e+00
5.320000000000000000e+02,-1.840378803105244265e-01,0.000000000000000000e+00
5.330000000000000000e+02,-9.674092403751546887e-02,0.000000000000000000e+00
5.340000000000000000e+02,-3.611023205481502796e-01,0.000000000000000000e+00
5.350000000000000000e+02,-1.873500714970478265e-01,0.000000000000000000e+00
5.360000000000000000e+02,-4.347819045731239340e-01,0.000000000000000000e+00
5.370000000000000000e+02,-1.260696310323590752e-01,0.000000000000000000e+00
5.380000000000000000e+02,-2.884479935472871182e-01,0.000000000000000000e+00
5.390000000000000000e+02,-2.939170315396965605e-01,0.000000000000000000e+00
5.400000000000000000e+02,-1.708314452438284003e-01,0.000000000000000000e+00
5.410000000000000000e+02,-2.376611857531401584e-01,0.000000000000000000e+00
5.420000000000000000e+02,-1.140615171288827390e-01,0.000000000000000000e+00
5.430000000000000000e+02,-1.491873251310723014e-01,0.000000000000000000e+00
5.440000000000000000e+02,-2.442417022325479581e-01,0.000000000000000000e+00
5.450000000000000000e+02,-5.517111751421248031e-03,0.000000000000000000e+00
5.460000000000000000e+02,-1.500115048646133709e-01,0.000000000000000000e+00
5.470000000000000000e+02,4.602812751419228451e-03,0.000000000000000000e+00
5.480000000000000000e+02,-2.403373904310961151e-02,0.000000000000000000e+00
5.490000000000000000e+02,-2.855012014132736128e-02,0.000000000000000000e+00
5.500000000000000000e+02,-1.382538483744490954e-01,0.000000000000000000e+00
5.510000000000000000e+02,-2.515420699501495078e-02,0.000000000000000000e+00
5.520000000000000000e+02,-9.461842558124826386e-02,0.000000000000000000e+00
5.530000000000000000e+02,-3.150707931985238797e-02,0.000000000000000000e+00
5.540000000000000000e+02,2.102798756384922224e-02,0.000000000000000000e+00
5.550000000000000000e+02,3.799802955907289476e-02,0.000000000000000000e+00
5.560000000000000000e+02,1.610250031593694342e-01,0.000000000000000000e+00
5.570000000000000000e+02,2.232201192156004210e-01,0.000000000000000000e+00
5.580000000000000000e+02,4.443345272477064456e-01,0.000000000000000000e+00
5.590000000000000000e+02,5.261940423666486844e-01,0.000000000000000000e+00
5.600000000000000000e+02,4.364554835418005263e-01,0.000000000000000000e+00
5.610000000000000000e+02,-1.747572882029783947e-01,0.000000000000000000e+00
5.620000000000000000e+02,-4.042458898540596812e-01,0.000000000000000000e+00
5.630000000000000000e+02,-2.063106313037577355e-01,0.000000000000000000e+00
5.640000000000000000e+02,-2.021174558658713483e-01,0.000000000000000000e+00
5.650000000000000000e+02,-2.386804140093032323e-01,0.000000000000000000e+00
5.660000000000000000e+02,1.156060605177419598e+00,0.000000000000000000e+00
5.670000000000000000e+02,6.206905989721873240e+00,0.000000000000000000e+00
5.680000000000000000e+02,-2.300882688926586539e+00,1.000000000000000000e+00
5.690000000000000000e+02,-1.710123334984466226e+00,0.000000000000000000e+00
5.700000000000000000e+02,-6.235252940371822650e-01,0.000000000000000000e+00
5.710000000000000000e+02,-8.133231533913636291e-01,0.000000000000000000e+00
5.720000000000000000e+02,-5.606295815696210605e-01,0.000000000000000000e+00
5.730000000000000000e+02,-4.483754708249888532e-01,0.000000000000000000e+00
5.740000000000000000e+02,-2.939024024335128993e-01,0.000000000000000000e+00
5.750000000000000000e+02,-3.573094789813587857e-01,0.000000000000000000e+00
5.760000000000000000e+02,-2.664589195222906715e-01,0.000000000000000000e+00
5.770000000000000000e+02,-1.963826945386799028e-01,0.000000000000000000e+00
5.780000000000000000e+02,-3.177683968833376615e-02,0.000000000000000000e+00
5.790000000000000000e+02,2.549486877129732848e-02,0.000000000000000000e+00
5.800000000000000000e+02,1.700031446640132560e-01,0.000000000000000000e+00
5.810000000000000000e+02,2.275491618307497188e-01,0.000000000000000000e+00
5.820000000000000000e+02,2.537532761122187064e-01,0.000000000000000000e+00
5.830000000000000000e+02,2.776192467173106415e-01,0.000000000000000000e+00
5.840000000000000000e+02,1.270738553387467940e-01,0.000000000000000000e+00
5.850000000000000000e+02,-1.779528857835166109e-02,0.000000000000000000e+00
5.860000000000000000e+02,-3.485511274541917143e-02,0.000000000000000000e+00
5.870000000000000000e+02,-2.749697560384757877e-01,0.000000000000000000e+00
5.880000000000000000e+02,-1.714253128505578705e-01,0.000000000000000000e+00
5.890000000000000000e+02,-1.287471375088498626e-01,0.000000000000000000e+00
5.900000000000000000e+02,-1.235056674693298107e-01,0.000000000000000000e+00
5.910000000000000000e+02,-2.088700039869818836e-01,0.000000000000000000e+00
5.920000000000000000e+02,-8.337892818310506382e-02,0.000000000000000000e+00
5.930000000000000000e+02,-7.810581162424970469e-02,0.000000000000000000e+00
5.940000000000000000e+02,-1.045081651080214530e-02,0.000000000000000000e+00
5.950000000000000000e+02,7.430746578160700444e-02,0.000000000000000000e+00
5.960000000000000000e+02,2.768069758376735801e-02,0.000000000000000000e+00
5.970000000000000000e+02,7.498924696556008573e-02,0.000000000000000000e+00
5.980000000000000000e+02,1.301773729416326186e-01,0.000000000000000000e+00
5.990000000000000000e+02,1.324474795639879465e-02,0.000000000000000000e+00
6.000000000000000000e+02,2.926496713329912458e-01,0.000000000000000000e+00
6.010000000000000000e+02,3.068380166217449939e-02,0.000000000000000000e+00
6.020000000000000000e+02,2.076837575377652179e-01,0.000000000000000000e+00
6.030000000000000000e+02,5.730013723667833070e-02,0.000000000000000000e+00
6.040000000000000000e+02,2.206480196891820456e-01,0.000000000000000000e+00
6.050000000000000000e+02,7.978661933848291143e-02,0.000000000000000000e+00
6.060000000000000000e+02,2.212865294539387018e-01,0.000000000000000000e+00
6.070000000000000000e+02,8.144984035320350368e-02,0.000000000000000000e+00
6.080000000000000000e+02,4.675657416192002813e-01,0.000000000000000000e+00
6.090000000000000000e+02,4.780763617777203933e-01,0.000000000000000000e+00
6.100000000000000000e+02,7.732275115770902429e-01,0.000000000000000000e+00
6.110000000000000000e+02,3.619648958810557371e-01,0.000000000000000000e+00
6.120000000000000000e+02,-1.579204153331307814e-01,0.000000000000000000e+00
6.130000000000000000e+02,-3.834505732211138662e-01,0.000000000000000000e+00
6.140000000000000000e+02,-1.277245762993347300e-01,0.000000000000000000e+00
6.150000000000000000e+02,-2.050575048390088639e-01,0.000000000000000000e+00
6.160000000000000000e+02,-4.972894744461583971e-02,0.000000000000000000e+00
6.170000000000000000e+02,6.596741801027163898e-01,0.000000000000000000e+00
6.180000000000000000e+02,6.195215049278245623e+00,0.000000000000000000e+00
6.190000000000000000e+02,-1.883407984041447270e+00,1.000000000000000000e+00
6.200000000000000000e+02,-2.016005716665039582e+00,0.000000000000000000e+00
6.210000000000000000e+02,-5.936749437582211630e-01,0.000000000000000000e+00
6.220000000000000000e+02,-9.576268978397902698e-01,0.000000000000000000e+00
6.230000000000000000e+02,-3.178837370756155689e-01,0.000000000000000000e+00
6.240000000000000000e+02,-5.280599409910621267e-01,0.000000000000000000e+00
6.250000000000000000e+02,-2.415776868079606010e-01,0.000000000000000000e+00
6.260000000000000000e+02,-4.394176239605376844e-01,0.000000000000000000e+00
6.270000000000000000e+02,-1.132038918218070261e-01,0.000000000000000000e+00
6.280000000000000000e+02,-1.999920979193768600e-01,0.000000000000000000e+00
6.290000000000000000e+02,8.964688767693132498e-02,0.000000000000000000e+00
6.300000000000000000e+02,-3.097536033672856903e-02,0.000000000000000000e+00
6.310000000000000000e+02,2.508439084675523900e-01,0.000000000000000000e+00
6.320000000000000000e+02,1.579340580457077592e-01,0.000000000000000000e+00
6.330000000000000000e+02,3.819002952220408864e-01,0.000000000000000000e+00
6.340000000000000000e+02,1.160997108341500217e-01,0.000000000000000000e+00
6.350000000000000000e+02,2.747917519631720706e-01,0.000000000000000000e+00
6.360000000000000000e+02,-6.209648715348062287e-02,0.000000000000000000e+00
6.370000000000000000e+02,-9.348364354847656099e-02,0.000000000000000000e+00
6.380000000000000000e+02,-3.520058940145687210e-01,0.000000000000000000e+00
6.390000000000000000e+02,-2.084780294320489891e-01,0.000000000000000000e+00
6.400000000000000000e+02,-5.778509506050073519e-01,0.000000000000000000e+00
6.410000000000000000e+02,-1.851201974923232796e-01,0.000000000000000000e+00
6.420000000000000000e+02,-3.740231978563842152e-01,0.000000000000000000e+00
6.430000000000000000e+02,-1.010856681553155278e-01,0.000000000000000000e+00
6.440000000000000000e+02,-1.504245914435448084e-01,0.000000000000000000e+00
6.450000000000000000e+02,-3.038501477373916834e-02,0.000000000000000000e+00
6.460000000000000000e+02,-1.714564730808390003e-01,0.000000000000000000e+00
6.470000000000000000e+02,-3.719044836215518179e-02,0.000000000000000000e+00
6.480000000000000000e+02,-2.316370890922990755e-01,0.000000000000000000e+00
6.490000000000000000e+02,7.052578400414911963e-02,0.000000000000000000e+00
6.500000000000000000e+02,-1.943142289284810476e-01,0.000000000000000000e+00
6.510000000000000000e+02,2.001837191903877156e-01,0.000000000000000000e+00
6.520000000000000000e+02,-1.974747192071515389e-01,0.000000000000000000e+00
6.530000000000000000e+02,-5.873446765836057813e-03,0.000000000000000000e+00
6.540000000000000000e+02,-1.491859901961773427e-01,0.000000000000000000e+00
6.550000000000000000e+02,1.935365289201485817e-01,0.000000000000000000e+00
6.560000000000000000e+02,-1.608719111938626267e-01,0.000000000000000000e+00
6.570000000000000000e+02,4.453773063882877567e-03,0.000000000000000000e+00
6.580000000000000000e+02,7.336347798451284263e-02,0.000000000000000000e+00
6.590000000000000000e+02,3.738982412640423081e-01,0.000000000000000000e+00
6.600000000000000000e+02,1.928198703846590867e-01,0.000000000000000000e+00
6.610000000000000000e+02,7.048232603787415451e-01,0.000000000000000000e+00
6.620000000000000000e+02,2.470062121713972048e-01,0.000000000000000000e+00
6.630000000000000000e+02,1.769588603671611027e-01,0.000000000000000000e+00
6.640000000000000000e+02,-7.329508426094615281e-01,0.000000000000000000e+00
6.650000000000000000e+02,7.002694880887448681e-02,0.000000000000000000e+00
6.660000000000000000e+02,-6.808130561768792610e-01,0.000000000000000000e+00
6.670000000000000000e+02,3.657323490355288698e-01,0.000000000000000000e+00
6.680000000000000000e+02,-7.958072043082616842e-01,0.000000000000000000e+00
6.690000000000000000e+02,4.568292593568114235e+00,0.000000000000000000e+00
6.700000000000000000e+02,2.695081242987581227e+00,1.000000000000000000e+00
6.710000000000000000e+02,-3.600943253120305609e+00,0.000000000000000000e+00
6.720000000000000000e+02,-3.058033657750825474e-01,0.000000000000000000e+00
6.730000000000000000e+02,-1.473596203045888231e+00,0.000000000000000000e+00
6.740000000000000000e+02,-1.618853152057868894e-01,0.000000000000000000e+00
6.750000000000000000e+02,-8.805589495509028586e-01,0.000000000000000000e+00
6.760000000000000000e+02,-2.345465355023487741e-01,0.000000000000000000e+00
6.770000000000000000e+02,-4.438972758335167912e-01,0.000000000000000000e+00
6.780000000000000000e+02,-2.629836634910783649e-02,0.000000000000000000e+00
6.790000000000000000e+02,-5.261186958601721253e-01,0.000000000000000000e+00
6.800000000000000000e+02,8.630379408114815035e-03,0.000000000000000000e+00
6.810000000000000000e+02,-1.309476706523902689e-01,0.000000000000000000e+00
6.820000000000000000e+02,9.321137433131261585e-02,0.000000000000000000e+00
6.830000000000000000e+02,-1.338423378003328335e-01,0.000000000000000000e+00
6.840000000000000000e+02,5.570004993463638643e-01,0.000000000000000000e+00
6.850000000000000000e+02,1.701468678492738806e-01,0.000000000000000000e+00
6.860000000000000000e+02,3.786531242700398869e-01,0.000000000000000000e+00
6.870000000000000000e+02,2.520793183976126686e-02,0.000000000000000000e+00
6.880000000000000000e+02,-2.986634669312680096e-02,0.000000000000000000e+00
6.890000000000000000e+02,-2.595622593571070280e-01,0.000000000000000000e+00
6.900000000000000000e+02,3.259714040308463873e-02,0.000000000000000000e+00
6.910000000000000000e+02,-3.617911631133359784e-01,0.000000000000000000e+00
6.920000000000000000e+02,-1.188347740709834316e-01,0.000000000000000000e+00
6.930000000000000000e+02,-2.003175216940980274e-01,0.000000000000000000e+00
6.940000000000000000e+02,-1.759418625819581528e-01,0.000000000000000000e+00
6.950000000000000000e+02,-2.887438211269644506e-01,0.000000000000000000e+00
6.960000000000000000e+02,9.972366093275732146e-02,0.000000000000000000e+00
6.970000000000000000e+02,-1.535352207879653839e-02,0.000000000000000000e+00
6.980000000000000000e+02,-1.150145036558255542e-03,0.000000000000000000e+00
6.990000000000000000e+02,1.185035418659902001e-01,0.000000000000000000e+00
7.000000000000000000e+02,1.513688691419520504e-01,0.000000000000000000e+00
7.010000000000000000e+02,-9.030173528457842436e-02,0.000000000000000000e+00
7.020000000000000000e+02,1.030573769846873378e-01,0.000000000000000000e+00
7.030000000000000000e+02,-2.173781168042978468e-02,0.000000000000000000e+00
7.040000000000000000e+02,2.225327229290869346e-01,0.000000000000000000e+00
7.050000000000000000e+02,-2.059638709056402575e-02,0.000000000000000000e+00
7.060000000000000000e+02,1.828687337568664639e-01,0.000000000000000000e+00
7.070000000000000000e+02,4.721374021567874973e-02,0.000000000000000000e+00
7.080000000000000000e+02,2.312202684035924993e-01,0.000000000000000000e+00
7.090000000000000000e+02,4.974618165750831905e-02,0.000000000000000000e+00
7.100000000000000000e+02,2.588023410114333456e-01,0.000000000000000000e+00
7.110000000000000000e+02,-7.800857753405197881e-02,0.000000000000000000e+00
7.120000000000000000e+02,6.623046617730755647e-01,0.000000000000000000e+00
7.130000000000000000e+02,3.659953234248442544e-01,0.000000000000000000e+00
7.140000000000000000e+02,7.566986771308076287e-01,0.000000000000000000e+00
7.150000000000000000e+02,3.017095138224916706e-01,0.000000000000000000e+00
7.160000000000000000e+02,7.014609585201629638e-02,0.000000000000000000e+00
7.170000000000000000e+02,-3.568066193083226367e-01,0.000000000000000000e+00
7.180000000000000000e+02,-2.919994033224294072e-01,0.000000000000000000e+00
7.190000000000000000e+02,-3.020070157616144280e-01,0.000000000000000000e+00
7.200000000000000000e+02,-5.286202087162372026e-02,0.000000000000000000e+00
7.210000000000000000e+02,6.862540020592684531e-01,0.000000000000000000e+00
7.220000000000000000e+02,6.400931523652594102e+00,0.000000000000000000e+00
7.230000000000000000e+02,-1.245680956681314955e+00,1.000000000000000000e+00
7.240000000000000000e+02,-2.183189002174300342e+00,0.000000000000000000e+00
7.250000000000000000e+02,-7.563645018265376940e-01,0.000000000000000000e+00
7.260000000000000000e+02,-1.092889326698419650e+00,0.000000000000000000e+00
7.270000000000000000e+02,-5.263819666656176510e-01,0.000000000000000000e+00
7.280000000000000000e+02,-7.479435289875766557e-01,0.000000000000000000e+00
7.290000000000000000e+02,-3.532776630139112806e-01,0.000000000000000000e+00
7.300000000000000000e+02,-4.249327377479581447e-01,0.000000000000000000e+00
7.310000000000000000e+02,-3.551303264807528781e-01,0.000000000000000000e+00
7.320000000000000000e+02,-2.871427341633847607e-01,0.000000000000000000e+00
7.330000000000000000e+02,-9.808286137461746934e-02,0.000000000000000000e+00
7.340000000000000000e+02,-7.552465649458060815e-02,0.000000000000000000e+00
7.350000000000000000e+02,5.121896995699919131e-02,0.000000000000000000e+00
7.360000000000000000e+02,4.744053308339642866e-02,0.000000000000000000e+00
7.370000000000000000e+02,2.692189483463311994e-01,0.000000000000000000e+00
7.380000000000000000e+02,3.067587782005580799e-01,0.000000000000000000e+00
7.390000000000000000e+02,2.372372724754071849e-01,0.000000000000000000e+00
7.400000000000000000e+02,-4.554422430102685049e-02,0.000000000000000000e+00
7.410000000000000000e+02,-2.370164256185552654e-01,0.000000000000000000e+00
7.420000000000000000e+02,-1.091187638294083273e-01,0.000000000000000000e+00
7.430000000000000000e+02,-6.825023168179442101e-02,0.000000000000000000e+00
7.440000000000000000e+02,-3.855590961834660657e-01,0.000000000000000000e+00
7.450000000000000000e+02,-6.153837878348904222e-02,0.000000000000000000e+00
7.460000000000000000e+02,-1.714773556567808499e-01,0.000000000000000000e+00
7.470000000000000000e+02,-2.784775831984628303e-01,0.000000000000000000e+00
7.480000000000000000e+02,-1.777253058775210282e-01,0.000000000000000000e+00
7.490000000000000000e+02,4.877055401520305478e-02,0.000000000000000000e+00
7.500000000000000000e+02,9.388291016570966818e-02,0.000000000000000000e+00
7.510000000000000000e+02,3.734423881220959307e-02,0.000000000000000000e+00
7.520000000000000000e+02,-1.880289039604566073e-02,0.000000000000000000e+00
7.530000000000000000e+02,2.078909706320768505e-02,0.000000000000000000e+00
7.540000000000000000e+02,2.048893835181694045e-01,0.000000000000000000e+00
7.550000000000000000e+02,-2.242988104837453228e-02,0.000000000000000000e+00
7.560000000000000000e+02,5.303509264951889596e-02,0.000000000000000000e+00
7.570000000000000000e+02,2.182830965711593518e-01,0.000000000000000000e+00
7.580000000000000000e+02,-8.979115781440040467e-02,0.000000000000000000e+00
7.590000000000000000e+02,1.716830771941129929e-01,0.000000000000000000e+00
7.600000000000000000e+02,2.581550181826070683e-02,0.000000000000000000e+00
7.610000000000000000e+02,4.154412810658025812e-02,0.000000000000000000e+00
7.620000000000000000e+02,-1.528395149669859732e-01,0.000000000000000000e+00
7.630000000000000000e+02,4.071864572606016530e-01,0.000000000000000000e+00
7.640000000000000000e+02,1.429333669763636072e-01,0.000000000000000000e+00
7.650000000000000000e+02,3.875581958565726959e-01,0.000000000000000000e+00
7.660000000000000000e+02,9.388681585999418544e-02,0.000000000000000000e+00
7.670000000000000000e+02,6.228729158629208174e-01,0.000000000000000000e+00
7.680000000000000000e+02,3.350055697525509690e-01,0.000000000000000000e+00
7.690000000000000000e+02,1.346317448990714816e-01,0.000000000000000000e+00
7.700000000000000000e+02,-5.264592494819348989e-01,0.000000000000000000e+00
7.710000000000000000e+02,-3.057937251297047562e-02,0.000000000000000000e+00
7.720000000000000000e+02,-7.111413030669182511e-01,0.000000000000000000e+00
7.730000000000000000e+02,3.544503031826451989e-01,0.000000000000000000e+00
7.740000000000000000e+02,-5.907374022188875973e-01,0.000000000000000000e+00
7.750000000000000000e+02,5.850402721794638161e+00,0.000000000000000000e+00
7.760000000000000000e+02,1.167441675935708467e+00,1.000000000000000000e+00
7.770000000000000000e+02,-3.231658067685018398e+00,0.000000000000000000e+00
7.780000000000000000e+02,-1.707831716199120775e-01,0.000000000000000000e+00
7.790000000000000000e+02,-1.726359930406972332e+00,0.000000000000000000e+00
7.800000000000000000e+02,-2.888030164464269745e-01,0.000000000000000000e+00
7.810000000000000000e+02,-9.660086655299676694e-01,0.000000000000000000e+00
7.820000000000000000e+02,-1.778838933806299594e-01,0.000000000000000000e+00
7.830000000000000000e+02,-7.732863638229632297e-01,0.000000000000000000e+00
7.840000000000000000e+02,-2.264921376559329569e-01,0.000000000000000000e+00
7.850000000000000000e+02,-4.353252027276161007e-01,0.000000000000000000e+00
7.860000000000000000e+02,-6.842288592721994245e-02,0.000000000000000000e+00
7.870000000000000000e+02,-4.127987348979144100e-01,0.000000000000000000e+00
7.880000000000000000e+02,5.455667313880653568e-02,0.000000000000000000e+00
7.890000000000000000e+02,-1.007907072793780001e-01,0.000000000000000000e+00
7.900000000000000000e+02,3.163598562151244131e-01,0.000000000000000000e+00
7.910000000000000000e+02,7.165164085045418185e-02,0.000000000000000000e+00
7.920000000000000000e+02,2.161611211913068986e-01,0.000000000000000000e+00
7.930000000000000000e+02,-2.117451831849910260e-01,0.000000000000000000e+00
7.940000000000000000e+02,1.163788790914739718e-01,0.000000000000000000e+00
7.950000000000000000e+02,-4.031758125084910493e-01,0.000000000000000000e+00
7.960000000000000000e+02,-2.440500591886297643e-01,0.000000000000000000e+00
7.970000000000000000e+02,-3.843368991960268155e-01,0.000000000000000000e+00
7.980000000000000000e+02,-8.279712584260176533e-02,0.000000000000000000e+00
7.990000000000000000e+02,-2.703613396887396547e-01,0.000000000000000000e+00
8.000000000000000000e+02,-1.621129943792764816e-01,0.000000000000000000e+00
8.010000000000000000e+02,-2.394425503754592510e-01,0.000000000000000000e+00
8.020000000000000000e+02,2.666484489555796533e-01,0.000000000000000000e+00
8.030000000000000000e+02,-1.036475096308818455e-01,0.000000000000000000e+00
8.040000000000000000e+02,1.277342375844341404e-01,0.000000000000000000e+00
8.050000000000000000e+02,4.373110115430161454e-02,0.000000000000000000e+00
8.060000000000000000e+02,7.303204511086600070e-02,0.000000000000000000e+00
8.070000000000000000e+02,1.021777148389315243e-01,0.000000000000000000e+00
8.080000000000000000e+02,1.278920554228029915e-01,0.000000000000000000e+00
8.090000000000000000e+02,-1.599905230873583870e-02,0.000000000000000000e+00
8.100000000000000000e+02,2.977825096937831151e-01,0.000000000000000000e+00
8.110000000000000000e+02,4.612547288424574676e-02,0.000000000000000000e+00
8.120000000000000000e+02,3.190373768830047085e-01,0.000000000000000000e+00
8.130000000000000000e+02,-7.583562086282405121e-05,0.000000000000000000e+00
8.140000000000000000e+02,3.271008046535595626e-01,0.000000000000000000e+00
8.150000000000000000e+02,-4.815279665069318454e-02,0.000000000000000000e+00
8.160000000000000000e+02,5.387616197802000961e-01,0.000000000000000000e+00
8.170000000000000000e+02,1.230378113377717658e-01,0.000000000000000000e+00
8.180000000000000000e+02,8.859078084664331332e-01,0.000000000000000000e+00
8.190000000000000000e+02,2.880451879483461042e-01,0.000000000000000000e+00
8.200000000000000000e+02,2.745723018737640242e-01,0.000000000000000000e+00
8.210000000000000000e+02,-6.291397018568486432e-01,0.000000000000000000e+00
8.220000000000000000e+02,1.852864200101102532e-01,0.000000000000000000e+00
8.230000000000000000e+02,-8.218431911726643557e-01,0.000000000000000000e+00
8.240000000000000000e+02,5.223845833286028251e-01,0.000000000000000000e+00
8.250000000000000000e+02,-7.535835761469300564e-01,0.000000000000000000e+00
8.260000000000000000e+02,4.540651214763397725e+00,0.000000000000000000e+00
8.270000000000000000e+02,2.772281845182047455e+00,1.000000000000000000e+00
8.280000000000000000e+02,-3.846401687295381233e+00,0.000000000000000000e+00
8.290000000000000000e+02,-1.530279484169729531e-01,0.000000000000000000e+00
8.300000000000000000e+02,-1.121647836639555695e+00,0.000000000000000000e+00
8.310000000000000000e+02,-3.604151794757262661e-01,0.000000000000000000e+00
8.320000000000000000e+02,-7.875063149897739700e-01,0.000000000000000000e+00
8.330000000000000000e+02,-1.186343349205483538e-01,0.000000000000000000e+00
8.340000000000000000e+02,-6.711067978341485052e-01,0.000000000000000000e+00
8.350000000000000000e+02,1.162138897208833260e-01,0.000000000000000000e+00
8.360000000000000000e+02,-4.091194891409973278e-01,0.000000000000000000e+00
8.370000000000000000e+02,-2.802722856332785437e-02,0.000000000000000000e+00
8.380000000000000000e+02,-2.469407097444568655e-01,0.000000000000000000e+00
8.390000000000000000e+02,2.048758935483117882e-01,0.000000000000000000e+00
8.400000000000000000e+02,-9.351739029557053218e-02,0.000000000000000000e+00
8.410000000000000000e+02,3.880462048391392638e-01,0.000000000000000000e+00
8.420000000000000000e+02,2.045988030846850603e-01,0.000000000000000000e+00
8.430000000000000000e+02,3.979956614850523322e-01,0.000000000000000000e+00
8.440000000000000000e+02,1.016251663446143677e-01,0.000000000000000000e+00
8.450000000000000000e+02,3.891933582354406215e-03,0.000000000000000000e+00
8.460000000000000000e+02,-4.611840674734994927e-01,0.000000000000000000e+00
8.470000000000000000e+02,-2.195117606210698069e-01,0.000000000000000000e+00
8.480000000000000000e+02,-2.611652311507458024e-01,0.000000000000000000e+00
8.490000000000000000e+02,-3.598612620000679607e-01,0.000000000000000000e+00
8.500000000000000000e+02,-1.513102018678919858e-01,0.000000000000000000e+00
8.510000000000000000e+02,-2.175653090862834371e-01,0.000000000000000000e+00
8.520000000000000000e+02,-1.481603927125041131e-01,0.000000000000000000e+00
8.530000000000000000e+02,-2.142654828744992579e-01,0.000000000000000000e+00
8.540000000000000000e+02,-7.329270771605017609e-02,0.000000000000000000e+00
8.550000000000000000e+02,7.187184137802185568e-02,0.000000000000000000e+00
8.560000000000000000e+02,-1.479141776214983883e-01,0.000000000000000000e+00
8.570000000000000000e+02,2.046827984853227533e-01,0.000000000000000000e+00
8.580000000000000000e+02,5.437722386810282457e-03,0.000000000000000000e+00
8.590000000000000000e+02,2.766793718586635920e-01,0.000000000000000000e+00
8.600000000000000000e+02,-8.396926816132932458e-02,0.000000000000000000e+00
8.610000000000000000e+02,1.226994163552717759e-01,0.000000000000000000e+00
8.620000000000000000e+02,-1.283641631013232413e-02,0.000000000000000000e+00
8.630000000000000000e+02,5.504498271873979609e-02,0.000000000000000000e+00
8.640000000000000000e+02,1.584357063155458489e-01,0.000000000000000000e+00
8.650000000000000000e+02,1.132638223393921950e-01,0.000000000000000000e+00
8.660000000000000000e+02,1.567856345967937604e-01,0.000000000000000000e+00
8.670000000000000000e+02,4.242311001375064783e-01,0.000000000000000000e+00
8.680000000000000000e+02,1.041345200761605166e-01,0.000000000000000000e+00
8.690000000000000000e+02,6.972025252353755143e-01,0.000000000000000000e+00
8.700000000000000000e+02,4.456016008396434525e-01,0.000000000000000000e+00
8.710000000000000000e+02,2.077046176675485245e-01,0.000000000000000000e+00
8.720000000000000000e+02,-5.669490185623768941e-01,0.000000000000000000e+00
8.730000000000000000e+02,1.613240448727977228e-01,0.000000000000000000e+00
8.740000000000000000e+02,-6.232660476845430786e-01,0.000000000000000000e+00
8.750000000000000000e+02,3.460105799514162084e-01,0.000000000000000000e+00
8.760000000000000000e+02,-7.274497519472712392e-01,0.000000000000000000e+00
8.770000000000000000e+02,5.934317210519827412e+00,0.000000000000000000e+00
8.780000000000000000e+02,1.012482800114592907e+00,1.000000000000000000e+00
8.790000000000000000e+02,-3.074609048903925057e+00,0.000000000000000000e+00
8.800000000000000000e+02,-1.835232302632483214e-01,0.000000000000000000e+00
8.810000000000000000e+02,-1.206051035188771881e+00,0.000000000000000000e+00
8.820000000000000000e+02,-4.136384688869028659e-01,0.000000000000000000e+00
8.830000000000000000e+02,-8.138628982968239001e-01,0.000000000000000000e+00
8.840000000000000000e+02,-1.604118966002365809e-01,0.000000000000000000e+00
8.850000000000000000e+02,-5.246311586408782812e-01,0.000000000000000000e+00
8.860000000000000000e+02,6.533869636952685349e-03,0.000000000000000000e+00
8.870000000000000000e+02,-3.389881481121490014e-01,0.000000000000000000e+00
8.880000000000000000e+02,-3.194197943180857036e-02,0.000000000000000000e+00
8.890000000000000000e+02,-3.650415919074946336e-01,0.000000000000000000e+00
8.900000000000000000e+02,2.749067146732544487e-01,0.000000000000000000e+00
8.910000000000000000e+02,7.112779527952194092e-02,0.000000000000000000e+00
8.920000000000000000e+02,3.778714816700072809e-01,0.000000000000000000e+00
8.930000000000000000e+02,1.920644101414532845e-01,0.000000000000000000e+00
8.940000000000000000e+02,3.743385749608301727e-01,0.000000000000000000e+00
8.950000000000000000e+02,-1.871968791234956270e-02,0.000000000000000000e+00
8.960000000000000000e+02,-9.814831181375925639e-02,0.000000000000000000e+00
8.970000000000000000e+02,-2.639826052571864201e-01,0.000000000000000000e+00
8.980000000000000000e+02,-1.403465937486510218e-01,0.000000000000000000e+00
8.990000000000000000e+02,-4.695644730079283624e-01,0.000000000000000000e+00
9.000000000000000000e+02,-9.867672691382277372e-02,0.000000000000000000e+00
9.010000000000000000e+02,-2.521055055256863908e-01,0.000000000000000000e+00
9.020000000000000000e+02,-2.891410597283323725e-01,0.000000000000000000e+00
9.030000000000000000e+02,-3.035934446162419365e-01,0.000000000000000000e+00
9.040000000000000000e+02,-9.988285296202024932e-02,0.000000000000000000e+00
9.050000000000000000e+02,-1.792642583675770063e-01,0.000000000000000000e+00
9.060000000000000000e+02,-5.304917873680438378e-02,0.000000000000000000e+00
9.070000000000000000e+02,-1.719817892612881538e-01,0.000000000000000000e+00
9.080000000000000000e+02,3.348392322026005896e-01,0.000000000000000000e+00
9.090000000000000000e+02,-2.513129604194428435e-01,0.000000000000000000e+00
9.100000000000000000e+02,1.645834200839668970e-01,0.000000000000000000e+00
9.110000000000000000e+02,2.506481214346077679e-02,0.000000000000000000e+00
9.120000000000000000e+02,2.366305604524684969e-01,0.000000000000000000e+00
9.130000000000000000e+02,-1.553747682505121630e-01,0.000000000000000000e+00
9.140000000000000000e+02,1.005301285171879833e-01,0.000000000000000000e+00
9.150000000000000000e+02,-1.120465998011700576e-01,0.000000000000000000e+00
9.160000000000000000e+02,1.658854724958290505e-01,0.000000000000000000e+00
9.170000000000000000e+02,-1.585742411178317768e-01,0.000000000000000000e+00
9.180000000000000000e+02,2.767718640613507919e-01,0.000000000000000000e+00
9.190000000000000000e+02,1.068111936753301655e-01,0.000000000000000000e+00
9.200000000000000000e+02,3.710965086016982384e-01,0.000000000000000000e+00
9.210000000000000000e+02,1.344969462770892743e-01,0.000000000000000000e+00
9.220000000000000000e+02,7.097552548596965938e-01,0.000000000000000000e+00
9.230000000000000000e+02,3.393385800650953743e-01,0.000000000000000000e+00
9.240000000000000000e+02,3.154136833618927382e-01,0.000000000000000000e+00
9.250000000000000000e+02,-5.624344730471891873e-01,0.000000000000000000e+00
9.260000000000000000e+02,5.013219847941502438e-02,0.000000000000000000e+00
9.270000000000000000e+02,-8.468386649591637116e-01,0.000000000000000000e+00
9.280000000000000000e+02,3.907866412808068679e-01,0.000000000000000000e+00
9.290000000000000000e+02,-5.895300932181930520e-01,0.000000000000000000e+00
9.300000000000000000e+02,5.881618337161811816e+00,0.000000000000000000e+00
9.310000000000000000e+02,8.358958117446959601e-01,1.000000000000000000e+00
9.320000000000000000e+02,-2.936007214191662662e+00,0.000000000000000000e+00
9.330000000000000000e+02,-5.773073734613345387e-01,0.000000000000000000e+00
9.340000000000000000e+02,-1.527723115589616709e+00,0.000000000000000000e+00
9.350000000000000000e+02,-3.316147416957425098e-01,0.000000000000000000e+00
9.360000000000000000e+02,-1.003718646616602594e+00,0.000000000000000000e+00
9.370000000000000000e+02,-3.270127133820693310e-01,0.000000000000000000e+00
9.380000000000000000e+02,-7.473576130228712922e-01,0.000000000000000000e+00
9.390000000000000000e+02,-1.349738049950933647e-02,0.000000000000000000e+00
9.400000000000000000e+02,-4.726998212214724715e-01,0.000000000000000000e+00
9.410000000000000000e+02,-1.660602022260433963e-01,0.000000000000000000e+00
9.420000000000000000e+02,-1.558080086122692054e-01,0.000000000000000000e+00
9.430000000000000000e+02,1.962860289971015693e-01,0.000000000000000000e+00
9.440000000000000000e+02,6.313077180849958892e-02,0.000000000000000000e+00
9.450000000000000000e+02,3.781381727555656602e-01,0.000000000000000000e+00
9.460000000000000000e+02,7.922571675590323048e-02,0.000000000000000000e+00
9.470000000000000000e+02,2.387692906208398469e-01,0.000000000000000000e+00
9.480000000000000000e+02,1.698264122928339892e-01,0.000000000000000000e+00
9.490000000000000000e+02,1.078142856904180102e-01,0.000000000000000000e+00
9.500000000000000000e+02,-2.345181713004417245e-01,0.000000000000000000e+00
9.510000000000000000e+02,-1.246995751616889886e-01,0.000000000000000000e+00
9.520000000000000000e+02,-2.651618880457527472e-01,0.000000000000000000e+00
9.530000000000000000e+02,3.146266856450957022e-02,0.000000000000000000e+00
9.540000000000000000e+02,-4.640665465710724219e-02,0.000000000000000000e+00
9.550000000000000000e+02,-1.704152743678145621e-01,0.000000000000000000e+00
9.560000000000000000e+02,-1.823222712706623894e-01,0.000000000000000000e+00
9.570000000000000000e+02,6.231220358834667697e-03,0.000000000000000000e+00
9.580000000000000000e+02,1.094691691496796626e-01,0.000000000000000000e+00
9.590000000000000000e+02,1.339119435578063899e-01,0.000000000000000000e+00
9.600000000000000000e+02,-4.493698519447833495e-02,0.000000000000000000e+00
9.610000000000000000e+02,3.389370627151667148e-01,0.000000000000000000e+00
9.620000000000000000e+02,1.875922093967188897e-01,0.000000000000000000e+00
9.630000000000000000e+02,2.784797361371045277e-01,0.000000000000000000e+00
9.640000000000000000e+02,1.003656352894812531e-01,0.000000000000000000e+00
9.650000000000000000e+02,1.758711108918634136e-01,0.000000000000000000e+00
9.660000000000000000e+02,1.660588301510469988e-01,0.000000000000000000e+00
9.670000000000000000e+02,1.503497386204324937e-01,0.000000000000000000e+00
9.680000000000000000e+02,2.437921572729319086e-01,0.000000000000000000e+00
9.690000000000000000e+02,8.435618766648801670e-02,0.000000000000000000e+00
9.700000000000000000e+02,6.865929065465496695e-02,0.000000000000000000e+00
9.710000000000000000e+02,2.084601035548500417e-02,0.000000000000000000e+00
9.720000000000000000e+02,2.732251001594845213e-02,0.000000000000000000e+00
9.730000000000000000e+02,4.003840680946870179e-01,0.000000000000000000e+00
9.740000000000000000e+02,2.634920929319068961e-01,0.000000000000000000e+00
9.750000000000000000e+02,5.417126181727152101e-01,0.000000000000000000e+00
9.760000000000000000e+02,4.778518846195979330e-01,0.000000000000000000e+00
9.770000000000000000e+02,3.829548883247997915e-01,0.000000000000000000e+00
9.780000000000000000e+02,-3.892183191053343316e-01,0.000000000000000000e+00
9.790000000000000000e+02,-2.692529761054859305e-01,0.000000000000000000e+00
9.800000000000000000e+02,-5.014589483148124138e-01,0.000000000000000000e+00
9.810000000000000000e+02,-9.299065142165924280e-02,0.000000000000000000e+00
9.820000000000000000e+02,-5.451457166886587435e-01,0.000000000000000000e+00
9.830000000000000000e+02,2.055266765682433938e+00,0.000000000000000000e+00
9.840000000000000000e+02,5.662862725568971634e+00,0.000000000000000000e+00
9.850000000000000000e+02,-2.896482202687262308e+00,1.000000000000000000e+00
9.860000000000000000e+02,-1.353697437342945786e+00,0.000000000000000000e+00
9.870000000000000000e+02,-1.168695907585522331e+00,0.000000000000000000e+00
9.880000000000000000e+02,-6.632164061826285595e-01,0.000000000000000000e+00
9.890000000000000000e+02,-8.252150597869419846e-01,0.000000000000000000e+00
9.900000000000000000e+02,-6.414817571216865355e-01,0.000000000000000000e+00
9.910000000000000000e+02,-5.317213097117713394e-01,0.000000000000000000e+00
9.920000000000000000e+02,-3.928213200746999978e-01,0.000000000000000000e+00
9.930000000000000000e+02,-5.532851403827552250e-01,0.000000000000000000e+00
9.940000000000000000e+02,-2.965061723769859547e-01,0.000000000000000000e+00
9.950000000000000000e+02,-1.064066748861652867e-01,0.000000000000000000e+00
9.960000000000000000e+02,-3.570804100835658912e-02,0.000000000000000000e+00
9.970000000000000000e+02,-1.235751200266303057e-02,0.000000000000000000e+00
9.980000000000000000e+02,1.248847807107327373e-01,0.000000000000000000e+00
9.990000000000000000e+02,2.375161211049668097e-01,0.000000000000000000e+00
1.000000000000000000e+03,2.907668216576412834e-01,0.000000000000000000e+00
1.001000000000000000e+03,2.389514723732403811e-01,0.000000000000000000e+00
1.002000000000000000e+03,-3.106156422861847816e-02,0.000000000000000000e+00
1.003000000000000000e+03,-3.102237392011596845e-02,0.000000000000000000e+00
1.004000000000000000e+03,-3.651332158484029144e-01,0.000000000000000000e+00
1.005000000000000000e+03,-1.689069113483163964e-01,0.000000000000000000e+00
1.006000000000000000e+03,-2.581910889171850632e-01,0.000000000000000000e+00
1.007000000000000000e+03,-1.916323094024409701e-01,0.000000000000000000e+00
1.008000000000000000e+03,-1.193547285463127522e-01,0.000000000000000000e+00
1.009000000000000000e+03,-1.464571901471375670e-01,0.000000000000000000e+00
1.010000000000000000e+03,-1.226108150249206191e-01,0.000000000000000000e+00
1.011000000000000000e+03,-2.571587522915359109e-02,0.000000000000000000e+00
1.012000000000000000e+03,-9.636183864751513006e-02,0.000000000000000000e+00
1.013000000000000000e+03,1.125549738497026858e-01,0.000000000000000000e+00
1.014000000000000000e+03,6.539417497244408295e-02,0.000000000000000000e+00
1.015000000000000000e+03,5.405830583125573879e-02,0.000000000000000000e+00
1.016000000000000000e+03,6.494675727147487809e-02,0.000000000000000000e+00
1.017000000000000000e+03,1.118689208396144580e-02,0.000000000000000000e+00
1.018000000000000000e+03,1.024237672338720317e-01,0.000000000000000000e+00
1.019000000000000000e+03,4.064531478483357496e-02,0.000000000000000000e+00
1.020000000000000000e+03,5.835507110156912258e-02,0.000000000000000000e+00
1.021000000000000000e+03,1.329857579356789020e-02,0.000000000000000000e+00
1.022000000000000000e+03,-3.413324954787057275e-02,0.000000000000000000e+00
1.023000000000000000e+03,8.089399110765876921e-02,0.000000000000000000e+00
1.024000000000000000e+03,1.640718334119295810e-02,0.000000000000000000e+00
1.025000000000000000e+03,3.799486940745894770e-01,0.000000000000000000e+00
1.026000000000000000e+03,3.046641516093778757e-01,0.000000000000000000e+00
1.027000000000000000e+03,5.993468242546635683e-01,0.000000000000000000e+00
1.028000000000000000e+03,4.583844413471881429e-01,0.000000000000000000e+00
1.029000000000000000e+03,8.187857057939156025e-02,0.000000000000000000e+00
1.030000000000000000e+03,-3.462272615771089246e-01,0.000000000000000000e+00
1.031000000000000000e+03,1.373388562053690642e-01,0.000000000000000000e+00
1.032000000000000000e+03,-7.279209254246846728e-01,0.000000000000000000e+00
1.033000000000000000e+03,2.428493798889085065e-01,0.000000000000000000e+00
1.034000000000000000e+03,-5.939800803462246259e-01,0.000000000000000000e+00
1.035000000000000000e+03,3.217226126024597121e+00,0.000000000000000000e+00
1.036000000000000000e+03,4.289503088888341864e+00,0.000000000000000000e+00
1.037000000000000000e+03,-3.972087123008944509e+00,1.000000000000000000e+00
1.038000000000000000e+03,-6.454732680181050064e-01,0.000000000000000000e+00
1.039000000000000000e+03,-9.999781169747593568e-01,0.000000000000000000e+00
1.040000000000000000e+03,-4.300019436921433957e-01,0.000000000000000000e+00
1.041000000000000000e+03,-8.042449572857632845e-01,0.000000000000000000e+00
1.042000000000000000e+03,-3.399119837954930889e-01,0.000000000000000000e+00
1.043000000000000000e+03,-6.716790122457864110e-01,0.000000000000000000e+00
1.044000000000000000e+03,1.085799346146982952e-01,0.000000000000000000e+00
1.045000000000000000e+03,-3.360029506963638224e-01,0.000000000000000000e+00
1.046000000000000000e+03,-2.792165728033060151e-03,0.000000000000000000e+00
1.047000000000000000e+03,-2.119160290500950450e-01,0.000000000000000000e+00
1.048000000000000000e+03,1.375056819723744495e-01,0.000000000000000000e+00
1.049000000000000000e+03,-6.649590020518632294e-02,0.000000000000000000e+00
1.050000000000000000e+03,3.527535637704911631e-01,0.000000000000000000e+00
1.051000000000000000e+03,2.624002932619406425e-01,0.000000000000000000e+00
1.052000000000000000e+03,3.567875074227068177e-01,0.000000000000000000e+00
1.053000000000000000e+03,7.536159389002305975e-02,0.000000000000000000e+00
1.054000000000000000e+03,-1.937512274527674327e-01,0.000000000000000000e+00
1.055000000000000000e+03,-3.072157298565255656e-01,0.000000000000000000e+00
1.056000000000000000e+03,-1.751167531992819659e-01,0.000000000000000000e+00
1.057000000000000000e+03,-3.363414481064197492e-01,0.000000000000000000e+00
1.058000000000000000e+03,-1.535252866783264336e-01,0.000000000000000000e+00
1.059000000000000000e+03,-2.241304301953454259e-01,0.000000000000000000e+00
1.060000000000000000e+03,-1.408675466295432055e-01,0.000000000000000000e+00
1.061000000000000000e+03,-1.089836013858721669e-01,0.000000000000000000e+00
1.062000000000000000e+03,1.115163862451710175e-01,0.000000000000000000e+00
1.063000000000000000e+03,-9.754489627930958140e-02,0.000000000000000000e+00
1.064000000000000000e+03,1.120628260411105082e-01,0.000000000000000000e+00
1.065000000000000000e+03,-4.507834361776248688e-02,0.000000000000000000e+00
1.066000000000000000e+03,1.053411619754680978e-01,0.000000000000000000e+00
1.067000000000000000e+03,-9.332110295390577681e-02,0.000000000000000000e+00
1.068000000000000000e+03,9.718052977038181550e-02,0.000000000000000000e+00
1.069000000000000000e+03,1.654286621122081080e-01,0.000000000000000000e+00
1.070000000000000000e+03,2.115124740099045553e-01,0.000000000000000000e+00
1.071000000000000000e+03,-3.784156598116204806e-02,0.000000000000000000e+00
1.072000000000000000e+03,1.536722562460194896e-01,0.000000000000000000e+00
1.073000000000000000e+03,-3.111932750680410087e-02,0.000000000000000000e+00
1.074000000000000000e+03,2.828792244833862601e-01,0.000000000000000000e+00
1.075000000000000000e+03,9.192373729560202045e-02,0.000000000000000000e+00
1.076000000000000000e+03,4.714734407392718873e-01,0.000000000000000000e+00
1.077000000000000000e+03,2.764950845106277089e-01,0.000000000000000000e+00
1.078000000000000000e+03,8.276750005865870508e-01,0.000000000000000000e+00
1.079000000000000000e+03,3.794983547110326039e-01,0.000000000000000000e+00
1.080000000000000000e+03,5.548522208846858872e-01,0.000000000000000000e+00
1.081000000000000000e+03,-4.766717976341407481e-01,0.000000000000000000e+00
1.082000000000000000e+03,8.729616310542162236e-03,0.000000000000000000e+00
1.083000000000000000e+03,-5.842278108917671187e-01,0.000000000000000000e+00
1.084000000000000000e+03,5.826629353237204878e-01,0.000000000000000000e+00
1.085000000000000000e+03,-7.920858470939151630e-01,0.000000000000000000e+00
1.086000000000000000e+03,4.888092782470621955e+00,0.000000000000000000e+00
1.087000000000000000e+03,2.467873870017373683e+00,1.000000000000000000e+00
1.088000000000000000e+03,-3.673083932185009282e+00,0.000000000000000000e+00
1.089000000000000000e+03,-3.609317882685568746e-01,0.000000000000000000e+00
1.090000000000000000e+03,-1.310329293665585482e+00,0.000000000000000000e+00
1.091000000000000000e+03,-3.298049908200614139e-02,0.000000000000000000e+00
1.092000000000000000e+03,-9.593320326530399011e-01,0.000000000000000000e+00
1.093000000000000000e+03,-7.666857033539853372e-02,0.000000000000000000e+00
1.094000000000000000e+03,-5.961539118917480451e-01,0.000000000000000000e+00
1.095000000000000000e+03,-2.234737830008101667e-02,0.000000000000000000e+00
1.096000000000000000e+03,-5.392655179336571791e-01,0.000000000000000000e+00
1.097000000000000000e+03,7.972828646676101416e-02,0.000000000000000000e+00
1.098000000000000000e+03,-3.711703043808000646e-01,0.000000000000000000e+00
1.099000000000000000e+03,1.367887033109287109e-01,0.000000000000000000e+00
1.100000000000000000e+03,6.216432686830226928e-02,0.000000000000000000e+00
1.101000000000000000e+03,3.182359726669946598e-01,0.000000000000000000e+00
1.102000000000000000e+03,2.411114135874717693e-02,0.000000000000000000e+00
1.103000000000000000e+03,4.441456961240883849e-01,0.000000000000000000e+00
1.104000000000000000e+03,-2.498825209792505941e-01,0.000000000000000000e+00
1.105000000000000000e+03,-7.822392322389086494e-02,0.000000000000000000e+00
1.106000000000000000e+03,-2.530077662838602914e-01,0.000000000000000000e+00
1.107000000000000000e+03,-3.734434038350659124e-01,0.000000000000000000e+00
1.108000000000000000e+03,-4.389981875863569472e-01,0.000000000000000000e+00
1.109000000000000000e+03,-3.754473179330368171e-01,0.000000000000000000e+00
1.110000000000000000e+03,-3.546897290201592723e-01,0.000000000000000000e+00
1.111000000000000000e+03,-1.692307144301962718e-01,0.000000000000000000e+00
1.112000000000000000e+03,-3.217317364334966179e-01,0.000000000000000000e+00
1.113000000000000000e+03,-4.484764128006846207e-02,0.000000000000000000e+00
1.114000000000000000e+03,-2.011075939467381335e-01,0.000000000000000000e+00
1.115000000000000000e+03,1.084103855606312755e-01,0.000000000000000000e+00
1.116000000000000000e+03,-1.161848093748036326e-01,0.000000000000000000e+00
1.117000000000000000e+03,6.668626488129388019e-02,0.000000000000000000e+00
1.118000000000000000e+03,4.654706429873248230e-02,0.000000000000000000e+00
1.119000000000000000e+03,1.170128107561214242e-01,0.000000000000000000e+00
1.120000000000000000e+03,4.747127814613091162e-02,0.000000000000000000e+00
1.121000000000000000e+03,1.950841509641040306e-01,0.000000000000000000e+00
1.122000000000000000e+03,-1.159168573061784557e-01,0.000000000000000000e+00
1.123000000000000000e+03,1.170808028844639859e-01,0.000000000000000000e+00
1.124000000000000000e+03,-7.910642612682647346e-02,0.000000000000000000e+00
1.125000000000000000e+03,6.712851413634265962e-02,0.000000000000000000e+00
1.126000000000000000e+03,-9.285288204103216148e-02,0.000000000000000000e+00
1.127000000000000000e+03,1.233995567583761332e-01,0.000000000000000000e+00
1.128000000000000000e+03,1.113540414748015461e-01,0.000000000000000000e+00
1.129000000000000000e+03,3.124136387902248790e-01,0.000000000000000000e+00
1.130000000000000000e+03,2.764718844606713910e-01,0.000000000000000000e+00
1.131000000000000000e+03,5.864525889161104066e-01,0.000000000000000000e+00
1.132000000000000000e+03,4.920785704916316727e-01,0.000000000000000000e+00
1.133000000000000000e+03,6.630201067825841621e-02,0.000000000000000000e+00
1.134000000000000000e+03,-4.566013892176639111e-01,0.000000000000000000e+00
1.135000000000000000e+03,-2.477454143297360203e-02,0.000000000000000000e+00
1.136000000000000000e+03,-4.926544144745779175e-01,0.000000000000000000e+00
1.137000000000000000e+03,1.376463940568457278e-01,0.000000000000000000e+00
1.138000000000000000e+03,1.640031848600346509e-01,0.000000000000000000e+00
1.139000000000000000e+03,6.282881372720465762e+00,0.000000000000000000e+00
1.140000000000000000e+03,-4.165912679819472886e-01,1.000000000000000000e+00
1.141000000000000000e+03,-2.182713195155450148e+00,0.000000000000000000e+00
1.142000000000000000e+03,-4.933703767049015809e-01,0.000000000000000000e+00
1.143000000000000000e+03,-1.060578786813908936e+00,0.000000000000000000e+00
1.144000000000000000e+03,-4.272120975142267296e-01,0.000000000000000000e+00
1.145000000000000000e+03,-6.099802551044296584e-01,0.000000000000000000e+00
1.146000000000000000e+03,-1.857835190319345187e-01,0.000000000000000000e+00
1.147000000000000000e+03,-5.481952746434166635e-01,0.000000000000000000e+00
1.148000000000000000e+03,-1.395674474163310641e-01,0.000000000000000000e+00
1.149000000000000000e+03,-2.766589338335685433e-01,0.000000000000000000e+00
1.150000000000000000e+03,3.941363128804776378e-02,0.000000000000000000e+00
1.151000000000000000e+03,2.845549049061426097e-02,0.000000000000000000e+00
1.152000000000000000e+03,2.455124490874166232e-01,0.000000000000000000e+00
1.153000000000000000e+03,3.679190629622580005e-02,0.000000000000000000e+00
1.154000000000000000e+03,4.073276425517242672e-01,0.000000000000000000e+00
1.155000000000000000e+03,2.826460712516491447e-01,0.000000000000000000e+00
1.156000000000000000e+03,2.839914130500726941e-01,0.000000000000000000e+00
1.157000000000000000e+03,1.584830774070329906e-01,0.000000000000000000e+00
1.158000000000000000e+03,-3.533854861718303125e-02,0.000000000000000000e+00
1.159000000000000000e+03,-2.216712432883046480e-01,0.000000000000000000e+00
1.160000000000000000e+03,-1.964794188409856035e-01,0.000000000000000000e+00
1.161000000000000000e+03,-1.815172463792600055e-01,0.000000000000000000e+00
1.162000000000000000e+03,-5.228572547859167835e-02,0.000000000000000000e+00
1.163000000000000000e+03,-3.640159655079399093e-01,0.000000000000000000e+00
1.164000000000000000e+03,-1.663623382566371267e-01,0.000000000000000000e+00
1.165000000000000000e+03,-4.362308702422062340e-02,0.000000000000000000e+00
1.166000000000000000e+03,-6.011966989144362783e-02,0.000000000000000000e+00
1.167000000000000000e+03,-1.917644364888788366e-01,0.000000000000000000e+00
1.168000000000000000e+03,-4.991841894076783082e-02,0.000000000000000000e+00
1.169000000000000000e+03,-2.591617771961896369e-02,0.000000000000000000e+00
1.170000000000000000e+03,5.497881964845747170e-03,0.000000000000000000e+00
1.171000000000000000e+03,-5.788535258445275111e-02,0.000000000000000000e+00
1.172000000000000000e+03,-2.254699371810149969e-02,0.000000000000000000e+00
1.173000000000000000e+03,-1.838207431066620490e-01,0.000000000000000000e+00
1.174000000000000000e+03,2.243499051367818867e-02,0.000000000000000000e+00
1.175000000000000000e+03,3.700070750011064113e-02,0.000000000000000000e+00
1.176000000000000000e+03,3.324763833513132150e-02,0.000000000000000000e+00
1.177000000000000000e+03,-1.231494406783919665e-01,0.000000000000000000e+00
1.178000000000000000e+03,1.249784790755555652e-01,0.000000000000000000e+00
1.179000000000000000e+03,-9.894501138933460560e-02,0.000000000000000000e+00
1.180000000000000000e+03,3.085188658985296446e-03,0.000000000000000000e+00
1.181000000000000000e+03,4.968745253115858934e-02,0.000000000000000000e+00
1.182000000000000000e+03,1.322087945041468815e-01,0.000000000000000000e+00
1.183000000000000000e+03,2.651215698497574880e-01,0.000000000000000000e+00
1.184000000000000000e+03,5.472104270178230756e-01,0.000000000000000000e+00
1.185000000000000000e+03,5.420697899464922420e-01,0.000000000000000000e+00
1.186000000000000000e+03,2.824049388209906586e-01,0.000000000000000000e+00
1.187000000000000000e+03,-3.800333278283204996e-01,0.000000000000000000e+00
1.188000000000000000e+03,-2.847096930984212015e-01,0.000000000000000000e+00
1.189000000000000000e+03,-4.731554694537292161e-01,0.000000000000000000e+00
1.190000000000000000e+03,1.477329592936263251e-02,0.000000000000000000e+00
1.191000000000000000e+03,-3.850185214691829727e-01,0.000000000000000000e+00
1.192000000000000000e+03,1.888870218454081762e+00,0.000000000000000000e+00
1.193000000000000000e+03,5.928735006794963347e+00,0.000000000000000000e+00
1.194000000000000000e+03,-2.590286761239071200e+00,1.000000000000000000e+00
1.195000000000000000e+03,-1.130873193913268127e+00,0.000000000000000000e+00
1.196000000000000000e+03,-1.107775789670642386e+00,0.000000000000000000e+00
1.197000000000000000e+03,-7.671722614622510372e-01,0.000000000000000000e+00
1.198000000000000000e+03,-6.337128839667005575e-01,0.000000000000000000e+00
1.199000000000000000e+03,-5.710420862986014257e-01,0.000000000000000000e+00
1.200000000000000000e+03,-4.012262356356943171e-01,0.000000000000000000e+00
1.201000000000000000e+03,-4.310356622204277177e-01,0.000000000000000000e+00
1.202000000000000000e+03,-2.973110396037197956e-01,0.000000000000000000e+00
1.203000000000000000e+03,-3.589637687643536523e-01,0.000000000000000000e+00
1.204000000000000000e+03,-2.561222254758918626e-01,0.000000000000000000e+00
1.205000000000000000e+03,2.728035895090614657e-03,0.000000000000000000e+00
1.206000000000000000e+03,-5.764043714144892472e-03,0.000000000000000000e+00
1.207000000000000000e+03,4.140799665707399768e-01,0.000000000000000000e+00
1.208000000000000000e+03,1.874904251345199113e-01,0.000000000000000000e+00
1.209000000000000000e+03,4.440224186157088471e-01,0.000000000000000000e+00
1.210000000000000000e+03,2.923049528055376989e-02,0.000000000000000000e+00
1.211000000000000000e+03,-6.728308638077312893e-03,0.000000000000000000e+00
1.212000000000000000e+03,-3.249214775285261259e-01,0.000000000000000000e+00
1.213000000000000000e+03,-1.171324465061542169e-01,0.000000000000000000e+00
1.214000000000000000e+03,-2.684545727403173654e-01,0.000000000000000000e+00
1.215000000000000000e+03,-3.177863903059082729e-01,0.000000000000000000e+00
1.216000000000000000e+03,-2.182698988638646642e-01,0.000000000000000000e+00
1.217000000000000000e+03,-2.663894692052059532e-01,0.000000000000000000e+00
1.218000000000000000e+03,-3.819227885878120343e-01,0.000000000000000000e+00
1.219000000000000000e+03,8.627883046281471791e-02,0.000000000000000000e+00
1.220000000000000000e+03,-1.943681013137764646e-01,0.000000000000000000e+00
1.221000000000000000e+03,8.068295033172478981e-02,0.000000000000000000e+00
1.222000000000000000e+03,-1.102933561409229629e-01,0.000000000000000000e+00
1.223000000000000000e+03,6.798706602787063513e-02,0.000000000000000000e+00
1.224000000000000000e+03,-3.643752456755762481e-02,0.000000000000000000e+00
1.225000000000000000e+03,5.252715418729654584e-02,0.000000000000000000e+00
1.226000000000000000e+03,-1.484224004100643535e-01,0.000000000000000000e+00
1.227000000000000000e+03,1.953382460199123982e-01,0.000000000000000000e+00
1.228000000000000000e+03,-7.461248148081985054e-02,0.000000000000000000e+00
1.229000000000000000e+03,1.613355718264380123e-01,0.000000000000000000e+00
1.230000000000000000e+03,-1.565081078205000364e-01,0.000000000000000000e+00
1.231000000000000000e+03,1.190055947581061396e-01,0.000000000000000000e+00
1.232000000000000000e+03,-4.372288031923981903e-03,0.000000000000000000e+00
1.233000000000000000e+03,1.995086568177540098e-01,0.000000000000000000e+00
1.234000000000000000e+03,3.721588815645177333e-03,0.000000000000000000e+00
1.235000000000000000e+03,4.003546863056662852e-01,0.000000000000000000e+00
1.236000000000000000e+03,2.746485816755718234e-01,0.000000000000000000e+00
1.237000000000000000e+03,8.500114220220044148e-01,0.000000000000000000e+00
1.238000000000000000e+03,3.004518800739137685e-01,0.000000000000000000e+00
1.239000000000000000e+03,3.165833881991980125e-01,0.000000000000000000e+00
1.240000000000000000e+03,-5.119858748409292781e-01,0.000000000000000000e+00
1.241000000000000000e+03,1.187532763974620265e-01,0.000000000000000000e+00
1.242000000000000000e+03,-6.962009036630470993e-01,0.000000000000000000e+00
1.243000000000000000e+03,4.691357835969656720e-01,0.000000000000000000e+00
1.244000000000000000e+03,-4.580550726203047041e-01,0.000000000000000000e+00
1.245000000000000000e+03,6.039255545834550709e+00,0.000000000000000000e+00
1.246000000000000000e+03,3.729006207206133072e-01,1.000000000000000000e+00
1.247000000000000000e+03,-3.038604687236068802e+00,0.000000000000000000e+00
1.248000000000000000e+03,-3.217295966971424614e-01,0.000000000000000000e+00
1.249000000000000000e+03,-1.250280604610843671e+00,0.000000000000000000e+00
1.250000000000000000e+03,-1.969432997450589196e-01,0.000000000000000000e+00
1.251000000000000000e+03,-7.886787127771199835e-01,0.000000000000000000e+00
1.252000000000000000e+03,-5.557727542362131401e-02,0.000000000000000000e+00
1.253000000000000000e+03,-5.561712527940545492e-01,0.000000000000000000e+00
1.254000000000000000e+03,-8.561260817259802591e-02,0.000000000000000000e+00
1.255000000000000000e+03,-3.562891275971470373e-01,0.000000000000000000e+00
1.256000000000000000e+03,2.174761509569843668e-03,0.000000000000000000e+00
1.257000000000000000e+03,-1.115874539913065677e-01,0.000000000000000000e+00
1.258000000000000000e+03,-5.467518811848859350e-02,0.000000000000000000e+00
1.259000000000000000e+03,1.675931712945203933e-01,0.000000000000000000e+00
1.260000000000000000e+03,3.747623119876922204e-01,0.000000000000000000e+00
1.261000000000000000e+03,2.242078075227673384e-01,0.000000000000000000e+00
1.262000000000000000e+03,2.570519560652819724e-01,0.000000000000000000e+00
1.263000000000000000e+03,-2.086174999189798207e-01,0.000000000000000000e+00
1.264000000000000000e+03,-5.869146784364043246e-02,0.000000000000000000e+00
1.265000000000000000e+03,-2.676958820775627856e-01,0.000000000000000000e+00
1.266000000000000000e+03,-2.284604404770917696e-01,0.000000000000000000e+00
1.267000000000000000e+03,-2.702087959900509873e-01,0.000000000000000000e+00
1.268000000000000000e+03,-1.077663139928787955e-01,0.000000000000000000e+00
1.269000000000000000e+03,-2.400193595755817089e-01,0.000000000000000000e+00
1.270000000000000000e+03,-2.024988054924570791e-01,0.000000000000000000e+00
1.271000000000000000e+03,-2.144315886333451882e-01,0.000000000000000000e+00
1.272000000000000000e+03,2.036271123600532501e-02,0.000000000000000000e+00
1.273000000000000000e+03,-2.066373116139503807e-01,0.000000000000000000e+00
1.274000000000000000e+03,2.143889068580733248e-01,0.000000000000000000e+00
1.275000000000000000e+03,-7.160849904607573257e-02,0.000000000000000000e+00
1.276000000000000000e+03,6.374863840127401038e-02,0.000000000000000000e+00
1.277000000000000000e+03,-2.464939762899379799e-02,0.000000000000000000e+00
1.278000000000000000e+03,-1.832340520281046034e-02,0.000000000000000000e+00
1.279000000000000000e+03,-2.248220326817761128e-02,0.000000000000000000e+00
1.280000000000000000e+03,1.408869005255463935e-01,0.000000000000000000e+00
1.281000000000000000e+03,7.558660552243427755e-02,0.000000000000000000e+00
1.282000000000000000e+03,2.073891003833003288e-01,0.000000000000000000e+00
1.283000000000000000e+03,-7.941661414761880255e-02,0.000000000000000000e+00
1.284000000000000000e+03,1.812442826415598951e-01,0.000000000000000000e+00
1.285000000000000000e+03,1.909722701304783776e-01,0.000000000000000000e+00
1.286000000000000000e+03,3.448706423716572655e-01,0.000000000000000000e+00
1.287000000000000000e+03,5.510259723537024312e-01,0.000000000000000000e+00
1.288000000000000000e+03,4.428270404183011766e-01,0.000000000000000000e+00
1.289000000000000000e+03,5.804591819748207149e-01,0.000000000000000000e+00
1.290000000000000000e+03,-1.853986215023842865e-01,0.000000000000000000e+00
1.291000000000000000e+03,-1.127120297110419805e-02,0.000000000000000000e+00
1.292000000000000000e+03,-4.289495685551562576e-01,0.000000000000000000e+00
1.293000000000000000e+03,1.610553706046649602e-02,0.000000000000000000e+00
1.294000000000000000e+03,-2.576828583900699354e-01,0.000000000000000000e+00
1.295000000000000000e+03,1.588969281154068103e+00,0.000000000000000000e+00
1.296000000000000000e+03,5.862790734196324571e+00,0.000000000000000000e+00
1.297000000000000000e+03,-2.803069863613115054e+00,1.000000000000000000e+00
1.298000000000000000e+03,-1.387279003967960334e+00,0.000000000000000000e+00
1.299000000000000000e+03,-7.862396480756501660e-01,0.000000000000000000e+00
1.300000000000000000e+03,-6.394244829208344250e-01,0.000000000000000000e+00
1.301000000000000000e+03,-5.411014788285312127e-01,0.000000000000000000e+00
1.302000000000000000e+03,-3.465666657320106703e-01,0.000000000000000000e+00
1.303000000000000000e+03,-2.020704427205445297e-01,0.000000000000000000e+00
1.304000000000000000e+03,-3.806344604207065330e-01,0.000000000000000000e+00
1.305000000000000000e+03,-7.714658253929225495e-02,0.000000000000000000e+00
1.306000000000000000e+03,-3.087430768841413209e-01,0.000000000000000000e+00
1.307000000000000000e+03,-3.762421612859055686e-02,0.000000000000000000e+00
1.308000000000000000e+03,1.465097255666307496e-02,0.000000000000000000e+00
1.309000000000000000e+03,2.547462275599453596e-01,0.000000000000000000e+00
1.310000000000000000e+03,1.913521037376248735e-01,0.000000000000000000e+00
1.311000000000000000e+03,2.442249590207267451e-01,0.000000000000000000e+00
1.312000000000000000e+03,3.006609059251914018e-01,0.000000000000000000e+00
1.313000000000000000e+03,5.194323107838736547e-02,0.000000000000000000e+00
1.314000000000000000e+03,-1.507498294653062121e-01,0.000000000000000000e+00
1.315000000000000000e+03,-2.189530393199982661e-01,0.000000000000000000e+00
1.316000000000000000e+03,-4.339085921460223427e-01,0.000000000000000000e+00
1.317000000000000000e+03,-2.753936711973937745e-01,0.000000000000000000e+00
1.318000000000000000e+03,-2.600056334870524677e-01,0.000000000000000000e+00
1.319000000000000000e+03,-3.000600243213363827e-01,0.000000000000000000e+00
1.320000000000000000e+03,-3.255332598254812582e-01,0.000000000000000000e+00
1.321000000000000000e+03,-2.969457910419213142e-01,0.000000000000000000e+00
1.322000000000000000e+03,-1.528746374690018728e-01,0.000000000000000000e+00
1.323000000000000000e+03,-5.513218144867935988e-02,0.000000000000000000e+00
1.324000000000000000e+03,-7.667085572639599500e-02,0.000000000000000000e+00
1.325000000000000000e+03,1.461408783543585548e-02,0.000000000000000000e+00
1.326000000000000000e+03,-1.714719773956217552e-01,0.000000000000000000e+00
1.327000000000000000e+03,1.057431173295088761e-01,0.000000000000000000e+00
1.328000000000000000e+03,9.027157826160957417e-04,0.000000000000000000e+00
1.329000000000000000e+03,1.376254186041955541e-01,0.000000000000000000e+00
1.330000000000000000e+03,1.208038679688081402e-01,0.000000000000000000e+00
1.331000000000000000e+03,3.142091391436031139e-02,0.000000000000000000e+00
1.332000000000000000e+03,-1.380016751181750712e-01,0.000000000000000000e+00
1.333000000000000000e+03,1.834105129250631350e-01,0.000000000000000000e+00
1.334000000000000000e+03,9.930693311127159612e-03,0.000000000000000000e+00
1.335000000000000000e+03,2.024628795544765325e-01,0.000000000000000000e+00
1.336000000000000000e+03,1.202099436173639513e-01,0.000000000000000000e+00
1.337000000000000000e+03,3.164915457074782834e-01,0.000000000000000000e+00
1.338000000000000000e+03,3.237935466183576305e-01,0.000000000000000000e+00
1.339000000000000000e+03,6.039996971066214915e-01,0.000000000000000000e+00
1.340000000000000000e+03,2.423156549242702351e-01,0.000000000000000000e+00
1.341000000000000000e+03,4.442968726004820068e-01,0.000000000000000000e+00
1.342000000000000000e+03,-4.967003670117912106e-01,0.000000000000000000e+00
1.343000000000000000e+03,-8.914442657978455253e-02,0.000000000000000000e+00
1.344000000000000000e+03,-5.101084803444926319e-01,0.000000000000000000e+00
1.345000000000000000e+03,2.205031978551363903e-01,0.000000000000000000e+00
1.346000000000000000e+03,-4.544339213044943371e-01,0.000000000000000000e+00
1.347000000000000000e+03,5.898068584357233135e+00,0.000000000000000000e+00
1.348000000000000000e+03,4.505274985804832433e-01,1.000000000000000000e+00
1.349000000000000000e+03,-2.802777104696078325e+00,0.000000000000000000e+00
1.350000000000000000e+03,-2.328553875526371553e-01,0.000000000000000000e+00
1.351000000000000000e+03,-1.314221889368086593e+00,0.000000000000000000e+00
1.352000000000000000e+03,-3.020670015933205055e-01,0.000000000000000000e+00
1.353000000000000000e+03,-7.834109932677758570e-01,0.000000000000000000e+00
1.354000000000000000e+03,-3.254696150007349020e-01,0.000000000000000000e+00
1.355000000000000000e+03,-4.655130815708314329e-01,0.000000000000000000e+00
1.356000000000000000e+03,-4.451236047538361523e-02,0.000000000000000000e+00
1.357000000000000000e+03,-5.042270614055694988e-01,0.000000000000000000e+00
1.358000000000000000e+03,7.574340671146888304e-02,0.000000000000000000e+00
1.359000000000000000e+03,-1.820377280574785317e-01,0.000000000000000000e+00
1.360000000000000000e+03,2.088047875083337279e-01,0.000000000000000000e+00
1.361000000000000000e+03,2.599465605766149712e-01,0.000000000000000000e+00
1.362000000000000000e+03,4.884558833740316186e-01,0.000000000000000000e+00
1.363000000000000000e+03,1.856019972444601096e-01,0.000000000000000000e+00
1.364000000000000000e+03,3.023045310831661281e-01,0.000000000000000000e+00
1.365000000000000000e+03,1.532704774416588922e-01,0.000000000000000000e+00
1.366000000000000000e+03,7.511914669729975735e-02,0.000000000000000000e+00
1.367000000000000000e+03,-2.876473619724150832e-01,0.000000000000000000e+00
1.368000000000000000e+03,-1.734681314135565477e-01,0.000000000000000000e+00
1.369000000000000000e+03,-1.965444632813695414e-01,0.000000000000000000e+00
1.370000000000000000e+03,-2.329387286179457617e-01,0.000000000000000000e+00
1.371000000000000000e+03,-3.420295045254783672e-01,0.000000000000000000e+00
1.372000000000000000e+03,-1.397456997401942680e-01,0.000000000000000000e+00
1.373000000000000000e+03,-1.662365275150738675e-01,0.000000000000000000e+00
1.374000000000000000e+03,-2.399873532735337101e-01,0.000000000000000000e+00
1.375000000000000000e+03,-2.320055984413564865e-01,0.000000000000000000e+00
1.376000000000000000e+03,7.955667011695997937e-03,0.000000000000000000e+00
1.377000000000000000e+03,-8.038911020260607054e-02,0.000000000000000000e+00
1.378000000000000000e+03,-7.776549670849368379e-02,0.000000000000000000e+00
1.379000000000000000e+03,7.047582876884357639e-02,0.000000000000000000e+00
1.380000000000000000e+03,-5.264509771831286239e-02,0.000000000000000000e+00
1.381000000000000000e+03,5.209383485444610967e-02,0.000000000000000000e+00
1.382000000000000000e+03,-2.969327773707064119e-02,0.000000000000000000e+00
1.383000000000000000e+03,5.231157282457863517e-02,0.000000000000000000e+00
1.384000000000000000e+03,-1.272617941578979006e-01,0.000000000000000000e+00
1.385000000000000000e+03,1.281291337500378713e-01,0.000000000000000000e+00
1.386000000000000000e+03,9.190967420593852688e-02,0.000000000000000000e+00
1.387000000000000000e+03,1.305388122183118171e-01,0.000000000000000000e+00
1.388000000000000000e+03,-2.646952077240966386e-02,0.000000000000000000e+00
1.389000000000000000e+03,3.002299920460188565e-01,0.000000000000000000e+00
1.390000000000000000e+03,-5.819245526726308376e-02,0.000000000000000000e+00
1.391000000000000000e+03,7.780561260488378927e-01,0.000000000000000000e+00
1.392000000000000000e+03,3.796249553061707971e-01,0.000000000000000000e+00
1.393000000000000000e+03,3.234482136294452581e-01,0.000000000000000000e+00
1.394000000000000000e+03,-4.593815303786081272e-01,0.000000000000000000e+00
1.395000000000000000e+03,1.936709067873993578e-02,0.000000000000000000e+00
1.396000000000000000e+03,-6.853969246604146859e-01,0.000000000000000000e+00
1.397000000000000000e+03,2.255671016421478547e-01,0.000000000000000000e+00
1.398000000000000000e+03,-9.277578919583302497e-01,0.000000000000000000e+00
1.399000000000000000e+03,4.294973675709258032e+00,0.000000000000000000e+00
1.400000000000000000e+03,3.705608665512236666e+00,1.000000000000000000e+00
1.401000000000000000e+03,-3.595943375705946021e+00,0.000000000000000000e+00
1.402000000000000000e+03,-2.129917037212437358e-01,0.000000000000000000e+00
1.403000000000000000e+03,-1.654039987352739827e+00,0.000000000000000000e+00
1.404000000000000000e+03,-3.509108638094343147e-01,0.000000000000000000e+00
1.405000000000000000e+03,-1.163823636307375953e+00,0.000000000000000000e+00
1.406000000000000000e+03,-1.701976302720852874e-01,0.000000000000000000e+00
1.407000000000000000e+03,-7.802934324671229049e-01,0.000000000000000000e+00
1.408000000000000000e+03,-1.750379940946059920e-01,0.000000000000000000e+00
1.409000000000000000e+03,-4.806394992879885475e-01,0.000000000000000000e+00
1.410000000000000000e+03,-2.410495804436978487e-02,0.000000000000000000e+00
1.411000000000000000e+03,-3.704616067707475202e-01,0.000000000000000000e+00
1.412000000000000000e+03,1.904996660448167456e-01,0.000000000000000000e+00
1.413000000000000000e+03,-1.216108927835365672e-01,0.000000000000000000e+00
1.414000000000000000e+03,4.482789535716517060e-01,0.000000000000000000e+00
1.415000000000000000e+03,2.686468383040758745e-01,0.000000000000000000e+00
1.416000000000000000e+03,4.506298505056081094e-01,0.000000000000000000e+00
1.417000000000000000e+03,4.490398807495630737e-03,0.000000000000000000e+00
1.418000000000000000e+03,1.074359041340264553e-01,0.000000000000000000e+00
1.419000000000000000e+03,-2.804222058130484418e-01,0.000000000000000000e+00
1.420000000000000000e+03,-3.069923892301652454e-02,0.000000000000000000e+00
1.421000000000000000e+03,-4.481855284246513138e-01,0.000000000000000000e+00
1.422000000000000000e+03,6.837530684382005230e-02,0.000000000000000000e+00
1.423000000000000000e+03,-3.221134970295774780e-01,0.000000000000000000e+00
1.424000000000000000e+03,2.322670327238762419e-02,0.000000000000000000e+00
1.425000000000000000e+03,-3.081994754793636604e-01,0.000000000000000000e+00
1.426000000000000000e+03,-5.774934226611753985e-02,0.000000000000000000e+00
1.427000000000000000e+03,-3.597222460299295127e-02,0.000000000000000000e+00
1.428000000000000000e+03,5.582909052679362223e-03,0.000000000000000000e+00
1.429000000000000000e+03,7.667820610038963980e-02,0.000000000000000000e+00
1.430000000000000000e+03,1.936439505095208236e-01,0.000000000000000000e+00
1.431000000000000000e+03,1.045366289443916546e-01,0.000000000000000000e+00
1.432000000000000000e+03,9.088453828634503184e-02,0.000000000000000000e+00
1.433000000000000000e+03,1.193635556664947445e-01,0.000000000000000000e+00
1.434000000000000000e+03,1.506288026081511189e-01,0.000000000000000000e+00
1.435000000000000000e+03,1.548195508522989816e-01,0.000000000000000000e+00
1.436000000000000000e+03,1.592026373030576702e-01,0.000000000000000000e+00
1.437000000000000000e+03,-5.834025529168510721e-02,0.000000000000000000e+00
1.438000000000000000e+03,3.115459440322031481e-01,0.000000000000000000e+00
1.439000000000000000e+03,-5.049752715647568002e-02,0.000000000000000000e+00
1.440000000000000000e+03,2.252650776588029646e-01,0.000000000000000000e+00
1.441000000000000000e+03,2.736108073548615405e-01,0.000000000000000000e+00
1.442000000000000000e+03,3.212295604557704465e-01,0.000000000000000000e+00
1.443000000000000000e+03,5.319373732497878482e-01,0.000000000000000000e+00
1.444000000000000000e+03,4.099217120206279374e-01,0.000000000000000000e+00
1.445000000000000000e+03,3.016999739326429730e-01,0.000000000000000000e+00
1.446000000000000000e+03,-5.240452163253808138e-01,0.000000000000000000e+00
1.447000000000000000e+03,-6.278859964034121111e-02,0.000000000000000000e+00
1.448000000000000000e+03,-5.758986368455321081e-01,0.000000000000000000e+00
1.449000000000000000e+03,2.930899922254794343e-01,0.000000000000000000e+00
1.450000000000000000e+03,-8.396032607269984238e-01,0.000000000000000000e+00
1.451000000000000000e+03,3.529560020346272697e+00,0.000000000000000000e+00
1.452000000000000000e+03,4.350516922983465484e+00,0.000000000000000000e+00
1.453000000000000000e+03,-3.618032885214711669e+00,1.000000000000000000e+00
1.454000000000000000e+03,-4.806290674306703536e-01,0.000000000000000000e+00
1.455000000000000000e+03,-1.483753004855460134e+00,0.000000000000000000e+00
1.456000000000000000e+03,-1.918874914164431233e-01,0.000000000000000000e+00
1.457000000000000000e+03,-9.504286383620089707e-01,0.000000000000000000e+00
1.458000000000000000e+03,-1.075436567401800436e-01,0.000000000000000000e+00
1.459000000000000000e+03,-7.618292965952528917e-01,0.000000000000000000e+00
1.460000000000000000e+03,7.053491439160772258e-02,0.000000000000000000e+00
1.461000000000000000e+03,-5.437189751198706622e-01,0.000000000000000000e+00
1.462000000000000000e+03,-8.514638450680382664e-02,0.000000000000000000e+00
1.463000000000000000e+03,-2.032815851340917246e-01,0.000000000000000000e+00
1.464000000000000000e+03,1.774040305327805322e-01,0.000000000000000000e+00
1.465000000000000000e+03,4.240909617193236447e-02,0.000000000000000000e+00
1.466000000000000000e+03,4.743393274097023049e-01,0.000000000000000000e+00
1.467000000000000000e+03,1.097877198838153601e-01,0.000000000000000000e+00
1.468000000000000000e+03,4.595958489481726250e-01,0.000000000000000000e+00
1.469000000000000000e+03,-2.779251481403415686e-02,0.000000000000000000e+00
1.470000000000000000e+03,8.639030499031137567e-02,0.000000000000000000e+00
1.471000000000000000e+03,-3.457262536507145767e-01,0.000000000000000000e+00
1.472000000000000000e+03,-1.163413088756835856e-01,0.000000000000000000e+00
1.473000000000000000e+03,-3.967674607408515075e-01,0.000000000000000000e+00
1.474000000000000000e+03,1.132647849630107895e-01,0.000000000000000000e+00
1.475000000000000000e+03,-2.407580602359109812e-01,0.000000000000000000e+00
1.476000000000000000e+03,1.141342059345022281e-01,0.000000000000000000e+00
1.477000000000000000e+03,-2.630084237681959425e-01,0.000000000000000000e+00
1.478000000000000000e+03,4.597600699876776276e-02,0.000000000000000000e+00
1.479000000000000000e+03,-1.675092408387666432e-01,0.000000000000000000e+00
1.480000000000000000e+03,2.566807580068795613e-01,0.000000000000000000e+00
1.481000000000000000e+03,-1.116661307522414659e-01,0.000000000000000000e+00
1.482000000000000000e+03,2.784521306218501469e-01,0.000000000000000000e+00
1.483000000000000000e+03,-5.908918148944885922e-03,0.000000000000000000e+00
1.484000000000000000e+03,1.979608739737819811e-01,0.000000000000000000e+00
1.485000000000000000e+03,-1.070861075667706250e-03,0.000000000000000000e+00
1.486000000000000000e+03,1.609601324589315652e-01,0.000000000000000000e+00
1.487000000000000000e+03,-8.917348907865821350e-02,0.000000000000000000e+00
1.488000000000000000e+03,1.314970893181920952e-01,0.000000000000000000e+00
1.489000000000000000e+03,-1.160340697608363558e-01,0.000000000000000000e+00
1.490000000000000000e+03,3.455165585378299764e-01,0.000000000000000000e+00
1.491000000000000000e+03,-9.620528241074277620e-02,0.000000000000000000e+00
1.492000000000000000e+03,4.566679901968865307e-01,0.000000000000000000e+00
1.493000000000000000e+03,-7.360627188378081331e-02,0.000000000000000000e+00
1.494000000000000000e+03,8.501288547007157526e-01,0.000000000000000000e+00
1.495000000000000000e+03,3.125015611400516757e-02,0.000000000000000000e+00
1.496000000000000000e+03,1.959523574431799586e-01,0.000000000000000000e+00
1.497000000000000000e+03,-7.411158734133850290e-01,0.000000000000000000e+00
1.498000000000000000e+03,-1.669891036123645478e-01,0.000000000000000000e+00
1.499000000000000000e+03,-9.447561599201379501e-01,0.000000000000000000e+00
1.500000000000000000e+03,8.530180722477710697e-02,0.000000000000000000e+00
1.501000000000000000e+03,7.718559402047357743e-02,0.000000000000000000e+00
1.502000000000000000e+03,5.988538984932439746e+00,0.000000000000000000e+00
1.503000000000000000e+03,-1.259991070737075614e+00,1.000000000000000000e+00
1.504000000000000000e+03,-2.492138402155640975e+00,0.000000000000000000e+00
1.505000000000000000e+03,-5.661880075370580023e-01,0.000000000000000000e+00
1.506000000000000000e+03,-8.390312034040211531e-01,0.000000000000000000e+00
1.507000000000000000e+03,-5.004112939561370377e-01,0.000000000000000000e+00
1.508000000000000000e+03,-4.514961607619267236e-01,0.000000000000000000e+00
1.509000000000000000e+03,-3.335720661885074878e-01,0.000000000000000000e+00
1.510000000000000000e+03,-3.711537885816666993e-01,0.000000000000000000e+00
1.511000000000000000e+03,-2.291442753073057170e-01,0.000000000000000000e+00
1.512000000000000000e+03,-2.044711783793691784e-01,0.000000000000000000e+00
1.513000000000000000e+03,-1.866852950586076199e-01,0.000000000000000000e+00
1.514000000000000000e+03,-1.443004017950008655e-01,0.000000000000000000e+00
1.515000000000000000e+03,8.923477408506357011e-02,0.000000000000000000e+00
1.516000000000000000e+03,3.195290457500885029e-01,0.000000000000000000e+00
1.517000000000000000e+03,1.281922916522816869e-01,0.000000000000000000e+00
1.518000000000000000e+03,3.785679155478432478e-01,0.000000000000000000e+00
1.519000000000000000e+03,4.927392339043244057e-02,0.000000000000000000e+00
1.520000000000000000e+03,-4.290980166883447133e-02,0.000000000000000000e+00
1.521000000000000000e+03,-2.192735131209365695e-01,0.000000000000000000e+00
1.522000000000000000e+03,-1.453241185123805568e-01,0.000000000000000000e+00
1.523000000000000000e+03,-4.912987792919057406e-01,0.000000000000000000e+00
1.524000000000000000e+03,-2.586710403700874239e-01,0.000000000000000000e+00
1.525000000000000000e+03,-3.123359666177387695e-01,0.000000000000000000e+00
1.526000000000000000e+03,-1.576740340970442800e-01,0.000000000000000000e+00
1.527000000000000000e+03,-3.324178260226851034e-01,0.000000000000000000e+00
1.528000000000000000e+03,1.176292631565314661e-01,0.000000000000000000e+00
1.529000000000000000e+03,-2.472758266308308361e-01,0.000000000000000000e+00
1.530000000000000000e+03,2.185749645857894830e-01,0.000000000000000000e+00
1.531000000000000000e+03,4.613873595855182141e-04,0.000000000000000000e+00
1.532000000000000000e+03,1.514936793999323850e-01,0.000000000000000000e+00
1.533000000000000000e+03,-3.532865707974137265e-02,0.000000000000000000e+00
1.534000000000000000e+03,2.322824572430353396e-01,0.000000000000000000e+00
1.535000000000000000e+03,1.269353916459242670e-01,0.000000000000000000e+00
1.536000000000000000e+03,8.348607703044076678e-02,0.000000000000000000e+00
1.537000000000000000e+03,1.391093437709635394e-01,0.000000000000000000e+00
1.538000000000000000e+03,1.480458128364023906e-01,0.000000000000000000e+00
1.539000000000000000e+03,-2.833259380715522427e-02,0.000000000000000000e+00
1.540000000000000000e+03,3.986339120489689747e-01,0.000000000000000000e+00
1.541000000000000000e+03,-6.728668904111699545e-02,0.000000000000000000e+00
1.542000000000000000e+03,6.009408077828977124e-01,0.000000000000000000e+00
1.543000000000000000e+03,2.618040127877392931e-01,0.000000000000000000e+00
1.544000000000000000e+03,7.821324462486732854e-01,0.000000000000000000e+00
1.545000000000000000e+03,2.860388843449001017e-01,0.000000000000000000e+00
1.546000000000000000e+03,3.101569272027649982e-01,0.000000000000000000e+00
1.547000000000000000e+03,-6.494559974145014403e-01,0.000000000000000000e+00
1.548000000000000000e+03,2.329253085342032625e-01,0.000000000000000000e+00
1.549000000000000000e+03,-6.496390979176318581e-01,0.000000000000000000e+00
1.550000000000000000e+03,4.692352250866060892e-01,0.000000000000000000e+00
1.551000000000000000e+03,-3.664458683627494495e-01,0.000000000000000000e+00
1.552000000000000000e+03,6.025925560026426098e+00,0.000000000000000000e+00
1.553000000000000000e+03,-1.586132898237536948e-02,1.000000000000000000e+00
1.554000000000000000e+03,-2.686124824368799846e+00,0.000000000000000000e+00
1.555000000000000000e+03,-4.400853558639321594e-01,0.000000000000000000e+00
1.556000000000000000e+03,-1.075060346261795585e+00,0.000000000000000000e+00
1.557000000000000000e+03,-5.260364999927582552e-01,0.000000000000000000e+00
1.558000000000000000e+03,-7.275411743756514671e-01,0.000000000000000000e+00
1.559000000000000000e+03,-3.448680231754400749e-01,0.000000000000000000e+00
1.560000000000000000e+03,-4.321717120528969502e-01,0.000000000000000000e+00
1.561000000000000000e+03,-2.427266670910700475e-01,0.000000000000000000e+00
1.562000000000000000e+03,-2.593715703623614699e-01,0.000000000000000000e+00
1.563000000000000000e+03,-1.647165968491711568e-02,0.000000000000000000e+00
1.564000000000000000e+03,-2.543034300119086932e-01,0.000000000000000000e+00
1.565000000000000000e+03,7.924283053742624261e-02,0.000000000000000000e+00
1.566000000000000000e+03,3.393945865331806089e-01,0.000000000000000000e+00
1.567000000000000000e+03,2.663710351965735135e-01,0.000000000000000000e+00
1.568000000000000000e+03,2.452833436205262840e-01,0.000000000000000000e+00
1.569000000000000000e+03,2.247332946062726156e-01,0.000000000000000000e+00
1.570000000000000000e+03,-4.934436243705265547e-03,0.000000000000000000e+00
1.571000000000000000e+03,-2.358923836707286226e-01,0.000000000000000000e+00
1.572000000000000000e+03,-2.375492307090190103e-01,0.000000000000000000e+00
1.573000000000000000e+03,-2.306726543824080822e-01,0.000000000000000000e+00
1.574000000000000000e+03,-1.362931037509065024e-01,0.000000000000000000e+00
1.575000000000000000e+03,-3.256332353649899480e-01,0.000000000000000000e+00
1.576000000000000000e+03,-1.616630728948292017e-01,0.000000000000000000e+00
1.577000000000000000e+03,-2.578662863136427785e-01,0.000000000000000000e+00
1.578000000000000000e+03,-7.643553918994727692e-02,0.000000000000000000e+00
1.579000000000000000e+03,4.548783021193644749e-02,0.000000000000000000e+00
1.580000000000000000e+03,1.007410404054031872e-01,0.000000000000000000e+00
1.581000000000000000e+03,8.962066222602514676e-02,0.000000000000000000e+00
1.582000000000000000e+03,1.245523171466859091e-01,0.000000000000000000e+00
1.583000000000000000e+03,3.815019206619910813e-02,0.000000000000000000e+00
1.584000000000000000e+03,1.897155158413063869e-01,0.000000000000000000e+00
1.585000000000000000e+03,-7.016884673518361537e-02,0.000000000000000000e+00
1.586000000000000000e+03,2.500082725531707628e-01,0.000000000000000000e+00
