timestamp,ecg_measurement,qrs_detected
0.000000000000000000e+00,4.400260193800915876e-02,0.000000000000000000e+00
1.000000000000000000e+00,3.661780017840250423e-01,0.000000000000000000e+00
2.000000000000000000e+00,1.903696616783628615e-01,0.000000000000000000e+00
3.000000000000000000e+00,5.307422939995055655e-01,0.000000000000000000e+00
4.000000000000000000e+00,2.655514664187584861e-01,0.000000000000000000e+00
5.000000000000000000e+00,3.096368548770479512e-01,0.000000000000000000e+00
6.000000000000000000e+00,-5.594719189471241139e-01,0.000000000000000000e+00
7.000000000000000000e+00,-2.076173382235383114e-01,0.000000000000000000e+00
8.000000000000000000e+00,-8.656084057194998183e-01,0.000000000000000000e+00
9.000000000000000000e+00,2.746606663289409833e-01,0.000000000000000000e+00
1.000000000000000000e+01,-9.835885648509213874e-01,0.000000000000000000e+00
1.100000000000000000e+01,5.000035889967647584e+00,0.000000000000000000e+00
1.200000000000000000e+01,2.694356185786441316e+00,1.000000000000000000e+00
1.300000000000000000e+01,-3.456421010484133749e+00,0.000000000000000000e+00
1.400000000000000000e+01,-3.211849650966164260e-01,0.000000000000000000e+00
1.500000000000000000e+01,-1.529836265889008118e+00,0.000000000000000000e+00
1.600000000000000000e+01,-2.864565080610754211e-01,0.000000000000000000e+00
1.700000000000000000e+01,-1.157700005616378647e+00,0.000000000000000000e+00
1.800000000000000000e+01,-2.844544940436620206e-01,0.000000000000000000e+00
1.900000000000000000e+01,-7.024241509179929288e-01,0.000000000000000000e+00
2.000000000000000000e+01,-2.282766956164036520e-01,0.000000000000000000e+00
2.100000000000000000e+01,-6.281066576784826161e-01,0.000000000000000000e+00
2.200000000000000000e+01,1.095407049069019173e-01,0.000000000000000000e+00
2.300000000000000000e+01,-4.044001038982426022e-01,0.000000000000000000e+00
2.400000000000000000e+01,1.592088912464384998e-01,0.000000000000000000e+00
2.500000000000000000e+01,-1.968869705057120847e-02,0.000000000000000000e+00
2.600000000000000000e+01,4.961119595297003304e-01,0.000000000000000000e+00
2.700000000000000000e+01,3.314068540520397899e-01,0.000000000000000000e+00
2.800000000000000000e+01,4.807630569322798864e-01,0.000000000000000000e+00
2.900000000000000000e+01,7.874767782436484231e-02,0.000000000000000000e+00
3.000000000000000000e+01,8.447851665817611433e-02,0.000000000000000000e+00
3.100000000000000000e+01,-7.312373926120689649e-02,0.000000000000000000e+00
3.200000000000000000e+01,-2.671656060723961307e-02,0.000000000000000000e+00
3.300000000000000000e+01,-2.143867102781666367e-01,0.000000000000000000e+00
3.400000000000000000e+01,4.348719392755388130e-02,0.000000000000000000e+00
3.500000000000000000e+01,-3.680167785236257427e-01,0.000000000000000000e+00
3.600000000000000000e+01,6.089378368571103650e-02,0.000000000000000000e+00
3.700000000000000000e+01,-2.216794443601141085e-01,0.000000000000000000e+00
3.800000000000000000e+01,-2.041871930678975516e-02,0.000000000000000000e+00
3.900000000000000000e+01,-2.371726642788608008e-01,0.000000000000000000e+00
4.000000000000000000e+01,1.626921673255574130e-02,0.000000000000000000e+00
4.100000000000000000e+01,7.453529918412410415e-02,0.000000000000000000e+00
4.200000000000000000e+01,2.784341884809410361e-01,0.000000000000000000e+00
4.300000000000000000e+01,-5.503524438575158745e-02,0.000000000000000000e+00
4.400000000000000000e+01,1.479087344824735750e-01,0.000000000000000000e+00
4.500000000000000000e+01,1.945671802911229029e-02,0.000000000000000000e+00
4.600000000000000000e+01,2.432779922557485597e-01,0.000000000000000000e+00
4.700000000000000000e+01,-7.937651464850364880e-02,0.000000000000000000e+00
4.800000000000000000e+01,1.833556093977840862e-01,0.000000000000000000e+00
4.900000000000000000e+01,-7.517983520003627962e-02,0.000000000000000000e+00
5.000000000000000000e+01,4.477861423719341899e-02,0.000000000000000000e+00
5.100000000000000000e+01,-4.771908864495739045e-04,0.000000000000000000e+00
5.200000000000000000e+01,1.081085364952327245e-02,0.000000000000000000e+00
5.300000000000000000e+01,1.552702134926166044e-01,0.000000000000000000e+00
5.400000000000000000e+01,7.827043731746557986e-02,0.000000000000000000e+00
5.500000000000000000e+01,-1.466787413618987901e-01,0.000000000000000000e+00
5.600000000000000000e+01,6.141210792747774372e-01,0.000000000000000000e+00
5.700000000000000000e+01,4.683462145054537173e-02,0.000000000000000000e+00
5.800000000000000000e+01,6.034749077414180984e-01,0.000000000000000000e+00
5.900000000000000000e+01,5.691309816045539982e-01,0.000000000000000000e+00
6.000000000000000000e+01,5.889820012413377048e-01,0.000000000000000000e+00
6.100000000000000000e+01,-3.921953788369665350e-01,0.000000000000000000e+00
6.200000000000000000e+01,6.827021904151166221e-02,0.000000000000000000e+00
6.300000000000000000e+01,-3.469895049141883403e-01,0.000000000000000000e+00
6.400000000000000000e+01,1.893543579851755532e-01,0.000000000000000000e+00
6.500000000000000000e+01,-4.372559526668665653e-01,0.000000000000000000e+00
6.600000000000000000e+01,1.926032206902501542e+00,0.000000000000000000e+00
6.700000000000000000e+01,6.066493068876827266e+00,0.000000000000000000e+00
6.800000000000000000e+01,-2.818882270227495379e+00,1.000000000000000000e+00
6.900000000000000000e+01,-1.246740075806794135e+00,0.000000000000000000e+00
7.000000000000000000e+01,-1.146314419218307901e+00,0.000000000000000000e+00
7.100000000000000000e+01,-9.644779666630702852e-01,0.000000000000000000e+00
7.200000000000000000e+01,-7.559520438865898750e-01,0.000000000000000000e+00
7.300000000000000000e+01,-6.226878604102461523e-01,0.000000000000000000e+00
7.400000000000000000e+01,-3.591910650891761425e-01,0.000000000000000000e+00
7.500000000000000000e+01,-5.137179534525182500e-01,0.000000000000000000e+00
7.600000000000000000e+01,-2.703162116469757792e-01,0.000000000000000000e+00
7.700000000000000000e+01,-3.543304202144599846e-01,0.000000000000000000e+00
7.800000000000000000e+01,-3.723702260438461198e-01,0.000000000000000000e+00
7.900000000000000000e+01,1.547324699324365005e-01,0.000000000000000000e+00
8.000000000000000000e+01,5.322440340999931574e-02,0.000000000000000000e+00
8.100000000000000000e+01,1.459029179493592232e-01,0.000000000000000000e+00
8.200000000000000000e+01,2.970164320229469190e-01,0.000000000000000000e+00
8.300000000000000000e+01,2.350935055932239781e-01,0.000000000000000000e+00
8.400000000000000000e+01,-9.150003157253336350e-02,0.000000000000000000e+00
8.500000000000000000e+01,1.503037692838991857e-01,0.000000000000000000e+00
8.600000000000000000e+01,-2.014062267764242520e-01,0.000000000000000000e+00
8.700000000000000000e+01,-2.682570246565684768e-01,0.000000000000000000e+00
8.800000000000000000e+01,-3.391491632660529887e-01,0.000000000000000000e+00
8.900000000000000000e+01,-3.338134225437456304e-01,0.000000000000000000e+00
9.000000000000000000e+01,-2.742484043279872497e-01,0.000000000000000000e+00
9.100000000000000000e+01,-1.144310400213902346e-01,0.000000000000000000e+00
9.200000000000000000e+01,-1.480075780092025006e-01,0.000000000000000000e+00
9.300000000000000000e+01,-1.647725378274924046e-01,0.000000000000000000e+00
9.400000000000000000e+01,7.540568231184223424e-02,0.000000000000000000e+00
9.500000000000000000e+01,6.794239047134494752e-03,0.000000000000000000e+00
9.600000000000000000e+01,7.341964907203822610e-02,0.000000000000000000e+00
9.700000000000000000e+01,-6.216740077941906861e-02,0.000000000000000000e+00
9.800000000000000000e+01,1.512387225920120426e-01,0.000000000000000000e+00
9.900000000000000000e+01,2.338230334963320098e-02,0.000000000000000000e+00
1.000000000000000000e+02,-1.683289645452288111e-02,0.000000000000000000e+00
1.010000000000000000e+02,5.516754496332331587e-02,0.000000000000000000e+00
1.020000000000000000e+02,9.297088091345818983e-02,0.000000000000000000e+00
1.030000000000000000e+02,-9.188522067944528138e-02,0.000000000000000000e+00
1.040000000000000000e+02,-1.447595922916090350e-01,0.000000000000000000e+00
1.050000000000000000e+02,-9.484909090844582946e-02,0.000000000000000000e+00
1.060000000000000000e+02,-4.186826293036771673e-02,0.000000000000000000e+00
1.070000000000000000e+02,-3.660554530162105080e-02,0.000000000000000000e+00
1.080000000000000000e+02,1.663188815383991881e-01,0.000000000000000000e+00
1.090000000000000000e+02,2.413587035461626368e-02,0.000000000000000000e+00
1.100000000000000000e+02,1.489889943054862331e-01,0.000000000000000000e+00
1.110000000000000000e+02,2.192484640348619229e-01,0.000000000000000000e+00
1.120000000000000000e+02,5.562872603631660029e-01,0.000000000000000000e+00
1.130000000000000000e+02,4.521186858964936217e-01,0.000000000000000000e+00
1.140000000000000000e+02,3.317306071196760575e-01,0.000000000000000000e+00
1.150000000000000000e+02,-6.330562103951704600e-01,0.000000000000000000e+00
1.160000000000000000e+02,-8.564735328481051790e-02,0.000000000000000000e+00
1.170000000000000000e+02,-6.758427959072870195e-01,0.000000000000000000e+00
1.180000000000000000e+02,2.809411704905576124e-01,0.000000000000000000e+00
1.190000000000000000e+02,-7.939361250182344065e-01,0.000000000000000000e+00
1.200000000000000000e+02,4.577317678939449408e+00,0.000000000000000000e+00
1.210000000000000000e+02,3.132694225618750661e+00,1.000000000000000000e+00
1.220000000000000000e+02,-3.866987089006188150e+00,0.000000000000000000e+00
1.230000000000000000e+02,-5.214801961331545499e-01,0.000000000000000000e+00
1.240000000000000000e+02,-1.404950273231800661e+00,0.000000000000000000e+00
1.250000000000000000e+02,-6.457324734763020269e-02,0.000000000000000000e+00
1.260000000000000000e+02,-8.745650595958827100e-01,0.000000000000000000e+00
1.270000000000000000e+02,-1.267205780000776882e-01,0.000000000000000000e+00
1.280000000000000000e+02,-6.325469364007069162e-01,0.000000000000000000e+00
1.290000000000000000e+02,-5.001498304494857161e-02,0.000000000000000000e+00
1.300000000000000000e+02,-3.626458153217997360e-01,0.000000000000000000e+00
1.310000000000000000e+02,4.154700600338429722e-02,0.000000000000000000e+00
1.320000000000000000e+02,-1.198694809635573871e-01,0.000000000000000000e+00
1.330000000000000000e+02,2.081542679152381392e-01,0.000000000000000000e+00
1.340000000000000000e+02,2.122676341557961921e-01,0.000000000000000000e+00
1.350000000000000000e+02,3.306968974502678127e-01,0.000000000000000000e+00
1.360000000000000000e+02,-1.130524394097501967e-01,0.000000000000000000e+00
1.370000000000000000e+02,5.210778009980712167e-01,0.000000000000000000e+00
1.380000000000000000e+02,1.092458436863363580e-01,0.000000000000000000e+00
1.390000000000000000e+02,1.258329001339853481e-01,0.000000000000000000e+00
1.400000000000000000e+02,-2.420266801129964118e-01,0.000000000000000000e+00
1.410000000000000000e+02,-1.589196915814753974e-01,0.000000000000000000e+00
1.420000000000000000e+02,-2.225113927549980386e-01,0.000000000000000000e+00
1.430000000000000000e+02,-1.791087323966690792e-01,0.000000000000000000e+00
1.440000000000000000e+02,-1.492855124165646911e-02,0.000000000000000000e+00
1.450000000000000000e+02,-2.289774258508425406e-02,0.000000000000000000e+00
1.460000000000000000e+02,-8.495174727620780075e-02,0.000000000000000000e+00
1.470000000000000000e+02,3.456010322722400524e-02,0.000000000000000000e+00
1.480000000000000000e+02,-1.195487459183237205e-01,0.000000000000000000e+00
1.490000000000000000e+02,2.384871659453279003e-01,0.000000000000000000e+00
1.500000000000000000e+02,-6.936621682117619092e-02,0.000000000000000000e+00
1.510000000000000000e+02,1.378256004682692770e-01,0.000000000000000000e+00
1.520000000000000000e+02,-1.050906042993889900e-01,0.000000000000000000e+00
1.530000000000000000e+02,1.591658202165011082e-01,0.000000000000000000e+00
1.540000000000000000e+02,-2.187869680516628390e-02,0.000000000000000000e+00
1.550000000000000000e+02,2.219950950868929962e-01,0.000000000000000000e+00
1.560000000000000000e+02,8.382275856626990318e-02,0.000000000000000000e+00
1.570000000000000000e+02,1.764637986384162138e-01,0.000000000000000000e+00
1.580000000000000000e+02,7.918506015658631492e-02,0.000000000000000000e+00
1.590000000000000000e+02,3.977205870392708786e-01,0.000000000000000000e+00
1.600000000000000000e+02,8.570652334706621578e-02,0.000000000000000000e+00
1.610000000000000000e+02,3.980129045805349541e-01,0.000000000000000000e+00
1.620000000000000000e+02,1.275007456705196801e-02,0.000000000000000000e+00
1.630000000000000000e+02,4.619125659028298081e-01,0.000000000000000000e+00
1.640000000000000000e+02,2.192831266878087493e-01,0.000000000000000000e+00
1.650000000000000000e+02,8.390647178308409115e-01,0.000000000000000000e+00
1.660000000000000000e+02,3.575852793949007014e-01,0.000000000000000000e+00
1.670000000000000000e+02,5.237121456632708449e-01,0.000000000000000000e+00
1.680000000000000000e+02,-5.005936225689089358e-01,0.000000000000000000e+00
1.690000000000000000e+02,-7.360211948123647485e-02,0.000000000000000000e+00
1.700000000000000000e+02,-5.662953547273610333e-01,0.000000000000000000e+00
1.710000000000000000e+02,3.118544014268882503e-01,0.000000000000000000e+00
1.720000000000000000e+02,-9.189573578731934367e-01,0.000000000000000000e+00
1.730000000000000000e+02,3.887495684762972914e+00,0.000000000000000000e+00
1.740000000000000000e+02,3.793597652263851927e+00,0.000000000000000000e+00
1.750000000000000000e+02,-3.765578175128931004e+00,1.000000000000000000e+00
1.760000000000000000e+02,-5.218488071571011355e-01,0.000000000000000000e+00
1.770000000000000000e+02,-1.399547716745280113e+00,0.000000000000000000e+00
1.780000000000000000e+02,-6.218265561088761606e-01,0.000000000000000000e+00
1.790000000000000000e+02,-6.215094346754236332e-01,0.000000000000000000e+00
1.800000000000000000e+02,-4.317102948306704713e-01,0.000000000000000000e+00
1.810000000000000000e+02,-6.244759966617372537e-01,0.000000000000000000e+00
1.820000000000000000e+02,-2.259392678814078070e-01,0.000000000000000000e+00
1.830000000000000000e+02,-3.711975050155225664e-01,0.000000000000000000e+00
1.840000000000000000e+02,-1.016569009747493590e-01,0.000000000000000000e+00
1.850000000000000000e+02,-2.510820774234334696e-01,0.000000000000000000e+00
1.860000000000000000e+02,1.967920873485618644e-02,0.000000000000000000e+00
1.870000000000000000e+02,1.520237401475376393e-01,0.000000000000000000e+00
1.880000000000000000e+02,2.341160998735659082e-01,0.000000000000000000e+00
1.890000000000000000e+02,2.910057500729504865e-01,0.000000000000000000e+00
1.900000000000000000e+02,1.657496241683022453e-01,0.000000000000000000e+00
1.910000000000000000e+02,7.043720166570827113e-02,0.000000000000000000e+00
1.920000000000000000e+02,-6.679092861231704370e-02,0.000000000000000000e+00
1.930000000000000000e+02,-2.067610794609029967e-01,0.000000000000000000e+00
1.940000000000000000e+02,-2.864233801176468974e-01,0.000000000000000000e+00
1.950000000000000000e+02,-1.365580089334381408e-01,0.000000000000000000e+00
1.960000000000000000e+02,-3.085449659419393642e-01,0.000000000000000000e+00
1.970000000000000000e+02,-2.942499749209810389e-01,0.000000000000000000e+00
1.980000000000000000e+02,-8.455659719836723653e-02,0.000000000000000000e+00
1.990000000000000000e+02,-3.605995694884687186e-01,0.000000000000000000e+00
2.000000000000000000e+02,-3.357073313700142253e-02,0.000000000000000000e+00
2.010000000000000000e+02,-1.592970569828956739e-01,0.000000000000000000e+00
2.020000000000000000e+02,-1.919951604126809430e-01,0.000000000000000000e+00
2.030000000000000000e+02,-1.360545650371453863e-01,0.000000000000000000e+00
2.040000000000000000e+02,7.148706982597285986e-02,0.000000000000000000e+00
2.050000000000000000e+02,-1.706115800620539857e-01,0.000000000000000000e+00
2.060000000000000000e+02,8.345260993305606001e-02,0.000000000000000000e+00
2.070000000000000000e+02,-1.091030660430989119e-01,0.000000000000000000e+00
2.080000000000000000e+02,1.413302785550917158e-02,0.000000000000000000e+00
2.090000000000000000e+02,-8.848921048233945874e-02,0.000000000000000000e+00
2.100000000000000000e+02,2.192424474045867877e-01,0.000000000000000000e+00
2.110000000000000000e+02,-1.042845516454029148e-01,0.000000000000000000e+00
2.120000000000000000e+02,1.902229925905906671e-01,0.000000000000000000e+00
2.130000000000000000e+02,-8.983656142440423625e-03,0.000000000000000000e+00
2.140000000000000000e+02,6.347143923903009188e-03,0.000000000000000000e+00
2.150000000000000000e+02,2.270245848750747919e-01,0.000000000000000000e+00
2.160000000000000000e+02,4.849449246806340763e-02,0.000000000000000000e+00
2.170000000000000000e+02,5.811761330222219718e-02,0.000000000000000000e+00
2.180000000000000000e+02,4.248374231682539581e-01,0.000000000000000000e+00
2.190000000000000000e+02,9.053407116485376327e-02,0.000000000000000000e+00
2.200000000000000000e+02,6.461462379774001175e-01,0.000000000000000000e+00
2.210000000000000000e+02,5.076129865262161145e-01,0.000000000000000000e+00
2.220000000000000000e+02,5.051833606399698251e-01,0.000000000000000000e+00
2.230000000000000000e+02,-1.539409061058729378e-01,0.000000000000000000e+00
2.240000000000000000e+02,-1.735535287311780472e-01,0.000000000000000000e+00
2.250000000000000000e+02,-3.850893728242199554e-01,0.000000000000000000e+00
2.260000000000000000e+02,1.391429676442369756e-01,0.000000000000000000e+00
2.270000000000000000e+02,-4.114480378333353894e-01,0.000000000000000000e+00
2.280000000000000000e+02,1.840643439058416986e+00,0.000000000000000000e+00
2.290000000000000000e+02,5.912904536807018552e+00,0.000000000000000000e+00
2.300000000000000000e+02,-2.650759132043273958e+00,1.000000000000000000e+00
2.310000000000000000e+02,-1.219958270746279716e+00,0.000000000000000000e+00
2.320000000000000000e+02,-7.747327030092453493e-01,0.000000000000000000e+00
2.330000000000000000e+02,-8.430090481364436172e-01,0.000000000000000000e+00
2.340000000000000000e+02,-6.952814950240976399e-01,0.000000000000000000e+00
2.350000000000000000e+02,-5.868083761726197167e-01,0.000000000000000000e+00
2.360000000000000000e+02,-3.486176352208723017e-01,0.000000000000000000e+00
2.370000000000000000e+02,-3.132471227632763755e-01,0.000000000000000000e+00
2.380000000000000000e+02,-3.594858137713431434e-01,0.000000000000000000e+00
2.390000000000000000e+02,-1.957198998466301576e-01,0.000000000000000000e+00
2.400000000000000000e+02,-1.426028683872033465e-01,0.000000000000000000e+00
2.410000000000000000e+02,-4.024635918151440311e-02,0.000000000000000000e+00
2.420000000000000000e+02,1.416899076656367717e-01,0.000000000000000000e+00
2.430000000000000000e+02,3.160829543473056558e-02,0.000000000000000000e+00
2.440000000000000000e+02,2.179542925387272789e-01,0.000000000000000000e+00
2.450000000000000000e+02,2.490763119775789292e-01,0.000000000000000000e+00
2.460000000000000000e+02,1.930963879747979450e-01,0.000000000000000000e+00
2.470000000000000000e+02,-1.689741623114229263e-01,0.000000000000000000e+00
2.480000000000000000e+02,-6.591183235389770634e-02,0.000000000000000000e+00
2.490000000000000000e+02,-3.776022739156696950e-01,0.000000000000000000e+00
2.500000000000000000e+02,-1.520207549518477197e-01,0.000000000000000000e+00
2.510000000000000000e+02,-4.358237193141349386e-01,0.000000000000000000e+00
2.520000000000000000e+02,-3.750278463432602516e-01,0.000000000000000000e+00
2.530000000000000000e+02,-2.803793041808231856e-01,0.000000000000000000e+00
2.540000000000000000e+02,-2.339117609251007146e-01,0.000000000000000000e+00
2.550000000000000000e+02,-1.857660257529732406e-01,0.000000000000000000e+00
2.560000000000000000e+02,8.080319098370332409e-02,0.000000000000000000e+00
2.570000000000000000e+02,-4.031648006407602125e-01,0.000000000000000000e+00
2.580000000000000000e+02,-5.452100955422296141e-02,0.000000000000000000e+00
2.590000000000000000e+02,4.522410429969588030e-02,0.000000000000000000e+00
2.600000000000000000e+02,5.023271301393184701e-02,0.000000000000000000e+00
2.610000000000000000e+02,3.957753698757193184e-01,0.000000000000000000e+00
2.620000000000000000e+02,1.557994506390558143e-01,0.000000000000000000e+00
2.630000000000000000e+02,2.359641841193044209e-01,0.000000000000000000e+00
2.640000000000000000e+02,4.293883539653338688e-01,0.000000000000000000e+00
2.650000000000000000e+02,3.236165092618826233e-01,0.000000000000000000e+00
2.660000000000000000e+02,3.488376226194616625e-01,0.000000000000000000e+00
2.670000000000000000e+02,3.107296305441266115e-01,0.000000000000000000e+00
2.680000000000000000e+02,1.800014875074841258e-01,0.000000000000000000e+00
2.690000000000000000e+02,3.918266114553554114e-01,0.000000000000000000e+00
2.700000000000000000e+02,1.522229807667055401e-01,0.000000000000000000e+00
2.710000000000000000e+02,3.028112965161932069e-01,0.000000000000000000e+00
2.720000000000000000e+02,1.051102777801162236e-01,0.000000000000000000e+00
2.730000000000000000e+02,1.282019482239609987e-01,0.000000000000000000e+00
2.740000000000000000e+02,2.087801401380012245e-01,0.000000000000000000e+00
2.750000000000000000e+02,1.569278308962762103e-01,0.000000000000000000e+00
2.760000000000000000e+02,1.907593938035299086e-01,0.000000000000000000e+00
2.770000000000000000e+02,5.705465714183517445e-01,0.000000000000000000e+00
2.780000000000000000e+02,5.393956822274247331e-01,0.000000000000000000e+00
2.790000000000000000e+02,3.959170659818533333e-01,0.000000000000000000e+00
2.800000000000000000e+02,-3.305072235565733041e-01,0.000000000000000000e+00
2.810000000000000000e+02,-4.977126530626980183e-01,0.000000000000000000e+00
2.820000000000000000e+02,-6.703267673561513762e-01,0.000000000000000000e+00
2.830000000000000000e+02,-3.862001242823562275e-02,0.000000000000000000e+00
2.840000000000000000e+02,-6.972325175045511747e-01,0.000000000000000000e+00
2.850000000000000000e+02,2.174303711357238100e+00,0.000000000000000000e+00
2.860000000000000000e+02,5.398941625500535579e+00,0.000000000000000000e+00
2.870000000000000000e+02,-3.247766793220351556e+00,1.000000000000000000e+00
2.880000000000000000e+02,-1.288988000720169280e+00,0.000000000000000000e+00
2.890000000000000000e+02,-1.464388737088530013e+00,0.000000000000000000e+00
2.900000000000000000e+02,-8.613693309319768732e-01,0.000000000000000000e+00
2.910000000000000000e+02,-1.135503926692894350e+00,0.000000000000000000e+00
2.920000000000000000e+02,-6.790923706139797567e-01,0.000000000000000000e+00
2.930000000000000000e+02,-8.867228172410086540e-01,0.000000000000000000e+00
2.940000000000000000e+02,-5.344661360700045938e-01,0.000000000000000000e+00
2.950000000000000000e+02,-6.138010413614815031e-01,0.000000000000000000e+00
2.960000000000000000e+02,-2.089879537844498703e-01,0.000000000000000000e+00
2.970000000000000000e+02,-3.204481701349599643e-01,0.000000000000000000e+00
2.980000000000000000e+02,-2.143380956767204637e-01,0.000000000000000000e+00
2.990000000000000000e+02,-1.290486645466148441e-01,0.000000000000000000e+00
3.000000000000000000e+02,1.770930629879748919e-01,0.000000000000000000e+00
3.010000000000000000e+02,1.135011710156211828e-01,0.000000000000000000e+00
3.020000000000000000e+02,3.101308460260573940e-01,0.000000000000000000e+00
3.030000000000000000e+02,7.015589150660042628e-02,0.000000000000000000e+00
3.040000000000000000e+02,1.130085686168767339e-01,0.000000000000000000e+00
3.050000000000000000e+02,-2.929369762060930471e-01,0.000000000000000000e+00
3.060000000000000000e+02,-1.904077981931797947e-01,0.000000000000000000e+00
3.070000000000000000e+02,-5.047121594936750943e-01,0.000000000000000000e+00
3.080000000000000000e+02,7.119801782023998937e-02,0.000000000000000000e+00
3.090000000000000000e+02,-5.006013927532512175e-01,0.000000000000000000e+00
3.100000000000000000e+02,-1.011463331120105308e-01,0.000000000000000000e+00
3.110000000000000000e+02,-2.791899571885844700e-01,0.000000000000000000e+00
3.120000000000000000e+02,-6.934891869776964313e-02,0.000000000000000000e+00
3.130000000000000000e+02,-2.971441509122540459e-01,0.000000000000000000e+00
3.140000000000000000e+02,1.755474856632314729e-01,0.000000000000000000e+00
3.150000000000000000e+02,-1.148662636313873830e-01,0.000000000000000000e+00
3.160000000000000000e+02,1.125541953842641024e-01,0.000000000000000000e+00
3.170000000000000000e+02,-1.710904780093706057e-01,0.000000000000000000e+00
3.180000000000000000e+02,1.880701589566118048e-01,0.000000000000000000e+00
3.190000000000000000e+02,-4.176292669776903582e-02,0.000000000000000000e+00
3.200000000000000000e+02,4.644414915648967801e-01,0.000000000000000000e+00
3.210000000000000000e+02,8.924840905544963177e-02,0.000000000000000000e+00
3.220000000000000000e+02,4.300709012606279136e-01,0.000000000000000000e+00
3.230000000000000000e+02,-4.692682913795403338e-02,0.000000000000000000e+00
3.240000000000000000e+02,2.947027795790766458e-01,0.000000000000000000e+00
3.250000000000000000e+02,1.288024728538894048e-01,0.000000000000000000e+00
3.260000000000000000e+02,4.904625138777813920e-01,0.000000000000000000e+00
3.270000000000000000e+02,1.000749169404672873e-01,0.000000000000000000e+00
3.280000000000000000e+02,4.309250445838053722e-01,0.000000000000000000e+00
3.290000000000000000e+02,1.080754323364673808e-01,0.000000000000000000e+00
3.300000000000000000e+02,4.045428327785207667e-01,0.000000000000000000e+00
3.310000000000000000e+02,2.748601408271059698e-01,0.000000000000000000e+00
3.320000000000000000e+02,6.078385197273955542e-01,0.000000000000000000e+00
3.330000000000000000e+02,3.478542840472684250e-01,0.000000000000000000e+00
3.340000000000000000e+02,8.824145312401426855e-01,0.000000000000000000e+00
3.350000000000000000e+02,5.299906913109622142e-01,0.000000000000000000e+00
3.360000000000000000e+02,7.184750771550614257e-01,0.000000000000000000e+00
3.370000000000000000e+02,-2.492836000720547729e-01,0.000000000000000000e+00
3.380000000000000000e+02,4.061676213598891354e-03,0.000000000000000000e+00
3.390000000000000000e+02,-5.716084577157544144e-01,0.000000000000000000e+00
3.400000000000000000e+02,4.651526291231590227e-01,0.000000000000000000e+00
3.410000000000000000e+02,-8.418731384702317078e-01,0.000000000000000000e+00
3.420000000000000000e+02,4.334093203980436293e+00,0.000000000000000000e+00
3.430000000000000000e+02,3.989768699447822531e+00,0.000000000000000000e+00
3.440000000000000000e+02,-4.039570490075821141e+00,1.000000000000000000e+00
3.450000000000000000e+02,-6.667855476088794253e-01,0.000000000000000000e+00
3.460000000000000000e+02,-1.365907740587038566e+00,0.000000000000000000e+00
3.470000000000000000e+02,-5.570136695233846025e-01,0.000000000000000000e+00
3.480000000000000000e+02,-6.945672460373096824e-01,0.000000000000000000e+00
3.490000000000000000e+02,-5.159332479071443434e-01,0.000000000000000000e+00
3.500000000000000000e+02,-6.899979286125857980e-01,0.000000000000000000e+00
3.510000000000000000e+02,-1.712239173998081065e-01,0.000000000000000000e+00
3.520000000000000000e+02,-3.143613313994048086e-01,0.000000000000000000e+00
3.530000000000000000e+02,-8.597474577402944296e-02,0.000000000000000000e+00
3.540000000000000000e+02,-3.043901955034935408e-02,0.000000000000000000e+00
3.550000000000000000e+02,-1.042187118473246188e-01,0.000000000000000000e+00
3.560000000000000000e+02,2.389605256322660798e-01,0.000000000000000000e+00
3.570000000000000000e+02,2.722052154639736377e-01,0.000000000000000000e+00
3.580000000000000000e+02,1.397624978382329686e-01,0.000000000000000000e+00
3.590000000000000000e+02,2.582460613166144281e-01,0.000000000000000000e+00
3.600000000000000000e+02,1.441781264319913214e-01,0.000000000000000000e+00
3.610000000000000000e+02,3.200423604163968316e-02,0.000000000000000000e+00
3.620000000000000000e+02,-2.913571356305548754e-01,0.000000000000000000e+00
3.630000000000000000e+02,-7.266384179077864380e-02,0.000000000000000000e+00
3.640000000000000000e+02,-5.395323897943034019e-01,0.000000000000000000e+00
3.650000000000000000e+02,-8.382257504004296533e-02,0.000000000000000000e+00
3.660000000000000000e+02,-2.206777022875454353e-01,0.000000000000000000e+00
3.670000000000000000e+02,-2.865470950909045356e-01,0.000000000000000000e+00
3.680000000000000000e+02,-1.334882759738197644e-01,0.000000000000000000e+00
3.690000000000000000e+02,-2.244758999331136762e-01,0.000000000000000000e+00
3.700000000000000000e+02,-3.245088220353946340e-02,0.000000000000000000e+00
3.710000000000000000e+02,8.805873853383497374e-02,0.000000000000000000e+00
3.720000000000000000e+02,-1.000253320465135098e-01,0.000000000000000000e+00
3.730000000000000000e+02,1.651167970954768860e-01,0.000000000000000000e+00
3.740000000000000000e+02,8.920971258980242569e-02,0.000000000000000000e+00
3.750000000000000000e+02,1.164178795777039005e-01,0.000000000000000000e+00
3.760000000000000000e+02,1.664594267730803157e-01,0.000000000000000000e+00
3.770000000000000000e+02,2.575806818998037373e-02,0.000000000000000000e+00
3.780000000000000000e+02,6.939010293022887521e-02,0.000000000000000000e+00
3.790000000000000000e+02,2.370101763244325879e-02,0.000000000000000000e+00
3.800000000000000000e+02,9.028529376070122681e-02,0.000000000000000000e+00
3.810000000000000000e+02,1.512244478399364933e-01,0.000000000000000000e+00
3.820000000000000000e+02,1.928805191845755773e-01,0.000000000000000000e+00
3.830000000000000000e+02,1.981769566020653850e-02,0.000000000000000000e+00
3.840000000000000000e+02,2.209792011998681638e-01,0.000000000000000000e+00
3.850000000000000000e+02,7.891294118276902247e-02,0.000000000000000000e+00
3.860000000000000000e+02,3.694352173811351614e-01,0.000000000000000000e+00
3.870000000000000000e+02,3.510112187623800062e-01,0.000000000000000000e+00
3.880000000000000000e+02,7.362426023341216430e-01,0.000000000000000000e+00
3.890000000000000000e+02,4.457900110154900952e-01,0.000000000000000000e+00
3.900000000000000000e+02,2.497614196508232687e-01,0.000000000000000000e+00
3.910000000000000000e+02,-4.953200472473203164e-01,0.000000000000000000e+00
3.920000000000000000e+02,5.925858836474024588e-02,0.000000000000000000e+00
3.930000000000000000e+02,-7.106987938841765606e-01,0.000000000000000000e+00
3.940000000000000000e+02,3.923091327524967364e-01,0.000000000000000000e+00
3.950000000000000000e+02,-7.748510898375632339e-01,0.000000000000000000e+00
3.960000000000000000e+02,4.734165059385024854e+00,0.000000000000000000e+00
3.970000000000000000e+02,2.328912481785552213e+00,1.000000000000000000e+00
3.980000000000000000e+02,-3.918013527541719387e+00,0.000000000000000000e+00
3.990000000000000000e+02,-4.504272548366345386e-01,0.000000000000000000e+00
4.000000000000000000e+02,-1.140984742159815823e+00,0.000000000000000000e+00
4.010000000000000000e+02,-4.726256791861612183e-01,0.000000000000000000e+00
4.020000000000000000e+02,-8.797526336358121313e-01,0.000000000000000000e+00
4.030000000000000000e+02,-3.345004910159569689e-01,0.000000000000000000e+00
4.040000000000000000e+02,-6.969312326333541030e-01,0.000000000000000000e+00
4.050000000000000000e+02,-2.390743436860769955e-01,0.000000000000000000e+00
4.060000000000000000e+02,-2.806686701929657080e-01,0.000000000000000000e+00
4.070000000000000000e+02,-6.816837141569365675e-03,0.000000000000000000e+00
4.080000000000000000e+02,-2.720678712481062189e-01,0.000000000000000000e+00
4.090000000000000000e+02,1.965734663193055565e-01,0.000000000000000000e+00
4.100000000000000000e+02,-1.577872304250012847e-01,0.000000000000000000e+00
4.110000000000000000e+02,4.800395042894561315e-01,0.000000000000000000e+00
4.120000000000000000e+02,4.980685143208088417e-02,0.000000000000000000e+00
4.130000000000000000e+02,1.317629773366290891e-01,0.000000000000000000e+00
4.140000000000000000e+02,-1.782205687311081560e-02,0.000000000000000000e+00
4.150000000000000000e+02,-3.017025227520160890e-01,0.000000000000000000e+00
4.160000000000000000e+02,-3.597805480595331340e-01,0.000000000000000000e+00
4.170000000000000000e+02,-2.536416451464061916e-01,0.000000000000000000e+00
4.180000000000000000e+02,-4.800629151512230686e-01,0.000000000000000000e+00
4.190000000000000000e+02,-2.057685067466530626e-01,0.000000000000000000e+00
4.200000000000000000e+02,-6.124459642743362853e-01,0.000000000000000000e+00
4.210000000000000000e+02,-2.022158495462613725e-01,0.000000000000000000e+00
4.220000000000000000e+02,-1.742939992480409539e-01,0.000000000000000000e+00
4.230000000000000000e+02,-1.301358163280356695e-01,0.000000000000000000e+00
4.240000000000000000e+02,-2.850328823206507156e-01,0.000000000000000000e+00
4.250000000000000000e+02,2.535679679943777382e-02,0.000000000000000000e+00
4.260000000000000000e+02,-2.686555679930239804e-01,0.000000000000000000e+00
4.270000000000000000e+02,1.444240667566138447e-01,0.000000000000000000e+00
4.280000000000000000e+02,-2.279794029402780128e-02,0.000000000000000000e+00
4.290000000000000000e+02,-6.825330802278779807e-02,0.000000000000000000e+00
4.300000000000000000e+02,-9.015520115768961562e-02,0.000000000000000000e+00
4.310000000000000000e+02,-1.398308490251653768e-01,0.000000000000000000e+00
4.320000000000000000e+02,1.538678292087846122e-01,0.000000000000000000e+00
4.330000000000000000e+02,-2.018218569257260175e-02,0.000000000000000000e+00
4.340000000000000000e+02,7.311588675348761231e-03,0.000000000000000000e+00
4.350000000000000000e+02,-2.234432067448983289e-02,0.000000000000000000e+00
4.360000000000000000e+02,2.991634233562100176e-02,0.000000000000000000e+00
4.370000000000000000e+02,8.871267600904092498e-02,0.000000000000000000e+00
4.380000000000000000e+02,3.145520352761463356e-01,0.000000000000000000e+00
4.390000000000000000e+02,3.698111781697205336e-02,0.000000000000000000e+00
4.400000000000000000e+02,4.028335837203340097e-01,0.000000000000000000e+00
4.410000000000000000e+02,2.548667007852094546e-01,0.000000000000000000e+00
4.420000000000000000e+02,6.533119589063828281e-01,0.000000000000000000e+00
4.430000000000000000e+02,4.663800543906908569e-01,0.000000000000000000e+00
4.440000000000000000e+02,6.473056676215399596e-01,0.000000000000000000e+00
4.450000000000000000e+02,-3.550584072369450395e-01,0.000000000000000000e+00
4.460000000000000000e+02,-9.995049741885642103e-02,0.000000000000000000e+00
4.470000000000000000e+02,-4.182744681754980709e-01,0.000000000000000000e+00
4.480000000000000000e+02,2.787539690845928231e-01,0.000000000000000000e+00
4.490000000000000000e+02,-5.841567561548702825e-01,0.000000000000000000e+00
4.500000000000000000e+02,3.050852414013067282e+00,0.000000000000000000e+00
4.510000000000000000e+02,5.019531296377964580e+00,0.000000000000000000e+00
4.520000000000000000e+02,-3.397819456832290808e+00,1.000000000000000000e+00
4.530000000000000000e+02,-6.803442354345963228e-01,0.000000000000000000e+00
4.540000000000000000e+02,-1.153479367680313228e+00,0.000000000000000000e+00
4.550000000000000000e+02,-3.707349906929803263e-01,0.000000000000000000e+00
4.560000000000000000e+02,-8.156069294167812567e-01,0.000000000000000000e+00
4.570000000000000000e+02,-1.365637028592439073e-01,0.000000000000000000e+00
4.580000000000000000e+02,-6.671456919645221140e-01,0.000000000000000000e+00
4.590000000000000000e+02,2.445045026373608710e-02,0.000000000000000000e+00
4.600000000000000000e+02,-2.909707051962471258e-01,0.000000000000000000e+00
4.610000000000000000e+02,5.317874281256917968e-02,0.000000000000000000e+00
4.620000000000000000e+02,-2.844504829502823018e-01,0.000000000000000000e+00
4.630000000000000000e+02,3.406816116093490110e-01,0.000000000000000000e+00
4.640000000000000000e+02,-1.725784609213858456e-01,0.000000000000000000e+00
4.650000000000000000e+02,5.041902940115488008e-01,0.000000000000000000e+00
4.660000000000000000e+02,1.656428104025224335e-01,0.000000000000000000e+00
4.670000000000000000e+02,5.326367741868905936e-01,0.000000000000000000e+00
4.680000000000000000e+02,-1.028107337840295128e-02,0.000000000000000000e+00
4.690000000000000000e+02,5.457317492135765891e-03,0.000000000000000000e+00
4.700000000000000000e+02,-1.791939322290146130e-01,0.000000000000000000e+00
4.710000000000000000e+02,-1.398591398782937645e-01,0.000000000000000000e+00
4.720000000000000000e+02,-1.840356188826290929e-01,0.000000000000000000e+00
4.730000000000000000e+02,-2.713522618881006876e-01,0.000000000000000000e+00
4.740000000000000000e+02,-3.416499514740033994e-01,0.000000000000000000e+00
4.750000000000000000e+02,-7.205724154988507602e-02,0.000000000000000000e+00
4.760000000000000000e+02,-2.869600699965401125e-01,0.000000000000000000e+00
4.770000000000000000e+02,-4.874817952880055455e-02,0.000000000000000000e+00
4.780000000000000000e+02,-1.281962575430139473e-01,0.000000000000000000e+00
4.790000000000000000e+02,-4.308577032809947360e-02,0.000000000000000000e+00
4.800000000000000000e+02,-5.864751217077999318e-02,0.000000000000000000e+00
4.810000000000000000e+02,2.133702601561884293e-01,0.000000000000000000e+00
4.820000000000000000e+02,7.220941396639415921e-02,0.000000000000000000e+00
4.830000000000000000e+02,2.878706322500688142e-01,0.000000000000000000e+00
4.840000000000000000e+02,2.235497796838360196e-01,0.000000000000000000e+00
4.850000000000000000e+02,1.805830164467790155e-01,0.000000000000000000e+00
4.860000000000000000e+02,-1.230618873316129992e-02,0.000000000000000000e+00
4.870000000000000000e+02,2.623024291233431726e-01,0.000000000000000000e+00
4.880000000000000000e+02,-9.389690425558183673e-02,0.000000000000000000e+00
4.890000000000000000e+02,2.293862637692939965e-01,0.000000000000000000e+00
4.900000000000000000e+02,-4.842096352464269303e-03,0.000000000000000000e+00
4.910000000000000000e+02,1.285187251433710931e-01,0.000000000000000000e+00
4.920000000000000000e+02,8.030549410207343808e-02,0.000000000000000000e+00
4.930000000000000000e+02,1.542829652510499527e-01,0.000000000000000000e+00
4.940000000000000000e+02,-8.238286130764892190e-02,0.000000000000000000e+00
4.950000000000000000e+02,8.706455656493085338e-02,0.000000000000000000e+00
4.960000000000000000e+02,3.023609126059476626e-01,0.000000000000000000e+00
4.970000000000000000e+02,3.791967102985373539e-01,0.000000000000000000e+00
4.980000000000000000e+02,4.409766276383640382e-01,0.000000000000000000e+00
4.990000000000000000e+02,5.913881480066566221e-01,0.000000000000000000e+00
5.000000000000000000e+02,-4.553006393447804334e-01,0.000000000000000000e+00
5.010000000000000000e+02,-1.978157240221573854e-01,0.000000000000000000e+00
5.020000000000000000e+02,-3.576164667705769018e-01,0.000000000000000000e+00
5.030000000000000000e+02,7.108172907445677036e-02,0.000000000000000000e+00
5.040000000000000000e+02,-3.389751536950103006e-01,0.000000000000000000e+00
5.050000000000000000e+02,1.463898712023271598e+00,0.000000000000000000e+00
5.060000000000000000e+02,6.181065466157639854e+00,0.000000000000000000e+00
5.070000000000000000e+02,-2.519238692317049555e+00,1.000000000000000000e+00
5.080000000000000000e+02,-1.469950247715377634e+00,0.000000000000000000e+00
5.090000000000000000e+02,-1.056548114932997384e+00,0.000000000000000000e+00
5.100000000000000000e+02,-8.797393321443586212e-01,0.000000000000000000e+00
5.110000000000000000e+02,-9.559803522592719149e-01,0.000000000000000000e+00
5.120000000000000000e+02,-6.393996973417398477e-01,0.000000000000000000e+00
5.130000000000000000e+02,-5.976330037308433818e-01,0.000000000000000000e+00
5.140000000000000000e+02,-4.595797849235855881e-01,0.000000000000000000e+00
5.150000000000000000e+02,-4.509335744489196274e-01,0.000000000000000000e+00
5.160000000000000000e+02,-3.494075946136682154e-01,0.000000000000000000e+00
5.170000000000000000e+02,-1.826298522544312075e-01,0.000000000000000000e+00
5.180000000000000000e+02,-2.104825224654754412e-01,0.000000000000000000e+00
5.190000000000000000e+02,9.211567287833388740e-02,0.000000000000000000e+00
5.200000000000000000e+02,-1.959237372949518621e-02,0.000000000000000000e+00
5.210000000000000000e+02,2.165419101587694461e-01,0.000000000000000000e+00
5.220000000000000000e+02,2.914347956544811047e-01,0.000000000000000000e+00
5.230000000000000000e+02,3.597917036080276049e-02,0.000000000000000000e+00
5.240000000000000000e+02,-2.203814913470639875e-02,0.000000000000000000e+00
5.250000000000000000e+02,-1.521231106884243511e-01,0.000000000000000000e+00
5.260000000000000000e+02,-2.934503614046710118e-01,0.000000000000000000e+00
5.270000000000000000e+02,-2.331002657563276403e-01,0.000000000000000000e+00
5.280000000000000000e+02,-4.215440430253926118e-01,0.000000000000000000e+00
5.290000000000000000e+02,4.722105294144016835e-02,0.000000000000000000e+00
5.300000000000000000e+02,-4.069945762062649464e-01,0.000000000000000000e+00
5.310000000000000000e+02,-1.345280091983516446e-01,0.000000000000000000e+00
5.320000000000000000e+02,-4.024133664329999083e-01,0.000000000000000000e+00
5.330000000000000000e+02,-2.197617559840644441e-01,0.000000000000000000e+00
5.340000000000000000e+02,-1.906935437534546807e-01,0.000000000000000000e+00
5.350000000000000000e+02,4.777910417564355805e-02,0.000000000000000000e+00
5.360000000000000000e+02,5.871704844768556308e-02,0.000000000000000000e+00
5.370000000000000000e+02,1.379054514448815362e-02,0.000000000000000000e+00
5.380000000000000000e+02,1.047204687003755984e-02,0.000000000000000000e+00
5.390000000000000000e+02,4.846812516011808625e-02,0.000000000000000000e+00
5.400000000000000000e+02,2.009743024376430820e-01,0.000000000000000000e+00
5.410000000000000000e+02,1.346392897383301424e-01,0.000000000000000000e+00
5.420000000000000000e+02,3.128593023575612642e-01,0.000000000000000000e+00
5.430000000000000000e+02,6.785119525447194481e-03,0.000000000000000000e+00
5.440000000000000000e+02,1.531120437697263970e-01,0.000000000000000000e+00
5.450000000000000000e+02,3.718725475483161125e-01,0.000000000000000000e+00
5.460000000000000000e+02,1.499829638375079488e-01,0.000000000000000000e+00
5.470000000000000000e+02,2.451095942826843066e-01,0.000000000000000000e+00
5.480000000000000000e+02,1.861058038071862764e-01,0.000000000000000000e+00
5.490000000000000000e+02,3.641418458125912361e-01,0.000000000000000000e+00
5.500000000000000000e+02,3.849191982839104131e-01,0.000000000000000000e+00
5.510000000000000000e+02,4.980347725352234911e-01,0.000000000000000000e+00
5.520000000000000000e+02,5.491549015706936876e-01,0.000000000000000000e+00
5.530000000000000000e+02,7.315962521699680421e-01,0.000000000000000000e+00
5.540000000000000000e+02,5.760062812870240245e-01,0.000000000000000000e+00
5.550000000000000000e+02,-1.834810594111487836e-01,0.000000000000000000e+00
5.560000000000000000e+02,3.172410914153805939e-02,0.000000000000000000e+00
5.570000000000000000e+02,-1.847733416955952002e-01,0.000000000000000000e+00
5.580000000000000000e+02,-6.790249630019418170e-02,0.000000000000000000e+00
5.590000000000000000e+02,2.234374895201248108e-03,0.000000000000000000e+00
5.600000000000000000e+02,1.424779247137796467e+00,0.000000000000000000e+00
5.610000000000000000e+02,6.383473047257860244e+00,0.000000000000000000e+00
5.620000000000000000e+02,-2.239157274145982424e+00,1.000000000000000000e+00
5.630000000000000000e+02,-1.591107212817479022e+00,0.000000000000000000e+00
5.640000000000000000e+02,-7.749009550843326544e-01,0.000000000000000000e+00
5.650000000000000000e+02,-8.593282068179736166e-01,0.000000000000000000e+00
5.660000000000000000e+02,-4.278353252677722374e-01,0.000000000000000000e+00
5.670000000000000000e+02,-5.321919808697652687e-01,0.000000000000000000e+00
5.680000000000000000e+02,-3.302654518275055517e-01,0.000000000000000000e+00
5.690000000000000000e+02,-2.315617148868923669e-01,0.000000000000000000e+00
5.700000000000000000e+02,-2.135962230678997709e-01,0.000000000000000000e+00
5.710000000000000000e+02,-1.468936862032623192e-01,0.000000000000000000e+00
5.720000000000000000e+02,-1.162195455026027863e-01,0.000000000000000000e+00
5.730000000000000000e+02,-1.010368884366413637e-02,0.000000000000000000e+00
5.740000000000000000e+02,-3.321886702054351048e-02,0.000000000000000000e+00
5.750000000000000000e+02,1.944150708173992270e-01,0.000000000000000000e+00
5.760000000000000000e+02,1.489577547469154162e-01,0.000000000000000000e+00
5.770000000000000000e+02,1.793417374866710934e-01,0.000000000000000000e+00
5.780000000000000000e+02,2.302553080107126726e-02,0.000000000000000000e+00
5.790000000000000000e+02,-2.537710901084150872e-01,0.000000000000000000e+00
5.800000000000000000e+02,-2.700102542206423983e-01,0.000000000000000000e+00
5.810000000000000000e+02,-5.299320627710939480e-01,0.000000000000000000e+00
5.820000000000000000e+02,-5.159791550535823834e-01,0.000000000000000000e+00
5.830000000000000000e+02,-5.030952815214206897e-01,0.000000000000000000e+00
5.840000000000000000e+02,-3.506729093808315656e-01,0.000000000000000000e+00
5.850000000000000000e+02,-5.158279974852916228e-01,0.000000000000000000e+00
5.860000000000000000e+02,-2.571269714978438037e-01,0.000000000000000000e+00
5.870000000000000000e+02,-3.658749594456893739e-01,0.000000000000000000e+00
5.880000000000000000e+02,-3.669031905664092985e-01,0.000000000000000000e+00
5.890000000000000000e+02,-9.515713702029980625e-02,0.000000000000000000e+00
5.900000000000000000e+02,-2.571707735348104928e-01,0.000000000000000000e+00
5.910000000000000000e+02,-1.903584157712090441e-01,0.000000000000000000e+00
5.920000000000000000e+02,-3.873247712625083050e-02,0.000000000000000000e+00
5.930000000000000000e+02,-1.450427541151759481e-01,0.000000000000000000e+00
5.940000000000000000e+02,-1.375373902363829226e-01,0.000000000000000000e+00
5.950000000000000000e+02,-1.061982022417414483e-02,0.000000000000000000e+00
5.960000000000000000e+02,-1.066505843996281844e-01,0.000000000000000000e+00
5.970000000000000000e+02,1.206461003049884989e-01,0.000000000000000000e+00
5.980000000000000000e+02,7.633263403019210913e-02,0.000000000000000000e+00
5.990000000000000000e+02,-9.438679840992489356e-03,0.000000000000000000e+00
6.000000000000000000e+02,1.355603863137830323e-01,0.000000000000000000e+00
6.010000000000000000e+02,-1.510537708595388051e-01,0.000000000000000000e+00
6.020000000000000000e+02,4.900572943228470590e-02,0.000000000000000000e+00
6.030000000000000000e+02,1.556509432976969920e-01,0.000000000000000000e+00
6.040000000000000000e+02,2.553758451977871102e-01,0.000000000000000000e+00
6.050000000000000000e+02,3.499355477630797240e-01,0.000000000000000000e+00
6.060000000000000000e+02,5.296949589576808171e-01,0.000000000000000000e+00
6.070000000000000000e+02,3.606331832406285964e-01,0.000000000000000000e+00
6.080000000000000000e+02,2.423675618672830601e-01,0.000000000000000000e+00
6.090000000000000000e+02,-3.664674970061510551e-01,0.000000000000000000e+00
6.100000000000000000e+02,1.200885802099267881e-02,0.000000000000000000e+00
6.110000000000000000e+02,-6.638045116451224414e-01,0.000000000000000000e+00
6.120000000000000000e+02,3.506089923553789012e-01,0.000000000000000000e+00
6.130000000000000000e+02,-7.966850732102186416e-01,0.000000000000000000e+00
6.140000000000000000e+02,4.822561318065595515e+00,0.000000000000000000e+00
6.150000000000000000e+02,2.580309747720170854e+00,1.000000000000000000e+00
6.160000000000000000e+02,-3.948486074760606979e+00,0.000000000000000000e+00
6.170000000000000000e+02,-2.595153025890793996e-01,0.000000000000000000e+00
6.180000000000000000e+02,-1.384029738488106398e+00,0.000000000000000000e+00
6.190000000000000000e+02,-3.080058726243962153e-01,0.000000000000000000e+00
6.200000000000000000e+02,-8.584326166675498859e-01,0.000000000000000000e+00
6.210000000000000000e+02,-3.529961434601002618e-02,0.000000000000000000e+00
6.220000000000000000e+02,-5.948981799554584615e-01,0.000000000000000000e+00
6.230000000000000000e+02,-3.206670044448026863e-03,0.000000000000000000e+00
6.240000000000000000e+02,-4.409276208650285134e-01,0.000000000000000000e+00
6.250000000000000000e+02,-4.040333280296041162e-04,0.000000000000000000e+00
6.260000000000000000e+02,-1.508336196623314973e-01,0.000000000000000000e+00
6.270000000000000000e+02,2.677343464129851580e-01,0.000000000000000000e+00
6.280000000000000000e+02,-1.834314607377705852e-01,0.000000000000000000e+00
6.290000000000000000e+02,5.101008234830118893e-01,0.000000000000000000e+00
6.300000000000000000e+02,6.366059402604412609e-02,0.000000000000000000e+00
6.310000000000000000e+02,3.535542364201842980e-01,0.000000000000000000e+00
6.320000000000000000e+02,-7.872724513301566918e-02,0.000000000000000000e+00
6.330000000000000000e+02,-9.144216200063723377e-02,0.000000000000000000e+00
6.340000000000000000e+02,-4.282768909550170311e-01,0.000000000000000000e+00
6.350000000000000000e+02,-2.000691263994605618e-01,0.000000000000000000e+00
6.360000000000000000e+02,-4.238286090513119775e-01,0.000000000000000000e+00
6.370000000000000000e+02,7.193444042118959936e-02,0.000000000000000000e+00
6.380000000000000000e+02,-3.326240186776313612e-01,0.000000000000000000e+00
6.390000000000000000e+02,5.390315473011278447e-02,0.000000000000000000e+00
6.400000000000000000e+02,-7.671817277175187189e-02,0.000000000000000000e+00
6.410000000000000000e+02,-6.533078450549864233e-03,0.000000000000000000e+00
6.420000000000000000e+02,-9.735947795038085717e-02,0.000000000000000000e+00
6.430000000000000000e+02,3.619667186477836252e-01,0.000000000000000000e+00
6.440000000000000000e+02,1.049732870911868482e-01,0.000000000000000000e+00
6.450000000000000000e+02,3.874728018443351907e-01,0.000000000000000000e+00
6.460000000000000000e+02,2.789082393198645104e-03,0.000000000000000000e+00
6.470000000000000000e+02,1.856323999857275309e-01,0.000000000000000000e+00
6.480000000000000000e+02,7.678083400958531091e-02,0.000000000000000000e+00
6.490000000000000000e+02,3.464067880328031701e-01,0.000000000000000000e+00
6.500000000000000000e+02,3.693827114147330004e-02,0.000000000000000000e+00
6.510000000000000000e+02,5.757109257160141214e-01,0.000000000000000000e+00
6.520000000000000000e+02,1.822437547916725409e-01,0.000000000000000000e+00
6.530000000000000000e+02,8.413753034734362812e-02,0.000000000000000000e+00
6.540000000000000000e+02,9.499510025917405620e-02,0.000000000000000000e+00
6.550000000000000000e+02,3.285265534608125537e-01,0.000000000000000000e+00
6.560000000000000000e+02,1.208911073048108686e-01,0.000000000000000000e+00
6.570000000000000000e+02,4.375068410763420235e-01,0.000000000000000000e+00
6.580000000000000000e+02,3.974181839036743935e-01,0.000000000000000000e+00
6.590000000000000000e+02,7.710399883095981899e-01,0.000000000000000000e+00
6.600000000000000000e+02,2.453530718786552101e-01,0.000000000000000000e+00
6.610000000000000000e+02,6.232992646282984328e-01,0.000000000000000000e+00
6.620000000000000000e+02,-7.698820801277838077e-01,0.000000000000000000e+00
6.630000000000000000e+02,6.176233232515717653e-01,0.000000000000000000e+00
6.640000000000000000e+02,-8.111785524252093094e-01,0.000000000000000000e+00
6.650000000000000000e+02,7.564853427267337338e-01,0.000000000000000000e+00
6.660000000000000000e+02,-9.614158690842175004e-01,0.000000000000000000e+00
6.670000000000000000e+02,5.152157729039390510e+00,0.000000000000000000e+00
6.680000000000000000e+02,2.264469794517475432e+00,1.000000000000000000e+00
6.690000000000000000e+02,-3.530951706856844119e+00,0.000000000000000000e+00
6.700000000000000000e+02,-1.388667226601948967e-01,0.000000000000000000e+00
6.710000000000000000e+02,-1.497748869405715055e+00,0.000000000000000000e+00
6.720000000000000000e+02,-3.377190142898628955e-01,0.000000000000000000e+00
6.730000000000000000e+02,-9.446899335931138175e-01,0.000000000000000000e+00
6.740000000000000000e+02,-7.302125280087252979e-02,0.000000000000000000e+00
6.750000000000000000e+02,-6.118579408417950116e-01,0.000000000000000000e+00
6.760000000000000000e+02,-4.493074501390219300e-02,0.000000000000000000e+00
6.770000000000000000e+02,-3.946450828167626379e-01,0.000000000000000000e+00
6.780000000000000000e+02,-3.072054444852738778e-02,0.000000000000000000e+00
6.790000000000000000e+02,-2.455440846520456077e-01,0.000000000000000000e+00
6.800000000000000000e+02,7.618663032970972304e-02,0.000000000000000000e+00
6.810000000000000000e+02,2.028794491019668689e-01,0.000000000000000000e+00
6.820000000000000000e+02,2.207216029633302101e-02,0.000000000000000000e+00
6.830000000000000000e+02,2.774994479143226278e-01,0.000000000000000000e+00
6.840000000000000000e+02,1.344422280452321761e-01,0.000000000000000000e+00
6.850000000000000000e+02,2.111958911106901274e-02,0.000000000000000000e+00
6.860000000000000000e+02,-1.072505998865075222e-01,0.000000000000000000e+00
6.870000000000000000e+02,-2.104215553991916898e-01,0.000000000000000000e+00
6.880000000000000000e+02,-2.185055728045967871e-01,0.000000000000000000e+00
6.890000000000000000e+02,-3.130687770240574985e-01,0.000000000000000000e+00
6.900000000000000000e+02,-2.537603710960557035e-01,0.000000000000000000e+00
6.910000000000000000e+02,-1.432769543465408912e-01,0.000000000000000000e+00
6.920000000000000000e+02,-1.127953999378890765e-01,0.000000000000000000e+00
6.930000000000000000e+02,-3.694688871892332777e-02,0.000000000000000000e+00
6.940000000000000000e+02,-1.607580270917890464e-01,0.000000000000000000e+00
6.950000000000000000e+02,-1.359429667715146839e-01,0.000000000000000000e+00
6.960000000000000000e+02,-4.590996724020614261e-02,0.000000000000000000e+00
6.970000000000000000e+02,-3.389973081596227289e-02,0.000000000000000000e+00
6.980000000000000000e+02,9.855590412000164724e-02,0.000000000000000000e+00
6.990000000000000000e+02,-1.370058454651337104e-02,0.000000000000000000e+00
7.000000000000000000e+02,5.111106066772887202e-02,0.000000000000000000e+00
7.010000000000000000e+02,-9.003864220223718740e-02,0.000000000000000000e+00
7.020000000000000000e+02,-3.769439606137164195e-02,0.000000000000000000e+00
7.030000000000000000e+02,1.260203073329526635e-01,0.000000000000000000e+00
7.040000000000000000e+02,-6.393888113909212967e-02,0.000000000000000000e+00
7.050000000000000000e+02,1.168251750277041201e-01,0.000000000000000000e+00
7.060000000000000000e+02,-1.215451808376974696e-01,0.000000000000000000e+00
7.070000000000000000e+02,6.962418082226917715e-02,0.000000000000000000e+00
7.080000000000000000e+02,-2.196103723269996616e-02,0.000000000000000000e+00
7.090000000000000000e+02,-6.779377384403489915e-02,0.000000000000000000e+00
7.100000000000000000e+02,-4.862292813772095545e-03,0.000000000000000000e+00
7.110000000000000000e+02,1.561635346162614513e-01,0.000000000000000000e+00
7.120000000000000000e+02,1.560441863102286220e-01,0.000000000000000000e+00
7.130000000000000000e+02,3.619367818347048460e-01,0.000000000000000000e+00
7.140000000000000000e+02,4.691488505604176074e-01,0.000000000000000000e+00
7.150000000000000000e+02,3.850019862171741303e-01,0.000000000000000000e+00
7.160000000000000000e+02,-2.633473958783651980e-01,0.000000000000000000e+00
7.170000000000000000e+02,-1.146236899285663496e-01,0.000000000000000000e+00
7.180000000000000000e+02,-4.336674750322806471e-01,0.000000000000000000e+00
7.190000000000000000e+02,9.191394206622094734e-03,0.000000000000000000e+00
7.200000000000000000e+02,-5.490893225430955038e-01,0.000000000000000000e+00
7.210000000000000000e+02,2.513262823150909320e+00,0.000000000000000000e+00
7.220000000000000000e+02,5.501357647852705313e+00,0.000000000000000000e+00
7.230000000000000000e+02,-3.001885902188094146e+00,1.000000000000000000e+00
7.240000000000000000e+02,-1.025367957956664355e+00,0.000000000000000000e+00
7.250000000000000000e+02,-1.113762469591271786e+00,0.000000000000000000e+00
7.260000000000000000e+02,-5.187494400231200675e-01,0.000000000000000000e+00
7.270000000000000000e+02,-9.213399827985595536e-01,0.000000000000000000e+00
7.280000000000000000e+02,-3.625371959042499315e-01,0.000000000000000000e+00
7.290000000000000000e+02,-6.023347902742854920e-01,0.000000000000000000e+00
7.300000000000000000e+02,-3.543452396917845526e-01,0.000000000000000000e+00
7.310000000000000000e+02,-3.214081397000394524e-01,0.000000000000000000e+00
7.320000000000000000e+02,-1.345123769046467910e-01,0.000000000000000000e+00
7.330000000000000000e+02,-1.910284799778525222e-01,0.000000000000000000e+00
7.340000000000000000e+02,3.047820555017928534e-02,0.000000000000000000e+00
7.350000000000000000e+02,-1.027574420565915275e-01,0.000000000000000000e+00
7.360000000000000000e+02,4.190054697667093819e-01,0.000000000000000000e+00
7.370000000000000000e+02,1.200271050762582586e-01,0.000000000000000000e+00
7.380000000000000000e+02,3.848186296423158903e-01,0.000000000000000000e+00
7.390000000000000000e+02,1.523949445677130199e-01,0.000000000000000000e+00
7.400000000000000000e+02,1.864142016983706129e-01,0.000000000000000000e+00
7.410000000000000000e+02,-2.635703031225897219e-01,0.000000000000000000e+00
7.420000000000000000e+02,-5.488197056891103848e-02,0.000000000000000000e+00
7.430000000000000000e+02,-3.534383628860751081e-01,0.000000000000000000e+00
7.440000000000000000e+02,-1.724967698220225554e-01,0.000000000000000000e+00
7.450000000000000000e+02,-2.724986725654030550e-01,0.000000000000000000e+00
7.460000000000000000e+02,-2.381461910713573993e-01,0.000000000000000000e+00
7.470000000000000000e+02,-2.717352158220237013e-01,0.000000000000000000e+00
7.480000000000000000e+02,-3.116930547469381474e-01,0.000000000000000000e+00
7.490000000000000000e+02,-1.882950877406862344e-01,0.000000000000000000e+00
7.500000000000000000e+02,-1.714453086843757135e-01,0.000000000000000000e+00
7.510000000000000000e+02,-1.406480393719445887e-01,0.000000000000000000e+00
7.520000000000000000e+02,-4.224349953798902518e-02,0.000000000000000000e+00
7.530000000000000000e+02,-7.499957668496583241e-02,0.000000000000000000e+00
7.540000000000000000e+02,3.458383249538476284e-02,0.000000000000000000e+00
7.550000000000000000e+02,-4.743232618391825944e-02,0.000000000000000000e+00
7.560000000000000000e+02,1.081188888298871414e-01,0.000000000000000000e+00
7.570000000000000000e+02,-1.178865392914572319e-01,0.000000000000000000e+00
7.580000000000000000e+02,1.642403656704615744e-01,0.000000000000000000e+00
7.590000000000000000e+02,8.491918574529282171e-02,0.000000000000000000e+00
7.600000000000000000e+02,2.391201781584218200e-01,0.000000000000000000e+00
7.610000000000000000e+02,-1.462178009883268424e-02,0.000000000000000000e+00
7.620000000000000000e+02,5.334439487823401382e-01,0.000000000000000000e+00
7.630000000000000000e+02,1.239660649912430607e-01,0.000000000000000000e+00
7.640000000000000000e+02,2.515920939530830736e-01,0.000000000000000000e+00
7.650000000000000000e+02,1.033727640874195358e-01,0.000000000000000000e+00
7.660000000000000000e+02,4.927436936370961362e-01,0.000000000000000000e+00
7.670000000000000000e+02,1.368999788169513454e-01,0.000000000000000000e+00
7.680000000000000000e+02,7.006395031203003221e-01,0.000000000000000000e+00
7.690000000000000000e+02,4.019575935005993972e-01,0.000000000000000000e+00
7.700000000000000000e+02,5.271993038074366256e-01,0.000000000000000000e+00
7.710000000000000000e+02,-4.102976222849261667e-01,0.000000000000000000e+00
7.720000000000000000e+02,-3.754780098945536410e-02,0.000000000000000000e+00
7.730000000000000000e+02,-4.011947606976300484e-01,0.000000000000000000e+00
7.740000000000000000e+02,2.206668225110604287e-01,0.000000000000000000e+00
7.750000000000000000e+02,-5.651182582466403037e-01,0.000000000000000000e+00
7.760000000000000000e+02,3.295977270640499057e+00,0.000000000000000000e+00
7.770000000000000000e+02,4.804322294932459769e+00,0.000000000000000000e+00
7.780000000000000000e+02,-3.681270563276088925e+00,1.000000000000000000e+00
7.790000000000000000e+02,-5.861344374487683639e-01,0.000000000000000000e+00
7.800000000000000000e+02,-1.417832848578978178e+00,0.000000000000000000e+00
7.810000000000000000e+02,-5.367484031015019585e-01,0.000000000000000000e+00
7.820000000000000000e+02,-9.965812770438177148e-01,0.000000000000000000e+00
7.830000000000000000e+02,-4.791482398234248041e-01,0.000000000000000000e+00
7.840000000000000000e+02,-5.493095112366660482e-01,0.000000000000000000e+00
7.850000000000000000e+02,-1.163552457950890323e-01,0.000000000000000000e+00
7.860000000000000000e+02,-6.079921152251213101e-01,0.000000000000000000e+00
7.870000000000000000e+02,-7.952913058396864077e-02,0.000000000000000000e+00
7.880000000000000000e+02,-8.074472791863659960e-02,0.000000000000000000e+00
7.890000000000000000e+02,-6.992399869044631233e-02,0.000000000000000000e+00
7.900000000000000000e+02,2.507247388625912649e-02,0.000000000000000000e+00
7.910000000000000000e+02,2.363059587297567654e-01,0.000000000000000000e+00
7.920000000000000000e+02,1.431004941486236914e-01,0.000000000000000000e+00
7.930000000000000000e+02,4.004786982825352393e-01,0.000000000000000000e+00
7.940000000000000000e+02,-5.636417292410035584e-02,0.000000000000000000e+00
7.950000000000000000e+02,-2.921021344503068606e-01,0.000000000000000000e+00
7.960000000000000000e+02,-1.041194708749225706e-01,0.000000000000000000e+00
7.970000000000000000e+02,-2.430888249511545252e-01,0.000000000000000000e+00
7.980000000000000000e+02,-5.233634244194524943e-01,0.000000000000000000e+00
7.990000000000000000e+02,-1.926307773692404746e-01,0.000000000000000000e+00
8.000000000000000000e+02,-4.921075013382181784e-01,0.000000000000000000e+00
8.010000000000000000e+02,-2.517977192926870167e-01,0.000000000000000000e+00
8.020000000000000000e+02,-3.565627070980756375e-01,0.000000000000000000e+00
8.030000000000000000e+02,-2.686623757960938108e-01,0.000000000000000000e+00
8.040000000000000000e+02,-3.258530466098742973e-01,0.000000000000000000e+00
8.050000000000000000e+02,-7.924410136287493578e-02,0.000000000000000000e+00
8.060000000000000000e+02,-1.977375204748188509e-01,0.000000000000000000e+00
8.070000000000000000e+02,9.230207317710864556e-02,0.000000000000000000e+00
8.080000000000000000e+02,-3.090384506626926431e-01,0.000000000000000000e+00
8.090000000000000000e+02,-4.637953776646811313e-03,0.000000000000000000e+00
8.100000000000000000e+02,-4.162259647260573014e-03,0.000000000000000000e+00
8.110000000000000000e+02,1.215092813117444048e-01,0.000000000000000000e+00
8.120000000000000000e+02,-1.040056192332402818e-01,0.000000000000000000e+00
8.130000000000000000e+02,2.291495584725904977e-01,0.000000000000000000e+00
8.140000000000000000e+02,-6.673762532788289625e-02,0.000000000000000000e+00
8.150000000000000000e+02,1.521607941519529938e-01,0.000000000000000000e+00
8.160000000000000000e+02,-1.944580955017849791e-02,0.000000000000000000e+00
8.170000000000000000e+02,1.276722905732674274e-01,0.000000000000000000e+00
8.180000000000000000e+02,1.636281102619570882e-01,0.000000000000000000e+00
8.190000000000000000e+02,4.596554443963046799e-01,0.000000000000000000e+00
8.200000000000000000e+02,3.300604794175678869e-01,0.000000000000000000e+00
8.210000000000000000e+02,6.031990041931932778e-01,0.000000000000000000e+00
8.220000000000000000e+02,4.824732120305615934e-01,0.000000000000000000e+00
8.230000000000000000e+02,5.681549518795342424e-01,0.000000000000000000e+00
8.240000000000000000e+02,-4.199906144901978666e-01,0.000000000000000000e+00
8.250000000000000000e+02,4.444888872242483968e-01,0.000000000000000000e+00
8.260000000000000000e+02,-6.896854809689468846e-01,0.000000000000000000e+00
8.270000000000000000e+02,5.923740402590391696e-01,0.000000000000000000e+00
8.280000000000000000e+02,-6.430419145963397476e-01,0.000000000000000000e+00
8.290000000000000000e+02,4.479986662331127079e+00,0.000000000000000000e+00
8.300000000000000000e+02,3.682171028739067875e+00,1.000000000000000000e+00
8.310000000000000000e+02,-3.949819653660212815e+00,0.000000000000000000e+00
8.320000000000000000e+02,-1.784909443701433451e-01,0.000000000000000000e+00
8.330000000000000000e+02,-1.116989847637062105e+00,0.000000000000000000e+00
8.340000000000000000e+02,-2.571296824108169066e-01,0.000000000000000000e+00
8.350000000000000000e+02,-6.693326914948696249e-01,0.000000000000000000e+00
8.360000000000000000e+02,-2.358721022150491453e-01,0.000000000000000000e+00
8.370000000000000000e+02,-2.293788832217581175e-01,0.000000000000000000e+00
8.380000000000000000e+02,-1.756908925475460584e-02,0.000000000000000000e+00
8.390000000000000000e+02,-2.615708037394088858e-01,0.000000000000000000e+00
8.400000000000000000e+02,9.002542442361144426e-02,0.000000000000000000e+00
8.410000000000000000e+02,-2.927683309524234390e-01,0.000000000000000000e+00
8.420000000000000000e+02,3.366818539796990750e-01,0.000000000000000000e+00
8.430000000000000000e+02,2.637633220301773274e-01,0.000000000000000000e+00
8.440000000000000000e+02,4.599831687491841015e-01,0.000000000000000000e+00
8.450000000000000000e+02,2.067990710618059225e-01,0.000000000000000000e+00
8.460000000000000000e+02,4.607378219329792413e-01,0.000000000000000000e+00
8.470000000000000000e+02,-1.216777272480288816e-02,0.000000000000000000e+00
8.480000000000000000e+02,-5.069870652221929001e-03,0.000000000000000000e+00
8.490000000000000000e+02,-5.733989110150737867e-01,0.000000000000000000e+00
8.500000000000000000e+02,-2.601370350914053442e-01,0.000000000000000000e+00
8.510000000000000000e+02,-5.662908239276199795e-01,0.000000000000000000e+00
8.520000000000000000e+02,-1.474670916293768785e-01,0.000000000000000000e+00
8.530000000000000000e+02,-4.357524034262472701e-01,0.000000000000000000e+00
8.540000000000000000e+02,-2.877653028052568618e-01,0.000000000000000000e+00
8.550000000000000000e+02,-4.450798849071735397e-01,0.000000000000000000e+00
8.560000000000000000e+02,1.570913402392513925e-01,0.000000000000000000e+00
8.570000000000000000e+02,-2.833846315028488161e-01,0.000000000000000000e+00
8.580000000000000000e+02,1.183450519191805994e-01,0.000000000000000000e+00
8.590000000000000000e+02,-1.484200456246562161e-01,0.000000000000000000e+00
8.600000000000000000e+02,-1.249226099672802737e-01,0.000000000000000000e+00
8.610000000000000000e+02,-1.853128035857200609e-02,0.000000000000000000e+00
8.620000000000000000e+02,1.438771750765971968e-01,0.000000000000000000e+00
8.630000000000000000e+02,-2.269792538543540794e-01,0.000000000000000000e+00
8.640000000000000000e+02,9.678474182996865682e-02,0.000000000000000000e+00
8.650000000000000000e+02,-1.478414104035915555e-01,0.000000000000000000e+00
8.660000000000000000e+02,1.288484446574255926e-01,0.000000000000000000e+00
8.670000000000000000e+02,8.767517772474327231e-02,0.000000000000000000e+00
8.680000000000000000e+02,5.844385688982167704e-01,0.000000000000000000e+00
8.690000000000000000e+02,5.117561405559427345e-02,0.000000000000000000e+00
8.700000000000000000e+02,2.656064415167919690e-01,0.000000000000000000e+00
8.710000000000000000e+02,9.457287675719653827e-03,0.000000000000000000e+00
8.720000000000000000e+02,6.580129854265668321e-01,0.000000000000000000e+00
8.730000000000000000e+02,2.708929761785862644e-01,0.000000000000000000e+00
8.740000000000000000e+02,7.164543281356978710e-01,0.000000000000000000e+00
8.750000000000000000e+02,4.765903886404742607e-01,0.000000000000000000e+00
8.760000000000000000e+02,2.673557380675353201e-01,0.000000000000000000e+00
8.770000000000000000e+02,-6.486303661419935418e-01,0.000000000000000000e+00
8.780000000000000000e+02,2.212841766788469638e-02,0.000000000000000000e+00
8.790000000000000000e+02,-6.557307109609988860e-01,0.000000000000000000e+00
8.800000000000000000e+02,1.452547665820510536e-01,0.000000000000000000e+00
8.810000000000000000e+02,8.333772359810788510e-02,0.000000000000000000e+00
8.820000000000000000e+02,6.037321089690133036e+00,0.000000000000000000e+00
8.830000000000000000e+02,-5.760648608304018703e-01,1.000000000000000000e+00
8.840000000000000000e+02,-2.664743894742120478e+00,0.000000000000000000e+00
8.850000000000000000e+02,-4.352125408541698826e-01,0.000000000000000000e+00
8.860000000000000000e+02,-1.352128086939174745e+00,0.000000000000000000e+00
8.870000000000000000e+02,-3.612742910518452755e-01,0.000000000000000000e+00
8.880000000000000000e+02,-6.911589700226163924e-01,0.000000000000000000e+00
8.890000000000000000e+02,-2.715891201708771630e-01,0.000000000000000000e+00
8.900000000000000000e+02,-3.791886617120311387e-01,0.000000000000000000e+00
8.910000000000000000e+02,-2.404210687219595632e-01,0.000000000000000000e+00
8.920000000000000000e+02,-3.792575685788859841e-01,0.000000000000000000e+00
8.930000000000000000e+02,6.883999582717850729e-02,0.000000000000000000e+00
8.940000000000000000e+02,-1.179924059358102156e-01,0.000000000000000000e+00
8.950000000000000000e+02,9.617629023004345412e-02,0.000000000000000000e+00
8.960000000000000000e+02,1.464910390406959084e-01,0.000000000000000000e+00
8.970000000000000000e+02,3.923655045047809153e-01,0.000000000000000000e+00
8.980000000000000000e+02,1.816499379409165435e-02,0.000000000000000000e+00
8.990000000000000000e+02,4.585885997926314461e-01,0.000000000000000000e+00
9.000000000000000000e+02,-4.219401006077256461e-02,0.000000000000000000e+00
9.010000000000000000e+02,-4.242643495147290639e-02,0.000000000000000000e+00
9.020000000000000000e+02,-2.706769551743846702e-01,0.000000000000000000e+00
9.030000000000000000e+02,-3.079687216021699259e-01,0.000000000000000000e+00
9.040000000000000000e+02,-2.884359700264715887e-01,0.000000000000000000e+00
9.050000000000000000e+02,-3.269709705884923934e-01,0.000000000000000000e+00
9.060000000000000000e+02,-1.157057006755894402e-01,0.000000000000000000e+00
9.070000000000000000e+02,-3.646581400230730075e-01,0.000000000000000000e+00
9.080000000000000000e+02,-2.801602400246598346e-01,0.000000000000000000e+00
9.090000000000000000e+02,-2.523422606864237361e-01,0.000000000000000000e+00
9.100000000000000000e+02,-1.804415850646179931e-01,0.000000000000000000e+00
9.110000000000000000e+02,-1.803072056559807124e-01,0.000000000000000000e+00
9.120000000000000000e+02,1.335687044928754452e-01,0.000000000000000000e+00
9.130000000000000000e+02,-1.548186553005203303e-01,0.000000000000000000e+00
9.140000000000000000e+02,-1.212025640388430248e-01,0.000000000000000000e+00
9.150000000000000000e+02,5.013008325818447963e-02,0.000000000000000000e+00
9.160000000000000000e+02,-1.241135859318107798e-01,0.000000000000000000e+00
9.170000000000000000e+02,-1.849296328272804213e-01,0.000000000000000000e+00
9.180000000000000000e+02,-4.241323533238665344e-02,0.000000000000000000e+00
9.190000000000000000e+02,9.002881000543964951e-02,0.000000000000000000e+00
9.200000000000000000e+02,6.746364016279254860e-02,0.000000000000000000e+00
9.210000000000000000e+02,1.369345606917195257e-02,0.000000000000000000e+00
9.220000000000000000e+02,1.345939428804893701e-01,0.000000000000000000e+00
9.230000000000000000e+02,-9.165201249678395223e-02,0.000000000000000000e+00
9.240000000000000000e+02,2.402859343794453983e-01,0.000000000000000000e+00
9.250000000000000000e+02,3.525450966798041597e-01,0.000000000000000000e+00
9.260000000000000000e+02,3.519560370699658103e-01,0.000000000000000000e+00
9.270000000000000000e+02,3.548616515489981249e-01,0.000000000000000000e+00
9.280000000000000000e+02,8.471600302370805302e-01,0.000000000000000000e+00
9.290000000000000000e+02,3.683589074862655410e-01,0.000000000000000000e+00
9.300000000000000000e+02,7.525959800008891198e-01,0.000000000000000000e+00
9.310000000000000000e+02,-5.784588708001112689e-01,0.000000000000000000e+00
9.320000000000000000e+02,1.753062874490783907e-01,0.000000000000000000e+00
9.330000000000000000e+02,-5.472453571943654005e-01,0.000000000000000000e+00
9.340000000000000000e+02,5.207519953438557447e-01,0.000000000000000000e+00
9.350000000000000000e+02,-7.880127723760274039e-01,0.000000000000000000e+00
9.360000000000000000e+02,4.525149312351821607e+00,0.000000000000000000e+00
9.370000000000000000e+02,3.425273384407470090e+00,1.000000000000000000e+00
9.380000000000000000e+02,-3.504156985036103844e+00,0.000000000000000000e+00
9.390000000000000000e+02,-3.680618033293643898e-01,0.000000000000000000e+00
9.400000000000000000e+02,-1.487722444318390069e+00,0.000000000000000000e+00
9.410000000000000000e+02,-3.757344002279405792e-01,0.000000000000000000e+00
9.420000000000000000e+02,-1.016305674763708478e+00,0.000000000000000000e+00
9.430000000000000000e+02,-3.365632539870851425e-01,0.000000000000000000e+00
9.440000000000000000e+02,-7.499707309040229974e-01,0.000000000000000000e+00
9.450000000000000000e+02,-1.931441436507300158e-01,0.000000000000000000e+00
9.460000000000000000e+02,-4.517290391262316906e-01,0.000000000000000000e+00
9.470000000000000000e+02,-1.017457131046421159e-01,0.000000000000000000e+00
9.480000000000000000e+02,-4.082096284317098256e-01,0.000000000000000000e+00
9.490000000000000000e+02,1.988390866701335857e-01,0.000000000000000000e+00
9.500000000000000000e+02,-3.201110517264266209e-01,0.000000000000000000e+00
9.510000000000000000e+02,4.715993110372300179e-01,0.000000000000000000e+00
9.520000000000000000e+02,3.061615612746795834e-01,0.000000000000000000e+00
9.530000000000000000e+02,4.083171165213020370e-01,0.000000000000000000e+00
9.540000000000000000e+02,1.535477975212133639e-01,0.000000000000000000e+00
9.550000000000000000e+02,9.352467457217339408e-02,0.000000000000000000e+00
9.560000000000000000e+02,-2.229821938083930977e-01,0.000000000000000000e+00
9.570000000000000000e+02,1.063914882381686820e-02,0.000000000000000000e+00
9.580000000000000000e+02,-2.692561504031511510e-01,0.000000000000000000e+00
9.590000000000000000e+02,-2.333627177747163439e-01,0.000000000000000000e+00
9.600000000000000000e+02,-2.944515800001678563e-01,0.000000000000000000e+00
9.610000000000000000e+02,-3.852421279905556689e-02,0.000000000000000000e+00
9.620000000000000000e+02,-1.570638844876552365e-01,0.000000000000000000e+00
9.630000000000000000e+02,-4.146844513112921127e-02,0.000000000000000000e+00
9.640000000000000000e+02,-3.300077071038401977e-01,0.000000000000000000e+00
9.650000000000000000e+02,5.820881852512806848e-02,0.000000000000000000e+00
9.660000000000000000e+02,-8.272749457357653213e-02,0.000000000000000000e+00
9.670000000000000000e+02,-3.338998082688951485e-02,0.000000000000000000e+00
9.680000000000000000e+02,2.264472427771374308e-01,0.000000000000000000e+00
9.690000000000000000e+02,4.938396290802166133e-02,0.000000000000000000e+00
9.700000000000000000e+02,5.839859518985417858e-02,0.000000000000000000e+00
9.710000000000000000e+02,1.827113131898218668e-01,0.000000000000000000e+00
9.720000000000000000e+02,1.177775821431436692e-01,0.000000000000000000e+00
9.730000000000000000e+02,2.016873216337268793e-01,0.000000000000000000e+00
9.740000000000000000e+02,2.390998199052098983e-01,0.000000000000000000e+00
9.750000000000000000e+02,1.318555336561351987e-01,0.000000000000000000e+00
9.760000000000000000e+02,2.252237197395368373e-01,0.000000000000000000e+00
9.770000000000000000e+02,3.651057188026458206e-02,0.000000000000000000e+00
9.780000000000000000e+02,2.950251163286586320e-01,0.000000000000000000e+00
9.790000000000000000e+02,1.200418788357153904e-01,0.000000000000000000e+00
9.800000000000000000e+02,2.898978913570068316e-01,0.000000000000000000e+00
9.810000000000000000e+02,3.041742949690567216e-02,0.000000000000000000e+00
9.820000000000000000e+02,4.585173462517276310e-01,0.000000000000000000e+00
9.830000000000000000e+02,2.930505631408994449e-01,0.000000000000000000e+00
9.840000000000000000e+02,6.646287109805361082e-01,0.000000000000000000e+00
9.850000000000000000e+02,6.302902349027516005e-01,0.000000000000000000e+00
9.860000000000000000e+02,2.966712719556035549e-01,0.000000000000000000e+00
9.870000000000000000e+02,-5.256924108905368653e-01,0.000000000000000000e+00
9.880000000000000000e+02,1.279670828161837970e-01,0.000000000000000000e+00
9.890000000000000000e+02,-6.861395455222513151e-01,0.000000000000000000e+00
9.900000000000000000e+02,8.473880280883708260e-02,0.000000000000000000e+00
9.910000000000000000e+02,-2.575395612151611946e-01,0.000000000000000000e+00
9.920000000000000000e+02,6.069188779889496566e+00,0.000000000000000000e+00
9.930000000000000000e+02,8.738097973265526175e-01,1.000000000000000000e+00
9.940000000000000000e+02,-3.223858515924419521e+00,0.000000000000000000e+00
9.950000000000000000e+02,-4.451431357323468729e-01,0.000000000000000000e+00
9.960000000000000000e+02,-1.735849778399081611e+00,0.000000000000000000e+00
9.970000000000000000e+02,-3.915613113979602988e-01,0.000000000000000000e+00
9.980000000000000000e+02,-8.738492971691106392e-01,0.000000000000000000e+00
9.990000000000000000e+02,-4.450238056855671531e-01,0.000000000000000000e+00
1.000000000000000000e+03,-8.653063882874881818e-01,0.000000000000000000e+00
1.001000000000000000e+03,-1.873569127919266497e-01,0.000000000000000000e+00
1.002000000000000000e+03,-7.907683525849391604e-01,0.000000000000000000e+00
1.003000000000000000e+03,3.872140540420754978e-02,0.000000000000000000e+00
1.004000000000000000e+03,-1.870750842755641019e-01,0.000000000000000000e+00
1.005000000000000000e+03,1.133008038670797468e-01,0.000000000000000000e+00
1.006000000000000000e+03,-1.216999972543222480e-01,0.000000000000000000e+00
1.007000000000000000e+03,4.743403881122355559e-01,0.000000000000000000e+00
1.008000000000000000e+03,-1.619330798472805311e-02,0.000000000000000000e+00
1.009000000000000000e+03,2.670856633044033646e-01,0.000000000000000000e+00
1.010000000000000000e+03,6.910000404816432455e-03,0.000000000000000000e+00
1.011000000000000000e+03,-9.230081294809479309e-02,0.000000000000000000e+00
1.012000000000000000e+03,-3.618016376210614338e-01,0.000000000000000000e+00
1.013000000000000000e+03,-1.385301851206476031e-01,0.000000000000000000e+00
1.014000000000000000e+03,-4.383761144363619300e-01,0.000000000000000000e+00
1.015000000000000000e+03,-2.508885534760562641e-01,0.000000000000000000e+00
1.016000000000000000e+03,-3.445352635096702865e-01,0.000000000000000000e+00
1.017000000000000000e+03,-2.021940615461796931e-01,0.000000000000000000e+00
1.018000000000000000e+03,-5.011366804066659242e-01,0.000000000000000000e+00
1.019000000000000000e+03,-1.601417847049767251e-01,0.000000000000000000e+00
1.020000000000000000e+03,-2.977856075572572481e-01,0.000000000000000000e+00
1.021000000000000000e+03,-1.867408325820366366e-01,0.000000000000000000e+00
1.022000000000000000e+03,-3.644571334803802243e-01,0.000000000000000000e+00
1.023000000000000000e+03,-1.010484897853434393e-04,0.000000000000000000e+00
1.024000000000000000e+03,-1.866650939788989105e-01,0.000000000000000000e+00
1.025000000000000000e+03,1.188529553254231291e-01,0.000000000000000000e+00
1.026000000000000000e+03,-3.637419121445124581e-01,0.000000000000000000e+00
1.027000000000000000e+03,1.502977682443463747e-01,0.000000000000000000e+00
1.028000000000000000e+03,1.971380886052934850e-02,0.000000000000000000e+00
1.029000000000000000e+03,1.832690911738362460e-01,0.000000000000000000e+00
1.030000000000000000e+03,8.752641038742271784e-02,0.000000000000000000e+00
1.031000000000000000e+03,3.696009303007944946e-01,0.000000000000000000e+00
1.032000000000000000e+03,-1.572292590464321738e-01,0.000000000000000000e+00
1.033000000000000000e+03,4.498620682475288346e-01,0.000000000000000000e+00
1.034000000000000000e+03,1.051951942198701695e-01,0.000000000000000000e+00
1.035000000000000000e+03,2.947438572639567433e-01,0.000000000000000000e+00
1.036000000000000000e+03,2.686982755020930758e-01,0.000000000000000000e+00
1.037000000000000000e+03,8.132131950846976931e-01,0.000000000000000000e+00
1.038000000000000000e+03,4.577769237633568800e-01,0.000000000000000000e+00
1.039000000000000000e+03,5.174661946622005626e-01,0.000000000000000000e+00
1.040000000000000000e+03,-4.394058058350422957e-01,0.000000000000000000e+00
1.041000000000000000e+03,1.737392790494088901e-01,0.000000000000000000e+00
1.042000000000000000e+03,-6.875183734172367611e-01,0.000000000000000000e+00
1.043000000000000000e+03,4.307062181576921112e-01,0.000000000000000000e+00
1.044000000000000000e+03,-7.332201695806871422e-01,0.000000000000000000e+00
1.045000000000000000e+03,3.871755594038635007e+00,0.000000000000000000e+00
1.046000000000000000e+03,4.166465885842768557e+00,0.000000000000000000e+00
1.047000000000000000e+03,-3.881012745106611206e+00,1.000000000000000000e+00
1.048000000000000000e+03,-6.449822778386233857e-01,0.000000000000000000e+00
1.049000000000000000e+03,-1.021137083681023627e+00,0.000000000000000000e+00
1.050000000000000000e+03,-5.299279340293833185e-01,0.000000000000000000e+00
1.051000000000000000e+03,-4.764272212578197774e-01,0.000000000000000000e+00
1.052000000000000000e+03,-4.001161003337041361e-02,0.000000000000000000e+00
1.053000000000000000e+03,-4.652180200280371936e-01,0.000000000000000000e+00
1.054000000000000000e+03,-1.198564225457360022e-01,0.000000000000000000e+00
1.055000000000000000e+03,-2.730366455153090954e-01,0.000000000000000000e+00
1.056000000000000000e+03,-5.306486959897195599e-02,0.000000000000000000e+00
1.057000000000000000e+03,1.823351659089409924e-02,0.000000000000000000e+00
1.058000000000000000e+03,2.843674297555631725e-01,0.000000000000000000e+00
1.059000000000000000e+03,1.874651890385810593e-01,0.000000000000000000e+00
1.060000000000000000e+03,2.891196251959954333e-01,0.000000000000000000e+00
1.061000000000000000e+03,2.771566077309800535e-01,0.000000000000000000e+00
1.062000000000000000e+03,3.278547669522081653e-01,0.000000000000000000e+00
1.063000000000000000e+03,-2.087834170314285809e-02,0.000000000000000000e+00
1.064000000000000000e+03,1.153059758693185388e-01,0.000000000000000000e+00
1.065000000000000000e+03,-2.963976655137187111e-01,0.000000000000000000e+00
1.066000000000000000e+03,-3.271931552980185676e-01,0.000000000000000000e+00
1.067000000000000000e+03,-4.781272499686984867e-01,0.000000000000000000e+00
1.068000000000000000e+03,-3.354499771852368917e-01,0.000000000000000000e+00
1.069000000000000000e+03,-2.168762366454281831e-01,0.000000000000000000e+00
1.070000000000000000e+03,-2.201183263971860926e-01,0.000000000000000000e+00
1.071000000000000000e+03,-1.017958517951478015e-01,0.000000000000000000e+00
1.072000000000000000e+03,-2.053691564804087377e-01,0.000000000000000000e+00
1.073000000000000000e+03,-5.362150877950958017e-02,0.000000000000000000e+00
1.074000000000000000e+03,-4.222782487441842370e-02,0.000000000000000000e+00
1.075000000000000000e+03,-8.020085937792627295e-02,0.000000000000000000e+00
1.076000000000000000e+03,1.218671880987485662e-01,0.000000000000000000e+00
1.077000000000000000e+03,-4.495904963852218050e-02,0.000000000000000000e+00
1.078000000000000000e+03,2.416475944905015494e-01,0.000000000000000000e+00
1.079000000000000000e+03,1.001582755527694567e-02,0.000000000000000000e+00
1.080000000000000000e+03,1.489672452852467965e-01,0.000000000000000000e+00
1.081000000000000000e+03,8.475994844092649139e-02,0.000000000000000000e+00
1.082000000000000000e+03,1.055820977677372347e-01,0.000000000000000000e+00
1.083000000000000000e+03,6.105508912604844241e-02,0.000000000000000000e+00
1.084000000000000000e+03,1.987823096897816388e-01,0.000000000000000000e+00
1.085000000000000000e+03,-3.943579855733517908e-02,0.000000000000000000e+00
1.086000000000000000e+03,2.518362004610411042e-01,0.000000000000000000e+00
1.087000000000000000e+03,1.616434175477388380e-01,0.000000000000000000e+00
1.088000000000000000e+03,3.548255093149220163e-01,0.000000000000000000e+00
1.089000000000000000e+03,3.904102761576966341e-01,0.000000000000000000e+00
1.090000000000000000e+03,7.239499407460486813e-01,0.000000000000000000e+00
1.091000000000000000e+03,2.449102668011260975e-01,0.000000000000000000e+00
1.092000000000000000e+03,-4.400553521161448128e-02,0.000000000000000000e+00
1.093000000000000000e+03,-3.526860488122151027e-01,0.000000000000000000e+00
1.094000000000000000e+03,-2.808975807030295035e-01,0.000000000000000000e+00
1.095000000000000000e+03,-3.210986777688060179e-01,0.000000000000000000e+00
1.096000000000000000e+03,-6.196036477328813880e-02,0.000000000000000000e+00
1.097000000000000000e+03,6.222511271476152128e-01,0.000000000000000000e+00
1.098000000000000000e+03,6.315866199776668743e+00,0.000000000000000000e+00
1.099000000000000000e+03,-1.685255945285157209e+00,1.000000000000000000e+00
1.100000000000000000e+03,-2.125648896172358526e+00,0.000000000000000000e+00
1.101000000000000000e+03,-6.603257865678708871e-01,0.000000000000000000e+00
1.102000000000000000e+03,-1.049032521796969375e+00,0.000000000000000000e+00
1.103000000000000000e+03,-4.688093974255364560e-01,0.000000000000000000e+00
1.104000000000000000e+03,-5.286202242123915207e-01,0.000000000000000000e+00
1.105000000000000000e+03,-2.978920838541090355e-01,0.000000000000000000e+00
1.106000000000000000e+03,-4.505913425640908354e-01,0.000000000000000000e+00
1.107000000000000000e+03,-4.723941163371279117e-01,0.000000000000000000e+00
1.108000000000000000e+03,-2.650297770577066392e-01,0.000000000000000000e+00
1.109000000000000000e+03,-1.297334424286712973e-01,0.000000000000000000e+00
1.110000000000000000e+03,-2.197451715369072300e-01,0.000000000000000000e+00
1.111000000000000000e+03,1.377266965381197250e-01,0.000000000000000000e+00
1.112000000000000000e+03,1.269074808743481109e-01,0.000000000000000000e+00
1.113000000000000000e+03,1.336480176848064416e-01,0.000000000000000000e+00
1.114000000000000000e+03,1.266438222620253351e-01,0.000000000000000000e+00
1.115000000000000000e+03,2.481276270631197489e-01,0.000000000000000000e+00
1.116000000000000000e+03,-9.769054313653980498e-03,0.000000000000000000e+00
1.117000000000000000e+03,-7.320517004487130108e-02,0.000000000000000000e+00
1.118000000000000000e+03,-4.563983397375577233e-01,0.000000000000000000e+00
1.119000000000000000e+03,-2.417285971384139087e-01,0.000000000000000000e+00
1.120000000000000000e+03,-3.301782137321228605e-01,0.000000000000000000e+00
1.121000000000000000e+03,-1.791098151998999355e-01,0.000000000000000000e+00
1.122000000000000000e+03,-4.367633391475580495e-01,0.000000000000000000e+00
1.123000000000000000e+03,-6.329927546547373107e-02,0.000000000000000000e+00
1.124000000000000000e+03,-2.886563156048532197e-01,0.000000000000000000e+00
1.125000000000000000e+03,-8.602760110394282178e-02,0.000000000000000000e+00
1.126000000000000000e+03,-7.007869204391331541e-02,0.000000000000000000e+00
1.127000000000000000e+03,2.494813800485092270e-01,0.000000000000000000e+00
1.128000000000000000e+03,4.751810153346925497e-02,0.000000000000000000e+00
1.129000000000000000e+03,2.196853901496308714e-01,0.000000000000000000e+00
1.130000000000000000e+03,-3.783694970550507963e-02,0.000000000000000000e+00
1.131000000000000000e+03,-1.290359616798617860e-02,0.000000000000000000e+00
1.132000000000000000e+03,1.872235919660765191e-01,0.000000000000000000e+00
1.133000000000000000e+03,3.043864719468016844e-01,0.000000000000000000e+00
1.134000000000000000e+03,8.121150162985515952e-02,0.000000000000000000e+00
1.135000000000000000e+03,2.113414779033860047e-01,0.000000000000000000e+00
1.136000000000000000e+03,2.440231767550241349e-01,0.000000000000000000e+00
1.137000000000000000e+03,1.686924199158535420e-01,0.000000000000000000e+00
1.138000000000000000e+03,1.898422210875058136e-01,0.000000000000000000e+00
1.139000000000000000e+03,6.246783789168641743e-02,0.000000000000000000e+00
1.140000000000000000e+03,1.880558903671603888e-01,0.000000000000000000e+00
1.141000000000000000e+03,1.150061281998343704e-01,0.000000000000000000e+00
1.142000000000000000e+03,2.587698669563405773e-01,0.000000000000000000e+00
1.143000000000000000e+03,5.573921190537620696e-01,0.000000000000000000e+00
1.144000000000000000e+03,3.913473217189182840e-01,0.000000000000000000e+00
1.145000000000000000e+03,7.487911293997767670e-01,0.000000000000000000e+00
1.146000000000000000e+03,-3.177931160294189539e-01,0.000000000000000000e+00
1.147000000000000000e+03,-6.006296903093078648e-02,0.000000000000000000e+00
1.148000000000000000e+03,-6.605477629296991893e-01,0.000000000000000000e+00
1.149000000000000000e+03,2.324700508106276320e-01,0.000000000000000000e+00
1.150000000000000000e+03,-4.637317049827882065e-01,0.000000000000000000e+00
1.151000000000000000e+03,3.215366770450967859e+00,0.000000000000000000e+00
1.152000000000000000e+03,4.968720367197464682e+00,0.000000000000000000e+00
1.153000000000000000e+03,-3.237523502125208008e+00,1.000000000000000000e+00
1.154000000000000000e+03,-9.847575308756614243e-01,0.000000000000000000e+00
1.155000000000000000e+03,-1.240848141637092894e+00,0.000000000000000000e+00
1.156000000000000000e+03,-5.226896468449897526e-01,0.000000000000000000e+00
1.157000000000000000e+03,-9.669345531766544433e-01,0.000000000000000000e+00
1.158000000000000000e+03,-3.773598957199522097e-01,0.000000000000000000e+00
1.159000000000000000e+03,-6.648001639940102070e-01,0.000000000000000000e+00
1.160000000000000000e+03,-3.852635369455309489e-01,0.000000000000000000e+00
1.161000000000000000e+03,-5.523940261307290767e-01,0.000000000000000000e+00
1.162000000000000000e+03,-2.652828346303200968e-01,0.000000000000000000e+00
1.163000000000000000e+03,-3.742788140631892468e-01,0.000000000000000000e+00
1.164000000000000000e+03,-4.273693738340428316e-02,0.000000000000000000e+00
1.165000000000000000e+03,-1.539632044854447601e-01,0.000000000000000000e+00
1.166000000000000000e+03,1.589011621366168692e-01,0.000000000000000000e+00
1.167000000000000000e+03,-9.441149240269149090e-02,0.000000000000000000e+00
1.168000000000000000e+03,1.479953607537348725e-01,0.000000000000000000e+00
1.169000000000000000e+03,-1.558046827588926812e-02,0.000000000000000000e+00
1.170000000000000000e+03,-6.803059498200773880e-02,0.000000000000000000e+00
1.171000000000000000e+03,-3.125913541862945233e-01,0.000000000000000000e+00
1.172000000000000000e+03,-3.900048947531755128e-01,0.000000000000000000e+00
1.173000000000000000e+03,-4.258685392011254400e-01,0.000000000000000000e+00
1.174000000000000000e+03,-2.384018312510497450e-01,0.000000000000000000e+00
1.175000000000000000e+03,-2.322799573915810545e-01,0.000000000000000000e+00
1.176000000000000000e+03,-1.798696160276271605e-01,0.000000000000000000e+00
1.177000000000000000e+03,-1.797562510710491168e-01,0.000000000000000000e+00
1.178000000000000000e+03,-6.699945891308974055e-02,0.000000000000000000e+00
1.179000000000000000e+03,-9.722090166229750696e-02,0.000000000000000000e+00
1.180000000000000000e+03,2.043959349940342174e-01,0.000000000000000000e+00
1.181000000000000000e+03,-2.059266998354507827e-01,0.000000000000000000e+00
1.182000000000000000e+03,2.255584183400286546e-01,0.000000000000000000e+00
1.183000000000000000e+03,-1.030535062266375590e-01,0.000000000000000000e+00
1.184000000000000000e+03,3.321929086417105825e-01,0.000000000000000000e+00
1.185000000000000000e+03,8.798900479429519472e-02,0.000000000000000000e+00
1.186000000000000000e+03,3.195186661544594520e-01,0.000000000000000000e+00
1.187000000000000000e+03,-5.711630809876901832e-02,0.000000000000000000e+00
1.188000000000000000e+03,2.716516245210781610e-01,0.000000000000000000e+00
1.189000000000000000e+03,1.625872962291828039e-01,0.000000000000000000e+00
1.190000000000000000e+03,8.825427569564826824e-02,0.000000000000000000e+00
1.191000000000000000e+03,1.881673955058661141e-01,0.000000000000000000e+00
1.192000000000000000e+03,3.112358676606774566e-01,0.000000000000000000e+00
1.193000000000000000e+03,1.141018409935451866e-01,0.000000000000000000e+00
1.194000000000000000e+03,2.466716979365176365e-01,0.000000000000000000e+00
1.195000000000000000e+03,1.586417396059836282e-01,0.000000000000000000e+00
1.196000000000000000e+03,5.386924896288526332e-01,0.000000000000000000e+00
1.197000000000000000e+03,2.110262197002531481e-01,0.000000000000000000e+00
1.198000000000000000e+03,7.959315457040931907e-01,0.000000000000000000e+00
1.199000000000000000e+03,5.523736588134195991e-01,0.000000000000000000e+00
1.200000000000000000e+03,3.362867608533487429e-01,0.000000000000000000e+00
1.201000000000000000e+03,-4.170496917151371719e-01,0.000000000000000000e+00
1.202000000000000000e+03,2.524205460531523393e-01,0.000000000000000000e+00
1.203000000000000000e+03,-6.498152836984889547e-01,0.000000000000000000e+00
1.204000000000000000e+03,5.686973851697367799e-01,0.000000000000000000e+00
1.205000000000000000e+03,-6.396502572176682166e-01,0.000000000000000000e+00
1.206000000000000000e+03,5.906360420431278513e+00,0.000000000000000000e+00
1.207000000000000000e+03,1.807640459101564456e+00,1.000000000000000000e+00
1.208000000000000000e+03,-3.248448869867005318e+00,0.000000000000000000e+00
1.209000000000000000e+03,-3.003758469484982818e-01,0.000000000000000000e+00
1.210000000000000000e+03,-1.406378297105130626e+00,0.000000000000000000e+00
1.211000000000000000e+03,-2.538541363575689824e-01,0.000000000000000000e+00
1.212000000000000000e+03,-9.094206212721409610e-01,0.000000000000000000e+00
1.213000000000000000e+03,-2.027902304708353032e-01,0.000000000000000000e+00
1.214000000000000000e+03,-6.352952699307224949e-01,0.000000000000000000e+00
1.215000000000000000e+03,-3.886792728167273031e-02,0.000000000000000000e+00
1.216000000000000000e+03,-4.894336983788270534e-01,0.000000000000000000e+00
1.217000000000000000e+03,-1.881242162761919551e-02,0.000000000000000000e+00
1.218000000000000000e+03,-2.906017493982593902e-01,0.000000000000000000e+00
1.219000000000000000e+03,2.319696707512250711e-01,0.000000000000000000e+00
1.220000000000000000e+03,-1.211657171144156220e-01,0.000000000000000000e+00
1.221000000000000000e+03,5.314571137110110088e-01,0.000000000000000000e+00
1.222000000000000000e+03,-1.884686549089042429e-01,0.000000000000000000e+00
1.223000000000000000e+03,3.160660654462388863e-01,0.000000000000000000e+00
1.224000000000000000e+03,-9.117705200998720005e-02,0.000000000000000000e+00
1.225000000000000000e+03,-5.618890524400878272e-02,0.000000000000000000e+00
1.226000000000000000e+03,-3.341659207490638717e-01,0.000000000000000000e+00
1.227000000000000000e+03,-7.941511020962066514e-02,0.000000000000000000e+00
1.228000000000000000e+03,-6.318633035436825862e-01,0.000000000000000000e+00
1.229000000000000000e+03,-1.287097963919202892e-01,0.000000000000000000e+00
1.230000000000000000e+03,-3.634093220258465817e-01,0.000000000000000000e+00
1.231000000000000000e+03,8.640620276181031068e-02,0.000000000000000000e+00
1.232000000000000000e+03,-3.107499514866543522e-01,0.000000000000000000e+00
1.233000000000000000e+03,1.164092229752579644e-01,0.000000000000000000e+00
1.234000000000000000e+03,-5.134900203335363011e-01,0.000000000000000000e+00
1.235000000000000000e+03,1.850923740756706126e-01,0.000000000000000000e+00
1.236000000000000000e+03,-3.564678200098134186e-01,0.000000000000000000e+00
1.237000000000000000e+03,1.594662392212407576e-01,0.000000000000000000e+00
1.238000000000000000e+03,6.573378518523109726e-02,0.000000000000000000e+00
1.239000000000000000e+03,2.284275294305653792e-01,0.000000000000000000e+00
1.240000000000000000e+03,-1.952592277700142265e-01,0.000000000000000000e+00
1.241000000000000000e+03,3.752998558157629172e-01,0.000000000000000000e+00
1.242000000000000000e+03,-2.555251597282802711e-01,0.000000000000000000e+00
1.243000000000000000e+03,1.691798027223048173e-01,0.000000000000000000e+00
1.244000000000000000e+03,-1.280210889024385734e-01,0.000000000000000000e+00
1.245000000000000000e+03,2.906743218379475580e-01,0.000000000000000000e+00
1.246000000000000000e+03,-1.064014334465122197e-01,0.000000000000000000e+00
1.247000000000000000e+03,-4.155413839196561709e-02,0.000000000000000000e+00
1.248000000000000000e+03,1.421176179638702353e-01,0.000000000000000000e+00
1.249000000000000000e+03,1.856479925718774737e-01,0.000000000000000000e+00
1.250000000000000000e+03,3.728984805207486986e-01,0.000000000000000000e+00
1.251000000000000000e+03,6.213813919022244114e-01,0.000000000000000000e+00
1.252000000000000000e+03,1.879882320401556339e-01,0.000000000000000000e+00
1.253000000000000000e+03,1.618223628570058248e-01,0.000000000000000000e+00
1.254000000000000000e+03,-6.808891410974219349e-01,0.000000000000000000e+00
1.255000000000000000e+03,1.779192424572332842e-01,0.000000000000000000e+00
1.256000000000000000e+03,-1.010449990261077735e+00,0.000000000000000000e+00
1.257000000000000000e+03,5.441789048637710735e-01,0.000000000000000000e+00
1.258000000000000000e+03,-6.902227131989384645e-01,0.000000000000000000e+00
1.259000000000000000e+03,5.981955650929070778e+00,0.000000000000000000e+00
1.260000000000000000e+03,4.679230540238449865e-01,1.000000000000000000e+00
1.261000000000000000e+03,-3.429959493727049669e+00,0.000000000000000000e+00
1.262000000000000000e+03,-3.189288711089571793e-01,0.000000000000000000e+00
1.263000000000000000e+03,-1.410760240202694860e+00,0.000000000000000000e+00
1.264000000000000000e+03,-4.869008479862691474e-01,0.000000000000000000e+00
1.265000000000000000e+03,-6.818583868937921899e-01,0.000000000000000000e+00
1.266000000000000000e+03,-3.230359992456073859e-01,0.000000000000000000e+00
1.267000000000000000e+03,-5.259499078701651564e-01,0.000000000000000000e+00
1.268000000000000000e+03,-2.011991144654442232e-01,0.000000000000000000e+00
1.269000000000000000e+03,-5.702652533615597541e-01,0.000000000000000000e+00
1.270000000000000000e+03,-4.076253618236400089e-02,0.000000000000000000e+00
1.271000000000000000e+03,2.359802614579381216e-02,0.000000000000000000e+00
1.272000000000000000e+03,2.468135198996709578e-01,0.000000000000000000e+00
1.273000000000000000e+03,-7.570046662947625161e-03,0.000000000000000000e+00
1.274000000000000000e+03,2.021817540471327335e-01,0.000000000000000000e+00
1.275000000000000000e+03,3.771946817261105922e-01,0.000000000000000000e+00
1.276000000000000000e+03,2.149756172560361445e-01,0.000000000000000000e+00
1.277000000000000000e+03,2.154861301830812426e-01,0.000000000000000000e+00
1.278000000000000000e+03,-1.580361802912907399e-01,0.000000000000000000e+00
1.279000000000000000e+03,-2.985950171220581040e-01,0.000000000000000000e+00
1.280000000000000000e+03,-3.287222018448963667e-01,0.000000000000000000e+00
1.281000000000000000e+03,-3.804952810467764346e-01,0.000000000000000000e+00
1.282000000000000000e+03,-3.292735605522269515e-01,0.000000000000000000e+00
1.283000000000000000e+03,-1.665193986870887044e-01,0.000000000000000000e+00
1.284000000000000000e+03,-2.552720688810741212e-01,0.000000000000000000e+00
1.285000000000000000e+03,-1.985597840364008160e-01,0.000000000000000000e+00
1.286000000000000000e+03,-7.157540185901181684e-02,0.000000000000000000e+00
1.287000000000000000e+03,-1.308086209971987823e-01,0.000000000000000000e+00
1.288000000000000000e+03,2.785619614889492390e-02,0.000000000000000000e+00
1.289000000000000000e+03,-8.942005878987389911e-02,0.000000000000000000e+00
1.290000000000000000e+03,1.442045880942690039e-01,0.000000000000000000e+00
1.291000000000000000e+03,-1.108506558873838393e-01,0.000000000000000000e+00
1.292000000000000000e+03,2.215715592696452796e-01,0.000000000000000000e+00
1.293000000000000000e+03,1.932205700690127481e-01,0.000000000000000000e+00
1.294000000000000000e+03,4.292528654371257496e-02,0.000000000000000000e+00
1.295000000000000000e+03,3.900337908316651725e-01,0.000000000000000000e+00
1.296000000000000000e+03,2.413670228330100712e-02,0.000000000000000000e+00
1.297000000000000000e+03,1.418230343284115347e-01,0.000000000000000000e+00
1.298000000000000000e+03,6.945864399499702968e-02,0.000000000000000000e+00
1.299000000000000000e+03,3.529702650747337800e-01,0.000000000000000000e+00
1.300000000000000000e+03,1.553779841264607553e-01,0.000000000000000000e+00
1.301000000000000000e+03,4.357592498836402317e-01,0.000000000000000000e+00
1.302000000000000000e+03,3.762951234717282212e-01,0.000000000000000000e+00
1.303000000000000000e+03,7.078339784754443809e-01,0.000000000000000000e+00
1.304000000000000000e+03,4.189628233552523673e-01,0.000000000000000000e+00
1.305000000000000000e+03,4.557752690708813392e-01,0.000000000000000000e+00
1.306000000000000000e+03,-5.383028274495540444e-01,0.000000000000000000e+00
1.307000000000000000e+03,2.413697964895046288e-01,0.000000000000000000e+00
1.308000000000000000e+03,-6.774751016461294517e-01,0.000000000000000000e+00
1.309000000000000000e+03,4.238693331416555354e-01,0.000000000000000000e+00
1.310000000000000000e+03,-2.350552081324625564e-01,0.000000000000000000e+00
1.311000000000000000e+03,6.332542223021916605e+00,0.000000000000000000e+00
1.312000000000000000e+03,-2.073895390804331162e-01,1.000000000000000000e+00
1.313000000000000000e+03,-2.843242663375097568e+00,0.000000000000000000e+00
1.314000000000000000e+03,-3.501163452817526722e-01,0.000000000000000000e+00
1.315000000000000000e+03,-1.040997443765666608e+00,0.000000000000000000e+00
1.316000000000000000e+03,-1.280635139013298895e-01,0.000000000000000000e+00
1.317000000000000000e+03,-6.046134947674910443e-01,0.000000000000000000e+00
1.318000000000000000e+03,-2.933900442374493336e-02,0.000000000000000000e+00
1.319000000000000000e+03,-4.420805776433757717e-01,0.000000000000000000e+00
1.320000000000000000e+03,1.245966859221930845e-01,0.000000000000000000e+00
1.321000000000000000e+03,-1.881752584251693006e-01,0.000000000000000000e+00
1.322000000000000000e+03,1.137151889398956839e-01,0.000000000000000000e+00
1.323000000000000000e+03,-1.053404907703196919e-01,0.000000000000000000e+00
1.324000000000000000e+03,2.043621200995389686e-01,0.000000000000000000e+00
1.325000000000000000e+03,7.882901926498502021e-02,0.000000000000000000e+00
1.326000000000000000e+03,4.608732552265731863e-01,0.000000000000000000e+00
1.327000000000000000e+03,2.000919254436562267e-01,0.000000000000000000e+00
1.328000000000000000e+03,3.702948323096240668e-01,0.000000000000000000e+00
1.329000000000000000e+03,-3.034181450645059494e-02,0.000000000000000000e+00
1.330000000000000000e+03,-4.610280933355347804e-02,0.000000000000000000e+00
1.331000000000000000e+03,-2.393277378246883857e-01,0.000000000000000000e+00
1.332000000000000000e+03,-3.457102644507882294e-01,0.000000000000000000e+00
1.333000000000000000e+03,-4.174058712128717596e-01,0.000000000000000000e+00
1.334000000000000000e+03,-1.886338051688460637e-01,0.000000000000000000e+00
1.335000000000000000e+03,-4.796002698433057820e-01,0.000000000000000000e+00
1.336000000000000000e+03,-1.948402358989472505e-01,0.000000000000000000e+00
1.337000000000000000e+03,-1.742045766506142568e-01,0.000000000000000000e+00
1.338000000000000000e+03,-2.557424434856754858e-01,0.000000000000000000e+00
1.339000000000000000e+03,-2.788015779799859484e-01,0.000000000000000000e+00
1.340000000000000000e+03,2.626334165393899925e-02,0.000000000000000000e+00
1.341000000000000000e+03,-2.281330070051101055e-01,0.000000000000000000e+00
1.342000000000000000e+03,4.106098583578030731e-02,0.000000000000000000e+00
1.343000000000000000e+03,8.359151701368887355e-02,0.000000000000000000e+00
1.344000000000000000e+03,7.844940035536325518e-02,0.000000000000000000e+00
1.345000000000000000e+03,-1.062323749590104865e-01,0.000000000000000000e+00
1.346000000000000000e+03,1.411726281809258798e-01,0.000000000000000000e+00
1.347000000000000000e+03,-1.827196190526386432e-01,0.000000000000000000e+00
1.348000000000000000e+03,3.523286143510543922e-01,0.000000000000000000e+00
1.349000000000000000e+03,2.322089148881179566e-01,0.000000000000000000e+00
1.350000000000000000e+03,9.654935617021910554e-02,0.000000000000000000e+00
1.351000000000000000e+03,-4.219131912943619583e-02,0.000000000000000000e+00
1.352000000000000000e+03,4.273585684083921477e-01,0.000000000000000000e+00
1.353000000000000000e+03,2.332209823464844942e-02,0.000000000000000000e+00
1.354000000000000000e+03,2.425572732178121471e-01,0.000000000000000000e+00
1.355000000000000000e+03,3.353811852537963989e-01,0.000000000000000000e+00
1.356000000000000000e+03,5.737440591315776661e-01,0.000000000000000000e+00
1.357000000000000000e+03,6.194651413459956180e-01,0.000000000000000000e+00
1.358000000000000000e+03,2.921350263503657563e-01,0.000000000000000000e+00
1.359000000000000000e+03,-5.537642986937316714e-01,0.000000000000000000e+00
1.360000000000000000e+03,-2.774199626413087136e-02,0.000000000000000000e+00
1.361000000000000000e+03,-9.319156342816966587e-01,0.000000000000000000e+00
1.362000000000000000e+03,4.984905317379380585e-01,0.000000000000000000e+00
1.363000000000000000e+03,-8.795460641677679270e-01,0.000000000000000000e+00
1.364000000000000000e+03,4.525360520634588823e+00,0.000000000000000000e+00
1.365000000000000000e+03,3.271892275949772166e+00,1.000000000000000000e+00
1.366000000000000000e+03,-3.677294456049658766e+00,0.000000000000000000e+00
1.367000000000000000e+03,-6.108211925414654964e-01,0.000000000000000000e+00
1.368000000000000000e+03,-1.416953652244788975e+00,0.000000000000000000e+00
1.369000000000000000e+03,-3.340844600298334965e-01,0.000000000000000000e+00
1.370000000000000000e+03,-9.488550274339540014e-01,0.000000000000000000e+00
1.371000000000000000e+03,-4.343773737559813442e-01,0.000000000000000000e+00
1.372000000000000000e+03,-6.373784073136516959e-01,0.000000000000000000e+00
1.373000000000000000e+03,-2.755366419532513933e-01,0.000000000000000000e+00
1.374000000000000000e+03,-2.570318562315121458e-01,0.000000000000000000e+00
1.375000000000000000e+03,-8.803455100151019730e-02,0.000000000000000000e+00
1.376000000000000000e+03,-3.409561684283911043e-01,0.000000000000000000e+00
1.377000000000000000e+03,1.002236926721434829e-01,0.000000000000000000e+00
1.378000000000000000e+03,-1.534086419347786279e-01,0.000000000000000000e+00
1.379000000000000000e+03,2.002820778899655485e-01,0.000000000000000000e+00
1.380000000000000000e+03,3.494262277984235693e-02,0.000000000000000000e+00
1.381000000000000000e+03,3.427733756783037933e-01,0.000000000000000000e+00
1.382000000000000000e+03,-9.285916541012828596e-02,0.000000000000000000e+00
1.383000000000000000e+03,-8.981086067636617765e-02,0.000000000000000000e+00
1.384000000000000000e+03,-5.203977461330515641e-01,0.000000000000000000e+00
1.385000000000000000e+03,-1.089335164775052794e-01,0.000000000000000000e+00
1.386000000000000000e+03,-4.335284324050305838e-01,0.000000000000000000e+00
1.387000000000000000e+03,-1.845719371139822040e-01,0.000000000000000000e+00
1.388000000000000000e+03,-4.161615840631582297e-01,0.000000000000000000e+00
1.389000000000000000e+03,-1.229013329853975989e-01,0.000000000000000000e+00
1.390000000000000000e+03,-4.445078517655817185e-01,0.000000000000000000e+00
1.391000000000000000e+03,-1.224288383316656237e-01,0.000000000000000000e+00
1.392000000000000000e+03,-1.008471080222378830e-01,0.000000000000000000e+00
1.393000000000000000e+03,-1.057210914964461929e-01,0.000000000000000000e+00
1.394000000000000000e+03,-3.250132185129905871e-01,0.000000000000000000e+00
1.395000000000000000e+03,1.351382645679991557e-01,0.000000000000000000e+00
1.396000000000000000e+03,-1.182705681267100933e-01,0.000000000000000000e+00
1.397000000000000000e+03,-3.509845216210775998e-03,0.000000000000000000e+00
1.398000000000000000e+03,-1.823461339938911852e-01,0.000000000000000000e+00
1.399000000000000000e+03,1.419507122503525232e-01,0.000000000000000000e+00
1.400000000000000000e+03,-1.834377334947525917e-01,0.000000000000000000e+00
1.401000000000000000e+03,2.852749568653072457e-02,0.000000000000000000e+00
1.402000000000000000e+03,7.047530456951478159e-03,0.000000000000000000e+00
1.403000000000000000e+03,1.168763003629964548e-01,0.000000000000000000e+00
1.404000000000000000e+03,-1.167499394930356788e-01,0.000000000000000000e+00
1.405000000000000000e+03,2.296982649738784910e-01,0.000000000000000000e+00
1.406000000000000000e+03,5.635541542557876565e-02,0.000000000000000000e+00
1.407000000000000000e+03,2.146700603561220722e-01,0.000000000000000000e+00
1.408000000000000000e+03,1.927063450237867862e-02,0.000000000000000000e+00
1.409000000000000000e+03,3.968272917471307726e-01,0.000000000000000000e+00
1.410000000000000000e+03,3.095991751362950906e-01,0.000000000000000000e+00
1.411000000000000000e+03,8.627749630037426787e-01,0.000000000000000000e+00
1.412000000000000000e+03,4.994759453309984276e-01,0.000000000000000000e+00
1.413000000000000000e+03,5.005100622558935619e-01,0.000000000000000000e+00
1.414000000000000000e+03,-4.462733033456340870e-01,0.000000000000000000e+00
1.415000000000000000e+03,1.010138630913150620e-01,0.000000000000000000e+00
1.416000000000000000e+03,-5.384230819133636325e-01,0.000000000000000000e+00
1.417000000000000000e+03,6.060892062389592327e-01,0.000000000000000000e+00
1.418000000000000000e+03,-7.722217093611136729e-01,0.000000000000000000e+00
1.419000000000000000e+03,4.893184980350874014e+00,0.000000000000000000e+00
1.420000000000000000e+03,3.737713368338649200e+00,1.000000000000000000e+00
1.421000000000000000e+03,-3.441928428072256185e+00,0.000000000000000000e+00
1.422000000000000000e+03,-1.942767818871063423e-01,0.000000000000000000e+00
1.423000000000000000e+03,-1.451226027380737582e+00,0.000000000000000000e+00
1.424000000000000000e+03,-3.739255188247889161e-01,0.000000000000000000e+00
1.425000000000000000e+03,-7.899773473526763290e-01,0.000000000000000000e+00
1.426000000000000000e+03,-2.617100229007841561e-01,0.000000000000000000e+00
1.427000000000000000e+03,-4.775820926303078751e-01,0.000000000000000000e+00
1.428000000000000000e+03,-1.013304032231924084e-01,0.000000000000000000e+00
1.429000000000000000e+03,-2.166933087581193185e-01,0.000000000000000000e+00
1.430000000000000000e+03,-1.571237980520853450e-01,0.000000000000000000e+00
1.431000000000000000e+03,-1.831667786613231375e-01,0.000000000000000000e+00
1.432000000000000000e+03,2.173321526218262856e-01,0.000000000000000000e+00
1.433000000000000000e+03,-1.154227972772868815e-01,0.000000000000000000e+00
1.434000000000000000e+03,2.804466679448611166e-01,0.000000000000000000e+00
1.435000000000000000e+03,2.589493045402039284e-01,0.000000000000000000e+00
1.436000000000000000e+03,2.220711037389424825e-01,0.000000000000000000e+00
1.437000000000000000e+03,-1.049712382744240613e-01,0.000000000000000000e+00
1.438000000000000000e+03,-1.171908385607450115e-01,0.000000000000000000e+00
1.439000000000000000e+03,-3.107346628650374254e-01,0.000000000000000000e+00
1.440000000000000000e+03,-3.159257277699847322e-01,0.000000000000000000e+00
1.441000000000000000e+03,-2.747487535200726083e-01,0.000000000000000000e+00
1.442000000000000000e+03,-1.846996271373374243e-01,0.000000000000000000e+00
1.443000000000000000e+03,-3.151921149235410446e-01,0.000000000000000000e+00
1.444000000000000000e+03,-8.137668301573350305e-02,0.000000000000000000e+00
1.445000000000000000e+03,-1.942020197202403153e-01,0.000000000000000000e+00
1.446000000000000000e+03,-1.750255913764277027e-01,0.000000000000000000e+00
1.447000000000000000e+03,-1.544293075427506656e-01,0.000000000000000000e+00
1.448000000000000000e+03,4.144292032203454601e-02,0.000000000000000000e+00
1.449000000000000000e+03,-4.192709671507435787e-02,0.000000000000000000e+00
1.450000000000000000e+03,2.284387145969390409e-01,0.000000000000000000e+00
1.451000000000000000e+03,5.963174056025904307e-02,0.000000000000000000e+00
1.452000000000000000e+03,6.290876176093515570e-02,0.000000000000000000e+00
1.453000000000000000e+03,2.075930990250400912e-02,0.000000000000000000e+00
1.454000000000000000e+03,-1.536055759695358069e-02,0.000000000000000000e+00
1.455000000000000000e+03,2.485376467796041322e-01,0.000000000000000000e+00
1.456000000000000000e+03,1.926293915661091705e-01,0.000000000000000000e+00
1.457000000000000000e+03,1.020474388608589578e-01,0.000000000000000000e+00
1.458000000000000000e+03,2.517037911745381162e-01,0.000000000000000000e+00
1.459000000000000000e+03,1.788845465566564763e-01,0.000000000000000000e+00
1.460000000000000000e+03,3.270020414331107905e-01,0.000000000000000000e+00
1.461000000000000000e+03,1.641456594530599222e-01,0.000000000000000000e+00
1.462000000000000000e+03,4.477710281420870797e-01,0.000000000000000000e+00
1.463000000000000000e+03,2.643671244492865058e-01,0.000000000000000000e+00
1.464000000000000000e+03,5.153373135116808834e-01,0.000000000000000000e+00
1.465000000000000000e+03,6.514553842602680556e-01,0.000000000000000000e+00
1.466000000000000000e+03,6.353292049760868032e-01,0.000000000000000000e+00
1.467000000000000000e+03,1.948192798700304762e-01,0.000000000000000000e+00
1.468000000000000000e+03,-5.873519407513302371e-01,0.000000000000000000e+00
1.469000000000000000e+03,-9.370470569657543547e-02,0.000000000000000000e+00
1.470000000000000000e+03,-7.496901798092143743e-01,0.000000000000000000e+00
1.471000000000000000e+03,1.317585371110615855e-01,0.000000000000000000e+00
1.472000000000000000e+03,1.150182471223424180e-01,0.000000000000000000e+00
1.473000000000000000e+03,6.115679891673607038e+00,0.000000000000000000e+00
1.474000000000000000e+03,-8.572190128756369543e-01,1.000000000000000000e+00
1.475000000000000000e+03,-3.003978913741083279e+00,0.000000000000000000e+00
1.476000000000000000e+03,-2.241886963843096603e-01,0.000000000000000000e+00
1.477000000000000000e+03,-1.359863994369013840e+00,0.000000000000000000e+00
1.478000000000000000e+03,-1.221316485636163712e-01,0.000000000000000000e+00
1.479000000000000000e+03,-7.762811984837806323e-01,0.000000000000000000e+00
1.480000000000000000e+03,-2.198140837302521855e-01,0.000000000000000000e+00
1.481000000000000000e+03,-3.326756269248188347e-01,0.000000000000000000e+00
1.482000000000000000e+03,5.328739921000024554e-02,0.000000000000000000e+00
1.483000000000000000e+03,-3.641944705449712827e-01,0.000000000000000000e+00
1.484000000000000000e+03,-1.053521505586025447e-02,0.000000000000000000e+00
1.485000000000000000e+03,-1.512089045683607524e-01,0.000000000000000000e+00
1.486000000000000000e+03,1.572573536260792604e-01,0.000000000000000000e+00
1.487000000000000000e+03,-1.050068161033395828e-02,0.000000000000000000e+00
1.488000000000000000e+03,6.138735052801633785e-01,0.000000000000000000e+00
1.489000000000000000e+03,1.296833249759620221e-01,0.000000000000000000e+00
1.490000000000000000e+03,2.863887316996277521e-01,0.000000000000000000e+00
1.491000000000000000e+03,-3.045224212840124123e-01,0.000000000000000000e+00
1.492000000000000000e+03,1.479028237673956497e-02,0.000000000000000000e+00
1.493000000000000000e+03,-4.825717969771308735e-01,0.000000000000000000e+00
1.494000000000000000e+03,-3.762560812881107219e-01,0.000000000000000000e+00
1.495000000000000000e+03,-3.229109617706258928e-01,0.000000000000000000e+00
1.496000000000000000e+03,-3.298548754419755036e-01,0.000000000000000000e+00
1.497000000000000000e+03,-3.308710015084516121e-01,0.000000000000000000e+00
1.498000000000000000e+03,-2.645471777450466022e-01,0.000000000000000000e+00
1.499000000000000000e+03,-2.291936673629714760e-01,0.000000000000000000e+00
1.500000000000000000e+03,-1.484152719271141785e-01,0.000000000000000000e+00
1.501000000000000000e+03,-2.133562318160226734e-01,0.000000000000000000e+00
1.502000000000000000e+03,-9.414627772017143681e-02,0.000000000000000000e+00
1.503000000000000000e+03,-1.620800149915097021e-01,0.000000000000000000e+00
1.504000000000000000e+03,-5.004597085795295386e-02,0.000000000000000000e+00
1.505000000000000000e+03,-2.820165019098164749e-01,0.000000000000000000e+00
1.506000000000000000e+03,3.069216108259532616e-01,0.000000000000000000e+00
1.507000000000000000e+03,-2.865200835608662233e-01,0.000000000000000000e+00
1.508000000000000000e+03,1.368176025993184108e-01,0.000000000000000000e+00
1.509000000000000000e+03,-3.078075099042453799e-01,0.000000000000000000e+00
1.510000000000000000e+03,1.697040412508500073e-01,0.000000000000000000e+00
1.511000000000000000e+03,-7.522140306232134865e-02,0.000000000000000000e+00
1.512000000000000000e+03,1.364629016083901414e-01,0.000000000000000000e+00
1.513000000000000000e+03,-1.428890380756253353e-01,0.000000000000000000e+00
1.514000000000000000e+03,3.410989559876459465e-01,0.000000000000000000e+00
1.515000000000000000e+03,5.582809830691133277e-03,0.000000000000000000e+00
1.516000000000000000e+03,6.896479427278356944e-01,0.000000000000000000e+00
1.517000000000000000e+03,3.557511622608815482e-01,0.000000000000000000e+00
1.518000000000000000e+03,3.854696693281907671e-01,0.000000000000000000e+00
1.519000000000000000e+03,-6.868740483085136184e-01,0.000000000000000000e+00
1.520000000000000000e+03,1.267505092337485595e-01,0.000000000000000000e+00
1.521000000000000000e+03,-7.894591122430952845e-01,0.000000000000000000e+00
1.522000000000000000e+03,5.394771853132875883e-01,0.000000000000000000e+00
1.523000000000000000e+03,-6.493222091498572768e-01,0.000000000000000000e+00
1.524000000000000000e+03,4.874889179521836091e+00,0.000000000000000000e+00
1.525000000000000000e+03,2.497420134281516990e+00,1.000000000000000000e+00
1.526000000000000000e+03,-3.682791510871372687e+00,0.000000000000000000e+00
1.527000000000000000e+03,-2.420256525352511567e-01,0.000000000000000000e+00
1.528000000000000000e+03,-1.482135550912933697e+00,0.000000000000000000e+00
1.529000000000000000e+03,2.025770606925160200e-01,0.000000000000000000e+00
1.530000000000000000e+03,-7.666255930496833626e-01,0.000000000000000000e+00
1.531000000000000000e+03,1.044949882755593640e-01,0.000000000000000000e+00
1.532000000000000000e+03,-5.589100005402560800e-01,0.000000000000000000e+00
1.533000000000000000e+03,3.094370025938957339e-02,0.000000000000000000e+00
1.534000000000000000e+03,-4.064217604796111494e-01,0.000000000000000000e+00
1.535000000000000000e+03,3.077654303429649962e-01,0.000000000000000000e+00
1.536000000000000000e+03,-6.629324837481273547e-02,0.000000000000000000e+00
1.537000000000000000e+03,1.576800518863651912e-01,0.000000000000000000e+00
1.538000000000000000e+03,2.131766356155428421e-01,0.000000000000000000e+00
1.539000000000000000e+03,4.197351117479666827e-01,0.000000000000000000e+00
1.540000000000000000e+03,3.181238841029599973e-01,0.000000000000000000e+00
1.541000000000000000e+03,4.974499058440935984e-01,0.000000000000000000e+00
1.542000000000000000e+03,1.270361741153309965e-01,0.000000000000000000e+00
1.543000000000000000e+03,3.272383311766127040e-03,0.000000000000000000e+00
1.544000000000000000e+03,-3.916766758193250819e-01,0.000000000000000000e+00
1.545000000000000000e+03,-1.979951892970096827e-01,0.000000000000000000e+00
1.546000000000000000e+03,-2.327026506280739371e-01,0.000000000000000000e+00
1.547000000000000000e+03,-1.991480407929668017e-01,0.000000000000000000e+00
1.548000000000000000e+03,-1.754638240219875134e-01,0.000000000000000000e+00
1.549000000000000000e+03,-1.902059190057942273e-01,0.000000000000000000e+00
1.550000000000000000e+03,-3.621096568445071329e-01,0.000000000000000000e+00
1.551000000000000000e+03,5.169566828313429396e-02,0.000000000000000000e+00
1.552000000000000000e+03,-4.052115085252775417e-01,0.000000000000000000e+00
1.553000000000000000e+03,-8.298204804996849038e-02,0.000000000000000000e+00
1.554000000000000000e+03,-1.708396456563694710e-02,0.000000000000000000e+00
1.555000000000000000e+03,6.229994072063641669e-02,0.000000000000000000e+00
1.556000000000000000e+03,-1.793189741753340241e-02,0.000000000000000000e+00
1.557000000000000000e+03,9.181533269387451290e-02,0.000000000000000000e+00
1.558000000000000000e+03,-2.286731199181908647e-01,0.000000000000000000e+00
1.559000000000000000e+03,2.688756228614108679e-01,0.000000000000000000e+00
1.560000000000000000e+03,-1.079629329849803171e-01,0.000000000000000000e+00
1.561000000000000000e+03,3.340300065711172550e-01,0.000000000000000000e+00
1.562000000000000000e+03,-1.443631818066751782e-01,0.000000000000000000e+00
1.563000000000000000e+03,1.726742123066937751e-01,0.000000000000000000e+00
1.564000000000000000e+03,-1.516913650913331024e-01,0.000000000000000000e+00
1.565000000000000000e+03,3.286329616491371342e-01,0.000000000000000000e+00
1.566000000000000000e+03,-5.548262450357623575e-03,0.000000000000000000e+00
1.567000000000000000e+03,4.837862984741501116e-01,0.000000000000000000e+00
1.568000000000000000e+03,2.135352371121504444e-01,0.000000000000000000e+00
1.569000000000000000e+03,7.108938599659186952e-01,0.000000000000000000e+00
1.570000000000000000e+03,5.347594399840914781e-01,0.000000000000000000e+00
1.571000000000000000e+03,-2.237633944173340189e-02,0.000000000000000000e+00
1.572000000000000000e+03,-3.240627069912090374e-01,0.000000000000000000e+00
1.573000000000000000e+03,-1.328565177312207857e-01,0.000000000000000000e+00
1.574000000000000000e+03,-3.565218701698408821e-01,0.000000000000000000e+00
1.575000000000000000e+03,2.682058364933273542e-01,0.000000000000000000e+00
1.576000000000000000e+03,3.727987945125479374e-01,0.000000000000000000e+00
1.577000000000000000e+03,6.281629350960083791e+00,0.000000000000000000e+00
1.578000000000000000e+03,-1.255781619703947971e+00,1.000000000000000000e+00
1.579000000000000000e+03,-2.275823806692590878e+00,0.000000000000000000e+00
1.580000000000000000e+03,-5.511965443771486006e-01,0.000000000000000000e+00
1.581000000000000000e+03,-8.746718381943979770e-01,0.000000000000000000e+00
1.582000000000000000e+03,-4.877252920089895638e-01,0.000000000000000000e+00
1.583000000000000000e+03,-5.977263565032369108e-01,0.000000000000000000e+00
1.584000000000000000e+03,-2.917622431668097649e-01,0.000000000000000000e+00
1.585000000000000000e+03,-4.901349551315468678e-01,0.000000000000000000e+00
1.586000000000000000e+03,2.094828248684824090e-02,0.000000000000000000e+00
