timestamp,ecg_measurement,qrs_detected
0.000000000000000000e+00,2.190501518888349486e-01,0.000000000000000000e+00
1.000000000000000000e+00,3.568190207723809237e-01,0.000000000000000000e+00
2.000000000000000000e+00,-2.473823601413102924e-01,0.000000000000000000e+00
3.000000000000000000e+00,-6.696976056463037341e-02,0.000000000000000000e+00
4.000000000000000000e+00,2.893230503794340727e-02,0.000000000000000000e+00
5.000000000000000000e+00,1.605289546121645705e-01,0.000000000000000000e+00
6.000000000000000000e+00,3.581815371661197789e-01,0.000000000000000000e+00
7.000000000000000000e+00,3.642941784802065985e+00,0.000000000000000000e+00
8.000000000000000000e+00,2.539874491963137193e-01,1.000000000000000000e+00
9.000000000000000000e+00,-2.864017327164316562e-01,0.000000000000000000e+00
1.000000000000000000e+01,1.621283680116457349e-01,0.000000000000000000e+00
1.100000000000000000e+01,3.622360288496220826e-02,0.000000000000000000e+00
1.200000000000000000e+01,4.063160605421886618e-01,0.000000000000000000e+00
1.300000000000000000e+01,-2.304474470583087534e-02,0.000000000000000000e+00
1.400000000000000000e+01,4.443029141315261721e-01,0.000000000000000000e+00
1.500000000000000000e+01,4.798162838561119692e-01,0.000000000000000000e+00
1.600000000000000000e+01,6.610605170974401812e-01,0.000000000000000000e+00
1.700000000000000000e+01,4.252508666804269977e-01,0.000000000000000000e+00
1.800000000000000000e+01,9.414487026242090995e-01,0.000000000000000000e+00
1.900000000000000000e+01,1.167996122183116769e+00,0.000000000000000000e+00
2.000000000000000000e+01,1.689587799488198483e+00,0.000000000000000000e+00
2.100000000000000000e+01,1.596457040978948694e+00,0.000000000000000000e+00
2.200000000000000000e+01,1.643109613993530393e+00,0.000000000000000000e+00
2.300000000000000000e+01,6.573703508129336015e-01,0.000000000000000000e+00
2.400000000000000000e+01,-6.193914770851656204e-01,0.000000000000000000e+00
2.500000000000000000e+01,-1.910991513240791306e+00,0.000000000000000000e+00
2.600000000000000000e+01,-1.479346227489143351e+00,0.000000000000000000e+00
2.700000000000000000e+01,-1.417232417984118475e+00,0.000000000000000000e+00
2.800000000000000000e+01,-1.623558209297013777e+00,0.000000000000000000e+00
2.900000000000000000e+01,-1.425203837143445451e+00,0.000000000000000000e+00
3.000000000000000000e+01,-1.025063278999049698e+00,0.000000000000000000e+00
3.100000000000000000e+01,-1.197798732944112654e+00,0.000000000000000000e+00
3.200000000000000000e+01,-6.876443631387028077e-01,0.000000000000000000e+00
3.300000000000000000e+01,-8.920506193378868742e-01,0.000000000000000000e+00
3.400000000000000000e+01,-6.992428943687659659e-01,0.000000000000000000e+00
3.500000000000000000e+01,-4.465335954004010510e-01,0.000000000000000000e+00
3.600000000000000000e+01,-2.555966243964747919e-01,0.000000000000000000e+00
3.700000000000000000e+01,-2.159198340137882810e-01,0.000000000000000000e+00
3.800000000000000000e+01,-4.190828937583011005e-01,0.000000000000000000e+00
3.900000000000000000e+01,-5.260162361363068806e-01,0.000000000000000000e+00
4.000000000000000000e+01,-4.028010922023384510e-01,0.000000000000000000e+00
4.100000000000000000e+01,-1.822465385695155593e-01,0.000000000000000000e+00
4.200000000000000000e+01,2.151942045553063843e-01,0.000000000000000000e+00
4.300000000000000000e+01,1.278292142926116814e-01,0.000000000000000000e+00
4.400000000000000000e+01,2.296446249703860409e-01,0.000000000000000000e+00
4.500000000000000000e+01,2.675761048728448888e-01,0.000000000000000000e+00
4.600000000000000000e+01,4.480843143597720291e-01,0.000000000000000000e+00
4.700000000000000000e+01,-2.186156590418490975e-01,0.000000000000000000e+00
4.800000000000000000e+01,7.908065806216400817e-02,0.000000000000000000e+00
4.900000000000000000e+01,-4.567841668149756340e-01,0.000000000000000000e+00
5.000000000000000000e+01,3.751093333690218024e-01,0.000000000000000000e+00
5.100000000000000000e+01,7.774791831811728171e-02,0.000000000000000000e+00
5.200000000000000000e+01,3.263708280711061782e+00,0.000000000000000000e+00
5.300000000000000000e+01,1.630362708383274351e+00,1.000000000000000000e+00
5.400000000000000000e+01,-7.649132243789953378e-01,0.000000000000000000e+00
5.500000000000000000e+01,1.013398687926727465e-01,0.000000000000000000e+00
5.600000000000000000e+01,-5.010044697655186008e-01,0.000000000000000000e+00
5.700000000000000000e+01,-9.609174604618075932e-02,0.000000000000000000e+00
5.800000000000000000e+01,5.393687780393722347e-02,0.000000000000000000e+00
5.900000000000000000e+01,2.402559385226271660e-01,0.000000000000000000e+00
6.000000000000000000e+01,5.008864270885853009e-02,0.000000000000000000e+00
6.100000000000000000e+01,5.724877610572088882e-01,0.000000000000000000e+00
6.200000000000000000e+01,4.281355925404906060e-01,0.000000000000000000e+00
6.300000000000000000e+01,8.637733795061416364e-01,0.000000000000000000e+00
6.400000000000000000e+01,1.045812379428377570e+00,0.000000000000000000e+00
6.500000000000000000e+01,1.869881058582638644e+00,0.000000000000000000e+00
6.600000000000000000e+01,1.733208054088879235e+00,0.000000000000000000e+00
6.700000000000000000e+01,1.827380852032422620e+00,0.000000000000000000e+00
6.800000000000000000e+01,7.475698976863794920e-01,0.000000000000000000e+00
6.900000000000000000e+01,-6.237460971239360275e-01,0.000000000000000000e+00
7.000000000000000000e+01,-1.182334658989088849e+00,0.000000000000000000e+00
7.100000000000000000e+01,-1.600529369628335807e+00,0.000000000000000000e+00
7.200000000000000000e+01,-1.627826189578547078e+00,0.000000000000000000e+00
7.300000000000000000e+01,-1.497061537394907660e+00,0.000000000000000000e+00
7.400000000000000000e+01,-1.549910504145148415e+00,0.000000000000000000e+00
7.500000000000000000e+01,-1.024825643578436196e+00,0.000000000000000000e+00
7.600000000000000000e+01,-1.214528493076553195e+00,0.000000000000000000e+00
7.700000000000000000e+01,-7.307810639237886097e-01,0.000000000000000000e+00
7.800000000000000000e+01,-8.841739378950952410e-01,0.000000000000000000e+00
7.900000000000000000e+01,-9.373452310759425865e-01,0.000000000000000000e+00
8.000000000000000000e+01,-3.682475539056400127e-01,0.000000000000000000e+00
8.100000000000000000e+01,-6.381757772553187102e-01,0.000000000000000000e+00
8.200000000000000000e+01,-8.532510186555695153e-01,0.000000000000000000e+00
8.300000000000000000e+01,-2.098430532832039619e-01,0.000000000000000000e+00
8.400000000000000000e+01,-2.984844624678970049e-01,0.000000000000000000e+00
8.500000000000000000e+01,-4.726625201187140135e-01,0.000000000000000000e+00
8.600000000000000000e+01,-1.059414863789673745e-03,0.000000000000000000e+00
8.700000000000000000e+01,-3.985582452312029234e-01,0.000000000000000000e+00
8.800000000000000000e+01,-3.718269401422027304e-02,0.000000000000000000e+00
8.900000000000000000e+01,1.479955537278168365e-01,0.000000000000000000e+00
9.000000000000000000e+01,8.628542772996397048e-01,0.000000000000000000e+00
9.100000000000000000e+01,9.039557464099605422e-02,0.000000000000000000e+00
9.200000000000000000e+01,3.433115734883736975e-02,0.000000000000000000e+00
9.300000000000000000e+01,-6.363550299607564908e-02,0.000000000000000000e+00
9.400000000000000000e+01,6.770587573048851560e-02,0.000000000000000000e+00
9.500000000000000000e+01,-3.399763531338906852e-01,0.000000000000000000e+00
9.600000000000000000e+01,1.676338399745700702e-01,0.000000000000000000e+00
9.700000000000000000e+01,-2.249273029383747763e-02,0.000000000000000000e+00
9.800000000000000000e+01,3.781571724440666138e+00,0.000000000000000000e+00
9.900000000000000000e+01,1.031181662085546735e+00,1.000000000000000000e+00
1.000000000000000000e+02,-9.442683037119693479e-01,0.000000000000000000e+00
1.010000000000000000e+02,4.854686445457879335e-02,0.000000000000000000e+00
1.020000000000000000e+02,-3.269572599907470400e-01,0.000000000000000000e+00
1.030000000000000000e+02,1.762239534507446248e-01,0.000000000000000000e+00
1.040000000000000000e+02,-1.070002459758685048e-01,0.000000000000000000e+00
1.050000000000000000e+02,3.537976039622237057e-01,0.000000000000000000e+00
1.060000000000000000e+02,3.255826839815290086e-01,0.000000000000000000e+00
1.070000000000000000e+02,4.971804346586897183e-01,0.000000000000000000e+00
1.080000000000000000e+02,3.292663620425948512e-01,0.000000000000000000e+00
1.090000000000000000e+02,1.039066752055754383e+00,0.000000000000000000e+00
1.100000000000000000e+02,1.059092887707550501e+00,0.000000000000000000e+00
1.110000000000000000e+02,1.518306420598336759e+00,0.000000000000000000e+00
1.120000000000000000e+02,1.989121018958127873e+00,0.000000000000000000e+00
1.130000000000000000e+02,1.828780170080915202e+00,0.000000000000000000e+00
1.140000000000000000e+02,8.132770930865004244e-01,0.000000000000000000e+00
1.150000000000000000e+02,-5.765011960943128289e-01,0.000000000000000000e+00
1.160000000000000000e+02,-1.354808464156930459e+00,0.000000000000000000e+00
1.170000000000000000e+02,-1.661616224454110835e+00,0.000000000000000000e+00
1.180000000000000000e+02,-1.634682490618280415e+00,0.000000000000000000e+00
1.190000000000000000e+02,-9.385191298005050031e-01,0.000000000000000000e+00
1.200000000000000000e+02,-1.702177385169057588e+00,0.000000000000000000e+00
1.210000000000000000e+02,-1.045190260975576768e+00,0.000000000000000000e+00
1.220000000000000000e+02,-1.055811794113145075e+00,0.000000000000000000e+00
1.230000000000000000e+02,-6.380445983505405039e-01,0.000000000000000000e+00
1.240000000000000000e+02,-4.306346873930964603e-01,0.000000000000000000e+00
1.250000000000000000e+02,-3.771770933809198145e-01,0.000000000000000000e+00
1.260000000000000000e+02,-2.394523739068846191e-01,0.000000000000000000e+00
1.270000000000000000e+02,-3.365065286051895921e-01,0.000000000000000000e+00
1.280000000000000000e+02,-1.940902146471162604e-01,0.000000000000000000e+00
1.290000000000000000e+02,-9.908667137522628177e-02,0.000000000000000000e+00
1.300000000000000000e+02,-1.624891573659296429e-01,0.000000000000000000e+00
1.310000000000000000e+02,-3.275795279633699764e-01,0.000000000000000000e+00
1.320000000000000000e+02,-1.347374649875481833e-01,0.000000000000000000e+00
1.330000000000000000e+02,2.573057389031670472e-01,0.000000000000000000e+00
1.340000000000000000e+02,7.252808371065129489e-02,0.000000000000000000e+00
1.350000000000000000e+02,6.207728485057041334e-01,0.000000000000000000e+00
1.360000000000000000e+02,4.081706196873764458e-01,0.000000000000000000e+00
1.370000000000000000e+02,3.862728741032759872e-01,0.000000000000000000e+00
1.380000000000000000e+02,-1.709296654230997581e-01,0.000000000000000000e+00
1.390000000000000000e+02,4.151156487211250523e-01,0.000000000000000000e+00
1.400000000000000000e+02,-3.637254166358560026e-01,0.000000000000000000e+00
1.410000000000000000e+02,4.685693687746973479e-01,0.000000000000000000e+00
1.420000000000000000e+02,-6.005720689510461729e-02,0.000000000000000000e+00
1.430000000000000000e+02,4.052653266513268626e+00,0.000000000000000000e+00
1.440000000000000000e+02,9.736539406107670436e-01,1.000000000000000000e+00
1.450000000000000000e+02,-7.364980949632858875e-01,0.000000000000000000e+00
1.460000000000000000e+02,9.065569159268312832e-03,0.000000000000000000e+00
1.470000000000000000e+02,-6.692434780233224023e-01,0.000000000000000000e+00
1.480000000000000000e+02,3.847781486688182095e-01,0.000000000000000000e+00
1.490000000000000000e+02,1.402144938804785745e-01,0.000000000000000000e+00
1.500000000000000000e+02,-2.766551148871227231e-02,0.000000000000000000e+00
1.510000000000000000e+02,2.201364787158285041e-01,0.000000000000000000e+00
1.520000000000000000e+02,6.367961299896260918e-01,0.000000000000000000e+00
1.530000000000000000e+02,5.122301241816298312e-01,0.000000000000000000e+00
1.540000000000000000e+02,9.935291421645374710e-01,0.000000000000000000e+00
1.550000000000000000e+02,1.017524541906450253e+00,0.000000000000000000e+00
1.560000000000000000e+02,1.840211267470512446e+00,0.000000000000000000e+00
1.570000000000000000e+02,1.892206255216412725e+00,0.000000000000000000e+00
1.580000000000000000e+02,1.856549547203666162e+00,0.000000000000000000e+00
1.590000000000000000e+02,6.416943547632874001e-01,0.000000000000000000e+00
1.600000000000000000e+02,-2.135284507240527707e-01,0.000000000000000000e+00
1.610000000000000000e+02,-1.578576265551217661e+00,0.000000000000000000e+00
1.620000000000000000e+02,-1.504551868697486139e+00,0.000000000000000000e+00
1.630000000000000000e+02,-1.432705060146830522e+00,0.000000000000000000e+00
1.640000000000000000e+02,-1.457163359903087319e+00,0.000000000000000000e+00
1.650000000000000000e+02,-1.185172821940303933e+00,0.000000000000000000e+00
1.660000000000000000e+02,-1.348786693275164206e+00,0.000000000000000000e+00
1.670000000000000000e+02,-9.355243198391173243e-01,0.000000000000000000e+00
1.680000000000000000e+02,-7.631703543566891179e-01,0.000000000000000000e+00
1.690000000000000000e+02,-8.790534630928541482e-01,0.000000000000000000e+00
1.700000000000000000e+02,-5.677018965270982376e-01,0.000000000000000000e+00
1.710000000000000000e+02,-2.108467909837823395e-01,0.000000000000000000e+00
1.720000000000000000e+02,-3.502997058302362299e-01,0.000000000000000000e+00
1.730000000000000000e+02,-6.395703046753871135e-01,0.000000000000000000e+00
1.740000000000000000e+02,-5.917891248924346537e-02,0.000000000000000000e+00
1.750000000000000000e+02,-2.902889273831392725e-01,0.000000000000000000e+00
1.760000000000000000e+02,-1.576951450407250988e-01,0.000000000000000000e+00
1.770000000000000000e+02,-4.494982430725944500e-01,0.000000000000000000e+00
1.780000000000000000e+02,5.264103247826421583e-01,0.000000000000000000e+00
1.790000000000000000e+02,4.742104330246039307e-02,0.000000000000000000e+00
1.800000000000000000e+02,2.327656810209418059e-01,0.000000000000000000e+00
1.810000000000000000e+02,-5.370264819692024405e-01,0.000000000000000000e+00
1.820000000000000000e+02,1.067249474077994614e-01,0.000000000000000000e+00
1.830000000000000000e+02,-6.346716049449000474e-01,0.000000000000000000e+00
1.840000000000000000e+02,2.913609516093770835e-01,0.000000000000000000e+00
1.850000000000000000e+02,-5.291519149821757306e-01,0.000000000000000000e+00
1.860000000000000000e+02,2.012432066782201101e+00,0.000000000000000000e+00
1.870000000000000000e+02,2.942188328750166448e+00,0.000000000000000000e+00
1.880000000000000000e+02,-1.032797908709031320e+00,1.000000000000000000e+00
1.890000000000000000e+02,2.270757063230779971e-01,0.000000000000000000e+00
1.900000000000000000e+02,-6.013723554157146545e-01,0.000000000000000000e+00
1.910000000000000000e+02,-2.673285182850879127e-02,0.000000000000000000e+00
1.920000000000000000e+02,-4.849625787223949686e-02,0.000000000000000000e+00
1.930000000000000000e+02,5.869923626273953338e-02,0.000000000000000000e+00
1.940000000000000000e+02,2.173611291096836373e-01,0.000000000000000000e+00
1.950000000000000000e+02,3.524081627683069984e-01,0.000000000000000000e+00
1.960000000000000000e+02,3.397904677676178431e-01,0.000000000000000000e+00
1.970000000000000000e+02,4.862085054795280414e-01,0.000000000000000000e+00
1.980000000000000000e+02,1.374342389240960749e+00,0.000000000000000000e+00
1.990000000000000000e+02,1.663793417545898157e+00,0.000000000000000000e+00
2.000000000000000000e+02,1.671107276490940929e+00,0.000000000000000000e+00
2.010000000000000000e+02,1.973089016999503453e+00,0.000000000000000000e+00
2.020000000000000000e+02,1.034243134700894240e+00,0.000000000000000000e+00
2.030000000000000000e+02,3.615447845278188521e-01,0.000000000000000000e+00
2.040000000000000000e+02,-1.049409962940260233e+00,0.000000000000000000e+00
2.050000000000000000e+02,-1.596487984788349523e+00,0.000000000000000000e+00
2.060000000000000000e+02,-1.459433693378190622e+00,0.000000000000000000e+00
2.070000000000000000e+02,-1.480029443419889512e+00,0.000000000000000000e+00
2.080000000000000000e+02,-1.094382704522868899e+00,0.000000000000000000e+00
2.090000000000000000e+02,-1.243474296602212759e+00,0.000000000000000000e+00
2.100000000000000000e+02,-1.140565341330857407e+00,0.000000000000000000e+00
2.110000000000000000e+02,-6.756616831639946641e-01,0.000000000000000000e+00
2.120000000000000000e+02,-7.159648824049613669e-01,0.000000000000000000e+00
2.130000000000000000e+02,-4.935318617874137059e-01,0.000000000000000000e+00
2.140000000000000000e+02,-6.431548827387024714e-01,0.000000000000000000e+00
2.150000000000000000e+02,-3.344238185495860827e-01,0.000000000000000000e+00
2.160000000000000000e+02,-8.815805575884233525e-01,0.000000000000000000e+00
2.170000000000000000e+02,1.272986524245908468e-01,0.000000000000000000e+00
2.180000000000000000e+02,-1.736182177162071960e-01,0.000000000000000000e+00
2.190000000000000000e+02,-6.714452861467506972e-02,0.000000000000000000e+00
2.200000000000000000e+02,-9.866702230861149059e-02,0.000000000000000000e+00
2.210000000000000000e+02,2.380206063877071121e-01,0.000000000000000000e+00
2.220000000000000000e+02,1.836468061473076618e-01,0.000000000000000000e+00
2.230000000000000000e+02,4.132320066646639201e-01,0.000000000000000000e+00
2.240000000000000000e+02,-3.625580651658410480e-01,0.000000000000000000e+00
2.250000000000000000e+02,-5.550555501411714998e-02,0.000000000000000000e+00
2.260000000000000000e+02,-2.455138200321325959e-01,0.000000000000000000e+00
2.270000000000000000e+02,4.885194078724279243e-01,0.000000000000000000e+00
2.280000000000000000e+02,-5.573163936666244989e-02,0.000000000000000000e+00
2.290000000000000000e+02,3.703134552034508697e+00,0.000000000000000000e+00
2.300000000000000000e+02,1.338500736093496402e+00,1.000000000000000000e+00
2.310000000000000000e+02,-8.253673831480734524e-01,0.000000000000000000e+00
2.320000000000000000e+02,4.851853010204330574e-01,0.000000000000000000e+00
2.330000000000000000e+02,-6.858804711842669821e-01,0.000000000000000000e+00
2.340000000000000000e+02,4.616343804318763788e-01,0.000000000000000000e+00
2.350000000000000000e+02,1.303365087672073153e-01,0.000000000000000000e+00
2.360000000000000000e+02,6.367152180413469809e-02,0.000000000000000000e+00
2.370000000000000000e+02,3.794688383043725022e-01,0.000000000000000000e+00
2.380000000000000000e+02,4.542651321955848420e-01,0.000000000000000000e+00
2.390000000000000000e+02,7.928145715323579035e-01,0.000000000000000000e+00
2.400000000000000000e+02,1.014782472292292237e+00,0.000000000000000000e+00
2.410000000000000000e+02,1.236395208120435463e+00,0.000000000000000000e+00
2.420000000000000000e+02,1.479020291311221147e+00,0.000000000000000000e+00
2.430000000000000000e+02,2.016498803193346845e+00,0.000000000000000000e+00
2.440000000000000000e+02,1.801105431854110650e+00,0.000000000000000000e+00
2.450000000000000000e+02,8.079777128813886433e-01,0.000000000000000000e+00
2.460000000000000000e+02,-6.070017167465431296e-01,0.000000000000000000e+00
2.470000000000000000e+02,-1.221665877608538509e+00,0.000000000000000000e+00
2.480000000000000000e+02,-1.617240371080226335e+00,0.000000000000000000e+00
2.490000000000000000e+02,-1.435741231820959030e+00,0.000000000000000000e+00
2.500000000000000000e+02,-1.492362813969535740e+00,0.000000000000000000e+00
2.510000000000000000e+02,-1.222227800896144689e+00,0.000000000000000000e+00
2.520000000000000000e+02,-8.651817854454960655e-01,0.000000000000000000e+00
2.530000000000000000e+02,-8.482236328637896561e-01,0.000000000000000000e+00
2.540000000000000000e+02,-8.304172843431445461e-01,0.000000000000000000e+00
2.550000000000000000e+02,-7.908936380137845390e-01,0.000000000000000000e+00
2.560000000000000000e+02,-4.926678128283814018e-01,0.000000000000000000e+00
2.570000000000000000e+02,-1.000820830661404370e+00,0.000000000000000000e+00
2.580000000000000000e+02,-3.279698062320401952e-01,0.000000000000000000e+00
2.590000000000000000e+02,-6.638411162117227038e-01,0.000000000000000000e+00
2.600000000000000000e+02,-4.333903389788753557e-01,0.000000000000000000e+00
2.610000000000000000e+02,-3.392651629065703278e-01,0.000000000000000000e+00
2.620000000000000000e+02,-2.486275017290529854e-01,0.000000000000000000e+00
2.630000000000000000e+02,-1.635567299124042195e-01,0.000000000000000000e+00
2.640000000000000000e+02,1.847535737860581673e-01,0.000000000000000000e+00
2.650000000000000000e+02,-5.704774351897100582e-01,0.000000000000000000e+00
2.660000000000000000e+02,-3.436115528059726087e-01,0.000000000000000000e+00
2.670000000000000000e+02,-5.855156360797452164e-01,0.000000000000000000e+00
2.680000000000000000e+02,-1.121390777031001790e-01,0.000000000000000000e+00
2.690000000000000000e+02,-5.044698731412948778e-01,0.000000000000000000e+00
2.700000000000000000e+02,2.311185211692591501e+00,0.000000000000000000e+00
2.710000000000000000e+02,2.858518779295469159e+00,0.000000000000000000e+00
2.720000000000000000e+02,-1.444123099518431985e+00,1.000000000000000000e+00
2.730000000000000000e+02,1.975601985688554552e-01,0.000000000000000000e+00
2.740000000000000000e+02,-3.536059998618756861e-01,0.000000000000000000e+00
2.750000000000000000e+02,-7.551463465851304679e-02,0.000000000000000000e+00
2.760000000000000000e+02,-4.135961661164047620e-01,0.000000000000000000e+00
2.770000000000000000e+02,7.116871031580362938e-01,0.000000000000000000e+00
2.780000000000000000e+02,-5.283194243023587450e-02,0.000000000000000000e+00
2.790000000000000000e+02,8.081794586984938356e-01,0.000000000000000000e+00
2.800000000000000000e+02,2.622697411494568920e-01,0.000000000000000000e+00
2.810000000000000000e+02,8.887531095733860464e-01,0.000000000000000000e+00
2.820000000000000000e+02,1.032987876438500319e+00,0.000000000000000000e+00
2.830000000000000000e+02,1.425328298662343229e+00,0.000000000000000000e+00
2.840000000000000000e+02,1.793847922963489383e+00,0.000000000000000000e+00
2.850000000000000000e+02,2.290713874891885382e+00,0.000000000000000000e+00
2.860000000000000000e+02,1.074631551456913803e+00,0.000000000000000000e+00
2.870000000000000000e+02,-4.342297794769195418e-01,0.000000000000000000e+00
2.880000000000000000e+02,-1.029874429114497669e+00,0.000000000000000000e+00
2.890000000000000000e+02,-1.454422791796754932e+00,0.000000000000000000e+00
2.900000000000000000e+02,-1.679367197486159924e+00,0.000000000000000000e+00
2.910000000000000000e+02,-1.215976641155899207e+00,0.000000000000000000e+00
2.920000000000000000e+02,-1.391107723217038572e+00,0.000000000000000000e+00
2.930000000000000000e+02,-1.269214982930204183e+00,0.000000000000000000e+00
2.940000000000000000e+02,-7.777559733010470655e-01,0.000000000000000000e+00
2.950000000000000000e+02,-1.002639320104673493e+00,0.000000000000000000e+00
2.960000000000000000e+02,-5.223832641022927437e-01,0.000000000000000000e+00
2.970000000000000000e+02,-9.772351946475735796e-01,0.000000000000000000e+00
2.980000000000000000e+02,-3.648791897527340899e-01,0.000000000000000000e+00
2.990000000000000000e+02,-5.822786857802733085e-01,0.000000000000000000e+00
3.000000000000000000e+02,-7.216877534108410153e-01,0.000000000000000000e+00
3.010000000000000000e+02,-1.738547637026955084e-01,0.000000000000000000e+00
3.020000000000000000e+02,-1.533700818844498659e-01,0.000000000000000000e+00
3.030000000000000000e+02,2.384756256468988922e-01,0.000000000000000000e+00
3.040000000000000000e+02,-5.827107727140799082e-02,0.000000000000000000e+00
3.050000000000000000e+02,-2.663705585351558991e-01,0.000000000000000000e+00
3.060000000000000000e+02,-7.296709308528307458e-01,0.000000000000000000e+00
3.070000000000000000e+02,-4.129857558408223800e-02,0.000000000000000000e+00
3.080000000000000000e+02,-2.718476069262935058e-01,0.000000000000000000e+00
3.090000000000000000e+02,-1.465908111484032494e-01,0.000000000000000000e+00
3.100000000000000000e+02,7.923486488628832258e-02,0.000000000000000000e+00
3.110000000000000000e+02,4.474100406433332289e+00,0.000000000000000000e+00
3.120000000000000000e+02,9.663525599600178984e-01,1.000000000000000000e+00
3.130000000000000000e+02,-8.520608813954065885e-01,0.000000000000000000e+00
3.140000000000000000e+02,4.516427003390704464e-01,0.000000000000000000e+00
3.150000000000000000e+02,-1.671477103050680590e-01,0.000000000000000000e+00
3.160000000000000000e+02,6.318586142225349755e-01,0.000000000000000000e+00
3.170000000000000000e+02,6.515963315309736270e-01,0.000000000000000000e+00
3.180000000000000000e+02,9.488369660317430565e-01,0.000000000000000000e+00
3.190000000000000000e+02,7.693552147483617709e-01,0.000000000000000000e+00
3.200000000000000000e+02,9.301361599008194370e-01,0.000000000000000000e+00
3.210000000000000000e+02,1.021928048995617511e+00,0.000000000000000000e+00
3.220000000000000000e+02,1.309860590608780351e+00,0.000000000000000000e+00
3.230000000000000000e+02,1.558424489605082952e+00,0.000000000000000000e+00
3.240000000000000000e+02,2.108590148548712406e+00,0.000000000000000000e+00
3.250000000000000000e+02,1.684010888584991594e+00,0.000000000000000000e+00
3.260000000000000000e+02,1.855447530652734489e+00,0.000000000000000000e+00
3.270000000000000000e+02,5.511428707028417362e-01,0.000000000000000000e+00
3.280000000000000000e+02,-8.687079240125770152e-01,0.000000000000000000e+00
3.290000000000000000e+02,-1.693875394877022877e+00,0.000000000000000000e+00
3.300000000000000000e+02,-1.904717587320787331e+00,0.000000000000000000e+00
3.310000000000000000e+02,-1.984276046727238674e+00,0.000000000000000000e+00
3.320000000000000000e+02,-1.835199942363394454e+00,0.000000000000000000e+00
3.330000000000000000e+02,-1.844958999415685197e+00,0.000000000000000000e+00
3.340000000000000000e+02,-1.563906400586682066e+00,0.000000000000000000e+00
3.350000000000000000e+02,-1.107307463894404931e+00,0.000000000000000000e+00
3.360000000000000000e+02,-1.149958589392707564e+00,0.000000000000000000e+00
3.370000000000000000e+02,-1.178449901357209617e+00,0.000000000000000000e+00
3.380000000000000000e+02,-1.433417612568025135e+00,0.000000000000000000e+00
3.390000000000000000e+02,-7.537165336531460591e-01,0.000000000000000000e+00
3.400000000000000000e+02,-1.239638925316238538e+00,0.000000000000000000e+00
3.410000000000000000e+02,-8.535116171665604323e-01,0.000000000000000000e+00
3.420000000000000000e+02,-6.494113065454271139e-01,0.000000000000000000e+00
3.430000000000000000e+02,-8.602195338401726066e-02,0.000000000000000000e+00
3.440000000000000000e+02,-2.543184539447035375e-01,0.000000000000000000e+00
3.450000000000000000e+02,-7.701923400250704210e-01,0.000000000000000000e+00
3.460000000000000000e+02,-1.025075384487127872e+00,0.000000000000000000e+00
3.470000000000000000e+02,-3.788591224510053368e-01,0.000000000000000000e+00
3.480000000000000000e+02,-1.155315930055567319e+00,0.000000000000000000e+00
3.490000000000000000e+02,-2.436762060221473736e-01,0.000000000000000000e+00
3.500000000000000000e+02,6.061837507616231469e-02,0.000000000000000000e+00
3.510000000000000000e+02,3.957853724674789131e+00,0.000000000000000000e+00
3.520000000000000000e+02,5.452755686570349702e-01,1.000000000000000000e+00
3.530000000000000000e+02,-1.053004155746490200e+00,0.000000000000000000e+00
3.540000000000000000e+02,-8.521130941015598800e-03,0.000000000000000000e+00
3.550000000000000000e+02,-5.396510803987214500e-01,0.000000000000000000e+00
3.560000000000000000e+02,-6.158453856902623702e-02,0.000000000000000000e+00
3.570000000000000000e+02,-5.176245291193047604e-02,0.000000000000000000e+00
3.580000000000000000e+02,4.044308342519716826e-01,0.000000000000000000e+00
3.590000000000000000e+02,1.905160948397079113e-01,0.000000000000000000e+00
3.600000000000000000e+02,4.480447998836433188e-01,0.000000000000000000e+00
3.610000000000000000e+02,7.584965642658274554e-01,0.000000000000000000e+00
3.620000000000000000e+02,1.518706926696600901e+00,0.000000000000000000e+00
3.630000000000000000e+02,1.693955288235637457e+00,0.000000000000000000e+00
3.640000000000000000e+02,2.184642320787408831e+00,0.000000000000000000e+00
3.650000000000000000e+02,2.256282344570144982e+00,0.000000000000000000e+00
3.660000000000000000e+02,2.134844444454996104e+00,0.000000000000000000e+00
3.670000000000000000e+02,9.920182220209609048e-01,0.000000000000000000e+00
3.680000000000000000e+02,-2.455216532254186068e-01,0.000000000000000000e+00
3.690000000000000000e+02,-9.522160782125506095e-01,0.000000000000000000e+00
3.700000000000000000e+02,-1.384144375486147105e+00,0.000000000000000000e+00
3.710000000000000000e+02,-1.005411631032078867e+00,0.000000000000000000e+00
3.720000000000000000e+02,-9.385325348418356306e-01,0.000000000000000000e+00
3.730000000000000000e+02,-6.198759472080979105e-01,0.000000000000000000e+00
3.740000000000000000e+02,-1.026869548340274552e+00,0.000000000000000000e+00
3.750000000000000000e+02,-3.925767741638905850e-01,0.000000000000000000e+00
3.760000000000000000e+02,-3.602932192841661330e-01,0.000000000000000000e+00
3.770000000000000000e+02,-2.312232648102151289e-01,0.000000000000000000e+00
3.780000000000000000e+02,2.188094516715045068e-01,0.000000000000000000e+00
3.790000000000000000e+02,1.441443157133530384e-02,0.000000000000000000e+00
3.800000000000000000e+02,3.265906244548952286e-02,0.000000000000000000e+00
3.810000000000000000e+02,2.469142898760925409e-01,0.000000000000000000e+00
3.820000000000000000e+02,3.002322716268949199e-01,0.000000000000000000e+00
3.830000000000000000e+02,3.332773496930355184e-01,0.000000000000000000e+00
3.840000000000000000e+02,5.833325426558293447e-01,0.000000000000000000e+00
3.850000000000000000e+02,1.288366992961146873e-01,0.000000000000000000e+00
3.860000000000000000e+02,4.087077221506512648e-01,0.000000000000000000e+00
3.870000000000000000e+02,-6.601465334233290721e-04,0.000000000000000000e+00
3.880000000000000000e+02,2.014653911760710958e-01,0.000000000000000000e+00
3.890000000000000000e+02,3.991126451162604893e-01,0.000000000000000000e+00
3.900000000000000000e+02,9.818824516824653514e-01,0.000000000000000000e+00
3.910000000000000000e+02,5.239924379318427583e+00,0.000000000000000000e+00
3.920000000000000000e+02,-3.178624680204222147e-02,1.000000000000000000e+00
3.930000000000000000e+02,-7.003749176883503624e-01,0.000000000000000000e+00
3.940000000000000000e+02,6.489737806204392001e-01,0.000000000000000000e+00
3.950000000000000000e+02,8.817225578315657231e-02,0.000000000000000000e+00
3.960000000000000000e+02,1.420649292187750046e-01,0.000000000000000000e+00
3.970000000000000000e+02,1.153807153589090084e-01,0.000000000000000000e+00
3.980000000000000000e+02,2.361488375592329103e-01,0.000000000000000000e+00
3.990000000000000000e+02,2.866948477351870528e-01,0.000000000000000000e+00
4.000000000000000000e+02,4.755378984840347711e-01,0.000000000000000000e+00
4.010000000000000000e+02,9.489359162783084223e-01,0.000000000000000000e+00
4.020000000000000000e+02,1.022738100161239005e+00,0.000000000000000000e+00
4.030000000000000000e+02,1.650463288222443703e+00,0.000000000000000000e+00
4.040000000000000000e+02,2.116277456794583678e+00,0.000000000000000000e+00
4.050000000000000000e+02,1.669303290637965453e+00,0.000000000000000000e+00
4.060000000000000000e+02,1.910517339809058912e+00,0.000000000000000000e+00
4.070000000000000000e+02,7.210723346772390796e-01,0.000000000000000000e+00
4.080000000000000000e+02,-8.106704751029133460e-01,0.000000000000000000e+00
4.090000000000000000e+02,-1.424635559065195123e+00,0.000000000000000000e+00
4.100000000000000000e+02,-1.571536419819925978e+00,0.000000000000000000e+00
4.110000000000000000e+02,-1.628789161276620323e+00,0.000000000000000000e+00
4.120000000000000000e+02,-1.299277867568858102e+00,0.000000000000000000e+00
4.130000000000000000e+02,-1.351208896106481872e+00,0.000000000000000000e+00
4.140000000000000000e+02,-1.280486634399035095e+00,0.000000000000000000e+00
4.150000000000000000e+02,-8.750899994188141573e-01,0.000000000000000000e+00
4.160000000000000000e+02,-7.340093170367923969e-01,0.000000000000000000e+00
4.170000000000000000e+02,-9.036049549829003880e-01,0.000000000000000000e+00
4.180000000000000000e+02,-3.956490072997239649e-01,0.000000000000000000e+00
4.190000000000000000e+02,-7.902911745467640081e-01,0.000000000000000000e+00
4.200000000000000000e+02,-4.945248089545412062e-01,0.000000000000000000e+00
4.210000000000000000e+02,-4.607382756489897813e-01,0.000000000000000000e+00
4.220000000000000000e+02,5.915288919665671052e-01,0.000000000000000000e+00
4.230000000000000000e+02,-3.538232726603570688e-01,0.000000000000000000e+00
4.240000000000000000e+02,-2.599949700389856191e-02,0.000000000000000000e+00
4.250000000000000000e+02,-5.498620618610661204e-01,0.000000000000000000e+00
4.260000000000000000e+02,-5.548730193402837685e-01,0.000000000000000000e+00
4.270000000000000000e+02,-1.859752263491135649e-01,0.000000000000000000e+00
4.280000000000000000e+02,3.303920532246110847e-02,0.000000000000000000e+00
4.290000000000000000e+02,-7.917587660032143759e-01,0.000000000000000000e+00
4.300000000000000000e+02,3.456250235445574415e+00,0.000000000000000000e+00
4.310000000000000000e+02,2.543231980291834393e+00,1.000000000000000000e+00
4.320000000000000000e+02,-1.174487619020853080e+00,0.000000000000000000e+00
4.330000000000000000e+02,-1.406384750692931673e-01,0.000000000000000000e+00
4.340000000000000000e+02,-6.005359353471155792e-01,0.000000000000000000e+00
4.350000000000000000e+02,-1.507134476097227449e-01,0.000000000000000000e+00
4.360000000000000000e+02,-3.499160083740812666e-01,0.000000000000000000e+00
4.370000000000000000e+02,-1.612096413892261659e-01,0.000000000000000000e+00
4.380000000000000000e+02,1.225411481256771656e-01,0.000000000000000000e+00
4.390000000000000000e+02,2.280924269341091104e-01,0.000000000000000000e+00
4.400000000000000000e+02,1.086925464623791776e-01,0.000000000000000000e+00
4.410000000000000000e+02,7.849009205311997528e-01,0.000000000000000000e+00
4.420000000000000000e+02,6.873116645849859374e-01,0.000000000000000000e+00
4.430000000000000000e+02,1.609457060145344176e+00,0.000000000000000000e+00
4.440000000000000000e+02,1.536866149807324389e+00,0.000000000000000000e+00
4.450000000000000000e+02,1.888913166811298172e+00,0.000000000000000000e+00
4.460000000000000000e+02,2.283450770852155087e-01,0.000000000000000000e+00
4.470000000000000000e+02,-8.971738623682382618e-01,0.000000000000000000e+00
4.480000000000000000e+02,-1.867725262805685515e+00,0.000000000000000000e+00
4.490000000000000000e+02,-2.078999883425970641e+00,0.000000000000000000e+00
4.500000000000000000e+02,-2.379396609653604333e+00,0.000000000000000000e+00
4.510000000000000000e+02,-1.744157456769089176e+00,0.000000000000000000e+00
4.520000000000000000e+02,-1.799339793987291047e+00,0.000000000000000000e+00
4.530000000000000000e+02,-1.666597649081943189e+00,0.000000000000000000e+00
4.540000000000000000e+02,-1.541791361215090417e+00,0.000000000000000000e+00
4.550000000000000000e+02,-1.286070864143619596e+00,0.000000000000000000e+00
4.560000000000000000e+02,-1.363178711873196836e+00,0.000000000000000000e+00
4.570000000000000000e+02,-8.970898445614576833e-01,0.000000000000000000e+00
4.580000000000000000e+02,-1.183523133087055923e+00,0.000000000000000000e+00
4.590000000000000000e+02,-3.619375681888149510e-01,0.000000000000000000e+00
4.600000000000000000e+02,-7.193939855214356305e-01,0.000000000000000000e+00
4.610000000000000000e+02,-5.936562736366226417e-02,0.000000000000000000e+00
4.620000000000000000e+02,-7.675985085865688444e-03,0.000000000000000000e+00
4.630000000000000000e+02,-2.901254612769977870e-01,0.000000000000000000e+00
4.640000000000000000e+02,-8.371329142414161151e-01,0.000000000000000000e+00
4.650000000000000000e+02,-2.026595990098632172e-01,0.000000000000000000e+00
4.660000000000000000e+02,-5.103331625504413660e-01,0.000000000000000000e+00
4.670000000000000000e+02,-1.995688569537235335e-01,0.000000000000000000e+00
4.680000000000000000e+02,-8.116165652221765114e-01,0.000000000000000000e+00
4.690000000000000000e+02,3.523528583703904093e+00,0.000000000000000000e+00
4.700000000000000000e+02,3.499604656393079605e+00,1.000000000000000000e+00
4.710000000000000000e+02,-1.573516895628126466e+00,0.000000000000000000e+00
4.720000000000000000e+02,-7.374415286461666330e-02,0.000000000000000000e+00
4.730000000000000000e+02,-9.538941059555799962e-01,0.000000000000000000e+00
4.740000000000000000e+02,7.438069328547797232e-02,0.000000000000000000e+00
4.750000000000000000e+02,-8.224853027784746751e-02,0.000000000000000000e+00
4.760000000000000000e+02,3.314850295477541064e-01,0.000000000000000000e+00
4.770000000000000000e+02,1.316783695146514221e-01,0.000000000000000000e+00
4.780000000000000000e+02,5.944416060272894597e-01,0.000000000000000000e+00
4.790000000000000000e+02,5.887770077625273935e-01,0.000000000000000000e+00
4.800000000000000000e+02,8.218211794234205891e-01,0.000000000000000000e+00
4.810000000000000000e+02,1.321408315024692692e+00,0.000000000000000000e+00
4.820000000000000000e+02,1.938580227349134377e+00,0.000000000000000000e+00
4.830000000000000000e+02,2.175912860037888308e+00,0.000000000000000000e+00
4.840000000000000000e+02,2.559503120228441286e+00,0.000000000000000000e+00
4.850000000000000000e+02,9.611770059035928959e-01,0.000000000000000000e+00
4.860000000000000000e+02,8.207660980975414744e-02,0.000000000000000000e+00
4.870000000000000000e+02,-1.332772338322003147e+00,0.000000000000000000e+00
4.880000000000000000e+02,-1.453810669614045814e+00,0.000000000000000000e+00
4.890000000000000000e+02,-2.049410524148937984e+00,0.000000000000000000e+00
4.900000000000000000e+02,-1.180794498793222846e+00,0.000000000000000000e+00
4.910000000000000000e+02,-1.017652297986680221e+00,0.000000000000000000e+00
4.920000000000000000e+02,-5.445481991970374525e-01,0.000000000000000000e+00
4.930000000000000000e+02,-1.084653757463808876e+00,0.000000000000000000e+00
4.940000000000000000e+02,-5.393582486154309130e-01,0.000000000000000000e+00
4.950000000000000000e+02,-7.942280554066913911e-01,0.000000000000000000e+00
4.960000000000000000e+02,-2.405893948590725195e-01,0.000000000000000000e+00
4.970000000000000000e+02,-4.181990628362051710e-01,0.000000000000000000e+00
4.980000000000000000e+02,-3.607789710361733980e-03,0.000000000000000000e+00
4.990000000000000000e+02,1.943027570100852586e-01,0.000000000000000000e+00
5.000000000000000000e+02,3.270083355581127060e-01,0.000000000000000000e+00
5.010000000000000000e+02,7.295524410411013960e-02,0.000000000000000000e+00
5.020000000000000000e+02,1.340378966471159061e-01,0.000000000000000000e+00
5.030000000000000000e+02,-3.509748509775469927e-01,0.000000000000000000e+00
5.040000000000000000e+02,-2.634546179232079566e-01,0.000000000000000000e+00
5.050000000000000000e+02,-3.359041461974017762e-01,0.000000000000000000e+00
5.060000000000000000e+02,3.029446330128499620e-01,0.000000000000000000e+00
5.070000000000000000e+02,-1.726238144177086320e-01,0.000000000000000000e+00
5.080000000000000000e+02,4.622767352702860322e+00,0.000000000000000000e+00
5.090000000000000000e+02,2.537446924030712925e+00,1.000000000000000000e+00
5.100000000000000000e+02,-1.342329147910016784e+00,0.000000000000000000e+00
5.110000000000000000e+02,3.199887961620009880e-01,0.000000000000000000e+00
5.120000000000000000e+02,-5.643100584536459019e-01,0.000000000000000000e+00
5.130000000000000000e+02,6.210327538474600534e-02,0.000000000000000000e+00
5.140000000000000000e+02,-3.053975622231280395e-03,0.000000000000000000e+00
5.150000000000000000e+02,2.316553403713299264e-01,0.000000000000000000e+00
5.160000000000000000e+02,1.202465119560377910e-01,0.000000000000000000e+00
5.170000000000000000e+02,3.693658636783634930e-01,0.000000000000000000e+00
5.180000000000000000e+02,8.952687472359500687e-01,0.000000000000000000e+00
5.190000000000000000e+02,1.217808499962977908e+00,0.000000000000000000e+00
5.200000000000000000e+02,1.539142779970299246e+00,0.000000000000000000e+00
5.210000000000000000e+02,1.932449351234950985e+00,0.000000000000000000e+00
5.220000000000000000e+02,1.871854950799743511e+00,0.000000000000000000e+00
5.230000000000000000e+02,2.074436315322649271e+00,0.000000000000000000e+00
5.240000000000000000e+02,9.516006747250432829e-01,0.000000000000000000e+00
5.250000000000000000e+02,-5.664612105064509295e-01,0.000000000000000000e+00
5.260000000000000000e+02,-1.612664163343874524e+00,0.000000000000000000e+00
5.270000000000000000e+02,-1.547211800126277348e+00,0.000000000000000000e+00
5.280000000000000000e+02,-1.770052670207052925e+00,0.000000000000000000e+00
5.290000000000000000e+02,-1.449744005737141572e+00,0.000000000000000000e+00
5.300000000000000000e+02,-1.176622817443043090e+00,0.000000000000000000e+00
5.310000000000000000e+02,-8.514531784187403529e-01,0.000000000000000000e+00
5.320000000000000000e+02,-1.260365404054434313e+00,0.000000000000000000e+00
5.330000000000000000e+02,-7.067225341629576052e-01,0.000000000000000000e+00
5.340000000000000000e+02,-8.316115515401327762e-01,0.000000000000000000e+00
5.350000000000000000e+02,-2.979826033529276441e-01,0.000000000000000000e+00
5.360000000000000000e+02,-5.264276167513283200e-01,0.000000000000000000e+00
5.370000000000000000e+02,4.063862380516534978e-02,0.000000000000000000e+00
5.380000000000000000e+02,2.376360367842191706e-03,0.000000000000000000e+00
5.390000000000000000e+02,3.162238568090784407e-01,0.000000000000000000e+00
5.400000000000000000e+02,-1.606965542242680123e-01,0.000000000000000000e+00
5.410000000000000000e+02,-4.483263423434895034e-01,0.000000000000000000e+00
5.420000000000000000e+02,-1.695807729151709020e-01,0.000000000000000000e+00
5.430000000000000000e+02,3.497307265342486371e-02,0.000000000000000000e+00
5.440000000000000000e+02,-1.608224712314285654e-01,0.000000000000000000e+00
5.450000000000000000e+02,2.782019008522818720e-02,0.000000000000000000e+00
5.460000000000000000e+02,4.025206619682618059e-01,0.000000000000000000e+00
5.470000000000000000e+02,5.457898127995132853e+00,0.000000000000000000e+00
5.480000000000000000e+02,3.890360654637036175e-01,1.000000000000000000e+00
5.490000000000000000e+02,-7.856725656315103334e-01,0.000000000000000000e+00
5.500000000000000000e+02,-1.266985815669253446e-01,0.000000000000000000e+00
5.510000000000000000e+02,-4.461373169562392049e-01,0.000000000000000000e+00
5.520000000000000000e+02,-5.320455482792495472e-01,0.000000000000000000e+00
5.530000000000000000e+02,-2.788326543258980994e-01,0.000000000000000000e+00
5.540000000000000000e+02,2.709531438015230775e-01,0.000000000000000000e+00
5.550000000000000000e+02,4.020504540762561696e-01,0.000000000000000000e+00
5.560000000000000000e+02,2.628134636687876058e-01,0.000000000000000000e+00
5.570000000000000000e+02,7.192253919264944839e-01,0.000000000000000000e+00
5.580000000000000000e+02,6.400077618868934559e-01,0.000000000000000000e+00
5.590000000000000000e+02,1.474970051478040611e+00,0.000000000000000000e+00
5.600000000000000000e+02,1.748319755857225211e+00,0.000000000000000000e+00
5.610000000000000000e+02,2.170732850003575187e+00,0.000000000000000000e+00
5.620000000000000000e+02,1.431820757897169782e+00,0.000000000000000000e+00
5.630000000000000000e+02,3.307309277036419859e-01,0.000000000000000000e+00
5.640000000000000000e+02,-1.063251766259205588e+00,0.000000000000000000e+00
5.650000000000000000e+02,-1.693204830490860902e+00,0.000000000000000000e+00
5.660000000000000000e+02,-1.631154357357873730e+00,0.000000000000000000e+00
5.670000000000000000e+02,-1.704174555325907336e+00,0.000000000000000000e+00
5.680000000000000000e+02,-1.621724013356819372e+00,0.000000000000000000e+00
5.690000000000000000e+02,-1.236061413697205902e+00,0.000000000000000000e+00
5.700000000000000000e+02,-1.102185786733340001e+00,0.000000000000000000e+00
5.710000000000000000e+02,-1.107991686459106839e+00,0.000000000000000000e+00
5.720000000000000000e+02,-8.444741972366888172e-01,0.000000000000000000e+00
5.730000000000000000e+02,-4.634372374437384923e-01,0.000000000000000000e+00
5.740000000000000000e+02,-5.779170256607066847e-01,0.000000000000000000e+00
5.750000000000000000e+02,-1.983298493973170151e-01,0.000000000000000000e+00
5.760000000000000000e+02,4.309378353545007673e-02,0.000000000000000000e+00
5.770000000000000000e+02,2.468909979476550387e-01,0.000000000000000000e+00
5.780000000000000000e+02,4.409818322072409091e-02,0.000000000000000000e+00
5.790000000000000000e+02,4.106379865655302996e-01,0.000000000000000000e+00
5.800000000000000000e+02,-5.573966225575406330e-01,0.000000000000000000e+00
5.810000000000000000e+02,-4.807113827980073750e-02,0.000000000000000000e+00
5.820000000000000000e+02,-3.827949760625006803e-01,0.000000000000000000e+00
5.830000000000000000e+02,3.130585395014651717e-01,0.000000000000000000e+00
5.840000000000000000e+02,-3.077483777901210416e-01,0.000000000000000000e+00
5.850000000000000000e+02,2.678783178076777460e+00,0.000000000000000000e+00
5.860000000000000000e+02,4.303275238390549262e+00,0.000000000000000000e+00
5.870000000000000000e+02,-1.376365385585677004e+00,1.000000000000000000e+00
5.880000000000000000e+02,-1.033289598786059499e-01,0.000000000000000000e+00
5.890000000000000000e+02,-9.145679714579424413e-01,0.000000000000000000e+00
5.900000000000000000e+02,-2.320098528550515460e-01,0.000000000000000000e+00
5.910000000000000000e+02,-3.205964808651330378e-01,0.000000000000000000e+00
5.920000000000000000e+02,9.293135087445020259e-02,0.000000000000000000e+00
5.930000000000000000e+02,-1.841755479994798550e-02,0.000000000000000000e+00
5.940000000000000000e+02,2.166387507336684781e-01,0.000000000000000000e+00
5.950000000000000000e+02,1.760162616601697316e-01,0.000000000000000000e+00
5.960000000000000000e+02,7.415659257089669554e-01,0.000000000000000000e+00
5.970000000000000000e+02,9.611310183095980175e-01,0.000000000000000000e+00
5.980000000000000000e+02,1.074927338140853950e+00,0.000000000000000000e+00
5.990000000000000000e+02,2.003317014164881282e+00,0.000000000000000000e+00
6.000000000000000000e+02,1.716965678130920381e+00,0.000000000000000000e+00
6.010000000000000000e+02,1.096195010948996851e+00,0.000000000000000000e+00
6.020000000000000000e+02,-7.721761884180234903e-01,0.000000000000000000e+00
6.030000000000000000e+02,-1.669506621279835068e+00,0.000000000000000000e+00
6.040000000000000000e+02,-2.084668445234713285e+00,0.000000000000000000e+00
6.050000000000000000e+02,-1.993574681806157267e+00,0.000000000000000000e+00
6.060000000000000000e+02,-1.299123953613994020e+00,0.000000000000000000e+00
6.070000000000000000e+02,-1.715018142224994380e+00,0.000000000000000000e+00
6.080000000000000000e+02,-1.193397109673923095e+00,0.000000000000000000e+00
6.090000000000000000e+02,-1.195665595702275485e+00,0.000000000000000000e+00
6.100000000000000000e+02,-8.857432508183172848e-01,0.000000000000000000e+00
6.110000000000000000e+02,-8.828734495893529877e-01,0.000000000000000000e+00
6.120000000000000000e+02,-7.708738422776442167e-01,0.000000000000000000e+00
6.130000000000000000e+02,-9.503399375564874907e-01,0.000000000000000000e+00
6.140000000000000000e+02,-2.735389424964788652e-01,0.000000000000000000e+00
6.150000000000000000e+02,-6.315076474131828821e-01,0.000000000000000000e+00
6.160000000000000000e+02,3.161487584338988355e-01,0.000000000000000000e+00
6.170000000000000000e+02,-5.008649407500281869e-02,0.000000000000000000e+00
6.180000000000000000e+02,-4.357338646683723282e-01,0.000000000000000000e+00
6.190000000000000000e+02,-7.948371537712912716e-01,0.000000000000000000e+00
6.200000000000000000e+02,5.980185998082178378e-02,0.000000000000000000e+00
6.210000000000000000e+02,-6.863739734361762324e-01,0.000000000000000000e+00
6.220000000000000000e+02,-7.590474192733709380e-02,0.000000000000000000e+00
6.230000000000000000e+02,-7.043480571701798976e-01,0.000000000000000000e+00
6.240000000000000000e+02,4.125103248528928290e+00,0.000000000000000000e+00
6.250000000000000000e+02,3.547549471049487035e+00,1.000000000000000000e+00
6.260000000000000000e+02,-9.818969288979798593e-01,0.000000000000000000e+00
6.270000000000000000e+02,6.932204027445759698e-02,0.000000000000000000e+00
6.280000000000000000e+02,-6.247775466426748192e-01,0.000000000000000000e+00
6.290000000000000000e+02,-9.143545993753427956e-03,0.000000000000000000e+00
6.300000000000000000e+02,-4.695488749885052826e-01,0.000000000000000000e+00
6.310000000000000000e+02,3.360102186438580496e-01,0.000000000000000000e+00
6.320000000000000000e+02,6.663876543028648958e-02,0.000000000000000000e+00
6.330000000000000000e+02,4.442021086761998583e-01,0.000000000000000000e+00
6.340000000000000000e+02,2.219965886403830746e-01,0.000000000000000000e+00
6.350000000000000000e+02,9.008952123301050552e-01,0.000000000000000000e+00
6.360000000000000000e+02,1.236864140074166230e+00,0.000000000000000000e+00
6.370000000000000000e+02,1.804026907005275904e+00,0.000000000000000000e+00
6.380000000000000000e+02,2.049108643769444349e+00,0.000000000000000000e+00
6.390000000000000000e+02,2.043006398841040738e+00,0.000000000000000000e+00
6.400000000000000000e+02,7.680999214238344308e-01,0.000000000000000000e+00
6.410000000000000000e+02,-5.586759569236127154e-01,0.000000000000000000e+00
6.420000000000000000e+02,-1.471166449142294219e+00,0.000000000000000000e+00
6.430000000000000000e+02,-1.624225907352977005e+00,0.000000000000000000e+00
6.440000000000000000e+02,-1.863925811274896649e+00,0.000000000000000000e+00
6.450000000000000000e+02,-1.785857203822176498e+00,0.000000000000000000e+00
6.460000000000000000e+02,-1.724354028904230951e+00,0.000000000000000000e+00
6.470000000000000000e+02,-6.962469249853704412e-01,0.000000000000000000e+00
6.480000000000000000e+02,-8.113068329444897975e-01,0.000000000000000000e+00
6.490000000000000000e+02,-9.837503844171561207e-01,0.000000000000000000e+00
6.500000000000000000e+02,-7.362806029956850962e-01,0.000000000000000000e+00
6.510000000000000000e+02,-3.064797221054596510e-01,0.000000000000000000e+00
6.520000000000000000e+02,-6.304365164112031295e-01,0.000000000000000000e+00
6.530000000000000000e+02,-3.959348349747885409e-01,0.000000000000000000e+00
6.540000000000000000e+02,1.766064256955578449e-01,0.000000000000000000e+00
6.550000000000000000e+02,5.919107008756145649e-02,0.000000000000000000e+00
6.560000000000000000e+02,3.529569070710584233e-01,0.000000000000000000e+00
6.570000000000000000e+02,6.775716664559341407e-01,0.000000000000000000e+00
6.580000000000000000e+02,-1.987207765586598840e-01,0.000000000000000000e+00
6.590000000000000000e+02,-3.284627268686971524e-01,0.000000000000000000e+00
6.600000000000000000e+02,1.975320872524429783e-01,0.000000000000000000e+00
6.610000000000000000e+02,-7.509770413911338871e-02,0.000000000000000000e+00
6.620000000000000000e+02,-3.085291737364598830e-01,0.000000000000000000e+00
6.630000000000000000e+02,7.665331142323472680e-01,0.000000000000000000e+00
6.640000000000000000e+02,5.653636189351172625e+00,0.000000000000000000e+00
6.650000000000000000e+02,1.474550243865875521e+00,1.000000000000000000e+00
6.660000000000000000e+02,-1.320601658502353004e+00,0.000000000000000000e+00
6.670000000000000000e+02,-4.374210108257990670e-02,0.000000000000000000e+00
6.680000000000000000e+02,-5.670458510432386801e-01,0.000000000000000000e+00
6.690000000000000000e+02,2.353550427142176160e-01,0.000000000000000000e+00
6.700000000000000000e+02,-4.038463441117170483e-01,0.000000000000000000e+00
6.710000000000000000e+02,5.178148668988994535e-02,0.000000000000000000e+00
6.720000000000000000e+02,1.088090262137320907e-01,0.000000000000000000e+00
6.730000000000000000e+02,2.932996380931766067e-01,0.000000000000000000e+00
6.740000000000000000e+02,5.321099787573912998e-01,0.000000000000000000e+00
6.750000000000000000e+02,1.165282716345093617e+00,0.000000000000000000e+00
6.760000000000000000e+02,7.953461212366351729e-01,0.000000000000000000e+00
6.770000000000000000e+02,1.591607026798877556e+00,0.000000000000000000e+00
6.780000000000000000e+02,1.773293099472301293e+00,0.000000000000000000e+00
6.790000000000000000e+02,1.804918060913036193e+00,0.000000000000000000e+00
6.800000000000000000e+02,3.032042034600798130e-01,0.000000000000000000e+00
6.810000000000000000e+02,-1.191394443738468478e+00,0.000000000000000000e+00
6.820000000000000000e+02,-1.987528812359693475e+00,0.000000000000000000e+00
6.830000000000000000e+02,-1.526440749400669983e+00,0.000000000000000000e+00
6.840000000000000000e+02,-1.662372609988007177e+00,0.000000000000000000e+00
6.850000000000000000e+02,-1.688951814532641427e+00,0.000000000000000000e+00
6.860000000000000000e+02,-1.368093677332735014e+00,0.000000000000000000e+00
6.870000000000000000e+02,-1.179607942242366203e+00,0.000000000000000000e+00
6.880000000000000000e+02,-9.596984160654574714e-01,0.000000000000000000e+00
6.890000000000000000e+02,-6.467182346722152309e-01,0.000000000000000000e+00
6.900000000000000000e+02,-4.549867778034334398e-01,0.000000000000000000e+00
6.910000000000000000e+02,-5.163406081118158131e-01,0.000000000000000000e+00
6.920000000000000000e+02,-6.689937257822919925e-01,0.000000000000000000e+00
6.930000000000000000e+02,2.803296192853428348e-01,0.000000000000000000e+00
6.940000000000000000e+02,-7.194892784436740518e-02,0.000000000000000000e+00
6.950000000000000000e+02,7.887777677663602161e-01,0.000000000000000000e+00
6.960000000000000000e+02,3.693616032840100205e-01,0.000000000000000000e+00
6.970000000000000000e+02,8.157980434367594069e-02,0.000000000000000000e+00
6.980000000000000000e+02,-1.688428465050621774e-03,0.000000000000000000e+00
6.990000000000000000e+02,-1.450564632140652344e-01,0.000000000000000000e+00
7.000000000000000000e+02,-9.486541816300135543e-02,0.000000000000000000e+00
7.010000000000000000e+02,4.411811890587996610e-01,0.000000000000000000e+00
7.020000000000000000e+02,-2.272479121795341617e-01,0.000000000000000000e+00
7.030000000000000000e+02,2.621470340436169444e+00,0.000000000000000000e+00
7.040000000000000000e+02,5.964305936124031149e+00,0.000000000000000000e+00
7.050000000000000000e+02,-1.622935609791412992e-01,1.000000000000000000e+00
7.060000000000000000e+02,3.717104436895850572e-01,0.000000000000000000e+00
7.070000000000000000e+02,-2.911316626083818027e-01,0.000000000000000000e+00
7.080000000000000000e+02,1.031067686331162969e-01,0.000000000000000000e+00
7.090000000000000000e+02,3.906777356613038710e-01,0.000000000000000000e+00
7.100000000000000000e+02,3.968482619203101414e-01,0.000000000000000000e+00
7.110000000000000000e+02,3.485583999426163371e-01,0.000000000000000000e+00
7.120000000000000000e+02,9.433878027440688596e-01,0.000000000000000000e+00
7.130000000000000000e+02,6.677583110497367080e-01,0.000000000000000000e+00
7.140000000000000000e+02,9.838203319759133425e-01,0.000000000000000000e+00
7.150000000000000000e+02,1.090328140109531496e+00,0.000000000000000000e+00
7.160000000000000000e+02,1.754265594844893750e+00,0.000000000000000000e+00
7.170000000000000000e+02,2.359606562097904092e+00,0.000000000000000000e+00
7.180000000000000000e+02,1.831442505026435796e+00,0.000000000000000000e+00
7.190000000000000000e+02,1.102894837825067587e+00,0.000000000000000000e+00
7.200000000000000000e+02,-2.028109800321000744e-01,0.000000000000000000e+00
7.210000000000000000e+02,-1.485119560394195792e+00,0.000000000000000000e+00
7.220000000000000000e+02,-1.757208707245451196e+00,0.000000000000000000e+00
7.230000000000000000e+02,-1.533293493973141075e+00,0.000000000000000000e+00
7.240000000000000000e+02,-1.915511081779608826e+00,0.000000000000000000e+00
7.250000000000000000e+02,-1.545368363936086231e+00,0.000000000000000000e+00
7.260000000000000000e+02,-1.382646346846051477e+00,0.000000000000000000e+00
7.270000000000000000e+02,-1.444525348362864836e+00,0.000000000000000000e+00
7.280000000000000000e+02,-1.088668448269886735e+00,0.000000000000000000e+00
7.290000000000000000e+02,-7.158284806154123769e-01,0.000000000000000000e+00
7.300000000000000000e+02,-9.213160099357607935e-01,0.000000000000000000e+00
7.310000000000000000e+02,-6.902540199772664309e-01,0.000000000000000000e+00
7.320000000000000000e+02,-7.247701177546124196e-01,0.000000000000000000e+00
7.330000000000000000e+02,-3.688141593312991851e-01,0.000000000000000000e+00
7.340000000000000000e+02,-4.609769987956660597e-01,0.000000000000000000e+00
7.350000000000000000e+02,2.530389132434740507e-01,0.000000000000000000e+00
7.360000000000000000e+02,-1.960184467416950516e-01,0.000000000000000000e+00
7.370000000000000000e+02,3.354521761931897328e-02,0.000000000000000000e+00
7.380000000000000000e+02,-6.707719236618236991e-01,0.000000000000000000e+00
7.390000000000000000e+02,-4.899175679022326757e-01,0.000000000000000000e+00
7.400000000000000000e+02,-7.489813241431515500e-01,0.000000000000000000e+00
7.410000000000000000e+02,1.326851836230717174e-01,0.000000000000000000e+00
7.420000000000000000e+02,-7.440487322246234214e-01,0.000000000000000000e+00
7.430000000000000000e+02,4.133884940328345081e+00,0.000000000000000000e+00
7.440000000000000000e+02,2.769653458507651766e+00,1.000000000000000000e+00
7.450000000000000000e+02,-1.719580408760821966e+00,0.000000000000000000e+00
7.460000000000000000e+02,1.360970380648756639e-01,0.000000000000000000e+00
7.470000000000000000e+02,-1.272154333841746920e+00,0.000000000000000000e+00
7.480000000000000000e+02,-4.005205928800258386e-01,0.000000000000000000e+00
7.490000000000000000e+02,-3.515538619909038265e-01,0.000000000000000000e+00
7.500000000000000000e+02,-1.691647473544421465e-01,0.000000000000000000e+00
7.510000000000000000e+02,-5.576218085094045707e-01,0.000000000000000000e+00
7.520000000000000000e+02,9.438746132271079448e-02,0.000000000000000000e+00
7.530000000000000000e+02,3.864609279658502983e-01,0.000000000000000000e+00
7.540000000000000000e+02,5.867838928595534576e-01,0.000000000000000000e+00
7.550000000000000000e+02,9.952441325318001075e-01,0.000000000000000000e+00
7.560000000000000000e+02,1.143148342087424219e+00,0.000000000000000000e+00
7.570000000000000000e+02,1.994508174427798153e+00,0.000000000000000000e+00
7.580000000000000000e+02,1.690475820723499334e+00,0.000000000000000000e+00
7.590000000000000000e+02,4.597496588971097253e-01,0.000000000000000000e+00
7.600000000000000000e+02,-6.515342363761813527e-01,0.000000000000000000e+00
7.610000000000000000e+02,-2.114589569377662848e+00,0.000000000000000000e+00
7.620000000000000000e+02,-1.575292894916735298e+00,0.000000000000000000e+00
7.630000000000000000e+02,-1.892015496949700282e+00,0.000000000000000000e+00
7.640000000000000000e+02,-1.448644211980630203e+00,0.000000000000000000e+00
7.650000000000000000e+02,-1.358584832179318580e+00,0.000000000000000000e+00
7.660000000000000000e+02,-9.858438215236696722e-01,0.000000000000000000e+00
7.670000000000000000e+02,-1.109564693524930368e+00,0.000000000000000000e+00
7.680000000000000000e+02,-8.360897544099088474e-01,0.000000000000000000e+00
7.690000000000000000e+02,-3.104819266255025578e-01,0.000000000000000000e+00
7.700000000000000000e+02,-3.762469115403312414e-01,0.000000000000000000e+00
7.710000000000000000e+02,-8.462240340717409603e-01,0.000000000000000000e+00
7.720000000000000000e+02,6.828230208982184746e-02,0.000000000000000000e+00
7.730000000000000000e+02,-8.194117274507042858e-02,0.000000000000000000e+00
7.740000000000000000e+02,1.895480994624581250e-01,0.000000000000000000e+00
7.750000000000000000e+02,6.338036455834783478e-01,0.000000000000000000e+00
7.760000000000000000e+02,3.038591979163015461e-02,0.000000000000000000e+00
7.770000000000000000e+02,-4.990423333109135218e-01,0.000000000000000000e+00
7.780000000000000000e+02,1.235725680312551103e-02,0.000000000000000000e+00
7.790000000000000000e+02,7.634344016486203921e-02,0.000000000000000000e+00
7.800000000000000000e+02,3.098467853696615371e-01,0.000000000000000000e+00
7.810000000000000000e+02,-1.255695275206335226e-01,0.000000000000000000e+00
7.820000000000000000e+02,2.179581798368295242e+00,0.000000000000000000e+00
7.830000000000000000e+02,3.989201965978606879e+00,0.000000000000000000e+00
7.840000000000000000e+02,-8.408328805384612803e-01,1.000000000000000000e+00
7.850000000000000000e+02,2.245098307551764150e-01,0.000000000000000000e+00
7.860000000000000000e+02,-8.743767838887445132e-02,0.000000000000000000e+00
7.870000000000000000e+02,-1.196409481256882901e-01,0.000000000000000000e+00
7.880000000000000000e+02,1.952124430124438925e-01,0.000000000000000000e+00
7.890000000000000000e+02,-3.353894797364793956e-02,0.000000000000000000e+00
7.900000000000000000e+02,1.850662467574139824e-01,0.000000000000000000e+00
7.910000000000000000e+02,5.126913232755003769e-01,0.000000000000000000e+00
7.920000000000000000e+02,7.108002164556600500e-01,0.000000000000000000e+00
7.930000000000000000e+02,8.514021220977576743e-01,0.000000000000000000e+00
7.940000000000000000e+02,1.271704936535984709e+00,0.000000000000000000e+00
7.950000000000000000e+02,1.661958946523007796e+00,0.000000000000000000e+00
7.960000000000000000e+02,2.231213618236719931e+00,0.000000000000000000e+00
7.970000000000000000e+02,1.933108448940623170e+00,0.000000000000000000e+00
7.980000000000000000e+02,8.808463187861010901e-01,0.000000000000000000e+00
7.990000000000000000e+02,2.605839295593072036e-01,0.000000000000000000e+00
8.000000000000000000e+02,-1.152861642497081229e+00,0.000000000000000000e+00
8.010000000000000000e+02,-1.567697853390140450e+00,0.000000000000000000e+00
8.020000000000000000e+02,-1.391198145128208719e+00,0.000000000000000000e+00
8.030000000000000000e+02,-1.347585049853481376e+00,0.000000000000000000e+00
8.040000000000000000e+02,-1.018645975556693450e+00,0.000000000000000000e+00
8.050000000000000000e+02,-1.087299479849859418e+00,0.000000000000000000e+00
8.060000000000000000e+02,-9.914261019124507301e-01,0.000000000000000000e+00
8.070000000000000000e+02,-6.273560578623875728e-01,0.000000000000000000e+00
8.080000000000000000e+02,-6.641620596471957683e-01,0.000000000000000000e+00
8.090000000000000000e+02,-3.498579243145777395e-01,0.000000000000000000e+00
8.100000000000000000e+02,-3.928520600066936486e-01,0.000000000000000000e+00
8.110000000000000000e+02,-1.788382219437306686e-01,0.000000000000000000e+00
8.120000000000000000e+02,-1.789625083583725462e-01,0.000000000000000000e+00
8.130000000000000000e+02,6.632803899904446410e-02,0.000000000000000000e+00
8.140000000000000000e+02,1.620883834460416784e-01,0.000000000000000000e+00
8.150000000000000000e+02,-3.459496296986514507e-01,0.000000000000000000e+00
8.160000000000000000e+02,-5.928144431677179194e-01,0.000000000000000000e+00
8.170000000000000000e+02,-9.337164714994805603e-02,0.000000000000000000e+00
8.180000000000000000e+02,-1.550765060231515391e-01,0.000000000000000000e+00
8.190000000000000000e+02,5.111232881011863738e-02,0.000000000000000000e+00
8.200000000000000000e+02,6.157440086465728463e-02,0.000000000000000000e+00
8.210000000000000000e+02,3.376954148309582848e+00,0.000000000000000000e+00
8.220000000000000000e+02,5.313179420145314191e-01,1.000000000000000000e+00
8.230000000000000000e+02,-9.225340048333007248e-01,0.000000000000000000e+00
8.240000000000000000e+02,2.549156116940362038e-01,0.000000000000000000e+00
8.250000000000000000e+02,-5.897152421255711374e-01,0.000000000000000000e+00
8.260000000000000000e+02,6.055177009330695720e-02,0.000000000000000000e+00
8.270000000000000000e+02,2.033646114768787871e-01,0.000000000000000000e+00
8.280000000000000000e+02,1.426505926117655476e-01,0.000000000000000000e+00
8.290000000000000000e+02,-2.535924736116380585e-01,0.000000000000000000e+00
8.300000000000000000e+02,4.968767422692910163e-01,0.000000000000000000e+00
8.310000000000000000e+02,3.020620232529335758e-01,0.000000000000000000e+00
8.320000000000000000e+02,7.164148295449587200e-01,0.000000000000000000e+00
8.330000000000000000e+02,9.711000384461445645e-01,0.000000000000000000e+00
8.340000000000000000e+02,1.323815304299137185e+00,0.000000000000000000e+00
8.350000000000000000e+02,1.781675168027225808e+00,0.000000000000000000e+00
8.360000000000000000e+02,1.288141584086769598e+00,0.000000000000000000e+00
8.370000000000000000e+02,-2.044924774353428509e-01,0.000000000000000000e+00
8.380000000000000000e+02,-5.591476120345792999e-01,0.000000000000000000e+00
8.390000000000000000e+02,-1.668922486888316570e+00,0.000000000000000000e+00
8.400000000000000000e+02,-1.279387514550411442e+00,0.000000000000000000e+00
8.410000000000000000e+02,-1.755940514795384155e+00,0.000000000000000000e+00
8.420000000000000000e+02,-1.062169355210906385e+00,0.000000000000000000e+00
8.430000000000000000e+02,-1.281686620092021167e+00,0.000000000000000000e+00
8.440000000000000000e+02,-1.192077526543537935e+00,0.000000000000000000e+00
8.450000000000000000e+02,-1.111712772643402403e+00,0.000000000000000000e+00
8.460000000000000000e+02,-3.786668359842201848e-01,0.000000000000000000e+00
8.470000000000000000e+02,-5.914887351057813714e-01,0.000000000000000000e+00
8.480000000000000000e+02,-5.010180955802399083e-01,0.000000000000000000e+00
8.490000000000000000e+02,-3.948545819431569792e-01,0.000000000000000000e+00
8.500000000000000000e+02,-2.468088772935007891e-01,0.000000000000000000e+00
8.510000000000000000e+02,3.749716694199433098e-01,0.000000000000000000e+00
8.520000000000000000e+02,-1.073547204945234090e-01,0.000000000000000000e+00
8.530000000000000000e+02,9.701768167620904507e-03,0.000000000000000000e+00
8.540000000000000000e+02,-7.964225065176605556e-01,0.000000000000000000e+00
8.550000000000000000e+02,-1.025112343574111212e-01,0.000000000000000000e+00
8.560000000000000000e+02,-1.645391259181972488e-01,0.000000000000000000e+00
8.570000000000000000e+02,2.755449917959874595e-01,0.000000000000000000e+00
8.580000000000000000e+02,-3.361771556732146005e-01,0.000000000000000000e+00
8.590000000000000000e+02,2.655096670403182202e+00,0.000000000000000000e+00
8.600000000000000000e+02,1.795288366458746010e+00,1.000000000000000000e+00
8.610000000000000000e+02,-1.080543333601336364e+00,0.000000000000000000e+00
8.620000000000000000e+02,5.549787967720554160e-01,0.000000000000000000e+00
8.630000000000000000e+02,-3.913411613450624160e-01,0.000000000000000000e+00
8.640000000000000000e+02,-5.323740048284433118e-02,0.000000000000000000e+00
8.650000000000000000e+02,-1.614774349782517049e-01,0.000000000000000000e+00
8.660000000000000000e+02,3.396522924432156532e-01,0.000000000000000000e+00
8.670000000000000000e+02,1.108631022410874467e-01,0.000000000000000000e+00
8.680000000000000000e+02,5.642230694967840243e-01,0.000000000000000000e+00
8.690000000000000000e+02,3.693247955031450092e-01,0.000000000000000000e+00
8.700000000000000000e+02,6.867952136068707913e-01,0.000000000000000000e+00
8.710000000000000000e+02,9.048543273665998754e-01,0.000000000000000000e+00
8.720000000000000000e+02,1.783971449678412924e+00,0.000000000000000000e+00
8.730000000000000000e+02,1.498468649561713217e+00,0.000000000000000000e+00
8.740000000000000000e+02,1.996637389982710120e+00,0.000000000000000000e+00
8.750000000000000000e+02,3.797134160391159030e-01,0.000000000000000000e+00
8.760000000000000000e+02,-3.589247344024848463e-01,0.000000000000000000e+00
8.770000000000000000e+02,-1.229572013047414814e+00,0.000000000000000000e+00
8.780000000000000000e+02,-1.233821417437612089e+00,0.000000000000000000e+00
8.790000000000000000e+02,-1.566895099057316054e+00,0.000000000000000000e+00
8.800000000000000000e+02,-1.042630179063232632e+00,0.000000000000000000e+00
8.810000000000000000e+02,-1.143834849842735757e+00,0.000000000000000000e+00
8.820000000000000000e+02,-9.731305387757094305e-01,0.000000000000000000e+00
8.830000000000000000e+02,-1.081213471955869476e+00,0.000000000000000000e+00
8.840000000000000000e+02,-4.985141362096632833e-01,0.000000000000000000e+00
8.850000000000000000e+02,-4.592550442765216956e-01,0.000000000000000000e+00
8.860000000000000000e+02,-2.887296834172448645e-01,0.000000000000000000e+00
8.870000000000000000e+02,-4.746033213131163886e-01,0.000000000000000000e+00
8.880000000000000000e+02,6.405839597070681068e-02,0.000000000000000000e+00
8.890000000000000000e+02,-3.378042886195499195e-01,0.000000000000000000e+00
8.900000000000000000e+02,3.518082367340369387e-01,0.000000000000000000e+00
8.910000000000000000e+02,1.866047250605701036e-01,0.000000000000000000e+00
8.920000000000000000e+02,-3.502719852693467195e-01,0.000000000000000000e+00
8.930000000000000000e+02,-2.228823008054339472e-01,0.000000000000000000e+00
8.940000000000000000e+02,-7.835242917892026870e-02,0.000000000000000000e+00
8.950000000000000000e+02,-4.318148315152767203e-01,0.000000000000000000e+00
8.960000000000000000e+02,3.499173282919893491e-01,0.000000000000000000e+00
8.970000000000000000e+02,-2.785877308107996830e-01,0.000000000000000000e+00
8.980000000000000000e+02,3.537745368111980593e+00,0.000000000000000000e+00
8.990000000000000000e+02,1.296902703809463153e+00,1.000000000000000000e+00
9.000000000000000000e+02,-1.060668344915038031e+00,0.000000000000000000e+00
9.010000000000000000e+02,1.785318286788249165e-01,0.000000000000000000e+00
9.020000000000000000e+02,-3.172978209634118585e-01,0.000000000000000000e+00
9.030000000000000000e+02,2.309649174579634645e-01,0.000000000000000000e+00
9.040000000000000000e+02,3.471793489947788136e-01,0.000000000000000000e+00
9.050000000000000000e+02,7.894601255229406755e-02,0.000000000000000000e+00
9.060000000000000000e+02,4.741426263782027029e-01,0.000000000000000000e+00
9.070000000000000000e+02,4.365607821256295984e-01,0.000000000000000000e+00
9.080000000000000000e+02,6.150862821686465809e-01,0.000000000000000000e+00
9.090000000000000000e+02,1.012190972697844638e+00,0.000000000000000000e+00
9.100000000000000000e+02,1.181389475545463030e+00,0.000000000000000000e+00
9.110000000000000000e+02,1.486811213539739551e+00,0.000000000000000000e+00
9.120000000000000000e+02,2.033262982306694777e+00,0.000000000000000000e+00
9.130000000000000000e+02,1.321358912915388872e+00,0.000000000000000000e+00
9.140000000000000000e+02,2.376393708353570222e-01,0.000000000000000000e+00
9.150000000000000000e+02,-9.214024846623316556e-01,0.000000000000000000e+00
9.160000000000000000e+02,-1.193068102599298408e+00,0.000000000000000000e+00
9.170000000000000000e+02,-1.240253154057173512e+00,0.000000000000000000e+00
9.180000000000000000e+02,-1.450429265121245148e+00,0.000000000000000000e+00
9.190000000000000000e+02,-1.267344514509016751e+00,0.000000000000000000e+00
9.200000000000000000e+02,-1.087906034764180241e+00,0.000000000000000000e+00
9.210000000000000000e+02,-6.818082760485016935e-01,0.000000000000000000e+00
9.220000000000000000e+02,-8.274883446877943083e-01,0.000000000000000000e+00
9.230000000000000000e+02,-6.195446005866127592e-01,0.000000000000000000e+00
9.240000000000000000e+02,-1.081493556355967334e+00,0.000000000000000000e+00
9.250000000000000000e+02,-3.072860643022656824e-01,0.000000000000000000e+00
9.260000000000000000e+02,-3.893823280393656772e-01,0.000000000000000000e+00
9.270000000000000000e+02,-2.366717483928535148e-01,0.000000000000000000e+00
9.280000000000000000e+02,-4.180828683376540122e-01,0.000000000000000000e+00
9.290000000000000000e+02,1.178075369835122899e-01,0.000000000000000000e+00
9.300000000000000000e+02,3.741373973517579388e-01,0.000000000000000000e+00
9.310000000000000000e+02,-2.586207040301168325e-01,0.000000000000000000e+00
9.320000000000000000e+02,-4.550644888351182415e-01,0.000000000000000000e+00
9.330000000000000000e+02,-3.148386952353696144e-01,0.000000000000000000e+00
9.340000000000000000e+02,-4.551584752994129457e-01,0.000000000000000000e+00
9.350000000000000000e+02,1.248715299392445105e-01,0.000000000000000000e+00
9.360000000000000000e+02,-2.852825979984220939e-01,0.000000000000000000e+00
9.370000000000000000e+02,1.526697894821927637e+00,0.000000000000000000e+00
9.380000000000000000e+02,3.349275255652556016e+00,0.000000000000000000e+00
9.390000000000000000e+02,-1.086007474946581786e+00,1.000000000000000000e+00
9.400000000000000000e+02,1.900616034168606250e-02,0.000000000000000000e+00
9.410000000000000000e+02,-1.937930525682752536e-01,0.000000000000000000e+00
9.420000000000000000e+02,-8.319725464615587360e-03,0.000000000000000000e+00
9.430000000000000000e+02,1.754892296057082579e-02,0.000000000000000000e+00
9.440000000000000000e+02,1.114539347160799915e-01,0.000000000000000000e+00
9.450000000000000000e+02,5.852858835281012084e-02,0.000000000000000000e+00
9.460000000000000000e+02,3.645215283353412383e-01,0.000000000000000000e+00
9.470000000000000000e+02,3.064919146799037208e-01,0.000000000000000000e+00
9.480000000000000000e+02,8.692200705101480462e-01,0.000000000000000000e+00
9.490000000000000000e+02,1.064538024270179628e+00,0.000000000000000000e+00
9.500000000000000000e+02,1.320880742240134076e+00,0.000000000000000000e+00
9.510000000000000000e+02,1.874630960205150298e+00,0.000000000000000000e+00
9.520000000000000000e+02,1.778931850821671823e+00,0.000000000000000000e+00
9.530000000000000000e+02,9.428384197864715377e-01,0.000000000000000000e+00
9.540000000000000000e+02,-4.175623466760251534e-01,0.000000000000000000e+00
9.550000000000000000e+02,-9.416056379782619112e-01,0.000000000000000000e+00
9.560000000000000000e+02,-1.420248042397596722e+00,0.000000000000000000e+00
9.570000000000000000e+02,-9.912128622319149596e-01,0.000000000000000000e+00
9.580000000000000000e+02,-1.710597196196124603e+00,0.000000000000000000e+00
9.590000000000000000e+02,-1.084475953117790770e+00,0.000000000000000000e+00
9.600000000000000000e+02,-1.090590567582927495e+00,0.000000000000000000e+00
9.610000000000000000e+02,-8.130232740675650271e-01,0.000000000000000000e+00
9.620000000000000000e+02,-8.064748210774272952e-01,0.000000000000000000e+00
9.630000000000000000e+02,-6.724575552306337745e-01,0.000000000000000000e+00
9.640000000000000000e+02,-6.532284752298365138e-01,0.000000000000000000e+00
9.650000000000000000e+02,-3.330354148490532462e-01,0.000000000000000000e+00
9.660000000000000000e+02,-4.796857315723759840e-01,0.000000000000000000e+00
9.670000000000000000e+02,-1.042973186864792901e-01,0.000000000000000000e+00
9.680000000000000000e+02,-2.011253232280243997e-01,0.000000000000000000e+00
9.690000000000000000e+02,2.738766495750447616e-01,0.000000000000000000e+00
9.700000000000000000e+02,2.614225934138239560e-01,0.000000000000000000e+00
9.710000000000000000e+02,1.059956463114195835e-01,0.000000000000000000e+00
9.720000000000000000e+02,7.249524650211065790e-02,0.000000000000000000e+00
9.730000000000000000e+02,3.063204007178415775e-02,0.000000000000000000e+00
9.740000000000000000e+02,-1.601077324537653890e-01,0.000000000000000000e+00
9.750000000000000000e+02,-8.766509866133226359e-03,0.000000000000000000e+00
9.760000000000000000e+02,-1.694850929553730345e-02,0.000000000000000000e+00
9.770000000000000000e+02,-2.141778930169089545e-01,0.000000000000000000e+00
9.780000000000000000e+02,1.024321329108369039e+00,0.000000000000000000e+00
9.790000000000000000e+02,3.795046683276887212e+00,0.000000000000000000e+00
9.800000000000000000e+02,-1.222422005536235590e-01,1.000000000000000000e+00
9.810000000000000000e+02,-3.893095551749475858e-01,0.000000000000000000e+00
9.820000000000000000e+02,2.780095434292420911e-02,0.000000000000000000e+00
9.830000000000000000e+02,-3.547553814491558599e-01,0.000000000000000000e+00
9.840000000000000000e+02,2.910856206357114728e-01,0.000000000000000000e+00
9.850000000000000000e+02,-7.470159492612353513e-02,0.000000000000000000e+00
9.860000000000000000e+02,2.428965308276646775e-03,0.000000000000000000e+00
9.870000000000000000e+02,5.378427442813139558e-01,0.000000000000000000e+00
9.880000000000000000e+02,3.414035502666072364e-01,0.000000000000000000e+00
9.890000000000000000e+02,4.640019230827680530e-01,0.000000000000000000e+00
9.900000000000000000e+02,1.224251106905745790e+00,0.000000000000000000e+00
9.910000000000000000e+02,9.628129768004189959e-01,0.000000000000000000e+00
9.920000000000000000e+02,1.813835574221829505e+00,0.000000000000000000e+00
9.930000000000000000e+02,1.768680975734760130e+00,0.000000000000000000e+00
9.940000000000000000e+02,1.279773769973344910e+00,0.000000000000000000e+00
9.950000000000000000e+02,-2.573672882671581563e-01,0.000000000000000000e+00
9.960000000000000000e+02,-1.079679465763917046e+00,0.000000000000000000e+00
9.970000000000000000e+02,-1.566786616374892249e+00,0.000000000000000000e+00
9.980000000000000000e+02,-1.234285249787085537e+00,0.000000000000000000e+00
9.990000000000000000e+02,-1.443231423065250096e+00,0.000000000000000000e+00
1.000000000000000000e+03,-1.631154526741700694e+00,0.000000000000000000e+00
1.001000000000000000e+03,-1.033855937074148912e+00,0.000000000000000000e+00
1.002000000000000000e+03,-9.262511443311000070e-01,0.000000000000000000e+00
1.003000000000000000e+03,-1.259259766434531524e+00,0.000000000000000000e+00
1.004000000000000000e+03,-2.385402021482820045e-01,0.000000000000000000e+00
1.005000000000000000e+03,-9.881303963302728866e-01,0.000000000000000000e+00
1.006000000000000000e+03,-3.824900735260164386e-01,0.000000000000000000e+00
1.007000000000000000e+03,-5.983360598269984454e-01,0.000000000000000000e+00
1.008000000000000000e+03,-3.547740098092771466e-01,0.000000000000000000e+00
1.009000000000000000e+03,-3.641777431397333897e-01,0.000000000000000000e+00
1.010000000000000000e+03,-3.100602719795133022e-01,0.000000000000000000e+00
1.011000000000000000e+03,1.903244474918456275e-01,0.000000000000000000e+00
1.012000000000000000e+03,3.765363924768108661e-01,0.000000000000000000e+00
1.013000000000000000e+03,4.239532249967002397e-01,0.000000000000000000e+00
1.014000000000000000e+03,-4.229838966626201652e-02,0.000000000000000000e+00
1.015000000000000000e+03,-1.440866861602026483e-01,0.000000000000000000e+00
1.016000000000000000e+03,2.788612511430699215e-01,0.000000000000000000e+00
1.017000000000000000e+03,-1.777847501666461050e-01,0.000000000000000000e+00
1.018000000000000000e+03,5.435800303224344043e-01,0.000000000000000000e+00
1.019000000000000000e+03,-3.150629014889624324e-01,0.000000000000000000e+00
1.020000000000000000e+03,2.573427307078095083e+00,0.000000000000000000e+00
1.021000000000000000e+03,2.333295400952663190e+00,0.000000000000000000e+00
1.022000000000000000e+03,-6.859630039784780919e-01,1.000000000000000000e+00
1.023000000000000000e+03,-2.767214580998323282e-03,0.000000000000000000e+00
1.024000000000000000e+03,-1.455988353079480935e-01,0.000000000000000000e+00
1.025000000000000000e+03,3.963883106237081067e-01,0.000000000000000000e+00
1.026000000000000000e+03,-3.691324522616334924e-01,0.000000000000000000e+00
1.027000000000000000e+03,2.769360095912946629e-01,0.000000000000000000e+00
1.028000000000000000e+03,-4.810594120877260960e-02,0.000000000000000000e+00
1.029000000000000000e+03,7.022417831185593373e-01,0.000000000000000000e+00
1.030000000000000000e+03,1.537022037398627639e-01,0.000000000000000000e+00
1.031000000000000000e+03,5.918393598036053582e-01,0.000000000000000000e+00
1.032000000000000000e+03,1.049046904993390594e+00,0.000000000000000000e+00
1.033000000000000000e+03,1.447777468152045666e+00,0.000000000000000000e+00
1.034000000000000000e+03,1.472788731254665473e+00,0.000000000000000000e+00
1.035000000000000000e+03,1.976746291464199778e+00,0.000000000000000000e+00
1.036000000000000000e+03,4.633990327407022658e-01,0.000000000000000000e+00
1.037000000000000000e+03,-4.986319173004052363e-01,0.000000000000000000e+00
1.038000000000000000e+03,-1.384269270929076479e+00,0.000000000000000000e+00
1.039000000000000000e+03,-1.579512480552672793e+00,0.000000000000000000e+00
1.040000000000000000e+03,-1.342572241819280698e+00,0.000000000000000000e+00
1.041000000000000000e+03,-1.419262045371944891e+00,0.000000000000000000e+00
1.042000000000000000e+03,-1.200003557352280037e+00,0.000000000000000000e+00
1.043000000000000000e+03,-1.233834508923189022e+00,0.000000000000000000e+00
1.044000000000000000e+03,-8.136385241478301111e-01,0.000000000000000000e+00
1.045000000000000000e+03,-7.330320224262756312e-01,0.000000000000000000e+00
1.046000000000000000e+03,-5.990753171451526082e-01,0.000000000000000000e+00
1.047000000000000000e+03,-3.571488546308940748e-01,0.000000000000000000e+00
1.048000000000000000e+03,-4.920093320677318416e-01,0.000000000000000000e+00
1.049000000000000000e+03,-2.806312995206615701e-01,0.000000000000000000e+00
1.050000000000000000e+03,-1.140385922978684047e-01,0.000000000000000000e+00
1.051000000000000000e+03,-6.385564584974224855e-01,0.000000000000000000e+00
1.052000000000000000e+03,1.300813908672011077e-01,0.000000000000000000e+00
1.053000000000000000e+03,8.306480731436784171e-02,0.000000000000000000e+00
1.054000000000000000e+03,3.577108394337579766e-01,0.000000000000000000e+00
1.055000000000000000e+03,3.142677867965074645e-01,0.000000000000000000e+00
1.056000000000000000e+03,-1.517755570008815225e-01,0.000000000000000000e+00
1.057000000000000000e+03,1.655741952610360890e-01,0.000000000000000000e+00
1.058000000000000000e+03,-7.926151263103362044e-02,0.000000000000000000e+00
1.059000000000000000e+03,5.155473104756163466e-02,0.000000000000000000e+00
1.060000000000000000e+03,-7.187490315775212080e-02,0.000000000000000000e+00
1.061000000000000000e+03,1.843458203777695315e-01,0.000000000000000000e+00
1.062000000000000000e+03,3.499886594539187268e+00,0.000000000000000000e+00
1.063000000000000000e+03,7.107510665501229896e-01,1.000000000000000000e+00
1.064000000000000000e+03,-6.271671815444209708e-01,0.000000000000000000e+00
1.065000000000000000e+03,-7.984395453411333166e-02,0.000000000000000000e+00
1.066000000000000000e+03,-2.220480185424650033e-01,0.000000000000000000e+00
1.067000000000000000e+03,5.260135796899338967e-01,0.000000000000000000e+00
1.068000000000000000e+03,-1.223545352547853599e-01,0.000000000000000000e+00
1.069000000000000000e+03,3.598013433320916832e-01,0.000000000000000000e+00
1.070000000000000000e+03,-6.962125215200951067e-02,0.000000000000000000e+00
1.071000000000000000e+03,4.868580044594665313e-01,0.000000000000000000e+00
1.072000000000000000e+03,4.490664659106559098e-01,0.000000000000000000e+00
1.073000000000000000e+03,9.733498898951393752e-01,0.000000000000000000e+00
1.074000000000000000e+03,1.086318217082200555e+00,0.000000000000000000e+00
1.075000000000000000e+03,1.440248290925548291e+00,0.000000000000000000e+00
1.076000000000000000e+03,1.300524298108704180e+00,0.000000000000000000e+00
1.077000000000000000e+03,1.581085754138569222e+00,0.000000000000000000e+00
1.078000000000000000e+03,-9.606918527734707725e-02,0.000000000000000000e+00
1.079000000000000000e+03,-5.186829059143881482e-01,0.000000000000000000e+00
1.080000000000000000e+03,-1.988792539918549540e+00,0.000000000000000000e+00
1.081000000000000000e+03,-1.376012396408522243e+00,0.000000000000000000e+00
1.082000000000000000e+03,-1.379090671010579694e+00,0.000000000000000000e+00
1.083000000000000000e+03,-1.309989288029538734e+00,0.000000000000000000e+00
1.084000000000000000e+03,-1.516520705119478007e+00,0.000000000000000000e+00
1.085000000000000000e+03,-1.062675104224668488e+00,0.000000000000000000e+00
1.086000000000000000e+03,-1.152227941006574108e+00,0.000000000000000000e+00
1.087000000000000000e+03,-9.364080329027674177e-01,0.000000000000000000e+00
1.088000000000000000e+03,-7.503754875595463059e-01,0.000000000000000000e+00
1.089000000000000000e+03,-7.104747105173822019e-01,0.000000000000000000e+00
1.090000000000000000e+03,-3.330087163853091003e-01,0.000000000000000000e+00
1.091000000000000000e+03,-8.151303417740423107e-01,0.000000000000000000e+00
1.092000000000000000e+03,-4.692586230433283268e-01,0.000000000000000000e+00
1.093000000000000000e+03,-4.510145277174307243e-01,0.000000000000000000e+00
1.094000000000000000e+03,-2.507468286679473413e-01,0.000000000000000000e+00
1.095000000000000000e+03,-1.357867089088943269e-01,0.000000000000000000e+00
1.096000000000000000e+03,-7.042290430698043557e-02,0.000000000000000000e+00
1.097000000000000000e+03,-4.496395784067494517e-02,0.000000000000000000e+00
1.098000000000000000e+03,3.779511290457333028e-01,0.000000000000000000e+00
1.099000000000000000e+03,1.318121458891696185e-01,0.000000000000000000e+00
1.100000000000000000e+03,-1.116683402103191107e-02,0.000000000000000000e+00
1.101000000000000000e+03,-8.497760435273019053e-02,0.000000000000000000e+00
1.102000000000000000e+03,-3.346298873216729808e-01,0.000000000000000000e+00
1.103000000000000000e+03,7.174287031803516790e-02,0.000000000000000000e+00
1.104000000000000000e+03,-7.699971105373087932e-02,0.000000000000000000e+00
1.105000000000000000e+03,2.035431804492679131e+00,0.000000000000000000e+00
1.106000000000000000e+03,3.314060842234345827e+00,0.000000000000000000e+00
1.107000000000000000e+03,-6.808764315853638172e-01,1.000000000000000000e+00
1.108000000000000000e+03,1.343123258905234152e-01,0.000000000000000000e+00
1.109000000000000000e+03,7.227357960939953530e-02,0.000000000000000000e+00
1.110000000000000000e+03,1.764219164992597844e-01,0.000000000000000000e+00
1.111000000000000000e+03,2.324969883736795473e-01,0.000000000000000000e+00
1.112000000000000000e+03,2.579035911668799974e-01,0.000000000000000000e+00
1.113000000000000000e+03,2.805169626932318416e-01,0.000000000000000000e+00
1.114000000000000000e+03,5.934895194894795889e-01,0.000000000000000000e+00
1.115000000000000000e+03,4.351959091250891531e-01,0.000000000000000000e+00
1.116000000000000000e+03,9.436336798880464727e-01,0.000000000000000000e+00
1.117000000000000000e+03,1.162584268731937653e+00,0.000000000000000000e+00
1.118000000000000000e+03,1.528700787658430205e+00,0.000000000000000000e+00
1.119000000000000000e+03,1.768577030532674899e+00,0.000000000000000000e+00
1.120000000000000000e+03,2.187822615827329287e+00,0.000000000000000000e+00
1.121000000000000000e+03,9.728064191079174305e-01,0.000000000000000000e+00
1.122000000000000000e+03,-2.019302229447542119e-02,0.000000000000000000e+00
1.123000000000000000e+03,-1.138691113483939255e+00,0.000000000000000000e+00
1.124000000000000000e+03,-1.300603137345196059e+00,0.000000000000000000e+00
1.125000000000000000e+03,-1.299601910282445649e+00,0.000000000000000000e+00
1.126000000000000000e+03,-1.306597101087429547e+00,0.000000000000000000e+00
1.127000000000000000e+03,-9.234419430305216281e-01,0.000000000000000000e+00
1.128000000000000000e+03,-8.831628222052608779e-01,0.000000000000000000e+00
1.129000000000000000e+03,-9.602858936631850639e-01,0.000000000000000000e+00
1.130000000000000000e+03,-3.813463970926588287e-01,0.000000000000000000e+00
1.131000000000000000e+03,-5.530824548415562703e-01,0.000000000000000000e+00
1.132000000000000000e+03,-4.760085536768310366e-01,0.000000000000000000e+00
1.133000000000000000e+03,-3.814452043366559630e-01,0.000000000000000000e+00
1.134000000000000000e+03,-5.434499303699138473e-01,0.000000000000000000e+00
1.135000000000000000e+03,-2.404289889611301301e-01,0.000000000000000000e+00
1.136000000000000000e+03,-1.475425559139221243e-01,0.000000000000000000e+00
1.137000000000000000e+03,-1.770643487305798291e-01,0.000000000000000000e+00
1.138000000000000000e+03,-8.423906971100500463e-02,0.000000000000000000e+00
1.139000000000000000e+03,-5.210401882280282088e-02,0.000000000000000000e+00
1.140000000000000000e+03,1.369094143078653514e-01,0.000000000000000000e+00
1.141000000000000000e+03,3.174899040037899023e-01,0.000000000000000000e+00
1.142000000000000000e+03,4.350275744030477343e-01,0.000000000000000000e+00
1.143000000000000000e+03,5.136945471146966424e-01,0.000000000000000000e+00
1.144000000000000000e+03,3.535028741368319988e-02,0.000000000000000000e+00
1.145000000000000000e+03,6.921011688573795728e-02,0.000000000000000000e+00
1.146000000000000000e+03,-3.371657690837056576e-01,0.000000000000000000e+00
1.147000000000000000e+03,3.231871423655899300e-01,0.000000000000000000e+00
1.148000000000000000e+03,-1.892044075608034781e-01,0.000000000000000000e+00
1.149000000000000000e+03,2.203706333796629835e+00,0.000000000000000000e+00
1.150000000000000000e+03,3.269426010718314402e+00,0.000000000000000000e+00
1.151000000000000000e+03,-7.014955893948823240e-01,1.000000000000000000e+00
1.152000000000000000e+03,6.835314515479287700e-02,0.000000000000000000e+00
1.153000000000000000e+03,-4.352092862605690393e-01,0.000000000000000000e+00
1.154000000000000000e+03,-1.720831188960695798e-02,0.000000000000000000e+00
1.155000000000000000e+03,1.462189327828653518e-01,0.000000000000000000e+00
1.156000000000000000e+03,2.034201745820833906e-01,0.000000000000000000e+00
1.157000000000000000e+03,1.415433502649247333e-01,0.000000000000000000e+00
1.158000000000000000e+03,2.855208523908284723e-01,0.000000000000000000e+00
1.159000000000000000e+03,7.177102473053467158e-01,0.000000000000000000e+00
1.160000000000000000e+03,5.935854203782195970e-01,0.000000000000000000e+00
1.161000000000000000e+03,9.858190916453066777e-01,0.000000000000000000e+00
1.162000000000000000e+03,1.568469553747095180e+00,0.000000000000000000e+00
1.163000000000000000e+03,1.953777166342474336e+00,0.000000000000000000e+00
1.164000000000000000e+03,1.634150546917711777e+00,0.000000000000000000e+00
1.165000000000000000e+03,1.179928496948409400e+00,0.000000000000000000e+00
1.166000000000000000e+03,-4.008945924677608241e-01,0.000000000000000000e+00
1.167000000000000000e+03,-9.270412951421572734e-01,0.000000000000000000e+00
1.168000000000000000e+03,-1.526148692767329118e+00,0.000000000000000000e+00
1.169000000000000000e+03,-1.612484026476561860e+00,0.000000000000000000e+00
1.170000000000000000e+03,-1.701877150734626865e+00,0.000000000000000000e+00
1.171000000000000000e+03,-9.114383222175791444e-01,0.000000000000000000e+00
1.172000000000000000e+03,-1.426451759113253503e+00,0.000000000000000000e+00
1.173000000000000000e+03,-9.227489591661891533e-01,0.000000000000000000e+00
1.174000000000000000e+03,-9.882894210742989571e-01,0.000000000000000000e+00
1.175000000000000000e+03,-6.696556222541509840e-01,0.000000000000000000e+00
1.176000000000000000e+03,-7.572950439302607029e-01,0.000000000000000000e+00
1.177000000000000000e+03,-9.422942260758355726e-01,0.000000000000000000e+00
1.178000000000000000e+03,-5.947808711327650100e-01,0.000000000000000000e+00
1.179000000000000000e+03,-4.289488730998091137e-01,0.000000000000000000e+00
1.180000000000000000e+03,-5.146010166102910066e-01,0.000000000000000000e+00
1.181000000000000000e+03,-5.134552041556116331e-01,0.000000000000000000e+00
1.182000000000000000e+03,-1.560623905904050535e-01,0.000000000000000000e+00
1.183000000000000000e+03,-2.898648749186880091e-01,0.000000000000000000e+00
1.184000000000000000e+03,2.180157819917225015e-01,0.000000000000000000e+00
1.185000000000000000e+03,1.467399976060665689e-01,0.000000000000000000e+00
1.186000000000000000e+03,-6.459111208296466344e-01,0.000000000000000000e+00
1.187000000000000000e+03,-3.330756096563319835e-01,0.000000000000000000e+00
1.188000000000000000e+03,-4.566830810511778860e-01,0.000000000000000000e+00
1.189000000000000000e+03,-4.143038689213309200e-01,0.000000000000000000e+00
1.190000000000000000e+03,1.697381159846502244e-02,0.000000000000000000e+00
1.191000000000000000e+03,6.035938501441256987e-01,0.000000000000000000e+00
1.192000000000000000e+03,2.938544772163472096e+00,0.000000000000000000e+00
1.193000000000000000e+03,-4.898841192221031760e-01,1.000000000000000000e+00
1.194000000000000000e+03,-4.225032561725498015e-01,0.000000000000000000e+00
1.195000000000000000e+03,-7.030882139369443173e-02,0.000000000000000000e+00
1.196000000000000000e+03,-3.733903259149546905e-01,0.000000000000000000e+00
1.197000000000000000e+03,9.608212664216909948e-02,0.000000000000000000e+00
1.198000000000000000e+03,-6.540624516204838514e-03,0.000000000000000000e+00
1.199000000000000000e+03,1.622771169573545003e-01,0.000000000000000000e+00
1.200000000000000000e+03,2.438085418058971721e-01,0.000000000000000000e+00
1.201000000000000000e+03,2.827635181403035380e-01,0.000000000000000000e+00
1.202000000000000000e+03,6.486718110888852751e-01,0.000000000000000000e+00
1.203000000000000000e+03,8.338979076079713337e-01,0.000000000000000000e+00
1.204000000000000000e+03,1.318116289888660031e+00,0.000000000000000000e+00
1.205000000000000000e+03,1.417179609857013078e+00,0.000000000000000000e+00
1.206000000000000000e+03,1.730376620154914891e+00,0.000000000000000000e+00
1.207000000000000000e+03,9.145744499911834247e-01,0.000000000000000000e+00
1.208000000000000000e+03,-2.590257196856232680e-01,0.000000000000000000e+00
1.209000000000000000e+03,-6.676331546679177276e-01,0.000000000000000000e+00
1.210000000000000000e+03,-1.453007654026090334e+00,0.000000000000000000e+00
1.211000000000000000e+03,-1.574242363478759898e+00,0.000000000000000000e+00
1.212000000000000000e+03,-1.328211025035460180e+00,0.000000000000000000e+00
1.213000000000000000e+03,-1.149541141827228330e+00,0.000000000000000000e+00
1.214000000000000000e+03,-1.098174153492307070e+00,0.000000000000000000e+00
1.215000000000000000e+03,-1.049393135041831959e+00,0.000000000000000000e+00
1.216000000000000000e+03,-7.319442068600300333e-01,0.000000000000000000e+00
1.217000000000000000e+03,-7.612282614146330673e-01,0.000000000000000000e+00
1.218000000000000000e+03,-4.446224755115069094e-01,0.000000000000000000e+00
1.219000000000000000e+03,-4.528226257704345836e-01,0.000000000000000000e+00
1.220000000000000000e+03,-5.976400007162319811e-02,0.000000000000000000e+00
1.221000000000000000e+03,-5.663496883485716893e-01,0.000000000000000000e+00
1.222000000000000000e+03,-2.203678362508022237e-01,0.000000000000000000e+00
1.223000000000000000e+03,-1.683888751847510967e-01,0.000000000000000000e+00
1.224000000000000000e+03,8.575199389208210121e-02,0.000000000000000000e+00
1.225000000000000000e+03,1.170266237908982876e-01,0.000000000000000000e+00
1.226000000000000000e+03,2.944377504986351313e-01,0.000000000000000000e+00
1.227000000000000000e+03,3.438825537429281431e-01,0.000000000000000000e+00
1.228000000000000000e+03,-4.409623065660380620e-02,0.000000000000000000e+00
1.229000000000000000e+03,-1.448665311075569839e-01,0.000000000000000000e+00
1.230000000000000000e+03,1.396386233052001880e-01,0.000000000000000000e+00
1.231000000000000000e+03,-2.079512723662121088e-01,0.000000000000000000e+00
1.232000000000000000e+03,7.248498213679294144e-02,0.000000000000000000e+00
1.233000000000000000e+03,1.899226967476633221e-01,0.000000000000000000e+00
1.234000000000000000e+03,3.559888637015061530e+00,0.000000000000000000e+00
1.235000000000000000e+03,5.214926688121723775e-01,1.000000000000000000e+00
1.236000000000000000e+03,-5.354046406759539467e-01,0.000000000000000000e+00
1.237000000000000000e+03,3.911079404719805530e-02,0.000000000000000000e+00
1.238000000000000000e+03,-3.749690850590234881e-01,0.000000000000000000e+00
1.239000000000000000e+03,5.183219555442837301e-01,0.000000000000000000e+00
1.240000000000000000e+03,1.083363235838604860e-01,0.000000000000000000e+00
1.241000000000000000e+03,3.156631467843876160e-01,0.000000000000000000e+00
1.242000000000000000e+03,5.153966546380556180e-01,0.000000000000000000e+00
1.243000000000000000e+03,5.275888192833211310e-01,0.000000000000000000e+00
1.244000000000000000e+03,7.436357621609667179e-01,0.000000000000000000e+00
1.245000000000000000e+03,1.090630296431782886e+00,0.000000000000000000e+00
1.246000000000000000e+03,1.454680477177089370e+00,0.000000000000000000e+00
1.247000000000000000e+03,1.646903544590965662e+00,0.000000000000000000e+00
1.248000000000000000e+03,1.954865063263103497e+00,0.000000000000000000e+00
1.249000000000000000e+03,1.649889444290662643e+00,0.000000000000000000e+00
1.250000000000000000e+03,1.973301929705521818e-01,0.000000000000000000e+00
1.251000000000000000e+03,-5.375270574308758098e-01,0.000000000000000000e+00
1.252000000000000000e+03,-1.303852856029739549e+00,0.000000000000000000e+00
1.253000000000000000e+03,-1.134777628117175086e+00,0.000000000000000000e+00
1.254000000000000000e+03,-1.381978744648612700e+00,0.000000000000000000e+00
1.255000000000000000e+03,-9.908904838869849740e-01,0.000000000000000000e+00
1.256000000000000000e+03,-1.076198155554607405e+00,0.000000000000000000e+00
1.257000000000000000e+03,-8.680083649939456247e-01,0.000000000000000000e+00
1.258000000000000000e+03,-8.076884465093226995e-01,0.000000000000000000e+00
1.259000000000000000e+03,-3.635300956229698399e-01,0.000000000000000000e+00
1.260000000000000000e+03,-4.777776679673589322e-01,0.000000000000000000e+00
1.261000000000000000e+03,-1.862040828280242810e-01,0.000000000000000000e+00
1.262000000000000000e+03,-4.686746437266591236e-01,0.000000000000000000e+00
1.263000000000000000e+03,-1.251425432803841553e-01,0.000000000000000000e+00
1.264000000000000000e+03,-1.886899528859773967e-01,0.000000000000000000e+00
1.265000000000000000e+03,-4.018723507581139359e-02,0.000000000000000000e+00
1.266000000000000000e+03,-5.119490970455003315e-02,0.000000000000000000e+00
1.267000000000000000e+03,5.619467389963473530e-02,0.000000000000000000e+00
1.268000000000000000e+03,2.949147087143768053e-01,0.000000000000000000e+00
1.269000000000000000e+03,6.349308427135864630e-01,0.000000000000000000e+00
1.270000000000000000e+03,2.661952476612288176e-01,0.000000000000000000e+00
1.271000000000000000e+03,-3.475401649083295075e-01,0.000000000000000000e+00
1.272000000000000000e+03,-6.646114704894390268e-02,0.000000000000000000e+00
1.273000000000000000e+03,6.919898478980833489e-02,0.000000000000000000e+00
1.274000000000000000e+03,8.210663518989218257e-02,0.000000000000000000e+00
1.275000000000000000e+03,-1.182135030036547641e-03,0.000000000000000000e+00
1.276000000000000000e+03,7.678822366112587616e-01,0.000000000000000000e+00
1.277000000000000000e+03,3.828209903380761503e+00,0.000000000000000000e+00
1.278000000000000000e+03,-5.009891587195294260e-01,1.000000000000000000e+00
1.279000000000000000e+03,-2.719152094042379120e-01,0.000000000000000000e+00
1.280000000000000000e+03,-3.099061697066174959e-01,0.000000000000000000e+00
1.281000000000000000e+03,-1.575930992503532246e-01,0.000000000000000000e+00
1.282000000000000000e+03,-1.521985384995302171e-01,0.000000000000000000e+00
1.283000000000000000e+03,-3.027715883394040963e-01,0.000000000000000000e+00
1.284000000000000000e+03,7.745810760923749205e-02,0.000000000000000000e+00
1.285000000000000000e+03,1.794490574551995538e-02,0.000000000000000000e+00
1.286000000000000000e+03,4.021453198457192180e-01,0.000000000000000000e+00
1.287000000000000000e+03,4.203896721453261875e-01,0.000000000000000000e+00
1.288000000000000000e+03,6.420338866906417641e-01,0.000000000000000000e+00
1.289000000000000000e+03,1.221644469420134937e+00,0.000000000000000000e+00
1.290000000000000000e+03,1.604247131011600880e+00,0.000000000000000000e+00
1.291000000000000000e+03,1.517569914068967130e+00,0.000000000000000000e+00
1.292000000000000000e+03,1.244917902500197959e+00,0.000000000000000000e+00
1.293000000000000000e+03,1.501000597084531547e-02,0.000000000000000000e+00
1.294000000000000000e+03,-1.098566407349481855e+00,0.000000000000000000e+00
1.295000000000000000e+03,-1.526042941008284304e+00,0.000000000000000000e+00
1.296000000000000000e+03,-1.421230366690890978e+00,0.000000000000000000e+00
1.297000000000000000e+03,-1.046514112741426805e+00,0.000000000000000000e+00
1.298000000000000000e+03,-1.402752649733955526e+00,0.000000000000000000e+00
1.299000000000000000e+03,-8.508990283823905099e-01,0.000000000000000000e+00
1.300000000000000000e+03,-9.456910376311153943e-01,0.000000000000000000e+00
1.301000000000000000e+03,-6.406020223445958450e-01,0.000000000000000000e+00
1.302000000000000000e+03,-8.171370259902549504e-01,0.000000000000000000e+00
1.303000000000000000e+03,-8.731268211735258855e-02,0.000000000000000000e+00
1.304000000000000000e+03,-3.604560611435221329e-01,0.000000000000000000e+00
1.305000000000000000e+03,-4.606714011699560296e-01,0.000000000000000000e+00
1.306000000000000000e+03,-3.019235485866246793e-01,0.000000000000000000e+00
1.307000000000000000e+03,1.185867443084420714e-01,0.000000000000000000e+00
1.308000000000000000e+03,-4.094883154383119339e-01,0.000000000000000000e+00
1.309000000000000000e+03,-2.545029254027454391e-01,0.000000000000000000e+00
1.310000000000000000e+03,-5.641831327542180113e-02,0.000000000000000000e+00
1.311000000000000000e+03,2.605406355693906661e-01,0.000000000000000000e+00
1.312000000000000000e+03,6.431628211822055796e-01,0.000000000000000000e+00
1.313000000000000000e+03,4.239080861683274803e-01,0.000000000000000000e+00
1.314000000000000000e+03,-2.871346775445652866e-01,0.000000000000000000e+00
1.315000000000000000e+03,-1.105437293619694339e-01,0.000000000000000000e+00
1.316000000000000000e+03,-2.334715389459852269e-02,0.000000000000000000e+00
1.317000000000000000e+03,-1.745568831292504397e-01,0.000000000000000000e+00
1.318000000000000000e+03,-1.494463155350161665e-01,0.000000000000000000e+00
1.319000000000000000e+03,5.481902262358582245e-01,0.000000000000000000e+00
1.320000000000000000e+03,3.693545535571856497e+00,0.000000000000000000e+00
1.321000000000000000e+03,-1.597204990398841118e-01,1.000000000000000000e+00
1.322000000000000000e+03,-4.485735873399767648e-01,0.000000000000000000e+00
1.323000000000000000e+03,-2.957265628885081266e-01,0.000000000000000000e+00
1.324000000000000000e+03,-5.764681974284124877e-01,0.000000000000000000e+00
1.325000000000000000e+03,2.958037264304445024e-01,0.000000000000000000e+00
1.326000000000000000e+03,-3.419141870131534033e-01,0.000000000000000000e+00
1.327000000000000000e+03,-1.215928439586550502e-01,0.000000000000000000e+00
1.328000000000000000e+03,2.196857381788312469e-01,0.000000000000000000e+00
1.329000000000000000e+03,1.228075365835960830e-01,0.000000000000000000e+00
1.330000000000000000e+03,4.344430841889627692e-01,0.000000000000000000e+00
1.331000000000000000e+03,7.638884256990589039e-01,0.000000000000000000e+00
1.332000000000000000e+03,1.167940898648900605e+00,0.000000000000000000e+00
1.333000000000000000e+03,1.414145359199589169e+00,0.000000000000000000e+00
1.334000000000000000e+03,1.884563998346771463e+00,0.000000000000000000e+00
1.335000000000000000e+03,1.394426631751513712e+00,0.000000000000000000e+00
1.336000000000000000e+03,-1.657882830104962235e-01,0.000000000000000000e+00
1.337000000000000000e+03,-1.102816291531584225e+00,0.000000000000000000e+00
1.338000000000000000e+03,-1.481691124046895736e+00,0.000000000000000000e+00
1.339000000000000000e+03,-1.689930257979987527e+00,0.000000000000000000e+00
1.340000000000000000e+03,-1.409555318344166475e+00,0.000000000000000000e+00
1.341000000000000000e+03,-1.407466033897716295e+00,0.000000000000000000e+00
1.342000000000000000e+03,-1.445329925460612674e+00,0.000000000000000000e+00
1.343000000000000000e+03,-4.521777256368165743e-01,0.000000000000000000e+00
1.344000000000000000e+03,-9.835657171463620951e-01,0.000000000000000000e+00
1.345000000000000000e+03,-7.039178493490336752e-01,0.000000000000000000e+00
1.346000000000000000e+03,-1.147469266775588803e+00,0.000000000000000000e+00
1.347000000000000000e+03,-1.003834968757087859e-01,0.000000000000000000e+00
1.348000000000000000e+03,-8.292160961406357389e-01,0.000000000000000000e+00
1.349000000000000000e+03,-4.621265046890479233e-01,0.000000000000000000e+00
1.350000000000000000e+03,-6.073836060654094204e-01,0.000000000000000000e+00
1.351000000000000000e+03,-4.322811934177085008e-02,0.000000000000000000e+00
1.352000000000000000e+03,5.123183029643884473e-02,0.000000000000000000e+00
1.353000000000000000e+03,-7.222466972965840837e-02,0.000000000000000000e+00
1.354000000000000000e+03,2.425658056190131140e-01,0.000000000000000000e+00
1.355000000000000000e+03,-4.445329095468287250e-01,0.000000000000000000e+00
1.356000000000000000e+03,-4.039587491729188518e-01,0.000000000000000000e+00
1.357000000000000000e+03,-1.444615247973077971e-02,0.000000000000000000e+00
1.358000000000000000e+03,-5.626530859662400852e-01,0.000000000000000000e+00
1.359000000000000000e+03,1.155972611524889310e-01,0.000000000000000000e+00
1.360000000000000000e+03,-3.212210560658206315e-01,0.000000000000000000e+00
1.361000000000000000e+03,2.651116799527672541e+00,0.000000000000000000e+00
1.362000000000000000e+03,1.794391252922282742e+00,1.000000000000000000e+00
1.363000000000000000e+03,-1.376750593819584534e+00,0.000000000000000000e+00
1.364000000000000000e+03,2.691770272289208399e-01,0.000000000000000000e+00
1.365000000000000000e+03,-5.208718044329051500e-01,0.000000000000000000e+00
1.366000000000000000e+03,3.061028719515783147e-01,0.000000000000000000e+00
1.367000000000000000e+03,1.136828598559800479e-01,0.000000000000000000e+00
1.368000000000000000e+03,1.016891180036849085e-01,0.000000000000000000e+00
1.369000000000000000e+03,1.990351481623248431e-01,0.000000000000000000e+00
1.370000000000000000e+03,5.389214443630248041e-01,0.000000000000000000e+00
1.371000000000000000e+03,4.755881174903157649e-01,0.000000000000000000e+00
1.372000000000000000e+03,1.063899533472175918e+00,0.000000000000000000e+00
1.373000000000000000e+03,1.023855900419224030e+00,0.000000000000000000e+00
1.374000000000000000e+03,1.492179368896995095e+00,0.000000000000000000e+00
1.375000000000000000e+03,2.104673605867195985e+00,0.000000000000000000e+00
1.376000000000000000e+03,1.706890783690026669e+00,0.000000000000000000e+00
1.377000000000000000e+03,3.189473527280139997e-01,0.000000000000000000e+00
1.378000000000000000e+03,-5.250765657263440911e-01,0.000000000000000000e+00
1.379000000000000000e+03,-1.329614714320795033e+00,0.000000000000000000e+00
1.380000000000000000e+03,-1.232181363924396367e+00,0.000000000000000000e+00
1.381000000000000000e+03,-1.132570410856381438e+00,0.000000000000000000e+00
1.382000000000000000e+03,-1.492127063437148404e+00,0.000000000000000000e+00
1.383000000000000000e+03,-1.020974524785672299e+00,0.000000000000000000e+00
1.384000000000000000e+03,-8.852086804427728994e-01,0.000000000000000000e+00
1.385000000000000000e+03,-6.784138582011506324e-01,0.000000000000000000e+00
1.386000000000000000e+03,-5.581606587511206419e-01,0.000000000000000000e+00
1.387000000000000000e+03,-2.060358067212146316e-01,0.000000000000000000e+00
1.388000000000000000e+03,-1.815489275932282431e-01,0.000000000000000000e+00
1.389000000000000000e+03,-4.323350831736777478e-01,0.000000000000000000e+00
1.390000000000000000e+03,-6.363328726868437701e-02,0.000000000000000000e+00
1.391000000000000000e+03,-1.602199430616493836e-01,0.000000000000000000e+00
1.392000000000000000e+03,9.756352957658434577e-02,0.000000000000000000e+00
1.393000000000000000e+03,4.905072903196647238e-01,0.000000000000000000e+00
1.394000000000000000e+03,1.441500877515559664e-01,0.000000000000000000e+00
1.395000000000000000e+03,5.740009566666235408e-01,0.000000000000000000e+00
1.396000000000000000e+03,3.522575477885186990e-01,0.000000000000000000e+00
1.397000000000000000e+03,9.739496140349594711e-02,0.000000000000000000e+00
1.398000000000000000e+03,-1.386741509039362830e-01,0.000000000000000000e+00
1.399000000000000000e+03,9.682743122362942600e-02,0.000000000000000000e+00
1.400000000000000000e+03,5.463058533205792378e-01,0.000000000000000000e+00
1.401000000000000000e+03,-1.942759157716553720e-01,0.000000000000000000e+00
1.402000000000000000e+03,1.799099325060155241e+00,0.000000000000000000e+00
1.403000000000000000e+03,3.486025129166067327e+00,0.000000000000000000e+00
1.404000000000000000e+03,-6.504096482188111983e-01,1.000000000000000000e+00
1.405000000000000000e+03,4.592109322194541654e-02,0.000000000000000000e+00
1.406000000000000000e+03,1.675229020722108497e-01,0.000000000000000000e+00
1.407000000000000000e+03,1.437078650471065311e-01,0.000000000000000000e+00
1.408000000000000000e+03,-3.916953239931692497e-03,0.000000000000000000e+00
1.409000000000000000e+03,1.827058610778255487e-01,0.000000000000000000e+00
1.410000000000000000e+03,4.137508502876922623e-01,0.000000000000000000e+00
1.411000000000000000e+03,3.930498291499249786e-01,0.000000000000000000e+00
1.412000000000000000e+03,2.906085957671317166e-01,0.000000000000000000e+00
1.413000000000000000e+03,1.051753749556471051e+00,0.000000000000000000e+00
1.414000000000000000e+03,8.157555415003798771e-01,0.000000000000000000e+00
1.415000000000000000e+03,1.425270396803947071e+00,0.000000000000000000e+00
1.416000000000000000e+03,1.587331726949264166e+00,0.000000000000000000e+00
1.417000000000000000e+03,1.820704614951932809e+00,0.000000000000000000e+00
1.418000000000000000e+03,8.657269927303946622e-01,0.000000000000000000e+00
1.419000000000000000e+03,-3.170118871660158599e-01,0.000000000000000000e+00
1.420000000000000000e+03,-1.069472645675285438e+00,0.000000000000000000e+00
1.421000000000000000e+03,-1.695271698860591814e+00,0.000000000000000000e+00
1.422000000000000000e+03,-1.448510297138704273e+00,0.000000000000000000e+00
1.423000000000000000e+03,-1.350942958231432289e+00,0.000000000000000000e+00
1.424000000000000000e+03,-1.354907685950759832e+00,0.000000000000000000e+00
1.425000000000000000e+03,-9.877406774030558223e-01,0.000000000000000000e+00
1.426000000000000000e+03,-9.273366309810433528e-01,0.000000000000000000e+00
1.427000000000000000e+03,-7.965657713807986484e-01,0.000000000000000000e+00
1.428000000000000000e+03,-6.254408565151570176e-01,0.000000000000000000e+00
1.429000000000000000e+03,-7.808139256452868437e-01,0.000000000000000000e+00
1.430000000000000000e+03,-2.948127259937726174e-01,0.000000000000000000e+00
1.431000000000000000e+03,-4.472893216739884381e-01,0.000000000000000000e+00
1.432000000000000000e+03,-5.690241214702925765e-01,0.000000000000000000e+00
1.433000000000000000e+03,-5.442599596083769198e-01,0.000000000000000000e+00
1.434000000000000000e+03,-2.967063173140366272e-01,0.000000000000000000e+00
1.435000000000000000e+03,1.886863621822402748e-01,0.000000000000000000e+00
1.436000000000000000e+03,6.843898646410202791e-02,0.000000000000000000e+00
1.437000000000000000e+03,-1.038906486096777097e-02,0.000000000000000000e+00
1.438000000000000000e+03,-6.253679259424885228e-02,0.000000000000000000e+00
1.439000000000000000e+03,1.965347091054610307e-01,0.000000000000000000e+00
1.440000000000000000e+03,-5.167558870211412803e-01,0.000000000000000000e+00
1.441000000000000000e+03,-2.810326941285111180e-01,0.000000000000000000e+00
1.442000000000000000e+03,1.368109414666723589e-01,0.000000000000000000e+00
1.443000000000000000e+03,-5.245484094568036992e-01,0.000000000000000000e+00
1.444000000000000000e+03,1.319677805566114914e+00,0.000000000000000000e+00
1.445000000000000000e+03,3.433111810893795912e+00,0.000000000000000000e+00
1.446000000000000000e+03,-8.689745000601423186e-01,1.000000000000000000e+00
1.447000000000000000e+03,-5.358294544673118665e-02,0.000000000000000000e+00
1.448000000000000000e+03,-3.642454215134017237e-01,0.000000000000000000e+00
1.449000000000000000e+03,-5.389078125443414607e-02,0.000000000000000000e+00
1.450000000000000000e+03,-2.106689529475209988e-02,0.000000000000000000e+00
1.451000000000000000e+03,1.755157352505117355e-02,0.000000000000000000e+00
1.452000000000000000e+03,1.382874726131958221e-01,0.000000000000000000e+00
1.453000000000000000e+03,1.859517799169091434e-01,0.000000000000000000e+00
1.454000000000000000e+03,2.347833534201181904e-01,0.000000000000000000e+00
1.455000000000000000e+03,8.908352955076379587e-01,0.000000000000000000e+00
1.456000000000000000e+03,7.888919489296453147e-01,0.000000000000000000e+00
1.457000000000000000e+03,1.440931079675916715e+00,0.000000000000000000e+00
1.458000000000000000e+03,1.632462348753407788e+00,0.000000000000000000e+00
1.459000000000000000e+03,1.669196106809635038e+00,0.000000000000000000e+00
1.460000000000000000e+03,1.091972633173292628e+00,0.000000000000000000e+00
1.461000000000000000e+03,-2.730071206435707998e-01,0.000000000000000000e+00
1.462000000000000000e+03,-1.169255207199567437e+00,0.000000000000000000e+00
1.463000000000000000e+03,-1.448245484365172420e+00,0.000000000000000000e+00
1.464000000000000000e+03,-1.663029885300315369e+00,0.000000000000000000e+00
1.465000000000000000e+03,-1.193152475550696368e+00,0.000000000000000000e+00
1.466000000000000000e+03,-1.275997161600641361e+00,0.000000000000000000e+00
1.467000000000000000e+03,-1.108032637748534777e+00,0.000000000000000000e+00
1.468000000000000000e+03,-9.088206683706208100e-01,0.000000000000000000e+00
1.469000000000000000e+03,-6.029148983819530017e-01,0.000000000000000000e+00
1.470000000000000000e+03,-6.301791846366667782e-01,0.000000000000000000e+00
1.471000000000000000e+03,-5.855962086423777135e-01,0.000000000000000000e+00
1.472000000000000000e+03,-1.877178653907639605e-01,0.000000000000000000e+00
1.473000000000000000e+03,-5.521872750658955997e-01,0.000000000000000000e+00
1.474000000000000000e+03,-9.884964464430281983e-02,0.000000000000000000e+00
1.475000000000000000e+03,-3.930900531164250866e-01,0.000000000000000000e+00
1.476000000000000000e+03,-2.739036612837660867e-01,0.000000000000000000e+00
1.477000000000000000e+03,4.902884921069054942e-03,0.000000000000000000e+00
1.478000000000000000e+03,1.608425719412170940e-01,0.000000000000000000e+00
1.479000000000000000e+03,3.739729038358039492e-01,0.000000000000000000e+00
1.480000000000000000e+03,-1.994916439816339822e-03,0.000000000000000000e+00
1.481000000000000000e+03,4.694036973325143025e-01,0.000000000000000000e+00
1.482000000000000000e+03,-2.741633793492259663e-01,0.000000000000000000e+00
1.483000000000000000e+03,5.630859942877412816e-02,0.000000000000000000e+00
1.484000000000000000e+03,-3.432571722910591205e-01,0.000000000000000000e+00
1.485000000000000000e+03,2.168610807844336200e-02,0.000000000000000000e+00
1.486000000000000000e+03,-9.105822837952458337e-02,0.000000000000000000e+00
1.487000000000000000e+03,2.060947722218325673e+00,0.000000000000000000e+00
1.488000000000000000e+03,2.867334861029319004e+00,0.000000000000000000e+00
1.489000000000000000e+03,-1.252083671313959368e+00,1.000000000000000000e+00
1.490000000000000000e+03,8.102242980316949617e-02,0.000000000000000000e+00
1.491000000000000000e+03,-4.510825111269446408e-01,0.000000000000000000e+00
1.492000000000000000e+03,-9.895286775381433031e-02,0.000000000000000000e+00
1.493000000000000000e+03,-2.793060773338759684e-01,0.000000000000000000e+00
1.494000000000000000e+03,1.509941681285196895e-02,0.000000000000000000e+00
1.495000000000000000e+03,8.550098772001520075e-02,0.000000000000000000e+00
1.496000000000000000e+03,1.629652601364436348e-01,0.000000000000000000e+00
1.497000000000000000e+03,3.543822850450810691e-01,0.000000000000000000e+00
1.498000000000000000e+03,9.250600996016151711e-01,0.000000000000000000e+00
1.499000000000000000e+03,1.066982434219590603e+00,0.000000000000000000e+00
1.500000000000000000e+03,1.275089581624941903e+00,0.000000000000000000e+00
1.501000000000000000e+03,1.834093948577747879e+00,0.000000000000000000e+00
1.502000000000000000e+03,1.805893126569948715e+00,0.000000000000000000e+00
1.503000000000000000e+03,9.319843122097208887e-01,0.000000000000000000e+00
1.504000000000000000e+03,-3.448609663465572184e-01,0.000000000000000000e+00
1.505000000000000000e+03,-1.219744215034680002e+00,0.000000000000000000e+00
1.506000000000000000e+03,-1.532438266915883140e+00,0.000000000000000000e+00
1.507000000000000000e+03,-1.432745759188725598e+00,0.000000000000000000e+00
1.508000000000000000e+03,-1.497008549950405776e+00,0.000000000000000000e+00
1.509000000000000000e+03,-1.098014611925661965e+00,0.000000000000000000e+00
1.510000000000000000e+03,-9.407500700449865638e-01,0.000000000000000000e+00
1.511000000000000000e+03,-9.816134666413263155e-01,0.000000000000000000e+00
1.512000000000000000e+03,-7.960213678480635435e-01,0.000000000000000000e+00
1.513000000000000000e+03,-6.123478712041365846e-01,0.000000000000000000e+00
1.514000000000000000e+03,-4.811656710160269745e-01,0.000000000000000000e+00
1.515000000000000000e+03,-5.019397299988785921e-01,0.000000000000000000e+00
1.516000000000000000e+03,-3.439417086360632703e-01,0.000000000000000000e+00
1.517000000000000000e+03,-5.503730675488365254e-01,0.000000000000000000e+00
1.518000000000000000e+03,-3.482028735800002384e-01,0.000000000000000000e+00
1.519000000000000000e+03,-3.418286140472474588e-01,0.000000000000000000e+00
1.520000000000000000e+03,2.042605442932455273e-01,0.000000000000000000e+00
1.521000000000000000e+03,6.172970721612325989e-02,0.000000000000000000e+00
1.522000000000000000e+03,1.902022119299959790e-01,0.000000000000000000e+00
1.523000000000000000e+03,-1.170179416451700011e-01,0.000000000000000000e+00
1.524000000000000000e+03,4.629143290249318476e-01,0.000000000000000000e+00
1.525000000000000000e+03,-1.527695074740056114e-01,0.000000000000000000e+00
1.526000000000000000e+03,1.000265229234217207e-01,0.000000000000000000e+00
1.527000000000000000e+03,-2.486927153372845145e-01,0.000000000000000000e+00
1.528000000000000000e+03,4.332819560272893056e-01,0.000000000000000000e+00
1.529000000000000000e+03,-1.287952278101987813e-01,0.000000000000000000e+00
1.530000000000000000e+03,3.340497393583680363e+00,0.000000000000000000e+00
1.531000000000000000e+03,1.503741949329509664e+00,1.000000000000000000e+00
1.532000000000000000e+03,-8.444523456209287460e-01,0.000000000000000000e+00
1.533000000000000000e+03,2.240433499104234893e-01,0.000000000000000000e+00
1.534000000000000000e+03,-9.201916752136021782e-02,0.000000000000000000e+00
1.535000000000000000e+03,4.984714604353054912e-01,0.000000000000000000e+00
1.536000000000000000e+03,5.979454410688406218e-02,0.000000000000000000e+00
1.537000000000000000e+03,3.616103473837701254e-01,0.000000000000000000e+00
1.538000000000000000e+03,2.687100157391105193e-01,0.000000000000000000e+00
1.539000000000000000e+03,7.564933114600708164e-01,0.000000000000000000e+00
1.540000000000000000e+03,5.060697504590382367e-01,0.000000000000000000e+00
1.541000000000000000e+03,1.284733408987950964e+00,0.000000000000000000e+00
1.542000000000000000e+03,1.135296101809172509e+00,0.000000000000000000e+00
1.543000000000000000e+03,1.678671356680443427e+00,0.000000000000000000e+00
1.544000000000000000e+03,1.547306083619688799e+00,0.000000000000000000e+00
1.545000000000000000e+03,1.845972252505467592e+00,0.000000000000000000e+00
1.546000000000000000e+03,5.287897421025464784e-01,0.000000000000000000e+00
1.547000000000000000e+03,-7.958418530789144185e-01,0.000000000000000000e+00
1.548000000000000000e+03,-1.250121091499874382e+00,0.000000000000000000e+00
1.549000000000000000e+03,-1.205660387550270718e+00,0.000000000000000000e+00
1.550000000000000000e+03,-1.601417271659197450e+00,0.000000000000000000e+00
1.551000000000000000e+03,-1.403150830695965690e+00,0.000000000000000000e+00
1.552000000000000000e+03,-1.644143518469773912e+00,0.000000000000000000e+00
1.553000000000000000e+03,-6.287113773460010213e-01,0.000000000000000000e+00
1.554000000000000000e+03,-9.474209284642678419e-01,0.000000000000000000e+00
1.555000000000000000e+03,-1.018344900729246882e+00,0.000000000000000000e+00
1.556000000000000000e+03,-1.021871000666520146e+00,0.000000000000000000e+00
1.557000000000000000e+03,-1.983473539650750517e-01,0.000000000000000000e+00
1.558000000000000000e+03,-5.261559241113806795e-01,0.000000000000000000e+00
1.559000000000000000e+03,-5.403986701187871722e-01,0.000000000000000000e+00
1.560000000000000000e+03,-6.503564158076075019e-01,0.000000000000000000e+00
1.561000000000000000e+03,-1.445109030824507645e-01,0.000000000000000000e+00
1.562000000000000000e+03,-4.109103051857783129e-01,0.000000000000000000e+00
1.563000000000000000e+03,-1.349193448692905251e-01,0.000000000000000000e+00
1.564000000000000000e+03,-2.084338271379906557e-02,0.000000000000000000e+00
1.565000000000000000e+03,4.808092026193463431e-01,0.000000000000000000e+00
1.566000000000000000e+03,1.025854154792427975e-01,0.000000000000000000e+00
1.567000000000000000e+03,2.434519555335245000e-01,0.000000000000000000e+00
1.568000000000000000e+03,-3.416319524854116163e-01,0.000000000000000000e+00
1.569000000000000000e+03,9.393450932109312368e-02,0.000000000000000000e+00
1.570000000000000000e+03,-2.760899187479892158e-01,0.000000000000000000e+00
1.571000000000000000e+03,2.945001984680174489e-01,0.000000000000000000e+00
1.572000000000000000e+03,-1.338340543584018993e-01,0.000000000000000000e+00
1.573000000000000000e+03,2.761246488970092283e+00,0.000000000000000000e+00
1.574000000000000000e+03,2.065212310882567515e+00,1.000000000000000000e+00
1.575000000000000000e+03,-9.000482442663984006e-01,0.000000000000000000e+00
1.576000000000000000e+03,2.175409977683157303e-01,0.000000000000000000e+00
1.577000000000000000e+03,-1.603165582275168644e-01,0.000000000000000000e+00
1.578000000000000000e+03,1.239463274912737806e-01,0.000000000000000000e+00
1.579000000000000000e+03,1.183686954007878017e-01,0.000000000000000000e+00
1.580000000000000000e+03,3.718415347685534722e-01,0.000000000000000000e+00
1.581000000000000000e+03,-2.339936790286488155e-01,0.000000000000000000e+00
1.582000000000000000e+03,5.581339164922972662e-01,0.000000000000000000e+00
1.583000000000000000e+03,4.204487924981689662e-01,0.000000000000000000e+00
1.584000000000000000e+03,1.230710709986046592e+00,0.000000000000000000e+00
1.585000000000000000e+03,6.023829268496455613e-01,0.000000000000000000e+00
1.586000000000000000e+03,1.575432938032855112e+00,0.000000000000000000e+00
