timestamp,ecg_measurement,qrs_detected
0.000000000000000000e+00,1.616345409848236159e+00,0.000000000000000000e+00
1.000000000000000000e+00,1.839693801908514725e+00,0.000000000000000000e+00
2.000000000000000000e+00,1.427280445426857503e+00,0.000000000000000000e+00
3.000000000000000000e+00,2.188132448242621209e-01,0.000000000000000000e+00
4.000000000000000000e+00,-1.344246023382434263e+00,0.000000000000000000e+00
5.000000000000000000e+00,-1.459769756624786474e+00,0.000000000000000000e+00
6.000000000000000000e+00,-1.387133954618494203e+00,0.000000000000000000e+00
7.000000000000000000e+00,-1.286532393827779064e+00,0.000000000000000000e+00
8.000000000000000000e+00,-1.219667437925793463e+00,0.000000000000000000e+00
9.000000000000000000e+00,-1.173961073937468846e+00,0.000000000000000000e+00
1.000000000000000000e+01,-8.242034891686268461e-01,0.000000000000000000e+00
1.100000000000000000e+01,-1.003232871804629722e+00,0.000000000000000000e+00
1.200000000000000000e+01,-2.120055137768638021e-01,0.000000000000000000e+00
1.300000000000000000e+01,-1.003058679812198761e+00,0.000000000000000000e+00
1.400000000000000000e+01,-4.636183468107891725e-01,0.000000000000000000e+00
1.500000000000000000e+01,-2.656186861295519730e-01,0.000000000000000000e+00
1.600000000000000000e+01,-4.524317202448316921e-01,0.000000000000000000e+00
1.700000000000000000e+01,-2.343474462511945799e-01,0.000000000000000000e+00
1.800000000000000000e+01,-4.804322755449404458e-01,0.000000000000000000e+00
1.900000000000000000e+01,-1.412362423561533686e-01,0.000000000000000000e+00
2.000000000000000000e+01,-1.745770416142914186e-02,0.000000000000000000e+00
2.100000000000000000e+01,6.293824777125496539e-02,0.000000000000000000e+00
2.200000000000000000e+01,3.104853589603033814e-01,0.000000000000000000e+00
2.300000000000000000e+01,1.608743986506750989e-01,0.000000000000000000e+00
2.400000000000000000e+01,1.456086823349660164e-01,0.000000000000000000e+00
2.500000000000000000e+01,2.693926741985597784e-01,0.000000000000000000e+00
2.600000000000000000e+01,2.694125320732261922e-02,0.000000000000000000e+00
2.700000000000000000e+01,-2.028043821666860314e-01,0.000000000000000000e+00
2.800000000000000000e+01,1.581870143970773024e-01,0.000000000000000000e+00
2.900000000000000000e+01,1.916766217970327923e-01,0.000000000000000000e+00
3.000000000000000000e+01,6.130569266486899371e-01,0.000000000000000000e+00
3.100000000000000000e+01,3.744564386871491735e+00,0.000000000000000000e+00
3.200000000000000000e+01,-3.085951953234531975e-01,1.000000000000000000e+00
3.300000000000000000e+01,-4.830407132755639155e-01,0.000000000000000000e+00
3.400000000000000000e+01,3.681283920348470823e-02,0.000000000000000000e+00
3.500000000000000000e+01,4.251753232341299454e-02,0.000000000000000000e+00
3.600000000000000000e+01,-4.741841465203440187e-01,0.000000000000000000e+00
3.700000000000000000e+01,1.314949427208575994e-01,0.000000000000000000e+00
3.800000000000000000e+01,2.654278027765285541e-01,0.000000000000000000e+00
3.900000000000000000e+01,-1.346385244177181195e-01,0.000000000000000000e+00
4.000000000000000000e+01,4.019786671706933046e-01,0.000000000000000000e+00
4.100000000000000000e+01,4.241427633416107179e-01,0.000000000000000000e+00
4.200000000000000000e+01,7.932301403672435969e-01,0.000000000000000000e+00
4.300000000000000000e+01,9.785549031687984511e-01,0.000000000000000000e+00
4.400000000000000000e+01,1.228035564907411725e+00,0.000000000000000000e+00
4.500000000000000000e+01,1.710227312076759043e+00,0.000000000000000000e+00
4.600000000000000000e+01,1.851180772381955109e+00,0.000000000000000000e+00
4.700000000000000000e+01,3.756934355995191765e-01,0.000000000000000000e+00
4.800000000000000000e+01,-5.693953076903170984e-01,0.000000000000000000e+00
4.900000000000000000e+01,-1.632305986095517580e+00,0.000000000000000000e+00
5.000000000000000000e+01,-1.674528700134832127e+00,0.000000000000000000e+00
5.100000000000000000e+01,-1.664230214787743911e+00,0.000000000000000000e+00
5.200000000000000000e+01,-1.797252433518256476e+00,0.000000000000000000e+00
5.300000000000000000e+01,-1.100471442823005130e+00,0.000000000000000000e+00
5.400000000000000000e+01,-1.474468291284963373e+00,0.000000000000000000e+00
5.500000000000000000e+01,-1.116003984160483409e+00,0.000000000000000000e+00
5.600000000000000000e+01,-8.234550614174921401e-01,0.000000000000000000e+00
5.700000000000000000e+01,-7.769375338653269347e-01,0.000000000000000000e+00
5.800000000000000000e+01,-3.845716483475339897e-01,0.000000000000000000e+00
5.900000000000000000e+01,-5.493823470185119628e-01,0.000000000000000000e+00
6.000000000000000000e+01,-5.394019595476651219e-01,0.000000000000000000e+00
6.100000000000000000e+01,-4.355140090984762069e-01,0.000000000000000000e+00
6.200000000000000000e+01,-1.128672782320613160e-01,0.000000000000000000e+00
6.300000000000000000e+01,-2.780401497766219476e-01,0.000000000000000000e+00
6.400000000000000000e+01,-4.789752335972737307e-01,0.000000000000000000e+00
6.500000000000000000e+01,7.501722004245246767e-02,0.000000000000000000e+00
6.600000000000000000e+01,-2.546395358554463528e-01,0.000000000000000000e+00
6.700000000000000000e+01,4.598873056350155086e-01,0.000000000000000000e+00
6.800000000000000000e+01,4.775572316196601275e-01,0.000000000000000000e+00
6.900000000000000000e+01,4.019469307657553281e-01,0.000000000000000000e+00
7.000000000000000000e+01,5.141123117240324891e-01,0.000000000000000000e+00
7.100000000000000000e+01,8.167887744196031252e-02,0.000000000000000000e+00
7.200000000000000000e+01,5.991988852097230450e-02,0.000000000000000000e+00
7.300000000000000000e+01,2.361625795461928801e-01,0.000000000000000000e+00
7.400000000000000000e+01,5.128561267439935012e-02,0.000000000000000000e+00
7.500000000000000000e+01,2.506318893451424112e-01,0.000000000000000000e+00
7.600000000000000000e+01,8.548008906731346945e-01,0.000000000000000000e+00
7.700000000000000000e+01,4.404517636434388095e+00,0.000000000000000000e+00
7.800000000000000000e+01,-4.781940147225989257e-01,1.000000000000000000e+00
7.900000000000000000e+01,-8.567661444058653764e-02,0.000000000000000000e+00
8.000000000000000000e+01,-4.556617513455795028e-03,0.000000000000000000e+00
8.100000000000000000e+01,-3.025162918242284560e-01,0.000000000000000000e+00
8.200000000000000000e+01,3.006335384593751270e-01,0.000000000000000000e+00
8.300000000000000000e+01,2.299941617681022874e-03,0.000000000000000000e+00
8.400000000000000000e+01,1.010627180023288552e-01,0.000000000000000000e+00
8.500000000000000000e+01,6.006962262014013954e-01,0.000000000000000000e+00
8.600000000000000000e+01,5.483901456531925511e-01,0.000000000000000000e+00
8.700000000000000000e+01,9.249628113372371230e-01,0.000000000000000000e+00
8.800000000000000000e+01,9.886911623826296625e-01,0.000000000000000000e+00
8.900000000000000000e+01,1.270882074974700515e+00,0.000000000000000000e+00
9.000000000000000000e+01,1.429870569310392137e+00,0.000000000000000000e+00
9.100000000000000000e+01,2.313925860065753515e+00,0.000000000000000000e+00
9.200000000000000000e+01,1.425012594342077055e+00,0.000000000000000000e+00
9.300000000000000000e+01,1.033986360863539122e+00,0.000000000000000000e+00
9.400000000000000000e+01,-8.312963986516325177e-01,0.000000000000000000e+00
9.500000000000000000e+01,-1.123036950610818874e+00,0.000000000000000000e+00
9.600000000000000000e+01,-1.811077633127788467e+00,0.000000000000000000e+00
9.700000000000000000e+01,-1.549540544988079249e+00,0.000000000000000000e+00
9.800000000000000000e+01,-1.379785315609973084e+00,0.000000000000000000e+00
9.900000000000000000e+01,-1.275493553416805037e+00,0.000000000000000000e+00
1.000000000000000000e+02,-1.224922306562305385e+00,0.000000000000000000e+00
1.010000000000000000e+02,-1.144556575052741776e+00,0.000000000000000000e+00
1.020000000000000000e+02,-8.400080098692312980e-01,0.000000000000000000e+00
1.030000000000000000e+02,-3.835701793648936819e-01,0.000000000000000000e+00
1.040000000000000000e+02,-6.670286456583549572e-01,0.000000000000000000e+00
1.050000000000000000e+02,-7.216282581613462366e-01,0.000000000000000000e+00
1.060000000000000000e+02,-5.338354872684214492e-01,0.000000000000000000e+00
1.070000000000000000e+02,-2.014020878257485603e-01,0.000000000000000000e+00
1.080000000000000000e+02,-7.915115825290819362e-01,0.000000000000000000e+00
1.090000000000000000e+02,-2.374154062957262445e-01,0.000000000000000000e+00
1.100000000000000000e+02,-3.371394235126981553e-01,0.000000000000000000e+00
1.110000000000000000e+02,1.141538614399064677e-01,0.000000000000000000e+00
1.120000000000000000e+02,1.637180104987660256e-01,0.000000000000000000e+00
1.130000000000000000e+02,1.606610721315204424e-02,0.000000000000000000e+00
1.140000000000000000e+02,6.898147134274812409e-02,0.000000000000000000e+00
1.150000000000000000e+02,-1.074135074785135396e-02,0.000000000000000000e+00
1.160000000000000000e+02,-3.419139686514984233e-01,0.000000000000000000e+00
1.170000000000000000e+02,-5.432659819807583723e-01,0.000000000000000000e+00
1.180000000000000000e+02,2.363082181228525758e-01,0.000000000000000000e+00
1.190000000000000000e+02,-4.042697815848566023e-01,0.000000000000000000e+00
1.200000000000000000e+02,1.478236346532745271e+00,0.000000000000000000e+00
1.210000000000000000e+02,2.931193795822669923e+00,0.000000000000000000e+00
1.220000000000000000e+02,-1.012902537503402423e+00,1.000000000000000000e+00
1.230000000000000000e+02,-5.350514559115618352e-02,0.000000000000000000e+00
1.240000000000000000e+02,-4.733149845595034377e-01,0.000000000000000000e+00
1.250000000000000000e+02,9.012135768616159892e-02,0.000000000000000000e+00
1.260000000000000000e+02,6.416521981958374365e-02,0.000000000000000000e+00
1.270000000000000000e+02,5.265232342524516634e-02,0.000000000000000000e+00
1.280000000000000000e+02,-7.024236875736745989e-02,0.000000000000000000e+00
1.290000000000000000e+02,3.127874670830979587e-01,0.000000000000000000e+00
1.300000000000000000e+02,4.970518138516313300e-01,0.000000000000000000e+00
1.310000000000000000e+02,7.793386374381402470e-01,0.000000000000000000e+00
1.320000000000000000e+02,1.011990697338118528e+00,0.000000000000000000e+00
1.330000000000000000e+02,1.094775884482499517e+00,0.000000000000000000e+00
1.340000000000000000e+02,1.378548216612126787e+00,0.000000000000000000e+00
1.350000000000000000e+02,2.411206547936229683e+00,0.000000000000000000e+00
1.360000000000000000e+02,1.362547482953049727e+00,0.000000000000000000e+00
1.370000000000000000e+02,6.288657581157360843e-01,0.000000000000000000e+00
1.380000000000000000e+02,-8.280990654818708441e-01,0.000000000000000000e+00
1.390000000000000000e+02,-1.618466075761715528e+00,0.000000000000000000e+00
1.400000000000000000e+02,-1.545773612614716352e+00,0.000000000000000000e+00
1.410000000000000000e+02,-1.567319788853635876e+00,0.000000000000000000e+00
1.420000000000000000e+02,-1.829218576030627430e+00,0.000000000000000000e+00
1.430000000000000000e+02,-9.618105681721537126e-01,0.000000000000000000e+00
1.440000000000000000e+02,-1.242366517755121524e+00,0.000000000000000000e+00
1.450000000000000000e+02,-8.829819252317597789e-01,0.000000000000000000e+00
1.460000000000000000e+02,-8.111286855421815378e-01,0.000000000000000000e+00
1.470000000000000000e+02,-7.234466184368240071e-01,0.000000000000000000e+00
1.480000000000000000e+02,-4.881320492102201869e-01,0.000000000000000000e+00
1.490000000000000000e+02,-6.313622976831592126e-01,0.000000000000000000e+00
1.500000000000000000e+02,-5.217975998877812938e-01,0.000000000000000000e+00
1.510000000000000000e+02,-1.700642855778904672e-01,0.000000000000000000e+00
1.520000000000000000e+02,-1.766023699647150391e-01,0.000000000000000000e+00
1.530000000000000000e+02,-2.079775689496107249e-01,0.000000000000000000e+00
1.540000000000000000e+02,-7.824800371094969842e-02,0.000000000000000000e+00
1.550000000000000000e+02,-3.320993510680563254e-01,0.000000000000000000e+00
1.560000000000000000e+02,3.072974580585701720e-01,0.000000000000000000e+00
1.570000000000000000e+02,1.766443207009188165e-01,0.000000000000000000e+00
1.580000000000000000e+02,3.733769597729897360e-01,0.000000000000000000e+00
1.590000000000000000e+02,5.013992224576071521e-01,0.000000000000000000e+00
1.600000000000000000e+02,-9.352143300404124060e-02,0.000000000000000000e+00
1.610000000000000000e+02,1.488353475709997265e-01,0.000000000000000000e+00
1.620000000000000000e+02,-2.895986666563313619e-02,0.000000000000000000e+00
1.630000000000000000e+02,-2.746514560116004866e-02,0.000000000000000000e+00
1.640000000000000000e+02,1.396389507863967337e-02,0.000000000000000000e+00
1.650000000000000000e+02,1.236197312210688848e+00,0.000000000000000000e+00
1.660000000000000000e+02,4.001578554994773107e+00,0.000000000000000000e+00
1.670000000000000000e+02,-7.026042687657162444e-01,1.000000000000000000e+00
1.680000000000000000e+02,4.308737554440900119e-02,0.000000000000000000e+00
1.690000000000000000e+02,-7.049963292148757332e-02,0.000000000000000000e+00
1.700000000000000000e+02,1.591479045582633867e-01,0.000000000000000000e+00
1.710000000000000000e+02,1.019831588580721454e-01,0.000000000000000000e+00
1.720000000000000000e+02,5.239028431033844191e-01,0.000000000000000000e+00
1.730000000000000000e+02,4.851341092832132662e-01,0.000000000000000000e+00
1.740000000000000000e+02,1.350569546600264847e-01,0.000000000000000000e+00
1.750000000000000000e+02,3.513191117995131951e-01,0.000000000000000000e+00
1.760000000000000000e+02,8.564209799259679956e-01,0.000000000000000000e+00
1.770000000000000000e+02,1.278934807982293975e+00,0.000000000000000000e+00
1.780000000000000000e+02,1.296925451515223537e+00,0.000000000000000000e+00
1.790000000000000000e+02,1.638792339117518315e+00,0.000000000000000000e+00
1.800000000000000000e+02,1.961972155924299965e+00,0.000000000000000000e+00
1.810000000000000000e+02,1.908192541661664743e+00,0.000000000000000000e+00
1.820000000000000000e+02,7.461121725554009654e-01,0.000000000000000000e+00
1.830000000000000000e+02,-6.421977654354249498e-01,0.000000000000000000e+00
1.840000000000000000e+02,-1.324714546475818322e+00,0.000000000000000000e+00
1.850000000000000000e+02,-1.897689279716825217e+00,0.000000000000000000e+00
1.860000000000000000e+02,-1.252945769854107327e+00,0.000000000000000000e+00
1.870000000000000000e+02,-1.353655384040237442e+00,0.000000000000000000e+00
1.880000000000000000e+02,-1.256919254049788437e+00,0.000000000000000000e+00
1.890000000000000000e+02,-1.192034489425805477e+00,0.000000000000000000e+00
1.900000000000000000e+02,-6.451934538575978539e-01,0.000000000000000000e+00
1.910000000000000000e+02,-8.626165669965792926e-01,0.000000000000000000e+00
1.920000000000000000e+02,-8.169709474656043913e-01,0.000000000000000000e+00
1.930000000000000000e+02,-4.794382685619696383e-01,0.000000000000000000e+00
1.940000000000000000e+02,-3.972464116382600219e-01,0.000000000000000000e+00
1.950000000000000000e+02,-3.005997733271134620e-01,0.000000000000000000e+00
1.960000000000000000e+02,-5.807290070755803946e-01,0.000000000000000000e+00
1.970000000000000000e+02,-3.986129665568464153e-01,0.000000000000000000e+00
1.980000000000000000e+02,-3.545964560213524241e-01,0.000000000000000000e+00
1.990000000000000000e+02,8.105647765689852780e-04,0.000000000000000000e+00
2.000000000000000000e+02,-2.990667854601776754e-01,0.000000000000000000e+00
2.010000000000000000e+02,6.249466466793222874e-02,0.000000000000000000e+00
2.020000000000000000e+02,1.336482754485816826e-02,0.000000000000000000e+00
2.030000000000000000e+02,4.396244492414418947e-01,0.000000000000000000e+00
2.040000000000000000e+02,2.807512875595385982e-01,0.000000000000000000e+00
2.050000000000000000e+02,4.366069471451948791e-01,0.000000000000000000e+00
2.060000000000000000e+02,2.091062688077646725e-01,0.000000000000000000e+00
2.070000000000000000e+02,-2.284160263555037040e-01,0.000000000000000000e+00
2.080000000000000000e+02,-1.568194260672258200e-01,0.000000000000000000e+00
2.090000000000000000e+02,-1.058082228448551099e-01,0.000000000000000000e+00
2.100000000000000000e+02,1.450116888004397697e-01,0.000000000000000000e+00
2.110000000000000000e+02,7.129729615531913423e-01,0.000000000000000000e+00
2.120000000000000000e+02,3.782543000483930218e+00,0.000000000000000000e+00
2.130000000000000000e+02,1.515821022349280178e-01,1.000000000000000000e+00
2.140000000000000000e+02,-6.979697636447945719e-01,0.000000000000000000e+00
2.150000000000000000e+02,-1.745807823871846076e-01,0.000000000000000000e+00
2.160000000000000000e+02,-1.177486438537387117e-02,0.000000000000000000e+00
2.170000000000000000e+02,8.490709508923459381e-02,0.000000000000000000e+00
2.180000000000000000e+02,-2.535719689616570682e-01,0.000000000000000000e+00
2.190000000000000000e+02,-1.947436890657419650e-02,0.000000000000000000e+00
2.200000000000000000e+02,-1.510445424308938522e-01,0.000000000000000000e+00
2.210000000000000000e+02,6.937640068926086423e-01,0.000000000000000000e+00
2.220000000000000000e+02,4.814975212627098933e-01,0.000000000000000000e+00
2.230000000000000000e+02,5.380414318634345605e-01,0.000000000000000000e+00
2.240000000000000000e+02,8.909076480539273035e-01,0.000000000000000000e+00
2.250000000000000000e+02,1.589446490278576984e+00,0.000000000000000000e+00
2.260000000000000000e+02,1.874668238737387860e+00,0.000000000000000000e+00
2.270000000000000000e+02,1.706544389260369332e+00,0.000000000000000000e+00
2.280000000000000000e+02,3.901315036834808181e-01,0.000000000000000000e+00
2.290000000000000000e+02,-2.505666666783734065e-01,0.000000000000000000e+00
2.300000000000000000e+02,-1.256230220776888284e+00,0.000000000000000000e+00
2.310000000000000000e+02,-1.711350725529729333e+00,0.000000000000000000e+00
2.320000000000000000e+02,-1.738458312876113521e+00,0.000000000000000000e+00
2.330000000000000000e+02,-1.426051282449931179e+00,0.000000000000000000e+00
2.340000000000000000e+02,-1.751008314085617856e+00,0.000000000000000000e+00
2.350000000000000000e+02,-1.269339571129102895e+00,0.000000000000000000e+00
2.360000000000000000e+02,-8.356531636271067320e-01,0.000000000000000000e+00
2.370000000000000000e+02,-9.764449251569951027e-01,0.000000000000000000e+00
2.380000000000000000e+02,-8.341508210488194353e-01,0.000000000000000000e+00
2.390000000000000000e+02,-6.763112580239381000e-01,0.000000000000000000e+00
2.400000000000000000e+02,-4.392481606822760676e-01,0.000000000000000000e+00
2.410000000000000000e+02,-5.400355236618012977e-01,0.000000000000000000e+00
2.420000000000000000e+02,-4.023263254597237437e-01,0.000000000000000000e+00
2.430000000000000000e+02,-5.471860657635243541e-01,0.000000000000000000e+00
2.440000000000000000e+02,-2.614973403504267657e-01,0.000000000000000000e+00
2.450000000000000000e+02,-6.012567007040596767e-01,0.000000000000000000e+00
2.460000000000000000e+02,-4.092140633960376084e-01,0.000000000000000000e+00
2.470000000000000000e+02,1.400936143152188840e-01,0.000000000000000000e+00
2.480000000000000000e+02,-8.918734184058869918e-02,0.000000000000000000e+00
2.490000000000000000e+02,5.519088474895693375e-02,0.000000000000000000e+00
2.500000000000000000e+02,1.994991362032502713e-01,0.000000000000000000e+00
2.510000000000000000e+02,7.542258020581953382e-01,0.000000000000000000e+00
2.520000000000000000e+02,3.376008238621008850e-01,0.000000000000000000e+00
2.530000000000000000e+02,1.761574112193975417e-02,0.000000000000000000e+00
2.540000000000000000e+02,-1.393503475241044398e-01,0.000000000000000000e+00
2.550000000000000000e+02,2.463368210907516398e-01,0.000000000000000000e+00
2.560000000000000000e+02,8.345029129786629696e-02,0.000000000000000000e+00
2.570000000000000000e+02,8.595770147162963212e-03,0.000000000000000000e+00
2.580000000000000000e+02,4.921782777235866324e-01,0.000000000000000000e+00
2.590000000000000000e+02,3.870873219796787001e+00,0.000000000000000000e+00
2.600000000000000000e+02,1.888962295015261458e-02,1.000000000000000000e+00
2.610000000000000000e+02,-3.729426454789560585e-01,0.000000000000000000e+00
2.620000000000000000e+02,1.603683151360366099e-01,0.000000000000000000e+00
2.630000000000000000e+02,-2.927202325906201885e-01,0.000000000000000000e+00
2.640000000000000000e+02,-2.014143731204208650e-03,0.000000000000000000e+00
2.650000000000000000e+02,9.734979693629959574e-02,0.000000000000000000e+00
2.660000000000000000e+02,7.402828206774922370e-02,0.000000000000000000e+00
2.670000000000000000e+02,4.662591278941466966e-01,0.000000000000000000e+00
2.680000000000000000e+02,1.539611779449076012e-01,0.000000000000000000e+00
2.690000000000000000e+02,7.051585790531080811e-01,0.000000000000000000e+00
2.700000000000000000e+02,1.003360179473996361e+00,0.000000000000000000e+00
2.710000000000000000e+02,1.338036549908473205e+00,0.000000000000000000e+00
2.720000000000000000e+02,1.586728586207277525e+00,0.000000000000000000e+00
2.730000000000000000e+02,2.066070052505567745e+00,0.000000000000000000e+00
2.740000000000000000e+02,1.833948521077816807e+00,0.000000000000000000e+00
2.750000000000000000e+02,9.246013547393792109e-01,0.000000000000000000e+00
2.760000000000000000e+02,-4.314934418314065462e-02,0.000000000000000000e+00
2.770000000000000000e+02,-1.074160840988326537e+00,0.000000000000000000e+00
2.780000000000000000e+02,-1.484667515986848541e+00,0.000000000000000000e+00
2.790000000000000000e+02,-1.595137527274778755e+00,0.000000000000000000e+00
2.800000000000000000e+02,-1.093446492653945556e+00,0.000000000000000000e+00
2.810000000000000000e+02,-1.291977728074471310e+00,0.000000000000000000e+00
2.820000000000000000e+02,-1.031487504660858701e+00,0.000000000000000000e+00
2.830000000000000000e+02,-8.122285841581440291e-01,0.000000000000000000e+00
2.840000000000000000e+02,-1.317392954680927541e+00,0.000000000000000000e+00
2.850000000000000000e+02,-3.851071600621222002e-01,0.000000000000000000e+00
2.860000000000000000e+02,-6.510982013055502948e-01,0.000000000000000000e+00
2.870000000000000000e+02,-1.128902181820245626e-01,0.000000000000000000e+00
2.880000000000000000e+02,-8.872284636806089253e-01,0.000000000000000000e+00
2.890000000000000000e+02,-3.912292259430930619e-01,0.000000000000000000e+00
2.900000000000000000e+02,-1.257765566594530871e-01,0.000000000000000000e+00
2.910000000000000000e+02,-3.715197383102636919e-01,0.000000000000000000e+00
2.920000000000000000e+02,-5.602327569249347938e-01,0.000000000000000000e+00
2.930000000000000000e+02,-2.515943059250879896e-02,0.000000000000000000e+00
2.940000000000000000e+02,5.733570879477492555e-02,0.000000000000000000e+00
2.950000000000000000e+02,4.122614643092319953e-01,0.000000000000000000e+00
2.960000000000000000e+02,1.561141333567166167e-01,0.000000000000000000e+00
2.970000000000000000e+02,1.918089353759833415e-01,0.000000000000000000e+00
2.980000000000000000e+02,5.645836425182269858e-02,0.000000000000000000e+00
2.990000000000000000e+02,-5.220779703765850988e-01,0.000000000000000000e+00
3.000000000000000000e+02,2.884123502282613313e-02,0.000000000000000000e+00
3.010000000000000000e+02,3.520685682170255487e-02,0.000000000000000000e+00
3.020000000000000000e+02,1.486153528696492095e-02,0.000000000000000000e+00
3.030000000000000000e+02,2.654307418884741754e+00,0.000000000000000000e+00
3.040000000000000000e+02,2.027484333129490501e+00,1.000000000000000000e+00
3.050000000000000000e+02,-1.371766499180626653e+00,0.000000000000000000e+00
3.060000000000000000e+02,1.820170721706818595e-01,0.000000000000000000e+00
3.070000000000000000e+02,-8.763276902022552883e-02,0.000000000000000000e+00
3.080000000000000000e+02,8.760538487722863144e-02,0.000000000000000000e+00
3.090000000000000000e+02,-6.223239147363159723e-02,0.000000000000000000e+00
3.100000000000000000e+02,2.291909884661872954e-01,0.000000000000000000e+00
3.110000000000000000e+02,6.036036921226197588e-03,0.000000000000000000e+00
3.120000000000000000e+02,9.624969748593035224e-01,0.000000000000000000e+00
3.130000000000000000e+02,2.178857240677149754e-01,0.000000000000000000e+00
3.140000000000000000e+02,9.615865036274168220e-01,0.000000000000000000e+00
3.150000000000000000e+02,8.266044612778092882e-01,0.000000000000000000e+00
3.160000000000000000e+02,1.607750751307446269e+00,0.000000000000000000e+00
3.170000000000000000e+02,1.337173883672286179e+00,0.000000000000000000e+00
3.180000000000000000e+02,2.351651104874271425e+00,0.000000000000000000e+00
3.190000000000000000e+02,1.096908557726551159e+00,0.000000000000000000e+00
3.200000000000000000e+02,2.166226628496820406e-01,0.000000000000000000e+00
3.210000000000000000e+02,-1.423106067660753649e+00,0.000000000000000000e+00
3.220000000000000000e+02,-1.345018168070680975e+00,0.000000000000000000e+00
3.230000000000000000e+02,-1.999775350217959602e+00,0.000000000000000000e+00
3.240000000000000000e+02,-1.376289549515544941e+00,0.000000000000000000e+00
3.250000000000000000e+02,-1.724783348411088824e+00,0.000000000000000000e+00
3.260000000000000000e+02,-1.435635639400321795e+00,0.000000000000000000e+00
3.270000000000000000e+02,-7.029240910290472932e-01,0.000000000000000000e+00
3.280000000000000000e+02,-1.234576961381400828e+00,0.000000000000000000e+00
3.290000000000000000e+02,-6.286494697066221660e-01,0.000000000000000000e+00
3.300000000000000000e+02,-8.938952305613642180e-01,0.000000000000000000e+00
3.310000000000000000e+02,-5.343663274812741060e-01,0.000000000000000000e+00
3.320000000000000000e+02,-3.449091667543379147e-01,0.000000000000000000e+00
3.330000000000000000e+02,-5.262335160408754264e-01,0.000000000000000000e+00
3.340000000000000000e+02,-6.976323676391730233e-01,0.000000000000000000e+00
3.350000000000000000e+02,-1.703682478203501216e-01,0.000000000000000000e+00
3.360000000000000000e+02,-1.574672258865113805e-01,0.000000000000000000e+00
3.370000000000000000e+02,-2.926730696183038605e-01,0.000000000000000000e+00
3.380000000000000000e+02,8.577982869735143456e-01,0.000000000000000000e+00
3.390000000000000000e+02,3.591317667911522737e-01,0.000000000000000000e+00
3.400000000000000000e+02,5.457684468225716401e-01,0.000000000000000000e+00
3.410000000000000000e+02,-2.940933001299184113e-01,0.000000000000000000e+00
3.420000000000000000e+02,-2.714014058086024472e-01,0.000000000000000000e+00
3.430000000000000000e+02,-5.110965412543224673e-01,0.000000000000000000e+00
3.440000000000000000e+02,4.293853075905214034e-01,0.000000000000000000e+00
3.450000000000000000e+02,-4.262131807003099321e-02,0.000000000000000000e+00
3.460000000000000000e+02,8.552881030350115710e-01,0.000000000000000000e+00
3.470000000000000000e+02,3.581444663398546169e+00,0.000000000000000000e+00
3.480000000000000000e+02,-4.815615818860462527e-01,1.000000000000000000e+00
3.490000000000000000e+02,-2.968304738062114700e-01,0.000000000000000000e+00
3.500000000000000000e+02,-3.005536966384018266e-02,0.000000000000000000e+00
3.510000000000000000e+02,-5.313807079155827839e-01,0.000000000000000000e+00
3.520000000000000000e+02,2.746432895770596905e-01,0.000000000000000000e+00
3.530000000000000000e+02,3.296658657618620758e-01,0.000000000000000000e+00
3.540000000000000000e+02,5.768111476155080020e-01,0.000000000000000000e+00
3.550000000000000000e+02,-2.093896516125169985e-02,0.000000000000000000e+00
3.560000000000000000e+02,7.927723187243788106e-01,0.000000000000000000e+00
3.570000000000000000e+02,7.131759445993037794e-01,0.000000000000000000e+00
3.580000000000000000e+02,8.991563285504848846e-01,0.000000000000000000e+00
3.590000000000000000e+02,1.457216421318038524e+00,0.000000000000000000e+00
3.600000000000000000e+02,1.550617092544630982e+00,0.000000000000000000e+00
3.610000000000000000e+02,2.097819114990185252e+00,0.000000000000000000e+00
3.620000000000000000e+02,1.508797693188010491e+00,0.000000000000000000e+00
3.630000000000000000e+02,3.202801376601002170e-01,0.000000000000000000e+00
3.640000000000000000e+02,-6.470594869174866037e-01,0.000000000000000000e+00
3.650000000000000000e+02,-1.097524540665487214e+00,0.000000000000000000e+00
3.660000000000000000e+02,-1.677786278083595706e+00,0.000000000000000000e+00
3.670000000000000000e+02,-1.763912780155307169e+00,0.000000000000000000e+00
3.680000000000000000e+02,-1.295203521832279492e+00,0.000000000000000000e+00
3.690000000000000000e+02,-1.084563325375073495e+00,0.000000000000000000e+00
3.700000000000000000e+02,-8.951997581891785183e-01,0.000000000000000000e+00
3.710000000000000000e+02,-8.046945315650283481e-01,0.000000000000000000e+00
3.720000000000000000e+02,-9.099654035675973640e-01,0.000000000000000000e+00
3.730000000000000000e+02,-8.281819401454090235e-01,0.000000000000000000e+00
3.740000000000000000e+02,-4.033355727538452951e-01,0.000000000000000000e+00
3.750000000000000000e+02,-3.459113225920296686e-01,0.000000000000000000e+00
3.760000000000000000e+02,-3.884156336990115532e-01,0.000000000000000000e+00
3.770000000000000000e+02,-5.403122280064229788e-01,0.000000000000000000e+00
3.780000000000000000e+02,-3.549261243022206469e-01,0.000000000000000000e+00
3.790000000000000000e+02,-1.362429715066341626e-02,0.000000000000000000e+00
3.800000000000000000e+02,-3.924149454524817338e-01,0.000000000000000000e+00
3.810000000000000000e+02,2.304426114788068469e-01,0.000000000000000000e+00
3.820000000000000000e+02,1.935081325124611007e-01,0.000000000000000000e+00
3.830000000000000000e+02,6.840974443838163110e-02,0.000000000000000000e+00
3.840000000000000000e+02,5.648553978861662328e-01,0.000000000000000000e+00
3.850000000000000000e+02,3.225684555537959297e-01,0.000000000000000000e+00
3.860000000000000000e+02,-5.131001287146994549e-01,0.000000000000000000e+00
3.870000000000000000e+02,-8.799000167938966777e-02,0.000000000000000000e+00
3.880000000000000000e+02,2.628483445364658833e-01,0.000000000000000000e+00
3.890000000000000000e+02,-1.165849270759724277e-01,0.000000000000000000e+00
3.900000000000000000e+02,1.523223751598914877e+00,0.000000000000000000e+00
3.910000000000000000e+02,3.948408527723394457e+00,0.000000000000000000e+00
3.920000000000000000e+02,-9.303606423348524945e-01,1.000000000000000000e+00
3.930000000000000000e+02,-3.859498856007432810e-01,0.000000000000000000e+00
3.940000000000000000e+02,-6.111317712359859433e-02,0.000000000000000000e+00
3.950000000000000000e+02,1.925491166067454796e-01,0.000000000000000000e+00
3.960000000000000000e+02,2.845049767567005006e-01,0.000000000000000000e+00
3.970000000000000000e+02,-2.094700054755357921e-02,0.000000000000000000e+00
3.980000000000000000e+02,2.161106441806549469e-02,0.000000000000000000e+00
3.990000000000000000e+02,6.038227477282185340e-01,0.000000000000000000e+00
4.000000000000000000e+02,3.276673411836633631e-01,0.000000000000000000e+00
4.010000000000000000e+02,6.091298406647750463e-01,0.000000000000000000e+00
4.020000000000000000e+02,7.971688150842165532e-01,0.000000000000000000e+00
4.030000000000000000e+02,1.097520119289536300e+00,0.000000000000000000e+00
4.040000000000000000e+02,1.641084950008459442e+00,0.000000000000000000e+00
4.050000000000000000e+02,2.304130478022039075e+00,0.000000000000000000e+00
4.060000000000000000e+02,1.224131438910391889e+00,0.000000000000000000e+00
4.070000000000000000e+02,4.129527461364493890e-01,0.000000000000000000e+00
4.080000000000000000e+02,-6.765565423466718409e-01,0.000000000000000000e+00
4.090000000000000000e+02,-1.516972389792215603e+00,0.000000000000000000e+00
4.100000000000000000e+02,-1.420183663253173245e+00,0.000000000000000000e+00
4.110000000000000000e+02,-1.331408954229686747e+00,0.000000000000000000e+00
4.120000000000000000e+02,-1.568838691401720276e+00,0.000000000000000000e+00
4.130000000000000000e+02,-1.364236925517422261e+00,0.000000000000000000e+00
4.140000000000000000e+02,-1.049086250143921317e+00,0.000000000000000000e+00
4.150000000000000000e+02,-1.147800640342009793e+00,0.000000000000000000e+00
4.160000000000000000e+02,-7.594785233856624629e-01,0.000000000000000000e+00
4.170000000000000000e+02,-5.077176293439376042e-01,0.000000000000000000e+00
4.180000000000000000e+02,-7.563797378564419693e-01,0.000000000000000000e+00
4.190000000000000000e+02,-4.479624113945663288e-01,0.000000000000000000e+00
4.200000000000000000e+02,-5.163785019299326207e-01,0.000000000000000000e+00
4.210000000000000000e+02,-7.551813432754944655e-01,0.000000000000000000e+00
4.220000000000000000e+02,-4.132485069574884928e-01,0.000000000000000000e+00
4.230000000000000000e+02,-1.766414402531305827e-01,0.000000000000000000e+00
4.240000000000000000e+02,-2.446676458556944767e-01,0.000000000000000000e+00
4.250000000000000000e+02,4.725880704224925261e-02,0.000000000000000000e+00
4.260000000000000000e+02,-5.240277710180519383e-02,0.000000000000000000e+00
4.270000000000000000e+02,5.235759242204004460e-01,0.000000000000000000e+00
4.280000000000000000e+02,3.120575457253323415e-01,0.000000000000000000e+00
4.290000000000000000e+02,8.900664049376240394e-02,0.000000000000000000e+00
4.300000000000000000e+02,-3.662397717124442065e-01,0.000000000000000000e+00
4.310000000000000000e+02,-1.520049827915878893e-01,0.000000000000000000e+00
4.320000000000000000e+02,-1.668901453188145201e-01,0.000000000000000000e+00
4.330000000000000000e+02,-1.123745937723745758e-01,0.000000000000000000e+00
4.340000000000000000e+02,3.616992527118831902e-01,0.000000000000000000e+00
4.350000000000000000e+02,3.682377392137279326e+00,0.000000000000000000e+00
4.360000000000000000e+02,6.251725760012046829e-01,1.000000000000000000e+00
4.370000000000000000e+02,-7.197150381329256996e-01,0.000000000000000000e+00
4.380000000000000000e+02,-8.286549241659377230e-02,0.000000000000000000e+00
4.390000000000000000e+02,-4.256445297581216702e-01,0.000000000000000000e+00
4.400000000000000000e+02,2.440247128942821253e-01,0.000000000000000000e+00
4.410000000000000000e+02,-8.507540950936828827e-02,0.000000000000000000e+00
4.420000000000000000e+02,2.124000250033946657e-01,0.000000000000000000e+00
4.430000000000000000e+02,1.736798495292148914e-01,0.000000000000000000e+00
4.440000000000000000e+02,6.561083738449406955e-01,0.000000000000000000e+00
4.450000000000000000e+02,5.196820803485724394e-01,0.000000000000000000e+00
4.460000000000000000e+02,7.709445753440687943e-01,0.000000000000000000e+00
4.470000000000000000e+02,1.536485810116410500e+00,0.000000000000000000e+00
4.480000000000000000e+02,1.537985343128148941e+00,0.000000000000000000e+00
4.490000000000000000e+02,1.833833785991243914e+00,0.000000000000000000e+00
4.500000000000000000e+02,1.835901458759048088e+00,0.000000000000000000e+00
4.510000000000000000e+02,8.091480456597376358e-01,0.000000000000000000e+00
4.520000000000000000e+02,-3.093080107823900637e-01,0.000000000000000000e+00
4.530000000000000000e+02,-1.047229474282814321e+00,0.000000000000000000e+00
4.540000000000000000e+02,-2.042543959519502739e+00,0.000000000000000000e+00
4.550000000000000000e+02,-1.181000881248129186e+00,0.000000000000000000e+00
4.560000000000000000e+02,-1.397323055368887124e+00,0.000000000000000000e+00
4.570000000000000000e+02,-1.388890172794267963e+00,0.000000000000000000e+00
4.580000000000000000e+02,-9.768146089788229958e-01,0.000000000000000000e+00
4.590000000000000000e+02,-8.240455365000609600e-01,0.000000000000000000e+00
4.600000000000000000e+02,-7.341968194182313390e-01,0.000000000000000000e+00
4.610000000000000000e+02,-5.889977134965184158e-01,0.000000000000000000e+00
4.620000000000000000e+02,-3.767657443188208721e-01,0.000000000000000000e+00
4.630000000000000000e+02,-3.223427595534567591e-01,0.000000000000000000e+00
4.640000000000000000e+02,-3.430419443037570071e-01,0.000000000000000000e+00
4.650000000000000000e+02,-1.678772276689630971e-01,0.000000000000000000e+00
4.660000000000000000e+02,-2.632754953177525725e-01,0.000000000000000000e+00
4.670000000000000000e+02,1.055654300300882253e-01,0.000000000000000000e+00
4.680000000000000000e+02,-2.700271970248939724e-01,0.000000000000000000e+00
4.690000000000000000e+02,-9.931609365331678374e-02,0.000000000000000000e+00
4.700000000000000000e+02,4.390589323901263330e-01,0.000000000000000000e+00
4.710000000000000000e+02,5.699641351691907554e-01,0.000000000000000000e+00
4.720000000000000000e+02,2.107422954007625027e-01,0.000000000000000000e+00
4.730000000000000000e+02,4.490034059466608274e-01,0.000000000000000000e+00
4.740000000000000000e+02,-3.902821526714758682e-01,0.000000000000000000e+00
4.750000000000000000e+02,8.137543757489623664e-02,0.000000000000000000e+00
4.760000000000000000e+02,-1.171021201739954748e-01,0.000000000000000000e+00
4.770000000000000000e+02,1.154990997976927114e-01,0.000000000000000000e+00
4.780000000000000000e+02,-3.199011195281462050e-01,0.000000000000000000e+00
4.790000000000000000e+02,2.268594605134828246e+00,0.000000000000000000e+00
4.800000000000000000e+02,2.725171154082917102e+00,0.000000000000000000e+00
4.810000000000000000e+02,-1.227678330757008052e+00,1.000000000000000000e+00
4.820000000000000000e+02,2.010284669663641235e-02,0.000000000000000000e+00
4.830000000000000000e+02,-4.236323233456404935e-01,0.000000000000000000e+00
4.840000000000000000e+02,-2.732743685709489445e-01,0.000000000000000000e+00
4.850000000000000000e+02,-2.156021393303231282e-02,0.000000000000000000e+00
4.860000000000000000e+02,7.084302797092265069e-02,0.000000000000000000e+00
4.870000000000000000e+02,7.720641170869958769e-02,0.000000000000000000e+00
4.880000000000000000e+02,2.173418523619320697e-01,0.000000000000000000e+00
4.890000000000000000e+02,5.227320416130160075e-01,0.000000000000000000e+00
4.900000000000000000e+02,5.442794686237710788e-01,0.000000000000000000e+00
4.910000000000000000e+02,7.753961782709013484e-01,0.000000000000000000e+00
4.920000000000000000e+02,1.334964985160459694e+00,0.000000000000000000e+00
4.930000000000000000e+02,1.440187525626840825e+00,0.000000000000000000e+00
4.940000000000000000e+02,1.911010389246255992e+00,0.000000000000000000e+00
4.950000000000000000e+02,1.036563263930836865e+00,0.000000000000000000e+00
4.960000000000000000e+02,4.489629363258990091e-01,0.000000000000000000e+00
4.970000000000000000e+02,-9.887430650376347607e-01,0.000000000000000000e+00
4.980000000000000000e+02,-1.685560947459461278e+00,0.000000000000000000e+00
4.990000000000000000e+02,-2.152033216099573210e+00,0.000000000000000000e+00
5.000000000000000000e+02,-1.296925325302802801e+00,0.000000000000000000e+00
5.010000000000000000e+02,-1.471998697752138430e+00,0.000000000000000000e+00
5.020000000000000000e+02,-1.145263369524173180e+00,0.000000000000000000e+00
5.030000000000000000e+02,-1.193678532059785358e+00,0.000000000000000000e+00
5.040000000000000000e+02,-1.150607412139942110e+00,0.000000000000000000e+00
5.050000000000000000e+02,-8.468095314100695381e-01,0.000000000000000000e+00
5.060000000000000000e+02,-4.406880734015775625e-01,0.000000000000000000e+00
5.070000000000000000e+02,-5.592765645374401240e-01,0.000000000000000000e+00
5.080000000000000000e+02,-6.116215811975443950e-01,0.000000000000000000e+00
5.090000000000000000e+02,-2.563002053367949840e-01,0.000000000000000000e+00
5.100000000000000000e+02,-6.422598042853835398e-01,0.000000000000000000e+00
5.110000000000000000e+02,-3.296457700790380030e-01,0.000000000000000000e+00
5.120000000000000000e+02,2.227581958371862292e-01,0.000000000000000000e+00
5.130000000000000000e+02,-2.878373557653849391e-01,0.000000000000000000e+00
5.140000000000000000e+02,4.667233412087813393e-01,0.000000000000000000e+00
5.150000000000000000e+02,3.575048690068870494e-01,0.000000000000000000e+00
5.160000000000000000e+02,-4.861093158821944149e-02,0.000000000000000000e+00
5.170000000000000000e+02,-4.859146195026762816e-01,0.000000000000000000e+00
5.180000000000000000e+02,5.198854599601362633e-03,0.000000000000000000e+00
5.190000000000000000e+02,-1.196980959622541835e-01,0.000000000000000000e+00
5.200000000000000000e+02,3.328917509711897260e-01,0.000000000000000000e+00
5.210000000000000000e+02,-2.041853684090109283e-02,0.000000000000000000e+00
5.220000000000000000e+02,2.892002428964171479e+00,0.000000000000000000e+00
5.230000000000000000e+02,1.579989869987281637e+00,1.000000000000000000e+00
5.240000000000000000e+02,-6.091743458215719276e-01,0.000000000000000000e+00
5.250000000000000000e+02,3.041886085186388811e-01,0.000000000000000000e+00
5.260000000000000000e+02,4.939478548806365554e-02,0.000000000000000000e+00
5.270000000000000000e+02,2.837419754813325645e-01,0.000000000000000000e+00
5.280000000000000000e+02,2.136408477501733627e-01,0.000000000000000000e+00
5.290000000000000000e+02,2.232243473344512896e-01,0.000000000000000000e+00
5.300000000000000000e+02,4.994518266299509124e-01,0.000000000000000000e+00
5.310000000000000000e+02,4.309488984700917125e-01,0.000000000000000000e+00
5.320000000000000000e+02,7.510083462678257549e-01,0.000000000000000000e+00
5.330000000000000000e+02,9.791655549826628890e-01,0.000000000000000000e+00
5.340000000000000000e+02,9.688436472848693803e-01,0.000000000000000000e+00
5.350000000000000000e+02,1.410301545238644261e+00,0.000000000000000000e+00
5.360000000000000000e+02,1.719090941524886063e+00,0.000000000000000000e+00
5.370000000000000000e+02,1.819074369457558182e+00,0.000000000000000000e+00
5.380000000000000000e+02,1.427399077396833249e+00,0.000000000000000000e+00
5.390000000000000000e+02,-1.029953471240648427e-01,0.000000000000000000e+00
5.400000000000000000e+02,-1.541267185329984191e+00,0.000000000000000000e+00
5.410000000000000000e+02,-1.596933724089884210e+00,0.000000000000000000e+00
5.420000000000000000e+02,-1.241773729803678616e+00,0.000000000000000000e+00
5.430000000000000000e+02,-1.501947989790486160e+00,0.000000000000000000e+00
5.440000000000000000e+02,-1.252244907637655391e+00,0.000000000000000000e+00
5.450000000000000000e+02,-1.641526186462260561e+00,0.000000000000000000e+00
5.460000000000000000e+02,-1.241853705640103112e+00,0.000000000000000000e+00
5.470000000000000000e+02,-7.589082341283757138e-01,0.000000000000000000e+00
5.480000000000000000e+02,-5.360399666930190099e-01,0.000000000000000000e+00
5.490000000000000000e+02,-5.324519582327619238e-01,0.000000000000000000e+00
5.500000000000000000e+02,-9.445889384233286945e-01,0.000000000000000000e+00
5.510000000000000000e+02,-7.540572244837251414e-01,0.000000000000000000e+00
5.520000000000000000e+02,-3.384290738095557249e-01,0.000000000000000000e+00
5.530000000000000000e+02,-2.204439028681758062e-01,0.000000000000000000e+00
5.540000000000000000e+02,-2.404272997725311056e-01,0.000000000000000000e+00
5.550000000000000000e+02,-1.593229016632576323e-01,0.000000000000000000e+00
5.560000000000000000e+02,-2.185419318602885019e-01,0.000000000000000000e+00
5.570000000000000000e+02,3.961674927251122025e-01,0.000000000000000000e+00
5.580000000000000000e+02,2.663669428667422290e-01,0.000000000000000000e+00
5.590000000000000000e+02,7.364703029088645603e-02,0.000000000000000000e+00
5.600000000000000000e+02,-2.712195398549671621e-01,0.000000000000000000e+00
5.610000000000000000e+02,-4.925218479675504135e-02,0.000000000000000000e+00
5.620000000000000000e+02,-1.421243696523250832e-01,0.000000000000000000e+00
5.630000000000000000e+02,3.785811097294707883e-01,0.000000000000000000e+00
5.640000000000000000e+02,2.637466639710469088e-02,0.000000000000000000e+00
5.650000000000000000e+02,2.944746997638092889e+00,0.000000000000000000e+00
5.660000000000000000e+02,1.549912757301068478e+00,1.000000000000000000e+00
5.670000000000000000e+02,-6.752600315837375966e-01,0.000000000000000000e+00
5.680000000000000000e+02,4.403694866066537039e-01,0.000000000000000000e+00
5.690000000000000000e+02,-3.965567820639838703e-01,0.000000000000000000e+00
5.700000000000000000e+02,1.815277668258889476e-01,0.000000000000000000e+00
5.710000000000000000e+02,-1.247435787438392826e-02,0.000000000000000000e+00
5.720000000000000000e+02,3.759026422742033913e-01,0.000000000000000000e+00
5.730000000000000000e+02,2.642592441371933304e-02,0.000000000000000000e+00
5.740000000000000000e+02,4.738646721963568065e-01,0.000000000000000000e+00
5.750000000000000000e+02,5.141268430905665543e-01,0.000000000000000000e+00
5.760000000000000000e+02,7.673875782532295631e-01,0.000000000000000000e+00
5.770000000000000000e+02,8.456143484240802310e-01,0.000000000000000000e+00
5.780000000000000000e+02,1.546566135913382434e+00,0.000000000000000000e+00
5.790000000000000000e+02,2.113421545145437452e+00,0.000000000000000000e+00
5.800000000000000000e+02,1.812856249991892321e+00,0.000000000000000000e+00
5.810000000000000000e+02,9.777821634615990742e-01,0.000000000000000000e+00
5.820000000000000000e+02,-6.185067557736446675e-01,0.000000000000000000e+00
5.830000000000000000e+02,-7.849668389141924996e-01,0.000000000000000000e+00
5.840000000000000000e+02,-1.282807018389619191e+00,0.000000000000000000e+00
5.850000000000000000e+02,-1.309517802987302026e+00,0.000000000000000000e+00
5.860000000000000000e+02,-1.403943345774514517e+00,0.000000000000000000e+00
5.870000000000000000e+02,-1.456917248057964631e+00,0.000000000000000000e+00
5.880000000000000000e+02,-1.177083792610421176e+00,0.000000000000000000e+00
5.890000000000000000e+02,-7.405808626293992614e-01,0.000000000000000000e+00
5.900000000000000000e+02,-1.096815327335865620e+00,0.000000000000000000e+00
5.910000000000000000e+02,-5.939783575119906844e-01,0.000000000000000000e+00
5.920000000000000000e+02,-3.798847496145942859e-01,0.000000000000000000e+00
5.930000000000000000e+02,-6.332619710055392703e-01,0.000000000000000000e+00
5.940000000000000000e+02,-4.467535536800553153e-01,0.000000000000000000e+00
5.950000000000000000e+02,-5.204141231265232426e-01,0.000000000000000000e+00
5.960000000000000000e+02,-5.660599203970071436e-01,0.000000000000000000e+00
5.970000000000000000e+02,-5.865783592981350068e-03,0.000000000000000000e+00
5.980000000000000000e+02,-2.055743680294639109e-01,0.000000000000000000e+00
5.990000000000000000e+02,6.587687106822760763e-02,0.000000000000000000e+00
6.000000000000000000e+02,-1.458157440189429555e-01,0.000000000000000000e+00
6.010000000000000000e+02,3.368156428067192731e-01,0.000000000000000000e+00
6.020000000000000000e+02,5.983221011805689438e-01,0.000000000000000000e+00
6.030000000000000000e+02,1.905591844311510519e-01,0.000000000000000000e+00
6.040000000000000000e+02,2.982324247918494153e-01,0.000000000000000000e+00
6.050000000000000000e+02,-1.481756778453512668e-01,0.000000000000000000e+00
6.060000000000000000e+02,-1.497426145812174036e-01,0.000000000000000000e+00
6.070000000000000000e+02,4.956944562493655893e-01,0.000000000000000000e+00
6.080000000000000000e+02,-1.887997369276381288e-01,0.000000000000000000e+00
6.090000000000000000e+02,1.369126700253986639e+00,0.000000000000000000e+00
6.100000000000000000e+02,3.482126290106505984e+00,0.000000000000000000e+00
6.110000000000000000e+02,-1.158416684721655043e+00,1.000000000000000000e+00
6.120000000000000000e+02,1.482297293236776448e-01,0.000000000000000000e+00
6.130000000000000000e+02,-1.659454328741865881e-01,0.000000000000000000e+00
6.140000000000000000e+02,9.233922002027793174e-02,0.000000000000000000e+00
6.150000000000000000e+02,-2.968487851249258513e-01,0.000000000000000000e+00
6.160000000000000000e+02,3.177809954064686471e-01,0.000000000000000000e+00
6.170000000000000000e+02,-3.242305040379094283e-01,0.000000000000000000e+00
6.180000000000000000e+02,6.352495302498153418e-01,0.000000000000000000e+00
6.190000000000000000e+02,2.813031821818188782e-01,0.000000000000000000e+00
6.200000000000000000e+02,6.511579709233304980e-01,0.000000000000000000e+00
6.210000000000000000e+02,9.818525717922715890e-01,0.000000000000000000e+00
6.220000000000000000e+02,1.181198348932012587e+00,0.000000000000000000e+00
6.230000000000000000e+02,1.625359886866176051e+00,0.000000000000000000e+00
6.240000000000000000e+02,2.192479169987861187e+00,0.000000000000000000e+00
6.250000000000000000e+02,1.726818169603520969e+00,0.000000000000000000e+00
6.260000000000000000e+02,3.270636092867634237e-01,0.000000000000000000e+00
6.270000000000000000e+02,-8.623909610742127585e-01,0.000000000000000000e+00
6.280000000000000000e+02,-1.339341941309273754e+00,0.000000000000000000e+00
6.290000000000000000e+02,-1.910178643939920429e+00,0.000000000000000000e+00
6.300000000000000000e+02,-1.459913419085994590e+00,0.000000000000000000e+00
6.310000000000000000e+02,-1.405039458857361812e+00,0.000000000000000000e+00
6.320000000000000000e+02,-1.328995949019386558e+00,0.000000000000000000e+00
6.330000000000000000e+02,-9.759695571294961791e-01,0.000000000000000000e+00
6.340000000000000000e+02,-1.229481583591947480e+00,0.000000000000000000e+00
6.350000000000000000e+02,-9.809466067653445087e-01,0.000000000000000000e+00
6.360000000000000000e+02,-5.024283052208031730e-01,0.000000000000000000e+00
6.370000000000000000e+02,-7.487952635355895614e-01,0.000000000000000000e+00
6.380000000000000000e+02,-3.678076076437057917e-01,0.000000000000000000e+00
6.390000000000000000e+02,-8.493302344478943500e-01,0.000000000000000000e+00
6.400000000000000000e+02,-2.005919024748847312e-01,0.000000000000000000e+00
6.410000000000000000e+02,-2.204205615457753564e-01,0.000000000000000000e+00
6.420000000000000000e+02,-4.008134356210275584e-01,0.000000000000000000e+00
6.430000000000000000e+02,-2.401969304408345940e-01,0.000000000000000000e+00
6.440000000000000000e+02,-2.431781401818340904e-01,0.000000000000000000e+00
6.450000000000000000e+02,-4.785060290383126580e-02,0.000000000000000000e+00
6.460000000000000000e+02,2.624553242317672064e-01,0.000000000000000000e+00
6.470000000000000000e+02,8.789920807842049877e-02,0.000000000000000000e+00
6.480000000000000000e+02,5.867864972600235207e-01,0.000000000000000000e+00
6.490000000000000000e+02,2.028560706679325698e-01,0.000000000000000000e+00
6.500000000000000000e+02,6.594465687463050285e-01,0.000000000000000000e+00
6.510000000000000000e+02,1.251736995129383925e-02,0.000000000000000000e+00
6.520000000000000000e+02,-1.038547977428909003e-01,0.000000000000000000e+00
6.530000000000000000e+02,-1.507409335271535644e-01,0.000000000000000000e+00
6.540000000000000000e+02,4.880185520789002279e-02,0.000000000000000000e+00
6.550000000000000000e+02,1.771591754141166042e-01,0.000000000000000000e+00
6.560000000000000000e+02,3.948127991228663536e+00,0.000000000000000000e+00
6.570000000000000000e+02,6.375617008289109489e-01,1.000000000000000000e+00
6.580000000000000000e+02,-1.007751769015865273e+00,0.000000000000000000e+00
6.590000000000000000e+02,2.386563383750731349e-01,0.000000000000000000e+00
6.600000000000000000e+02,-2.034155087615633073e-01,0.000000000000000000e+00
6.610000000000000000e+02,1.491769905918262362e-01,0.000000000000000000e+00
6.620000000000000000e+02,-1.828522248791126237e-01,0.000000000000000000e+00
6.630000000000000000e+02,2.329299929408484016e-01,0.000000000000000000e+00
6.640000000000000000e+02,1.464490573376295568e-01,0.000000000000000000e+00
6.650000000000000000e+02,5.683245539498852361e-01,0.000000000000000000e+00
6.660000000000000000e+02,5.543930382642983101e-01,0.000000000000000000e+00
6.670000000000000000e+02,5.014370011332707211e-01,0.000000000000000000e+00
6.680000000000000000e+02,1.407128680648344510e+00,0.000000000000000000e+00
6.690000000000000000e+02,1.627998328781790516e+00,0.000000000000000000e+00
6.700000000000000000e+02,1.983908618593138273e+00,0.000000000000000000e+00
6.710000000000000000e+02,1.675397913596361255e+00,0.000000000000000000e+00
6.720000000000000000e+02,8.354721902275425993e-01,0.000000000000000000e+00
6.730000000000000000e+02,-4.399084034476674621e-01,0.000000000000000000e+00
6.740000000000000000e+02,-1.007246993988618833e+00,0.000000000000000000e+00
6.750000000000000000e+02,-1.593103362873101503e+00,0.000000000000000000e+00
6.760000000000000000e+02,-1.614910465607087398e+00,0.000000000000000000e+00
6.770000000000000000e+02,-1.815714920417944134e+00,0.000000000000000000e+00
6.780000000000000000e+02,-1.091966147033787138e+00,0.000000000000000000e+00
6.790000000000000000e+02,-1.566688885727587577e+00,0.000000000000000000e+00
6.800000000000000000e+02,-7.914079865670539116e-01,0.000000000000000000e+00
6.810000000000000000e+02,-1.131333755290095722e+00,0.000000000000000000e+00
6.820000000000000000e+02,-1.054529592510065950e+00,0.000000000000000000e+00
6.830000000000000000e+02,-8.239981049270178604e-01,0.000000000000000000e+00
6.840000000000000000e+02,-5.580953073428873701e-01,0.000000000000000000e+00
6.850000000000000000e+02,-5.642572431857585391e-01,0.000000000000000000e+00
6.860000000000000000e+02,-4.118710598974913983e-01,0.000000000000000000e+00
6.870000000000000000e+02,-8.403029592764587052e-01,0.000000000000000000e+00
6.880000000000000000e+02,-1.356015286383583651e-01,0.000000000000000000e+00
6.890000000000000000e+02,-4.347901616489233678e-01,0.000000000000000000e+00
6.900000000000000000e+02,5.258556730708753568e-02,0.000000000000000000e+00
6.910000000000000000e+02,-3.066045972811235476e-01,0.000000000000000000e+00
6.920000000000000000e+02,6.667458366546409609e-02,0.000000000000000000e+00
6.930000000000000000e+02,5.206581828982622673e-01,0.000000000000000000e+00
6.940000000000000000e+02,3.053315854546678754e-01,0.000000000000000000e+00
6.950000000000000000e+02,8.612639369780697995e-01,0.000000000000000000e+00
6.960000000000000000e+02,3.239281783905765266e-01,0.000000000000000000e+00
6.970000000000000000e+02,4.807628667966441782e-02,0.000000000000000000e+00
6.980000000000000000e+02,3.016362787024048364e-01,0.000000000000000000e+00
6.990000000000000000e+02,-2.399422703861560924e-01,0.000000000000000000e+00
7.000000000000000000e+02,-1.260879175363319171e-01,0.000000000000000000e+00
7.010000000000000000e+02,4.468189220007342533e-01,0.000000000000000000e+00
7.020000000000000000e+02,1.074581879100962700e+00,0.000000000000000000e+00
7.030000000000000000e+02,4.164198127427945373e+00,0.000000000000000000e+00
7.040000000000000000e+02,-7.773254014083529340e-01,1.000000000000000000e+00
7.050000000000000000e+02,-1.903234274766633649e-01,0.000000000000000000e+00
7.060000000000000000e+02,-3.279300700091366538e-01,0.000000000000000000e+00
7.070000000000000000e+02,1.117712138295817864e-01,0.000000000000000000e+00
7.080000000000000000e+02,-1.633221612647578480e-01,0.000000000000000000e+00
7.090000000000000000e+02,2.068813447316892873e-01,0.000000000000000000e+00
7.100000000000000000e+02,-1.014150282430857815e-02,0.000000000000000000e+00
7.110000000000000000e+02,4.453631204719674108e-01,0.000000000000000000e+00
7.120000000000000000e+02,5.267702349750087443e-01,0.000000000000000000e+00
7.130000000000000000e+02,6.581794346811575824e-01,0.000000000000000000e+00
7.140000000000000000e+02,6.147668419022641606e-01,0.000000000000000000e+00
7.150000000000000000e+02,1.247077036577420417e+00,0.000000000000000000e+00
7.160000000000000000e+02,1.641162444158505984e+00,0.000000000000000000e+00
7.170000000000000000e+02,2.081367254830223779e+00,0.000000000000000000e+00
7.180000000000000000e+02,1.767151686372759434e+00,0.000000000000000000e+00
7.190000000000000000e+02,3.992713720309445935e-01,0.000000000000000000e+00
7.200000000000000000e+02,-6.386092786632939777e-01,0.000000000000000000e+00
7.210000000000000000e+02,-1.646100576126001913e+00,0.000000000000000000e+00
7.220000000000000000e+02,-1.238176526318258475e+00,0.000000000000000000e+00
7.230000000000000000e+02,-1.559898636926210891e+00,0.000000000000000000e+00
7.240000000000000000e+02,-1.706401096626473768e+00,0.000000000000000000e+00
7.250000000000000000e+02,-1.265828646710452254e+00,0.000000000000000000e+00
7.260000000000000000e+02,-8.977833738541163289e-01,0.000000000000000000e+00
7.270000000000000000e+02,-1.176586000323404768e+00,0.000000000000000000e+00
7.280000000000000000e+02,-6.614106654481690661e-01,0.000000000000000000e+00
7.290000000000000000e+02,-6.301140279015871037e-01,0.000000000000000000e+00
7.300000000000000000e+02,-8.539862130814965813e-01,0.000000000000000000e+00
7.310000000000000000e+02,-4.885398311408290506e-01,0.000000000000000000e+00
7.320000000000000000e+02,-2.953641329555137252e-01,0.000000000000000000e+00
7.330000000000000000e+02,-1.454565253135078895e-01,0.000000000000000000e+00
7.340000000000000000e+02,-1.103066689166080083e-01,0.000000000000000000e+00
7.350000000000000000e+02,-5.739973955146476792e-01,0.000000000000000000e+00
7.360000000000000000e+02,-3.852371306297948661e-01,0.000000000000000000e+00
7.370000000000000000e+02,3.989567196192838616e-01,0.000000000000000000e+00
7.380000000000000000e+02,4.985550101646571974e-01,0.000000000000000000e+00
7.390000000000000000e+02,4.607224566847718528e-01,0.000000000000000000e+00
7.400000000000000000e+02,-1.377594937718428988e-02,0.000000000000000000e+00
7.410000000000000000e+02,-2.256927074753128371e-01,0.000000000000000000e+00
7.420000000000000000e+02,7.578397206041226353e-02,0.000000000000000000e+00
7.430000000000000000e+02,-3.884680721794321334e-01,0.000000000000000000e+00
7.440000000000000000e+02,5.837274198916846402e-01,0.000000000000000000e+00
7.450000000000000000e+02,-3.074400897487958306e-01,0.000000000000000000e+00
7.460000000000000000e+02,1.969471118655224728e+00,0.000000000000000000e+00
7.470000000000000000e+02,2.698128429740522360e+00,0.000000000000000000e+00
7.480000000000000000e+02,-1.207848267983699042e+00,1.000000000000000000e+00
7.490000000000000000e+02,2.587990637862985777e-01,0.000000000000000000e+00
7.500000000000000000e+02,-9.061035429065626701e-02,0.000000000000000000e+00
7.510000000000000000e+02,5.152107491331358452e-02,0.000000000000000000e+00
7.520000000000000000e+02,1.620346702430534302e-01,0.000000000000000000e+00
7.530000000000000000e+02,-2.799990814748538892e-02,0.000000000000000000e+00
7.540000000000000000e+02,3.814205409470989433e-02,0.000000000000000000e+00
7.550000000000000000e+02,6.369509840830254177e-01,0.000000000000000000e+00
7.560000000000000000e+02,5.075553523538456346e-01,0.000000000000000000e+00
7.570000000000000000e+02,3.702496372739183528e-01,0.000000000000000000e+00
7.580000000000000000e+02,1.148403371679836971e+00,0.000000000000000000e+00
7.590000000000000000e+02,1.543315599090390622e+00,0.000000000000000000e+00
7.600000000000000000e+02,1.634200357208953625e+00,0.000000000000000000e+00
7.610000000000000000e+02,2.071401190297704531e+00,0.000000000000000000e+00
7.620000000000000000e+02,1.273751912150887344e+00,0.000000000000000000e+00
7.630000000000000000e+02,3.902119980494804796e-01,0.000000000000000000e+00
7.640000000000000000e+02,-1.239975977942290086e+00,0.000000000000000000e+00
7.650000000000000000e+02,-1.616201092094800229e+00,0.000000000000000000e+00
7.660000000000000000e+02,-1.370108175378696558e+00,0.000000000000000000e+00
7.670000000000000000e+02,-1.752122310498995139e+00,0.000000000000000000e+00
7.680000000000000000e+02,-1.317134632093865498e+00,0.000000000000000000e+00
7.690000000000000000e+02,-1.188323936489070531e+00,0.000000000000000000e+00
7.700000000000000000e+02,-1.086772592766884094e+00,0.000000000000000000e+00
7.710000000000000000e+02,-9.281194842952688040e-01,0.000000000000000000e+00
7.720000000000000000e+02,-8.155926802010948773e-01,0.000000000000000000e+00
7.730000000000000000e+02,-8.561644742618004233e-01,0.000000000000000000e+00
7.740000000000000000e+02,-4.928928861151168905e-01,0.000000000000000000e+00
7.750000000000000000e+02,-5.198560668208818125e-01,0.000000000000000000e+00
7.760000000000000000e+02,-3.984304277965635133e-01,0.000000000000000000e+00
7.770000000000000000e+02,-3.591504128229404680e-01,0.000000000000000000e+00
7.780000000000000000e+02,-3.204186205054303516e-01,0.000000000000000000e+00
7.790000000000000000e+02,5.424070172506674503e-02,0.000000000000000000e+00
7.800000000000000000e+02,2.713608852330905430e-01,0.000000000000000000e+00
7.810000000000000000e+02,-1.041778125660871857e-01,0.000000000000000000e+00
7.820000000000000000e+02,-6.092428849211130037e-01,0.000000000000000000e+00
7.830000000000000000e+02,6.169479896089694049e-02,0.000000000000000000e+00
7.840000000000000000e+02,-1.892754229385609221e-01,0.000000000000000000e+00
7.850000000000000000e+02,-2.312623733762276396e-02,0.000000000000000000e+00
7.860000000000000000e+02,-3.195610314668159702e-01,0.000000000000000000e+00
7.870000000000000000e+02,1.153579125507795400e+00,0.000000000000000000e+00
7.880000000000000000e+02,2.827367593492577935e+00,0.000000000000000000e+00
7.890000000000000000e+02,-4.928916575291472091e-01,1.000000000000000000e+00
7.900000000000000000e+02,-3.519216900659705716e-01,0.000000000000000000e+00
7.910000000000000000e+02,-6.249929927844963956e-02,0.000000000000000000e+00
7.920000000000000000e+02,3.503428628818747864e-02,0.000000000000000000e+00
7.930000000000000000e+02,2.977470152575373841e-01,0.000000000000000000e+00
7.940000000000000000e+02,-2.955904062566564600e-02,0.000000000000000000e+00
7.950000000000000000e+02,2.694526732270217662e-01,0.000000000000000000e+00
7.960000000000000000e+02,1.733825790313067716e-01,0.000000000000000000e+00
7.970000000000000000e+02,6.507249093558177266e-01,0.000000000000000000e+00
7.980000000000000000e+02,7.755156465047883252e-01,0.000000000000000000e+00
7.990000000000000000e+02,1.002310482304809680e+00,0.000000000000000000e+00
8.000000000000000000e+02,1.035508544570745482e+00,0.000000000000000000e+00
8.010000000000000000e+02,1.887524193705079067e+00,0.000000000000000000e+00
8.020000000000000000e+02,1.942874327606824547e+00,0.000000000000000000e+00
8.030000000000000000e+02,1.439756488025373482e+00,0.000000000000000000e+00
8.040000000000000000e+02,7.341550748089933354e-01,0.000000000000000000e+00
8.050000000000000000e+02,-1.067500684248186893e+00,0.000000000000000000e+00
8.060000000000000000e+02,-1.254265111537652189e+00,0.000000000000000000e+00
8.070000000000000000e+02,-1.541251308045069157e+00,0.000000000000000000e+00
8.080000000000000000e+02,-1.279788812398062081e+00,0.000000000000000000e+00
8.090000000000000000e+02,-1.574277481609883678e+00,0.000000000000000000e+00
8.100000000000000000e+02,-9.523927427489363717e-01,0.000000000000000000e+00
8.110000000000000000e+02,-1.324705817470042124e+00,0.000000000000000000e+00
8.120000000000000000e+02,-6.708448817092097505e-01,0.000000000000000000e+00
8.130000000000000000e+02,-4.603701539013702604e-01,0.000000000000000000e+00
8.140000000000000000e+02,-5.678340172184586088e-01,0.000000000000000000e+00
8.150000000000000000e+02,-7.370603256313694729e-01,0.000000000000000000e+00
8.160000000000000000e+02,-7.461851798860476281e-02,0.000000000000000000e+00
8.170000000000000000e+02,-2.968861943587955410e-01,0.000000000000000000e+00
8.180000000000000000e+02,-7.653544439615850292e-02,0.000000000000000000e+00
8.190000000000000000e+02,-2.438868581399192825e-01,0.000000000000000000e+00
8.200000000000000000e+02,-3.291332702321592835e-02,0.000000000000000000e+00
8.210000000000000000e+02,8.484720391328337552e-02,0.000000000000000000e+00
8.220000000000000000e+02,3.471671890792916715e-01,0.000000000000000000e+00
8.230000000000000000e+02,-1.117726624705711429e-02,0.000000000000000000e+00
8.240000000000000000e+02,-2.696424931959272020e-01,0.000000000000000000e+00
8.250000000000000000e+02,-6.865337413257724397e-02,0.000000000000000000e+00
8.260000000000000000e+02,-2.533683388163469608e-01,0.000000000000000000e+00
8.270000000000000000e+02,1.309968066712485779e-01,0.000000000000000000e+00
8.280000000000000000e+02,1.964382226868716386e-01,0.000000000000000000e+00
8.290000000000000000e+02,3.097536800555666492e+00,0.000000000000000000e+00
8.300000000000000000e+02,1.452137731976208990e+00,1.000000000000000000e+00
8.310000000000000000e+02,-7.892693911020848274e-01,0.000000000000000000e+00
8.320000000000000000e+02,1.139749483484319981e-01,0.000000000000000000e+00
8.330000000000000000e+02,-9.905694877787495078e-02,0.000000000000000000e+00
8.340000000000000000e+02,6.109232405929319182e-02,0.000000000000000000e+00
8.350000000000000000e+02,6.881799444541443489e-02,0.000000000000000000e+00
8.360000000000000000e+02,2.027018684125642678e-01,0.000000000000000000e+00
8.370000000000000000e+02,3.758526407059572388e-02,0.000000000000000000e+00
8.380000000000000000e+02,4.938476148745955530e-01,0.000000000000000000e+00
8.390000000000000000e+02,5.629988777026450064e-01,0.000000000000000000e+00
8.400000000000000000e+02,9.547504319973992848e-01,0.000000000000000000e+00
8.410000000000000000e+02,8.900815730119655544e-01,0.000000000000000000e+00
8.420000000000000000e+02,1.636520356131272891e+00,0.000000000000000000e+00
8.430000000000000000e+02,1.925171261236510833e+00,0.000000000000000000e+00
8.440000000000000000e+02,1.800082963756352905e+00,0.000000000000000000e+00
8.450000000000000000e+02,9.431692460809382172e-01,0.000000000000000000e+00
8.460000000000000000e+02,-2.509798449553424793e-01,0.000000000000000000e+00
8.470000000000000000e+02,-1.483581052015838786e+00,0.000000000000000000e+00
8.480000000000000000e+02,-1.029289021784469016e+00,0.000000000000000000e+00
8.490000000000000000e+02,-1.476680111739650414e+00,0.000000000000000000e+00
8.500000000000000000e+02,-1.467613487428605090e+00,0.000000000000000000e+00
8.510000000000000000e+02,-1.206533039788126649e+00,0.000000000000000000e+00
8.520000000000000000e+02,-8.954185265028418161e-01,0.000000000000000000e+00
8.530000000000000000e+02,-1.113796042420795107e+00,0.000000000000000000e+00
8.540000000000000000e+02,-4.314403986833371674e-01,0.000000000000000000e+00
8.550000000000000000e+02,-7.907206066189543803e-01,0.000000000000000000e+00
8.560000000000000000e+02,-6.197981362540753159e-01,0.000000000000000000e+00
8.570000000000000000e+02,-8.265189257381639898e-01,0.000000000000000000e+00
8.580000000000000000e+02,-1.949756330928374415e-01,0.000000000000000000e+00
8.590000000000000000e+02,-3.702023189464390684e-01,0.000000000000000000e+00
8.600000000000000000e+02,-4.639994658992188103e-01,0.000000000000000000e+00
8.610000000000000000e+02,-6.854058960087365537e-02,0.000000000000000000e+00
8.620000000000000000e+02,2.298900196964338560e-01,0.000000000000000000e+00
8.630000000000000000e+02,-4.704514452244863421e-01,0.000000000000000000e+00
8.640000000000000000e+02,6.529166483401036558e-01,0.000000000000000000e+00
8.650000000000000000e+02,7.567786469937205773e-02,0.000000000000000000e+00
8.660000000000000000e+02,4.910183274017308475e-01,0.000000000000000000e+00
8.670000000000000000e+02,-5.056506258816909627e-01,0.000000000000000000e+00
8.680000000000000000e+02,3.752552963178980017e-01,0.000000000000000000e+00
8.690000000000000000e+02,-6.474345630484257264e-01,0.000000000000000000e+00
8.700000000000000000e+02,3.750869513393544352e-01,0.000000000000000000e+00
8.710000000000000000e+02,-2.424391959411435482e-01,0.000000000000000000e+00
8.720000000000000000e+02,3.048788938952305294e+00,0.000000000000000000e+00
8.730000000000000000e+02,1.858697276713617841e+00,1.000000000000000000e+00
8.740000000000000000e+02,-1.100860494413472779e+00,0.000000000000000000e+00
8.750000000000000000e+02,2.322422019506335533e-01,0.000000000000000000e+00
8.760000000000000000e+02,-4.428359014679486561e-01,0.000000000000000000e+00
8.770000000000000000e+02,1.503619224716847280e-01,0.000000000000000000e+00
8.780000000000000000e+02,6.836071618600081390e-02,0.000000000000000000e+00
8.790000000000000000e+02,3.161738418946057894e-01,0.000000000000000000e+00
8.800000000000000000e+02,2.362063374983885411e-01,0.000000000000000000e+00
8.810000000000000000e+02,3.628583029088313650e-01,0.000000000000000000e+00
8.820000000000000000e+02,4.952613615127773872e-01,0.000000000000000000e+00
8.830000000000000000e+02,6.761986686372614130e-01,0.000000000000000000e+00
8.840000000000000000e+02,1.026208532850277022e+00,0.000000000000000000e+00
8.850000000000000000e+02,1.777211883020643146e+00,0.000000000000000000e+00
8.860000000000000000e+02,1.610108741749320282e+00,0.000000000000000000e+00
8.870000000000000000e+02,1.590736337319733629e+00,0.000000000000000000e+00
8.880000000000000000e+02,1.164164543169134980e+00,0.000000000000000000e+00
8.890000000000000000e+02,1.120508586626430131e-01,0.000000000000000000e+00
8.900000000000000000e+02,-1.450380023484255876e+00,0.000000000000000000e+00
8.910000000000000000e+02,-1.474471246254167367e+00,0.000000000000000000e+00
8.920000000000000000e+02,-1.730019101795601255e+00,0.000000000000000000e+00
8.930000000000000000e+02,-1.408348770647639636e+00,0.000000000000000000e+00
8.940000000000000000e+02,-1.154301911511922851e+00,0.000000000000000000e+00
8.950000000000000000e+02,-1.321718773361507449e+00,0.000000000000000000e+00
8.960000000000000000e+02,-1.152159464896751251e+00,0.000000000000000000e+00
8.970000000000000000e+02,-1.270426814140786398e+00,0.000000000000000000e+00
8.980000000000000000e+02,-7.204857413720997528e-01,0.000000000000000000e+00
8.990000000000000000e+02,-4.523926705352569466e-01,0.000000000000000000e+00
9.000000000000000000e+02,-6.970729366705914476e-01,0.000000000000000000e+00
9.010000000000000000e+02,-6.293312214013372374e-01,0.000000000000000000e+00
9.020000000000000000e+02,-4.860501425655306962e-01,0.000000000000000000e+00
9.030000000000000000e+02,-6.862594337697179858e-01,0.000000000000000000e+00
9.040000000000000000e+02,-3.038921527090492902e-01,0.000000000000000000e+00
9.050000000000000000e+02,-2.819851589827390703e-01,0.000000000000000000e+00
9.060000000000000000e+02,-6.156630511051738169e-02,0.000000000000000000e+00
9.070000000000000000e+02,-1.454729443597622962e-01,0.000000000000000000e+00
9.080000000000000000e+02,2.019201123796261488e-01,0.000000000000000000e+00
9.090000000000000000e+02,4.822833107890724946e-01,0.000000000000000000e+00
9.100000000000000000e+02,-4.320363281136316291e-02,0.000000000000000000e+00
9.110000000000000000e+02,-3.378110003443248743e-01,0.000000000000000000e+00
9.120000000000000000e+02,6.234350281742333938e-02,0.000000000000000000e+00
9.130000000000000000e+02,-5.368209986560880109e-01,0.000000000000000000e+00
9.140000000000000000e+02,3.383106423555872766e-01,0.000000000000000000e+00
9.150000000000000000e+02,9.844661119950406936e-02,0.000000000000000000e+00
9.160000000000000000e+02,3.240327602670209917e+00,0.000000000000000000e+00
9.170000000000000000e+02,1.347814319718086518e+00,1.000000000000000000e+00
9.180000000000000000e+02,-9.067795242160753277e-01,0.000000000000000000e+00
9.190000000000000000e+02,2.083650739128620200e-01,0.000000000000000000e+00
9.200000000000000000e+02,-4.046758900037438211e-01,0.000000000000000000e+00
9.210000000000000000e+02,2.671823952505057997e-01,0.000000000000000000e+00
9.220000000000000000e+02,3.569154937014384910e-02,0.000000000000000000e+00
9.230000000000000000e+02,4.040334677904624527e-01,0.000000000000000000e+00
9.240000000000000000e+02,-8.742181075518344613e-02,0.000000000000000000e+00
9.250000000000000000e+02,3.434082030870614366e-01,0.000000000000000000e+00
9.260000000000000000e+02,1.027423580605719033e+00,0.000000000000000000e+00
9.270000000000000000e+02,6.587697098915752392e-01,0.000000000000000000e+00
9.280000000000000000e+02,1.274909859015204816e+00,0.000000000000000000e+00
9.290000000000000000e+02,1.265493714916374524e+00,0.000000000000000000e+00
9.300000000000000000e+02,1.712042579710884693e+00,0.000000000000000000e+00
9.310000000000000000e+02,2.263804981383310544e+00,0.000000000000000000e+00
9.320000000000000000e+02,6.788388998085599368e-01,0.000000000000000000e+00
9.330000000000000000e+02,-3.034829709631549077e-01,0.000000000000000000e+00
9.340000000000000000e+02,-9.155147588709361406e-01,0.000000000000000000e+00
9.350000000000000000e+02,-1.330237012599356117e+00,0.000000000000000000e+00
9.360000000000000000e+02,-1.541306078939978841e+00,0.000000000000000000e+00
9.370000000000000000e+02,-1.522325223902393221e+00,0.000000000000000000e+00
9.380000000000000000e+02,-1.379768024072168142e+00,0.000000000000000000e+00
9.390000000000000000e+02,-8.540932372116457616e-01,0.000000000000000000e+00
9.400000000000000000e+02,-9.762338098556450072e-01,0.000000000000000000e+00
9.410000000000000000e+02,-9.628281263434735893e-01,0.000000000000000000e+00
9.420000000000000000e+02,-9.022698656494525515e-01,0.000000000000000000e+00
9.430000000000000000e+02,-6.794579655981578536e-01,0.000000000000000000e+00
9.440000000000000000e+02,-2.083560429315902407e-01,0.000000000000000000e+00
9.450000000000000000e+02,-8.014508256205106207e-01,0.000000000000000000e+00
9.460000000000000000e+02,-2.801875880638008409e-01,0.000000000000000000e+00
9.470000000000000000e+02,-6.122468782942261933e-01,0.000000000000000000e+00
9.480000000000000000e+02,-4.354623962832825379e-01,0.000000000000000000e+00
9.490000000000000000e+02,-4.042122742413830627e-01,0.000000000000000000e+00
9.500000000000000000e+02,2.302662897330506053e-01,0.000000000000000000e+00
9.510000000000000000e+02,-3.089541672457376056e-02,0.000000000000000000e+00
9.520000000000000000e+02,4.974505150963807187e-01,0.000000000000000000e+00
9.530000000000000000e+02,4.037651489571339458e-01,0.000000000000000000e+00
9.540000000000000000e+02,2.182180297184108109e-01,0.000000000000000000e+00
9.550000000000000000e+02,-1.107808999388834176e-01,0.000000000000000000e+00
9.560000000000000000e+02,1.873272035895185705e-01,0.000000000000000000e+00
9.570000000000000000e+02,-4.145537061259222944e-01,0.000000000000000000e+00
9.580000000000000000e+02,3.351694010211601626e-01,0.000000000000000000e+00
9.590000000000000000e+02,-2.745852729556865213e-01,0.000000000000000000e+00
9.600000000000000000e+02,2.110634244888372812e+00,0.000000000000000000e+00
9.610000000000000000e+02,3.439037152598030556e+00,0.000000000000000000e+00
9.620000000000000000e+02,-1.014071434991341114e+00,1.000000000000000000e+00
9.630000000000000000e+02,2.070159798939395501e-01,0.000000000000000000e+00
9.640000000000000000e+02,-3.840816522239304809e-01,0.000000000000000000e+00
9.650000000000000000e+02,4.179331775373709146e-01,0.000000000000000000e+00
9.660000000000000000e+02,-3.315825339220153101e-01,0.000000000000000000e+00
9.670000000000000000e+02,4.348089051301552432e-01,0.000000000000000000e+00
9.680000000000000000e+02,8.467388810036134694e-02,0.000000000000000000e+00
9.690000000000000000e+02,5.116649056499086301e-01,0.000000000000000000e+00
9.700000000000000000e+02,3.740223262558631245e-01,0.000000000000000000e+00
9.710000000000000000e+02,6.192073967547834235e-01,0.000000000000000000e+00
9.720000000000000000e+02,1.214531395684360637e+00,0.000000000000000000e+00
9.730000000000000000e+02,1.206039520489090133e+00,0.000000000000000000e+00
9.740000000000000000e+02,1.815873432032680146e+00,0.000000000000000000e+00
9.750000000000000000e+02,1.843407807570480506e+00,0.000000000000000000e+00
9.760000000000000000e+02,1.422373116029760354e+00,0.000000000000000000e+00
9.770000000000000000e+02,3.647057232206201149e-01,0.000000000000000000e+00
9.780000000000000000e+02,-7.518658267467113188e-01,0.000000000000000000e+00
9.790000000000000000e+02,-1.320920131329911706e+00,0.000000000000000000e+00
9.800000000000000000e+02,-1.509648729339636342e+00,0.000000000000000000e+00
9.810000000000000000e+02,-1.662735378258524799e+00,0.000000000000000000e+00
9.820000000000000000e+02,-1.256078264651264931e+00,0.000000000000000000e+00
9.830000000000000000e+02,-1.208674209052381432e+00,0.000000000000000000e+00
9.840000000000000000e+02,-1.092150917783595521e+00,0.000000000000000000e+00
9.850000000000000000e+02,-7.121663211831110729e-01,0.000000000000000000e+00
9.860000000000000000e+02,-9.333611930253264966e-01,0.000000000000000000e+00
9.870000000000000000e+02,-5.574024369021947090e-01,0.000000000000000000e+00
9.880000000000000000e+02,-6.011956347732648753e-01,0.000000000000000000e+00
9.890000000000000000e+02,-2.697867689683981496e-01,0.000000000000000000e+00
9.900000000000000000e+02,-5.126602865712648338e-01,0.000000000000000000e+00
9.910000000000000000e+02,-6.190207875798861004e-01,0.000000000000000000e+00
9.920000000000000000e+02,-1.081305709183131986e-01,0.000000000000000000e+00
9.930000000000000000e+02,3.411245912428798738e-02,0.000000000000000000e+00
9.940000000000000000e+02,3.432376950883617717e-01,0.000000000000000000e+00
9.950000000000000000e+02,-3.158439750910956023e-02,0.000000000000000000e+00
9.960000000000000000e+02,-6.656528912554816879e-02,0.000000000000000000e+00
9.970000000000000000e+02,-4.758795728421727489e-01,0.000000000000000000e+00
9.980000000000000000e+02,-1.633514252551824808e-01,0.000000000000000000e+00
9.990000000000000000e+02,1.502585309549042125e-01,0.000000000000000000e+00
1.000000000000000000e+03,5.465021031677429197e-02,0.000000000000000000e+00
1.001000000000000000e+03,-4.752817552986337568e-01,0.000000000000000000e+00
1.002000000000000000e+03,2.638735301347241879e+00,0.000000000000000000e+00
1.003000000000000000e+03,1.907759845980274704e+00,1.000000000000000000e+00
1.004000000000000000e+03,-1.103330036019132043e+00,0.000000000000000000e+00
1.005000000000000000e+03,9.995567098761348399e-03,0.000000000000000000e+00
1.006000000000000000e+03,-4.523283921075957892e-01,0.000000000000000000e+00
1.007000000000000000e+03,3.670670673162990116e-01,0.000000000000000000e+00
1.008000000000000000e+03,-2.839106350783408561e-01,0.000000000000000000e+00
1.009000000000000000e+03,4.386054834937715419e-01,0.000000000000000000e+00
1.010000000000000000e+03,-1.255897866162701826e-01,0.000000000000000000e+00
1.011000000000000000e+03,4.817602151508744712e-01,0.000000000000000000e+00
1.012000000000000000e+03,3.087729225689630486e-01,0.000000000000000000e+00
1.013000000000000000e+03,1.119267419875760616e+00,0.000000000000000000e+00
1.014000000000000000e+03,8.910678157006620692e-01,0.000000000000000000e+00
1.015000000000000000e+03,1.401443357458286743e+00,0.000000000000000000e+00
1.016000000000000000e+03,1.443847435321891082e+00,0.000000000000000000e+00
1.017000000000000000e+03,2.186389842622294299e+00,0.000000000000000000e+00
1.018000000000000000e+03,1.186314053433645155e+00,0.000000000000000000e+00
1.019000000000000000e+03,-1.895923268477590351e-01,0.000000000000000000e+00
1.020000000000000000e+03,-1.311312170128267285e+00,0.000000000000000000e+00
1.021000000000000000e+03,-1.341129259225999348e+00,0.000000000000000000e+00
1.022000000000000000e+03,-1.325089672425215026e+00,0.000000000000000000e+00
1.023000000000000000e+03,-1.467065421301176897e+00,0.000000000000000000e+00
1.024000000000000000e+03,-9.496772185493694840e-01,0.000000000000000000e+00
1.025000000000000000e+03,-1.325609137819302008e+00,0.000000000000000000e+00
1.026000000000000000e+03,-7.818028418217062292e-01,0.000000000000000000e+00
1.027000000000000000e+03,-6.795332708126533561e-01,0.000000000000000000e+00
1.028000000000000000e+03,-6.721167006320429849e-01,0.000000000000000000e+00
1.029000000000000000e+03,-6.969031615170433458e-01,0.000000000000000000e+00
1.030000000000000000e+03,-2.161575087971698839e-01,0.000000000000000000e+00
1.031000000000000000e+03,-3.202551412981175516e-01,0.000000000000000000e+00
1.032000000000000000e+03,-4.979294409866503734e-01,0.000000000000000000e+00
1.033000000000000000e+03,-1.922810980004867609e-01,0.000000000000000000e+00
1.034000000000000000e+03,-4.170621620424166398e-01,0.000000000000000000e+00
1.035000000000000000e+03,2.307487493899167130e-01,0.000000000000000000e+00
1.036000000000000000e+03,3.271262282810138422e-01,0.000000000000000000e+00
1.037000000000000000e+03,2.026351115920987656e-01,0.000000000000000000e+00
1.038000000000000000e+03,1.220812286763712645e-01,0.000000000000000000e+00
1.039000000000000000e+03,-3.319024408583959307e-01,0.000000000000000000e+00
1.040000000000000000e+03,-1.599428300275074766e-01,0.000000000000000000e+00
1.041000000000000000e+03,4.507212491994715131e-02,0.000000000000000000e+00
1.042000000000000000e+03,-1.135406492966777453e-01,0.000000000000000000e+00
1.043000000000000000e+03,1.279030253378421744e-01,0.000000000000000000e+00
1.044000000000000000e+03,5.538833646811375244e-01,0.000000000000000000e+00
1.045000000000000000e+03,3.649498349963276489e+00,0.000000000000000000e+00
1.046000000000000000e+03,-1.377352019457589727e-01,1.000000000000000000e+00
1.047000000000000000e+03,-2.308825466842821250e-01,0.000000000000000000e+00
1.048000000000000000e+03,-3.551716090002487447e-01,0.000000000000000000e+00
1.049000000000000000e+03,9.568090565571094053e-02,0.000000000000000000e+00
1.050000000000000000e+03,-2.401427236518357752e-02,0.000000000000000000e+00
1.051000000000000000e+03,2.168157907121583405e-01,0.000000000000000000e+00
1.052000000000000000e+03,3.974662000070550705e-01,0.000000000000000000e+00
1.053000000000000000e+03,-2.885419227884390009e-02,0.000000000000000000e+00
1.054000000000000000e+03,7.915284242669915482e-01,0.000000000000000000e+00
1.055000000000000000e+03,3.870854696450502508e-01,0.000000000000000000e+00
1.056000000000000000e+03,1.192722783011575194e+00,0.000000000000000000e+00
1.057000000000000000e+03,1.233734404368935333e+00,0.000000000000000000e+00
1.058000000000000000e+03,1.277685470450418137e+00,0.000000000000000000e+00
1.059000000000000000e+03,2.022544150688650344e+00,0.000000000000000000e+00
1.060000000000000000e+03,2.025588074048620513e+00,0.000000000000000000e+00
1.061000000000000000e+03,4.701179316809754871e-01,0.000000000000000000e+00
1.062000000000000000e+03,-7.291951029553720431e-01,0.000000000000000000e+00
1.063000000000000000e+03,-1.617311029973077741e+00,0.000000000000000000e+00
1.064000000000000000e+03,-1.110151218990570010e+00,0.000000000000000000e+00
1.065000000000000000e+03,-1.712960404994782193e+00,0.000000000000000000e+00
1.066000000000000000e+03,-1.276413108043031208e+00,0.000000000000000000e+00
1.067000000000000000e+03,-1.704911066670042885e+00,0.000000000000000000e+00
1.068000000000000000e+03,-6.893696743048274289e-01,0.000000000000000000e+00
1.069000000000000000e+03,-1.389810024287047474e+00,0.000000000000000000e+00
1.070000000000000000e+03,-4.395382408938945384e-01,0.000000000000000000e+00
1.071000000000000000e+03,-7.808720139563771756e-01,0.000000000000000000e+00
1.072000000000000000e+03,-2.074448260727937976e-01,0.000000000000000000e+00
1.073000000000000000e+03,-5.192784137279311540e-01,0.000000000000000000e+00
1.074000000000000000e+03,-3.631279879059188254e-01,0.000000000000000000e+00
1.075000000000000000e+03,-7.980757509235890668e-01,0.000000000000000000e+00
1.076000000000000000e+03,-1.685331517150839842e-02,0.000000000000000000e+00
1.077000000000000000e+03,-2.389003167549397511e-01,0.000000000000000000e+00
1.078000000000000000e+03,1.304020339851328647e-01,0.000000000000000000e+00
1.079000000000000000e+03,-9.386067531676278719e-02,0.000000000000000000e+00
1.080000000000000000e+03,3.266449269209462658e-01,0.000000000000000000e+00
1.081000000000000000e+03,2.017377818619919827e-01,0.000000000000000000e+00
1.082000000000000000e+03,4.629982861076795131e-02,0.000000000000000000e+00
1.083000000000000000e+03,-5.188266613339128641e-01,0.000000000000000000e+00
1.084000000000000000e+03,1.732653543065505730e-01,0.000000000000000000e+00
1.085000000000000000e+03,-2.983918842817956940e-01,0.000000000000000000e+00
1.086000000000000000e+03,2.451446621982450100e-02,0.000000000000000000e+00
1.087000000000000000e+03,3.562487913748413337e-02,0.000000000000000000e+00
1.088000000000000000e+03,3.114970722470465692e+00,0.000000000000000000e+00
1.089000000000000000e+03,1.202879893899347019e+00,1.000000000000000000e+00
1.090000000000000000e+03,-1.284281096232581687e+00,0.000000000000000000e+00
1.091000000000000000e+03,6.600595967371922779e-01,0.000000000000000000e+00
1.092000000000000000e+03,-3.751632524091007559e-01,0.000000000000000000e+00
1.093000000000000000e+03,-2.016451060019721839e-02,0.000000000000000000e+00
1.094000000000000000e+03,-5.723909520707514131e-01,0.000000000000000000e+00
1.095000000000000000e+03,5.788445734114285035e-02,0.000000000000000000e+00
1.096000000000000000e+03,5.140298091541116721e-01,0.000000000000000000e+00
1.097000000000000000e+03,5.066391643450356419e-01,0.000000000000000000e+00
1.098000000000000000e+03,6.906678784795580173e-01,0.000000000000000000e+00
1.099000000000000000e+03,9.271350110990317361e-01,0.000000000000000000e+00
1.100000000000000000e+03,9.583301949434859246e-01,0.000000000000000000e+00
1.101000000000000000e+03,1.432803185793171785e+00,0.000000000000000000e+00
1.102000000000000000e+03,1.785207423864949572e+00,0.000000000000000000e+00
1.103000000000000000e+03,2.231352464877513597e+00,0.000000000000000000e+00
1.104000000000000000e+03,8.867594972600578718e-01,0.000000000000000000e+00
1.105000000000000000e+03,-1.388480746402569466e-01,0.000000000000000000e+00
1.106000000000000000e+03,-1.563436018561923380e+00,0.000000000000000000e+00
1.107000000000000000e+03,-1.533568647941468521e+00,0.000000000000000000e+00
1.108000000000000000e+03,-1.280029144178148393e+00,0.000000000000000000e+00
1.109000000000000000e+03,-1.448685716102271925e+00,0.000000000000000000e+00
1.110000000000000000e+03,-1.350947155815577672e+00,0.000000000000000000e+00
1.111000000000000000e+03,-1.308606128375026545e+00,0.000000000000000000e+00
1.112000000000000000e+03,-1.099686080906091323e+00,0.000000000000000000e+00
1.113000000000000000e+03,-4.395601184174345311e-01,0.000000000000000000e+00
1.114000000000000000e+03,-7.570048359581263986e-01,0.000000000000000000e+00
1.115000000000000000e+03,-7.447021776173841090e-01,0.000000000000000000e+00
1.116000000000000000e+03,-4.344273199654456463e-01,0.000000000000000000e+00
1.117000000000000000e+03,-1.423967527691894497e-01,0.000000000000000000e+00
1.118000000000000000e+03,-5.093069216541419308e-01,0.000000000000000000e+00
1.119000000000000000e+03,-2.958236784790637675e-01,0.000000000000000000e+00
1.120000000000000000e+03,-3.756397727556471389e-01,0.000000000000000000e+00
1.121000000000000000e+03,-1.823646123176204947e-01,0.000000000000000000e+00
1.122000000000000000e+03,2.727280783952670262e-01,0.000000000000000000e+00
1.123000000000000000e+03,4.194923236624431562e-01,0.000000000000000000e+00
1.124000000000000000e+03,5.088993655736300248e-01,0.000000000000000000e+00
1.125000000000000000e+03,3.537741006607671990e-01,0.000000000000000000e+00
1.126000000000000000e+03,-1.694049898606690141e-01,0.000000000000000000e+00
1.127000000000000000e+03,5.796652132594218992e-02,0.000000000000000000e+00
1.128000000000000000e+03,2.265898320166204183e-02,0.000000000000000000e+00
1.129000000000000000e+03,2.089086739128210302e-01,0.000000000000000000e+00
1.130000000000000000e+03,-3.079992688875323181e-01,0.000000000000000000e+00
1.131000000000000000e+03,7.782813994298769522e-01,0.000000000000000000e+00
1.132000000000000000e+03,3.797130205502596834e+00,0.000000000000000000e+00
1.133000000000000000e+03,2.816379928823693063e-02,1.000000000000000000e+00
1.134000000000000000e+03,-5.851896947206365329e-01,0.000000000000000000e+00
1.135000000000000000e+03,1.378260233792617806e-01,0.000000000000000000e+00
1.136000000000000000e+03,-2.597579205692248094e-01,0.000000000000000000e+00
1.137000000000000000e+03,2.123153100830110218e-01,0.000000000000000000e+00
1.138000000000000000e+03,-8.724359992560588861e-02,0.000000000000000000e+00
1.139000000000000000e+03,8.230911220354722446e-02,0.000000000000000000e+00
1.140000000000000000e+03,2.367835978460114954e-01,0.000000000000000000e+00
1.141000000000000000e+03,5.668638689357784477e-01,0.000000000000000000e+00
1.142000000000000000e+03,6.894463220075927046e-01,0.000000000000000000e+00
1.143000000000000000e+03,5.405750148749981498e-01,0.000000000000000000e+00
1.144000000000000000e+03,1.023339717095975931e+00,0.000000000000000000e+00
1.145000000000000000e+03,1.887661736745918306e+00,0.000000000000000000e+00
1.146000000000000000e+03,1.983857799375391640e+00,0.000000000000000000e+00
1.147000000000000000e+03,1.475328775663001357e+00,0.000000000000000000e+00
1.148000000000000000e+03,5.014865910299211027e-01,0.000000000000000000e+00
1.149000000000000000e+03,-9.640255858183736093e-01,0.000000000000000000e+00
1.150000000000000000e+03,-1.224057698193171007e+00,0.000000000000000000e+00
1.151000000000000000e+03,-1.581296267245009934e+00,0.000000000000000000e+00
1.152000000000000000e+03,-1.606889683925125878e+00,0.000000000000000000e+00
1.153000000000000000e+03,-1.393129433094834502e+00,0.000000000000000000e+00
1.154000000000000000e+03,-1.305089912271211849e+00,0.000000000000000000e+00
1.155000000000000000e+03,-1.158536693569260922e+00,0.000000000000000000e+00
1.156000000000000000e+03,-6.650170027911102011e-01,0.000000000000000000e+00
1.157000000000000000e+03,-8.921736991206656864e-01,0.000000000000000000e+00
1.158000000000000000e+03,-8.627466414389224347e-01,0.000000000000000000e+00
1.159000000000000000e+03,-6.780186936029968248e-01,0.000000000000000000e+00
1.160000000000000000e+03,-4.277714553100971928e-01,0.000000000000000000e+00
1.161000000000000000e+03,-3.836146528869485706e-01,0.000000000000000000e+00
1.162000000000000000e+03,-6.648094710964839171e-01,0.000000000000000000e+00
1.163000000000000000e+03,-9.208595817428379127e-02,0.000000000000000000e+00
1.164000000000000000e+03,-5.374215169462973618e-01,0.000000000000000000e+00
1.165000000000000000e+03,4.010436375859717795e-01,0.000000000000000000e+00
1.166000000000000000e+03,1.808578742992069874e-02,0.000000000000000000e+00
1.167000000000000000e+03,1.915680240065821272e-01,0.000000000000000000e+00
1.168000000000000000e+03,-1.468745982719432963e-01,0.000000000000000000e+00
1.169000000000000000e+03,-1.093310276456996022e-01,0.000000000000000000e+00
1.170000000000000000e+03,1.364955157134058357e-02,0.000000000000000000e+00
1.171000000000000000e+03,-2.811696774855840797e-01,0.000000000000000000e+00
1.172000000000000000e+03,1.989070528476911265e-02,0.000000000000000000e+00
1.173000000000000000e+03,-1.885560289170782333e-01,0.000000000000000000e+00
1.174000000000000000e+03,1.511928708139277155e+00,0.000000000000000000e+00
1.175000000000000000e+03,3.127098958226249170e+00,0.000000000000000000e+00
1.176000000000000000e+03,-1.302715226103855040e+00,1.000000000000000000e+00
1.177000000000000000e+03,3.625611752709273494e-01,0.000000000000000000e+00
1.178000000000000000e+03,-5.521131888999278869e-01,0.000000000000000000e+00
1.179000000000000000e+03,2.413195686917004867e-01,0.000000000000000000e+00
1.180000000000000000e+03,-5.643892317882111959e-02,0.000000000000000000e+00
1.181000000000000000e+03,2.115351023295788668e-01,0.000000000000000000e+00
1.182000000000000000e+03,2.892174613578846198e-01,0.000000000000000000e+00
1.183000000000000000e+03,4.137169667783207466e-02,0.000000000000000000e+00
1.184000000000000000e+03,5.548390893642991539e-01,0.000000000000000000e+00
1.185000000000000000e+03,6.090420946984294037e-01,0.000000000000000000e+00
1.186000000000000000e+03,1.051298156935142725e+00,0.000000000000000000e+00
1.187000000000000000e+03,1.118714990911761298e+00,0.000000000000000000e+00
1.188000000000000000e+03,1.944648756583319038e+00,0.000000000000000000e+00
1.189000000000000000e+03,2.170016937813893598e+00,0.000000000000000000e+00
1.190000000000000000e+03,1.364329998601418792e+00,0.000000000000000000e+00
1.191000000000000000e+03,1.908287065392622328e-01,0.000000000000000000e+00
1.192000000000000000e+03,-8.046744075779029837e-01,0.000000000000000000e+00
1.193000000000000000e+03,-1.488998917694434265e+00,0.000000000000000000e+00
1.194000000000000000e+03,-1.415923975532987544e+00,0.000000000000000000e+00
1.195000000000000000e+03,-1.489239424809047474e+00,0.000000000000000000e+00
1.196000000000000000e+03,-1.421922183932245565e+00,0.000000000000000000e+00
1.197000000000000000e+03,-1.078435555259554812e+00,0.000000000000000000e+00
1.198000000000000000e+03,-8.465784386764535485e-01,0.000000000000000000e+00
1.199000000000000000e+03,-8.643439932010521520e-01,0.000000000000000000e+00
1.200000000000000000e+03,-8.391463404097646572e-01,0.000000000000000000e+00
1.201000000000000000e+03,-4.050398878220264898e-01,0.000000000000000000e+00
1.202000000000000000e+03,-6.822591192686230377e-01,0.000000000000000000e+00
1.203000000000000000e+03,-5.964846395989921168e-01,0.000000000000000000e+00
1.204000000000000000e+03,-4.381118547480190584e-01,0.000000000000000000e+00
1.205000000000000000e+03,-3.317272911645521294e-01,0.000000000000000000e+00
1.206000000000000000e+03,4.976519044912406514e-02,0.000000000000000000e+00
1.207000000000000000e+03,3.478320934986268709e-01,0.000000000000000000e+00
1.208000000000000000e+03,3.062576816970700999e-02,0.000000000000000000e+00
1.209000000000000000e+03,-8.054678640713738846e-02,0.000000000000000000e+00
1.210000000000000000e+03,-1.808064779670050803e-01,0.000000000000000000e+00
1.211000000000000000e+03,-2.363303824419820398e-01,0.000000000000000000e+00
1.212000000000000000e+03,-4.308935273070081673e-02,0.000000000000000000e+00
1.213000000000000000e+03,7.727551626991799663e-03,0.000000000000000000e+00
1.214000000000000000e+03,5.596226165030400088e-03,0.000000000000000000e+00
1.215000000000000000e+03,6.297980620843750543e-01,0.000000000000000000e+00
1.216000000000000000e+03,3.352156817242212927e+00,0.000000000000000000e+00
1.217000000000000000e+03,-2.674330830038259554e-01,1.000000000000000000e+00
1.218000000000000000e+03,-5.297514210292683101e-01,0.000000000000000000e+00
1.219000000000000000e+03,1.783380922144572611e-01,0.000000000000000000e+00
1.220000000000000000e+03,1.159222628174224612e-01,0.000000000000000000e+00
1.221000000000000000e+03,-2.024243291531571398e-01,0.000000000000000000e+00
1.222000000000000000e+03,2.058618340449266670e-01,0.000000000000000000e+00
1.223000000000000000e+03,-1.483239940598321815e-01,0.000000000000000000e+00
1.224000000000000000e+03,5.328668711075723596e-01,0.000000000000000000e+00
1.225000000000000000e+03,3.652660056719329029e-01,0.000000000000000000e+00
1.226000000000000000e+03,4.983441209389389837e-01,0.000000000000000000e+00
1.227000000000000000e+03,9.430245456181123309e-01,0.000000000000000000e+00
1.228000000000000000e+03,1.068770134154407803e+00,0.000000000000000000e+00
1.229000000000000000e+03,1.635516829074324940e+00,0.000000000000000000e+00
1.230000000000000000e+03,1.779185260525884882e+00,0.000000000000000000e+00
1.231000000000000000e+03,1.918122417308559813e+00,0.000000000000000000e+00
1.232000000000000000e+03,4.448435897729509092e-01,0.000000000000000000e+00
1.233000000000000000e+03,-9.846711395980055626e-01,0.000000000000000000e+00
1.234000000000000000e+03,-1.237823332811562649e+00,0.000000000000000000e+00
1.235000000000000000e+03,-1.625319267036326787e+00,0.000000000000000000e+00
1.236000000000000000e+03,-1.330795531817250410e+00,0.000000000000000000e+00
1.237000000000000000e+03,-1.139532360522707677e+00,0.000000000000000000e+00
1.238000000000000000e+03,-1.581541026179431153e+00,0.000000000000000000e+00
1.239000000000000000e+03,-8.453993518443176924e-01,0.000000000000000000e+00
1.240000000000000000e+03,-1.108305558994435502e+00,0.000000000000000000e+00
1.241000000000000000e+03,-1.924411496982854075e-01,0.000000000000000000e+00
1.242000000000000000e+03,-6.059009287018042311e-01,0.000000000000000000e+00
1.243000000000000000e+03,-6.026697753373827515e-01,0.000000000000000000e+00
1.244000000000000000e+03,-5.027592242167280290e-01,0.000000000000000000e+00
1.245000000000000000e+03,-2.856669263158849170e-01,0.000000000000000000e+00
1.246000000000000000e+03,-2.826002697448192214e-01,0.000000000000000000e+00
1.247000000000000000e+03,-2.996550966904491103e-02,0.000000000000000000e+00
1.248000000000000000e+03,-1.658892124897208276e-01,0.000000000000000000e+00
1.249000000000000000e+03,6.313285680226737862e-02,0.000000000000000000e+00
1.250000000000000000e+03,6.320536196570716303e-01,0.000000000000000000e+00
1.251000000000000000e+03,3.569851443011067826e-01,0.000000000000000000e+00
1.252000000000000000e+03,-2.304548837969451203e-01,0.000000000000000000e+00
1.253000000000000000e+03,-1.076012160785326521e-01,0.000000000000000000e+00
1.254000000000000000e+03,-1.952994465536395108e-01,0.000000000000000000e+00
1.255000000000000000e+03,5.206263192938023199e-01,0.000000000000000000e+00
1.256000000000000000e+03,2.229893015132764500e-01,0.000000000000000000e+00
1.257000000000000000e+03,1.080696489739528809e+00,0.000000000000000000e+00
1.258000000000000000e+03,3.415825009255729849e+00,0.000000000000000000e+00
1.259000000000000000e+03,-3.500554677334808407e-01,1.000000000000000000e+00
1.260000000000000000e+03,5.213785877213076292e-01,0.000000000000000000e+00
1.261000000000000000e+03,1.100696553056679378e-01,0.000000000000000000e+00
1.262000000000000000e+03,-1.434797213128109761e-01,0.000000000000000000e+00
1.263000000000000000e+03,2.111123998724195316e-01,0.000000000000000000e+00
1.264000000000000000e+03,2.202888988821083416e-01,0.000000000000000000e+00
1.265000000000000000e+03,4.655861549366785979e-01,0.000000000000000000e+00
1.266000000000000000e+03,2.772170096915323456e-01,0.000000000000000000e+00
1.267000000000000000e+03,5.410288070755624457e-01,0.000000000000000000e+00
1.268000000000000000e+03,6.066648867520447741e-01,0.000000000000000000e+00
1.269000000000000000e+03,9.734121397575049572e-01,0.000000000000000000e+00
1.270000000000000000e+03,1.138537877667293197e+00,0.000000000000000000e+00
1.271000000000000000e+03,1.741906542662456037e+00,0.000000000000000000e+00
1.272000000000000000e+03,1.576150754851764590e+00,0.000000000000000000e+00
1.273000000000000000e+03,1.812930145131763204e+00,0.000000000000000000e+00
1.274000000000000000e+03,3.585505570795778918e-01,0.000000000000000000e+00
1.275000000000000000e+03,-7.234412099282858666e-01,0.000000000000000000e+00
1.276000000000000000e+03,-1.464311351940902783e+00,0.000000000000000000e+00
1.277000000000000000e+03,-1.406216613997160358e+00,0.000000000000000000e+00
1.278000000000000000e+03,-1.617701355870575952e+00,0.000000000000000000e+00
1.279000000000000000e+03,-1.397801064759372824e+00,0.000000000000000000e+00
1.280000000000000000e+03,-1.230397970826578868e+00,0.000000000000000000e+00
1.281000000000000000e+03,-8.405522617374021621e-01,0.000000000000000000e+00
1.282000000000000000e+03,-1.028513832613186851e+00,0.000000000000000000e+00
1.283000000000000000e+03,-4.746407315782999459e-01,0.000000000000000000e+00
1.284000000000000000e+03,-8.701757469589637140e-01,0.000000000000000000e+00
1.285000000000000000e+03,-4.900797507198933478e-01,0.000000000000000000e+00
1.286000000000000000e+03,-3.085572743005646768e-01,0.000000000000000000e+00
1.287000000000000000e+03,-4.758671276504400360e-01,0.000000000000000000e+00
1.288000000000000000e+03,-6.591567019375370595e-01,0.000000000000000000e+00
1.289000000000000000e+03,-2.291448646241646125e-01,0.000000000000000000e+00
1.290000000000000000e+03,-3.715270335458321638e-01,0.000000000000000000e+00
1.291000000000000000e+03,-5.772029458671738000e-01,0.000000000000000000e+00
1.292000000000000000e+03,4.200635298234427495e-01,0.000000000000000000e+00
1.293000000000000000e+03,-1.809901109162781740e-01,0.000000000000000000e+00
1.294000000000000000e+03,4.299413411783775119e-01,0.000000000000000000e+00
1.295000000000000000e+03,2.306301670600363063e-01,0.000000000000000000e+00
1.296000000000000000e+03,-2.131056871999714442e-01,0.000000000000000000e+00
1.297000000000000000e+03,-1.493796919302975701e-01,0.000000000000000000e+00
1.298000000000000000e+03,-3.303324316125657578e-01,0.000000000000000000e+00
1.299000000000000000e+03,-2.431158231993961819e-02,0.000000000000000000e+00
1.300000000000000000e+03,-1.299574756384423158e-01,0.000000000000000000e+00
1.301000000000000000e+03,3.370861491810824284e-01,0.000000000000000000e+00
1.302000000000000000e+03,3.852602734557868835e+00,0.000000000000000000e+00
1.303000000000000000e+03,-2.613180920867984036e-01,1.000000000000000000e+00
1.304000000000000000e+03,-4.523038487411594755e-01,0.000000000000000000e+00
1.305000000000000000e+03,-3.237492776924439930e-01,0.000000000000000000e+00
1.306000000000000000e+03,-5.589450998516607566e-02,0.000000000000000000e+00
1.307000000000000000e+03,-9.158953838431645178e-02,0.000000000000000000e+00
1.308000000000000000e+03,3.372667787453944438e-02,0.000000000000000000e+00
1.309000000000000000e+03,1.634784710164580990e-01,0.000000000000000000e+00
1.310000000000000000e+03,1.392349309980164818e-01,0.000000000000000000e+00
1.311000000000000000e+03,1.778679891734054677e-02,0.000000000000000000e+00
1.312000000000000000e+03,6.962865295288320766e-01,0.000000000000000000e+00
1.313000000000000000e+03,8.173790686733104494e-01,0.000000000000000000e+00
1.314000000000000000e+03,1.380690139615323941e+00,0.000000000000000000e+00
1.315000000000000000e+03,1.533453064291524059e+00,0.000000000000000000e+00
1.316000000000000000e+03,1.529570886830248000e+00,0.000000000000000000e+00
1.317000000000000000e+03,1.681551285953923225e+00,0.000000000000000000e+00
1.318000000000000000e+03,3.251072865648516608e-01,0.000000000000000000e+00
1.319000000000000000e+03,-4.331281438647415216e-01,0.000000000000000000e+00
1.320000000000000000e+03,-1.334694567265934495e+00,0.000000000000000000e+00
1.321000000000000000e+03,-1.544933166921288459e+00,0.000000000000000000e+00
1.322000000000000000e+03,-1.819757417832437829e+00,0.000000000000000000e+00
1.323000000000000000e+03,-1.483307159510963924e+00,0.000000000000000000e+00
1.324000000000000000e+03,-1.261094245786149592e+00,0.000000000000000000e+00
1.325000000000000000e+03,-9.195960639803602010e-01,0.000000000000000000e+00
1.326000000000000000e+03,-8.912762629024360006e-01,0.000000000000000000e+00
1.327000000000000000e+03,-8.126753798510450988e-01,0.000000000000000000e+00
1.328000000000000000e+03,-1.155703050931672360e+00,0.000000000000000000e+00
1.329000000000000000e+03,-2.269476632962330598e-01,0.000000000000000000e+00
1.330000000000000000e+03,-7.820439782009579455e-01,0.000000000000000000e+00
1.331000000000000000e+03,-2.997348669173671709e-01,0.000000000000000000e+00
1.332000000000000000e+03,-2.905160228771659359e-01,0.000000000000000000e+00
1.333000000000000000e+03,-3.834778052186395003e-01,0.000000000000000000e+00
1.334000000000000000e+03,-2.527757939595552394e-01,0.000000000000000000e+00
1.335000000000000000e+03,-9.818514567277659977e-02,0.000000000000000000e+00
1.336000000000000000e+03,-1.361813018385539531e-01,0.000000000000000000e+00
1.337000000000000000e+03,8.600201300724115427e-02,0.000000000000000000e+00
1.338000000000000000e+03,2.653738075019083063e-03,0.000000000000000000e+00
1.339000000000000000e+03,4.890128901682005980e-01,0.000000000000000000e+00
1.340000000000000000e+03,3.656876206217330449e-01,0.000000000000000000e+00
1.341000000000000000e+03,4.181863126962885313e-01,0.000000000000000000e+00
1.342000000000000000e+03,-3.255276422826401395e-01,0.000000000000000000e+00
1.343000000000000000e+03,-1.794459986563719522e-01,0.000000000000000000e+00
1.344000000000000000e+03,-1.046332876389131222e-01,0.000000000000000000e+00
1.345000000000000000e+03,5.990499674712833622e-01,0.000000000000000000e+00
1.346000000000000000e+03,-3.734920470851725849e-01,0.000000000000000000e+00
1.347000000000000000e+03,3.508318283097922929e+00,0.000000000000000000e+00
1.348000000000000000e+03,1.548600282604765788e+00,1.000000000000000000e+00
1.349000000000000000e+03,-8.902609914419700177e-01,0.000000000000000000e+00
1.350000000000000000e+03,4.327500203541258528e-01,0.000000000000000000e+00
1.351000000000000000e+03,-3.590454486452870353e-01,0.000000000000000000e+00
1.352000000000000000e+03,2.818559110062329176e-01,0.000000000000000000e+00
1.353000000000000000e+03,6.137191847025980345e-04,0.000000000000000000e+00
1.354000000000000000e+03,1.264847561816509480e-01,0.000000000000000000e+00
1.355000000000000000e+03,5.141337727985864081e-01,0.000000000000000000e+00
1.356000000000000000e+03,2.380033007404309675e-01,0.000000000000000000e+00
1.357000000000000000e+03,6.208030034456006874e-01,0.000000000000000000e+00
1.358000000000000000e+03,8.107969952534019864e-01,0.000000000000000000e+00
1.359000000000000000e+03,9.692343530440440391e-01,0.000000000000000000e+00
1.360000000000000000e+03,1.430137264969289612e+00,0.000000000000000000e+00
1.361000000000000000e+03,1.772030319335433424e+00,0.000000000000000000e+00
1.362000000000000000e+03,1.941685061146554814e+00,0.000000000000000000e+00
1.363000000000000000e+03,8.442736476695128500e-01,0.000000000000000000e+00
1.364000000000000000e+03,-3.915553854218609131e-01,0.000000000000000000e+00
1.365000000000000000e+03,-1.185355908848670481e+00,0.000000000000000000e+00
1.366000000000000000e+03,-1.510044466693045928e+00,0.000000000000000000e+00
1.367000000000000000e+03,-1.715548370915328080e+00,0.000000000000000000e+00
1.368000000000000000e+03,-1.435566882749113926e+00,0.000000000000000000e+00
1.369000000000000000e+03,-1.153039116454374069e+00,0.000000000000000000e+00
1.370000000000000000e+03,-1.071338785601303023e+00,0.000000000000000000e+00
1.371000000000000000e+03,-9.349629302532019848e-01,0.000000000000000000e+00
1.372000000000000000e+03,-9.045091131409768170e-01,0.000000000000000000e+00
1.373000000000000000e+03,-9.290196210155485801e-01,0.000000000000000000e+00
1.374000000000000000e+03,-1.544258107407836256e-01,0.000000000000000000e+00
1.375000000000000000e+03,-9.381953503245447079e-01,0.000000000000000000e+00
1.376000000000000000e+03,1.149210005864720052e-01,0.000000000000000000e+00
1.377000000000000000e+03,-5.451555369416327679e-01,0.000000000000000000e+00
1.378000000000000000e+03,-4.760403330543810929e-01,0.000000000000000000e+00
1.379000000000000000e+03,-2.896865115177853500e-01,0.000000000000000000e+00
1.380000000000000000e+03,-1.091292523295771394e-01,0.000000000000000000e+00
1.381000000000000000e+03,-5.128650864070886939e-02,0.000000000000000000e+00
1.382000000000000000e+03,-6.163642462707099451e-02,0.000000000000000000e+00
1.383000000000000000e+03,-5.800882112358539400e-02,0.000000000000000000e+00
1.384000000000000000e+03,7.119807836438445392e-01,0.000000000000000000e+00
1.385000000000000000e+03,7.398381317219168141e-01,0.000000000000000000e+00
1.386000000000000000e+03,1.505566263857549547e-01,0.000000000000000000e+00
1.387000000000000000e+03,1.944876594101597744e-01,0.000000000000000000e+00
1.388000000000000000e+03,1.014970610821971236e-02,0.000000000000000000e+00
1.389000000000000000e+03,2.079432340785614119e-01,0.000000000000000000e+00
1.390000000000000000e+03,1.743615640556666069e-01,0.000000000000000000e+00
1.391000000000000000e+03,-4.032545167477963877e-01,0.000000000000000000e+00
1.392000000000000000e+03,1.018958988462922877e+00,0.000000000000000000e+00
1.393000000000000000e+03,3.941331969164979743e+00,0.000000000000000000e+00
1.394000000000000000e+03,-4.156677288133764359e-01,1.000000000000000000e+00
1.395000000000000000e+03,-1.240679119701229433e-01,0.000000000000000000e+00
1.396000000000000000e+03,-3.270424257813551172e-01,0.000000000000000000e+00
1.397000000000000000e+03,-3.750410156097845893e-01,0.000000000000000000e+00
1.398000000000000000e+03,4.118383575107252281e-01,0.000000000000000000e+00
1.399000000000000000e+03,9.100092007943978711e-02,0.000000000000000000e+00
1.400000000000000000e+03,-7.255296314105785793e-02,0.000000000000000000e+00
1.401000000000000000e+03,3.629067529608837606e-01,0.000000000000000000e+00
1.402000000000000000e+03,2.994258919555178311e-01,0.000000000000000000e+00
1.403000000000000000e+03,9.676257612237196826e-01,0.000000000000000000e+00
1.404000000000000000e+03,8.862522211107346504e-01,0.000000000000000000e+00
1.405000000000000000e+03,1.101413705776718155e+00,0.000000000000000000e+00
1.406000000000000000e+03,1.225574202963861437e+00,0.000000000000000000e+00
1.407000000000000000e+03,2.098786158334699170e+00,0.000000000000000000e+00
1.408000000000000000e+03,1.800403603160476651e+00,0.000000000000000000e+00
1.409000000000000000e+03,6.039531399513949905e-01,0.000000000000000000e+00
1.410000000000000000e+03,-5.591931356077761706e-01,0.000000000000000000e+00
1.411000000000000000e+03,-1.405773537121671746e+00,0.000000000000000000e+00
1.412000000000000000e+03,-1.595676043051226012e+00,0.000000000000000000e+00
1.413000000000000000e+03,-1.700722279729608433e+00,0.000000000000000000e+00
1.414000000000000000e+03,-1.178373285815302651e+00,0.000000000000000000e+00
1.415000000000000000e+03,-1.301093013783270136e+00,0.000000000000000000e+00
1.416000000000000000e+03,-8.511634670871480735e-01,0.000000000000000000e+00
1.417000000000000000e+03,-1.401375170623156752e+00,0.000000000000000000e+00
1.418000000000000000e+03,-3.577532336454644080e-01,0.000000000000000000e+00
1.419000000000000000e+03,-7.492855488376498618e-01,0.000000000000000000e+00
1.420000000000000000e+03,-6.753944756699282737e-01,0.000000000000000000e+00
1.421000000000000000e+03,-6.271545864984322538e-01,0.000000000000000000e+00
1.422000000000000000e+03,-5.269899150976410374e-01,0.000000000000000000e+00
1.423000000000000000e+03,-3.407235594072362539e-01,0.000000000000000000e+00
1.424000000000000000e+03,-3.916984274262773624e-01,0.000000000000000000e+00
1.425000000000000000e+03,-2.175779810260522473e-01,0.000000000000000000e+00
1.426000000000000000e+03,-1.394222558178332405e-01,0.000000000000000000e+00
1.427000000000000000e+03,1.536687935060987997e-01,0.000000000000000000e+00
1.428000000000000000e+03,3.397746418833103715e-02,0.000000000000000000e+00
1.429000000000000000e+03,1.260858546181487516e-01,0.000000000000000000e+00
1.430000000000000000e+03,-2.108422270301742452e-01,0.000000000000000000e+00
1.431000000000000000e+03,-1.826330312661640365e-01,0.000000000000000000e+00
1.432000000000000000e+03,-4.727229847145861807e-01,0.000000000000000000e+00
1.433000000000000000e+03,1.538347626235450072e-01,0.000000000000000000e+00
1.434000000000000000e+03,-5.561111304122851040e-01,0.000000000000000000e+00
1.435000000000000000e+03,2.020397065626970967e+00,0.000000000000000000e+00
1.436000000000000000e+03,2.727000409208048648e+00,0.000000000000000000e+00
1.437000000000000000e+03,-1.264620122128462754e+00,1.000000000000000000e+00
1.438000000000000000e+03,3.510494119563842275e-01,0.000000000000000000e+00
1.439000000000000000e+03,-7.031800142734079273e-01,0.000000000000000000e+00
1.440000000000000000e+03,6.940088247210985939e-01,0.000000000000000000e+00
1.441000000000000000e+03,-1.747091736585323074e-01,0.000000000000000000e+00
1.442000000000000000e+03,2.353877319788524047e-01,0.000000000000000000e+00
1.443000000000000000e+03,1.546247131843737077e-01,0.000000000000000000e+00
1.444000000000000000e+03,2.127297170708022933e-01,0.000000000000000000e+00
1.445000000000000000e+03,5.308630081787075738e-01,0.000000000000000000e+00
1.446000000000000000e+03,1.280939925968834991e+00,0.000000000000000000e+00
1.447000000000000000e+03,7.662650569239599641e-01,0.000000000000000000e+00
1.448000000000000000e+03,1.338017754851808849e+00,0.000000000000000000e+00
1.449000000000000000e+03,1.708162279623299362e+00,0.000000000000000000e+00
1.450000000000000000e+03,1.810892247727469817e+00,0.000000000000000000e+00
1.451000000000000000e+03,1.533006369443242756e+00,0.000000000000000000e+00
1.452000000000000000e+03,4.863601298990489763e-01,0.000000000000000000e+00
1.453000000000000000e+03,-1.388364029111520237e+00,0.000000000000000000e+00
1.454000000000000000e+03,-1.716687230590641988e+00,0.000000000000000000e+00
1.455000000000000000e+03,-1.320948120166879125e+00,0.000000000000000000e+00
1.456000000000000000e+03,-1.634024105625840884e+00,0.000000000000000000e+00
1.457000000000000000e+03,-1.341969333180475621e+00,0.000000000000000000e+00
1.458000000000000000e+03,-1.267788106697951500e+00,0.000000000000000000e+00
1.459000000000000000e+03,-7.576569710130163227e-01,0.000000000000000000e+00
1.460000000000000000e+03,-9.281867873419802351e-01,0.000000000000000000e+00
1.461000000000000000e+03,-7.540802510671151815e-01,0.000000000000000000e+00
1.462000000000000000e+03,-6.524835100186018311e-01,0.000000000000000000e+00
1.463000000000000000e+03,-5.677875172546456017e-01,0.000000000000000000e+00
1.464000000000000000e+03,-3.403939278858502671e-01,0.000000000000000000e+00
1.465000000000000000e+03,-6.000862680682180761e-01,0.000000000000000000e+00
1.466000000000000000e+03,-6.280543637466945439e-02,0.000000000000000000e+00
1.467000000000000000e+03,-4.202258099881737707e-01,0.000000000000000000e+00
1.468000000000000000e+03,3.212107519966058700e-01,0.000000000000000000e+00
1.469000000000000000e+03,-2.240906386396815941e-01,0.000000000000000000e+00
1.470000000000000000e+03,-2.278416485479649659e-03,0.000000000000000000e+00
1.471000000000000000e+03,-1.938897677403732533e-01,0.000000000000000000e+00
1.472000000000000000e+03,-2.363375716163142737e-01,0.000000000000000000e+00
1.473000000000000000e+03,-4.982698547402605316e-01,0.000000000000000000e+00
1.474000000000000000e+03,1.306414673825291306e-01,0.000000000000000000e+00
1.475000000000000000e+03,-8.580061509100951611e-02,0.000000000000000000e+00
1.476000000000000000e+03,2.188167294762441983e+00,0.000000000000000000e+00
1.477000000000000000e+03,2.029468322873953401e+00,1.000000000000000000e+00
1.478000000000000000e+03,-1.078586920094885437e+00,0.000000000000000000e+00
1.479000000000000000e+03,1.945172781303003973e-01,0.000000000000000000e+00
1.480000000000000000e+03,-1.988256122233295897e-01,0.000000000000000000e+00
1.481000000000000000e+03,2.385614714579322171e-01,0.000000000000000000e+00
1.482000000000000000e+03,-2.866974487468799682e-01,0.000000000000000000e+00
1.483000000000000000e+03,2.111941019793576735e-01,0.000000000000000000e+00
1.484000000000000000e+03,1.107741233457777974e-01,0.000000000000000000e+00
1.485000000000000000e+03,1.959867046333954241e-02,0.000000000000000000e+00
1.486000000000000000e+03,6.193050233430779095e-01,0.000000000000000000e+00
1.487000000000000000e+03,9.068242597886725376e-01,0.000000000000000000e+00
1.488000000000000000e+03,8.367212911126503672e-01,0.000000000000000000e+00
1.489000000000000000e+03,1.505747758117816693e+00,0.000000000000000000e+00
1.490000000000000000e+03,1.734268021265161330e+00,0.000000000000000000e+00
1.491000000000000000e+03,1.757846030666135428e+00,0.000000000000000000e+00
1.492000000000000000e+03,1.398093000624035076e+00,0.000000000000000000e+00
1.493000000000000000e+03,9.275725821536483229e-02,0.000000000000000000e+00
1.494000000000000000e+03,-7.832828327027316906e-01,0.000000000000000000e+00
1.495000000000000000e+03,-1.644479336551006865e+00,0.000000000000000000e+00
1.496000000000000000e+03,-1.266606967032681830e+00,0.000000000000000000e+00
1.497000000000000000e+03,-1.479758891307550783e+00,0.000000000000000000e+00
1.498000000000000000e+03,-1.026983586556100114e+00,0.000000000000000000e+00
1.499000000000000000e+03,-7.458181482104551119e-01,0.000000000000000000e+00
1.500000000000000000e+03,-7.074375553856615539e-01,0.000000000000000000e+00
1.501000000000000000e+03,-1.091427557458826358e+00,0.000000000000000000e+00
1.502000000000000000e+03,-7.205808031571483419e-01,0.000000000000000000e+00
1.503000000000000000e+03,-3.955623274946733492e-01,0.000000000000000000e+00
1.504000000000000000e+03,-1.726593801811698581e-01,0.000000000000000000e+00
1.505000000000000000e+03,-2.885822893742637785e-01,0.000000000000000000e+00
1.506000000000000000e+03,-3.533133023277391649e-01,0.000000000000000000e+00
1.507000000000000000e+03,-4.930547495758040855e-01,0.000000000000000000e+00
1.508000000000000000e+03,-2.157474498077135983e-01,0.000000000000000000e+00
1.509000000000000000e+03,2.385751610867489214e-01,0.000000000000000000e+00
1.510000000000000000e+03,1.901886609803768169e-01,0.000000000000000000e+00
1.511000000000000000e+03,2.550913846460444723e-01,0.000000000000000000e+00
1.512000000000000000e+03,-5.606901595185739134e-02,0.000000000000000000e+00
1.513000000000000000e+03,-2.012915897722433733e-01,0.000000000000000000e+00
1.514000000000000000e+03,7.779238924971090818e-02,0.000000000000000000e+00
1.515000000000000000e+03,5.699200192449508338e-03,0.000000000000000000e+00
1.516000000000000000e+03,3.949661828418538079e-02,0.000000000000000000e+00
1.517000000000000000e+03,3.038670217327738010e-01,0.000000000000000000e+00
1.518000000000000000e+03,3.138701130747004076e+00,0.000000000000000000e+00
1.519000000000000000e+03,9.980260468323389755e-01,1.000000000000000000e+00
1.520000000000000000e+03,-7.538193147787741744e-01,0.000000000000000000e+00
1.521000000000000000e+03,3.613696018240739050e-01,0.000000000000000000e+00
1.522000000000000000e+03,-1.087770130007826158e-01,0.000000000000000000e+00
1.523000000000000000e+03,1.774985357156733945e-01,0.000000000000000000e+00
1.524000000000000000e+03,-2.683317935560474710e-01,0.000000000000000000e+00
1.525000000000000000e+03,3.842942723813614347e-01,0.000000000000000000e+00
1.526000000000000000e+03,1.246094774964672663e-01,0.000000000000000000e+00
1.527000000000000000e+03,6.670713208756788859e-01,0.000000000000000000e+00
1.528000000000000000e+03,4.483398129581375735e-01,0.000000000000000000e+00
1.529000000000000000e+03,7.773870448844101277e-01,0.000000000000000000e+00
1.530000000000000000e+03,9.316313831131963763e-01,0.000000000000000000e+00
1.531000000000000000e+03,1.650145518823208368e+00,0.000000000000000000e+00
1.532000000000000000e+03,1.910270300073258598e+00,0.000000000000000000e+00
1.533000000000000000e+03,2.015557299030271032e+00,0.000000000000000000e+00
1.534000000000000000e+03,8.703218174257163486e-01,0.000000000000000000e+00
1.535000000000000000e+03,-4.094354452828333213e-01,0.000000000000000000e+00
1.536000000000000000e+03,-9.790882066002855044e-01,0.000000000000000000e+00
1.537000000000000000e+03,-1.453398851271156866e+00,0.000000000000000000e+00
1.538000000000000000e+03,-1.419119768658916758e+00,0.000000000000000000e+00
1.539000000000000000e+03,-1.336763078201479216e+00,0.000000000000000000e+00
1.540000000000000000e+03,-1.235168313593998146e+00,0.000000000000000000e+00
1.541000000000000000e+03,-8.144466579281381957e-01,0.000000000000000000e+00
1.542000000000000000e+03,-7.801769941046656776e-01,0.000000000000000000e+00
1.543000000000000000e+03,-7.615364490080358539e-01,0.000000000000000000e+00
1.544000000000000000e+03,-7.607739734529614939e-01,0.000000000000000000e+00
1.545000000000000000e+03,-4.507886442350126921e-01,0.000000000000000000e+00
1.546000000000000000e+03,-1.597441143388243501e-01,0.000000000000000000e+00
1.547000000000000000e+03,-6.205182183781673411e-01,0.000000000000000000e+00
1.548000000000000000e+03,-3.041813263192902350e-01,0.000000000000000000e+00
1.549000000000000000e+03,-5.413230484157175448e-01,0.000000000000000000e+00
1.550000000000000000e+03,1.816355642278990601e-01,0.000000000000000000e+00
1.551000000000000000e+03,-2.299042624427432083e-02,0.000000000000000000e+00
1.552000000000000000e+03,2.857531470479823255e-01,0.000000000000000000e+00
1.553000000000000000e+03,-1.240677452998242662e-02,0.000000000000000000e+00
1.554000000000000000e+03,4.692524238142885551e-01,0.000000000000000000e+00
1.555000000000000000e+03,-7.726607334783236469e-02,0.000000000000000000e+00
1.556000000000000000e+03,9.575844766869829813e-03,0.000000000000000000e+00
1.557000000000000000e+03,-1.334767173062256229e-01,0.000000000000000000e+00
1.558000000000000000e+03,-2.276227397018063259e-01,0.000000000000000000e+00
1.559000000000000000e+03,1.839359422228422913e-01,0.000000000000000000e+00
1.560000000000000000e+03,3.735906164353384740e-01,0.000000000000000000e+00
1.561000000000000000e+03,3.851343426543719417e+00,0.000000000000000000e+00
1.562000000000000000e+03,-1.408699399061567881e-01,1.000000000000000000e+00
1.563000000000000000e+03,-3.771765270897874944e-01,0.000000000000000000e+00
1.564000000000000000e+03,-1.870458692584866800e-01,0.000000000000000000e+00
1.565000000000000000e+03,-6.035750905238002062e-01,0.000000000000000000e+00
1.566000000000000000e+03,3.191302181533219318e-01,0.000000000000000000e+00
1.567000000000000000e+03,-2.867276737321248214e-01,0.000000000000000000e+00
1.568000000000000000e+03,4.105168028463318519e-01,0.000000000000000000e+00
1.569000000000000000e+03,-1.214721690045497291e-03,0.000000000000000000e+00
1.570000000000000000e+03,3.487156641067233886e-01,0.000000000000000000e+00
1.571000000000000000e+03,5.502169113554575830e-01,0.000000000000000000e+00
1.572000000000000000e+03,5.251824120538569618e-01,0.000000000000000000e+00
1.573000000000000000e+03,1.212206895921953853e+00,0.000000000000000000e+00
1.574000000000000000e+03,1.343183451505402193e+00,0.000000000000000000e+00
1.575000000000000000e+03,1.727286570650210296e+00,0.000000000000000000e+00
1.576000000000000000e+03,1.626460014019148304e+00,0.000000000000000000e+00
1.577000000000000000e+03,3.185345702393746481e-01,0.000000000000000000e+00
1.578000000000000000e+03,-6.396308283064855438e-01,0.000000000000000000e+00
1.579000000000000000e+03,-1.502275498363107475e+00,0.000000000000000000e+00
1.580000000000000000e+03,-1.585328727240329805e+00,0.000000000000000000e+00
1.581000000000000000e+03,-1.492931040134443998e+00,0.000000000000000000e+00
1.582000000000000000e+03,-1.565980132083062637e+00,0.000000000000000000e+00
1.583000000000000000e+03,-1.287122677298998763e+00,0.000000000000000000e+00
1.584000000000000000e+03,-8.729240491923789813e-01,0.000000000000000000e+00
1.585000000000000000e+03,-9.385742268584090775e-01,0.000000000000000000e+00
1.586000000000000000e+03,-6.612744590707358983e-01,0.000000000000000000e+00
