timestamp,ecg_measurement,qrs_detected
0.000000000000000000e+00,4.587615214776145089e-01,0.000000000000000000e+00
1.000000000000000000e+00,3.228255915977891188e-01,0.000000000000000000e+00
2.000000000000000000e+00,7.940136707757834422e-01,0.000000000000000000e+00
3.000000000000000000e+00,8.243947263114361768e-01,0.000000000000000000e+00
4.000000000000000000e+00,7.733207922694707026e-01,0.000000000000000000e+00
5.000000000000000000e+00,9.342675967598241815e-01,0.000000000000000000e+00
6.000000000000000000e+00,1.376228997901755680e+00,0.000000000000000000e+00
7.000000000000000000e+00,1.400662346280243220e+00,0.000000000000000000e+00
8.000000000000000000e+00,1.603200103557321565e+00,0.000000000000000000e+00
9.000000000000000000e+00,1.841347067664203419e+00,0.000000000000000000e+00
1.000000000000000000e+01,8.148567494240317455e-01,0.000000000000000000e+00
1.100000000000000000e+01,-4.942768239123875862e-01,0.000000000000000000e+00
1.200000000000000000e+01,-1.221803724583072182e+00,1.000000000000000000e+00
1.300000000000000000e+01,-1.442847917659965340e+00,0.000000000000000000e+00
1.400000000000000000e+01,-1.621072866440114391e+00,0.000000000000000000e+00
1.500000000000000000e+01,-1.459624064777713004e+00,0.000000000000000000e+00
1.600000000000000000e+01,-1.384140093390246795e+00,0.000000000000000000e+00
1.700000000000000000e+01,-1.409587003853903120e+00,0.000000000000000000e+00
1.800000000000000000e+01,-1.025776834960872907e+00,0.000000000000000000e+00
1.900000000000000000e+01,-1.101556211096022198e+00,0.000000000000000000e+00
2.000000000000000000e+01,-1.154790388860496675e+00,0.000000000000000000e+00
2.100000000000000000e+01,-1.014230878522420776e+00,0.000000000000000000e+00
2.200000000000000000e+01,-1.081743246389611501e+00,0.000000000000000000e+00
2.300000000000000000e+01,-5.503700573146638186e-01,0.000000000000000000e+00
2.400000000000000000e+01,-6.209010562119940957e-01,0.000000000000000000e+00
2.500000000000000000e+01,-7.373382776539434413e-01,0.000000000000000000e+00
2.600000000000000000e+01,-1.678340093252063403e-01,0.000000000000000000e+00
2.700000000000000000e+01,-6.791751137741052213e-01,0.000000000000000000e+00
2.800000000000000000e+01,-3.013347136317488517e-01,0.000000000000000000e+00
2.900000000000000000e+01,-1.219826191688009875e-01,0.000000000000000000e+00
3.000000000000000000e+01,-1.218713239849891772e-01,0.000000000000000000e+00
3.100000000000000000e+01,-1.591716775817458296e-01,0.000000000000000000e+00
3.200000000000000000e+01,2.063519606373412918e-01,0.000000000000000000e+00
3.300000000000000000e+01,5.296613574509508870e-01,0.000000000000000000e+00
3.400000000000000000e+01,3.995359992598884191e-01,0.000000000000000000e+00
3.500000000000000000e+01,1.353620440268033243e-01,0.000000000000000000e+00
3.600000000000000000e+01,-2.433191532092042753e-01,0.000000000000000000e+00
3.700000000000000000e+01,-3.112518393713102904e-01,0.000000000000000000e+00
3.800000000000000000e+01,5.707694264693696090e-02,0.000000000000000000e+00
3.900000000000000000e+01,-1.987100667586364777e-01,0.000000000000000000e+00
4.000000000000000000e+01,3.216239232953549410e-01,0.000000000000000000e+00
4.100000000000000000e+01,-1.061467159870252308e+00,0.000000000000000000e+00
4.200000000000000000e+01,3.054659012257784134e+00,0.000000000000000000e+00
4.300000000000000000e+01,1.337091763564751901e+00,1.000000000000000000e+00
4.400000000000000000e+01,-4.762452216054153808e-01,0.000000000000000000e+00
4.500000000000000000e+01,3.987057082998357038e-01,0.000000000000000000e+00
4.600000000000000000e+01,1.513217946361510302e-01,0.000000000000000000e+00
4.700000000000000000e+01,2.420699075246099397e-01,0.000000000000000000e+00
4.800000000000000000e+01,2.724974421239463249e-02,0.000000000000000000e+00
4.900000000000000000e+01,5.660114859377292085e-01,0.000000000000000000e+00
5.000000000000000000e+01,5.666049595727995492e-01,0.000000000000000000e+00
5.100000000000000000e+01,3.278708108328063919e-01,0.000000000000000000e+00
5.200000000000000000e+01,6.877322809042365481e-01,0.000000000000000000e+00
5.300000000000000000e+01,3.847649230951527555e-01,0.000000000000000000e+00
5.400000000000000000e+01,1.013774449305624659e+00,0.000000000000000000e+00
5.500000000000000000e+01,1.024587629594895466e+00,0.000000000000000000e+00
5.600000000000000000e+01,1.317141527997281569e+00,0.000000000000000000e+00
5.700000000000000000e+01,1.181036270150620515e+00,0.000000000000000000e+00
5.800000000000000000e+01,2.000533883937972490e+00,0.000000000000000000e+00
5.900000000000000000e+01,1.734516130643249276e+00,0.000000000000000000e+00
6.000000000000000000e+01,1.345790108583533540e+00,0.000000000000000000e+00
6.100000000000000000e+01,-1.729791330975492814e-01,0.000000000000000000e+00
6.200000000000000000e+01,-8.810156854085944289e-01,0.000000000000000000e+00
6.300000000000000000e+01,-1.548800612396898480e+00,0.000000000000000000e+00
6.400000000000000000e+01,-1.301312861774925667e+00,0.000000000000000000e+00
6.500000000000000000e+01,-1.186198176813092697e+00,0.000000000000000000e+00
6.600000000000000000e+01,-1.389365338048469845e+00,0.000000000000000000e+00
6.700000000000000000e+01,-1.230544751483991117e+00,0.000000000000000000e+00
6.800000000000000000e+01,-1.155612217693468891e+00,0.000000000000000000e+00
6.900000000000000000e+01,-9.618156111397402341e-01,0.000000000000000000e+00
7.000000000000000000e+01,-1.108687248094203603e+00,0.000000000000000000e+00
7.100000000000000000e+01,-7.445995445985151839e-01,0.000000000000000000e+00
7.200000000000000000e+01,-9.391512975652075434e-01,0.000000000000000000e+00
7.300000000000000000e+01,-7.044554432918749276e-01,0.000000000000000000e+00
7.400000000000000000e+01,-7.675354516728140064e-01,0.000000000000000000e+00
7.500000000000000000e+01,-6.901072784314655761e-01,0.000000000000000000e+00
7.600000000000000000e+01,-4.315624066305695505e-01,0.000000000000000000e+00
7.700000000000000000e+01,-4.422562617924136186e-01,0.000000000000000000e+00
7.800000000000000000e+01,-3.565802837653450630e-01,0.000000000000000000e+00
7.900000000000000000e+01,-4.257926023218693290e-01,0.000000000000000000e+00
8.000000000000000000e+01,-1.168123203155765032e-02,0.000000000000000000e+00
8.100000000000000000e+01,2.995517053836138088e-01,0.000000000000000000e+00
8.200000000000000000e+01,2.333745905915141361e-01,0.000000000000000000e+00
8.300000000000000000e+01,-2.126769798862490971e-02,0.000000000000000000e+00
8.400000000000000000e+01,-1.751300002068770789e-01,0.000000000000000000e+00
8.500000000000000000e+01,-4.368161228499435333e-01,0.000000000000000000e+00
8.600000000000000000e+01,2.292209615130733069e-02,0.000000000000000000e+00
8.700000000000000000e+01,-7.861130737739778496e-02,0.000000000000000000e+00
8.800000000000000000e+01,2.017716240388600646e-01,0.000000000000000000e+00
8.900000000000000000e+01,-8.169733885275183294e-01,0.000000000000000000e+00
9.000000000000000000e+01,8.287622773555349820e-01,0.000000000000000000e+00
9.100000000000000000e+01,2.955341013793288507e+00,0.000000000000000000e+00
9.200000000000000000e+01,-8.147358770895444247e-01,1.000000000000000000e+00
9.300000000000000000e+01,-2.060475929799906736e-01,0.000000000000000000e+00
9.400000000000000000e+01,7.716748198390015190e-02,0.000000000000000000e+00
9.500000000000000000e+01,4.973792364319787329e-01,0.000000000000000000e+00
9.600000000000000000e+01,3.565912873245467019e-01,0.000000000000000000e+00
9.700000000000000000e+01,6.905144192376490020e-01,0.000000000000000000e+00
9.800000000000000000e+01,6.337654817933193740e-01,0.000000000000000000e+00
9.900000000000000000e+01,7.370638913334662812e-01,0.000000000000000000e+00
1.000000000000000000e+02,6.830642779960464095e-01,0.000000000000000000e+00
1.010000000000000000e+02,8.769641557791590936e-01,0.000000000000000000e+00
1.020000000000000000e+02,9.750073164584003305e-01,0.000000000000000000e+00
1.030000000000000000e+02,1.032692056490538191e+00,0.000000000000000000e+00
1.040000000000000000e+02,1.375884411998683943e+00,0.000000000000000000e+00
1.050000000000000000e+02,1.538472032248283439e+00,0.000000000000000000e+00
1.060000000000000000e+02,1.985501186887990377e+00,0.000000000000000000e+00
1.070000000000000000e+02,1.808848262161877551e+00,0.000000000000000000e+00
1.080000000000000000e+02,1.700332414191756181e+00,0.000000000000000000e+00
1.090000000000000000e+02,6.386233773270347802e-01,0.000000000000000000e+00
1.100000000000000000e+02,-9.108871153613269378e-01,0.000000000000000000e+00
1.110000000000000000e+02,-1.351174486370904759e+00,0.000000000000000000e+00
1.120000000000000000e+02,-1.433473101719625165e+00,0.000000000000000000e+00
1.130000000000000000e+02,-1.527167800113732099e+00,0.000000000000000000e+00
1.140000000000000000e+02,-1.633234837025009600e+00,0.000000000000000000e+00
1.150000000000000000e+02,-1.314336762315243989e+00,0.000000000000000000e+00
1.160000000000000000e+02,-1.318627424487336830e+00,0.000000000000000000e+00
1.170000000000000000e+02,-1.204990144139421515e+00,0.000000000000000000e+00
1.180000000000000000e+02,-9.713041663582966390e-01,0.000000000000000000e+00
1.190000000000000000e+02,-1.063071743166460470e+00,0.000000000000000000e+00
1.200000000000000000e+02,-9.480354783734458168e-01,0.000000000000000000e+00
1.210000000000000000e+02,-1.069829763069696460e+00,0.000000000000000000e+00
1.220000000000000000e+02,-4.053592269005877324e-01,0.000000000000000000e+00
1.230000000000000000e+02,-9.826255141478532629e-01,0.000000000000000000e+00
1.240000000000000000e+02,-3.816219028170401151e-01,0.000000000000000000e+00
1.250000000000000000e+02,-6.247823157855865173e-01,0.000000000000000000e+00
1.260000000000000000e+02,-2.012457852074117926e-01,0.000000000000000000e+00
1.270000000000000000e+02,-3.233296139029970262e-01,0.000000000000000000e+00
1.280000000000000000e+02,-1.849766354981068062e-02,0.000000000000000000e+00
1.290000000000000000e+02,1.426230272700623469e-01,0.000000000000000000e+00
1.300000000000000000e+02,2.061173821630767067e-01,0.000000000000000000e+00
1.310000000000000000e+02,-5.789450619862153424e-02,0.000000000000000000e+00
1.320000000000000000e+02,-1.963433426852977948e-01,0.000000000000000000e+00
1.330000000000000000e+02,-5.448709364891022311e-01,0.000000000000000000e+00
1.340000000000000000e+02,8.401699609901851218e-02,0.000000000000000000e+00
1.350000000000000000e+02,-2.812183184388847845e-01,0.000000000000000000e+00
1.360000000000000000e+02,1.841035782863832126e-01,0.000000000000000000e+00
1.370000000000000000e+02,-1.009404232104187837e+00,0.000000000000000000e+00
1.380000000000000000e+02,1.572256051263894339e+00,0.000000000000000000e+00
1.390000000000000000e+02,2.495811445350163194e+00,0.000000000000000000e+00
1.400000000000000000e+02,-1.126258895789803205e+00,1.000000000000000000e+00
1.410000000000000000e+02,2.225628714634717009e-01,0.000000000000000000e+00
1.420000000000000000e+02,2.388074594766226855e-01,0.000000000000000000e+00
1.430000000000000000e+02,3.998330878402874822e-01,0.000000000000000000e+00
1.440000000000000000e+02,2.950954511200980512e-01,0.000000000000000000e+00
1.450000000000000000e+02,6.412089406401773051e-01,0.000000000000000000e+00
1.460000000000000000e+02,5.046636161280184663e-01,0.000000000000000000e+00
1.470000000000000000e+02,9.330581338387775592e-01,0.000000000000000000e+00
1.480000000000000000e+02,5.906919553913324572e-01,0.000000000000000000e+00
1.490000000000000000e+02,8.931940166528734570e-01,0.000000000000000000e+00
1.500000000000000000e+02,7.825413620208494514e-01,0.000000000000000000e+00
1.510000000000000000e+02,1.186502046824867707e+00,0.000000000000000000e+00
1.520000000000000000e+02,1.221000107468880325e+00,0.000000000000000000e+00
1.530000000000000000e+02,1.514972631456038332e+00,0.000000000000000000e+00
1.540000000000000000e+02,1.852055179393728546e+00,0.000000000000000000e+00
1.550000000000000000e+02,1.875833516175687832e+00,0.000000000000000000e+00
1.560000000000000000e+02,1.591625972459330907e+00,0.000000000000000000e+00
1.570000000000000000e+02,5.553171421262831364e-01,0.000000000000000000e+00
1.580000000000000000e+02,-7.281552766882264383e-01,0.000000000000000000e+00
1.590000000000000000e+02,-1.467959195652616788e+00,0.000000000000000000e+00
1.600000000000000000e+02,-1.237620811744846616e+00,0.000000000000000000e+00
1.610000000000000000e+02,-1.518720455826076510e+00,0.000000000000000000e+00
1.620000000000000000e+02,-1.217724107213932649e+00,0.000000000000000000e+00
1.630000000000000000e+02,-1.131988357566445558e+00,0.000000000000000000e+00
1.640000000000000000e+02,-1.330773914025693783e+00,0.000000000000000000e+00
1.650000000000000000e+02,-9.380467339115622361e-01,0.000000000000000000e+00
1.660000000000000000e+02,-1.038397805088831172e+00,0.000000000000000000e+00
1.670000000000000000e+02,-8.554264389176934325e-01,0.000000000000000000e+00
1.680000000000000000e+02,-8.291056868445844108e-01,0.000000000000000000e+00
1.690000000000000000e+02,-6.753787771595234357e-01,0.000000000000000000e+00
1.700000000000000000e+02,-7.291373264453179237e-01,0.000000000000000000e+00
1.710000000000000000e+02,-5.960791636821771711e-01,0.000000000000000000e+00
1.720000000000000000e+02,-3.319857464712941408e-01,0.000000000000000000e+00
1.730000000000000000e+02,-2.886239579598799398e-01,0.000000000000000000e+00
1.740000000000000000e+02,-3.531944651038721461e-01,0.000000000000000000e+00
1.750000000000000000e+02,-1.011863029356628307e-01,0.000000000000000000e+00
1.760000000000000000e+02,1.731376113452165744e-01,0.000000000000000000e+00
1.770000000000000000e+02,3.531358053292045773e-01,0.000000000000000000e+00
1.780000000000000000e+02,2.553944351443834804e-01,0.000000000000000000e+00
1.790000000000000000e+02,-8.016635941897245349e-03,0.000000000000000000e+00
1.800000000000000000e+02,-1.707379833768618016e-01,0.000000000000000000e+00
1.810000000000000000e+02,-1.739358882205481460e-01,0.000000000000000000e+00
1.820000000000000000e+02,-5.950599160959252863e-03,0.000000000000000000e+00
1.830000000000000000e+02,-3.116866336415785033e-01,0.000000000000000000e+00
1.840000000000000000e+02,2.320174224970821542e-01,0.000000000000000000e+00
1.850000000000000000e+02,-9.431257023229637770e-01,0.000000000000000000e+00
1.860000000000000000e+02,1.900018648108604324e+00,0.000000000000000000e+00
1.870000000000000000e+02,2.370570167377231918e+00,0.000000000000000000e+00
1.880000000000000000e+02,-6.997392363171348606e-01,1.000000000000000000e+00
1.890000000000000000e+02,4.604862537098044495e-01,0.000000000000000000e+00
1.900000000000000000e+02,-1.173564991258356505e-01,0.000000000000000000e+00
1.910000000000000000e+02,2.838164554838973896e-01,0.000000000000000000e+00
1.920000000000000000e+02,2.239990413736903940e-01,0.000000000000000000e+00
1.930000000000000000e+02,3.704644395610793284e-01,0.000000000000000000e+00
1.940000000000000000e+02,4.202667151235842669e-01,0.000000000000000000e+00
1.950000000000000000e+02,7.155421377234093550e-01,0.000000000000000000e+00
1.960000000000000000e+02,3.824672073807627304e-01,0.000000000000000000e+00
1.970000000000000000e+02,6.184689304613609773e-01,0.000000000000000000e+00
1.980000000000000000e+02,9.677093091745028186e-01,0.000000000000000000e+00
1.990000000000000000e+02,9.120940824620821230e-01,0.000000000000000000e+00
2.000000000000000000e+02,1.312416430660280353e+00,0.000000000000000000e+00
2.010000000000000000e+02,1.437695307941670109e+00,0.000000000000000000e+00
2.020000000000000000e+02,1.557540083305127832e+00,0.000000000000000000e+00
2.030000000000000000e+02,1.677198268756581401e+00,0.000000000000000000e+00
2.040000000000000000e+02,1.565265928355624059e+00,0.000000000000000000e+00
2.050000000000000000e+02,2.517797094229023425e-01,0.000000000000000000e+00
2.060000000000000000e+02,-9.060420132093753853e-01,0.000000000000000000e+00
2.070000000000000000e+02,-1.439039422715561400e+00,0.000000000000000000e+00
2.080000000000000000e+02,-1.633161021436845273e+00,0.000000000000000000e+00
2.090000000000000000e+02,-1.352510087764901003e+00,0.000000000000000000e+00
2.100000000000000000e+02,-1.578103878266243765e+00,0.000000000000000000e+00
2.110000000000000000e+02,-1.023271548512198148e+00,0.000000000000000000e+00
2.120000000000000000e+02,-1.127143583166738461e+00,0.000000000000000000e+00
2.130000000000000000e+02,-1.292264062488359011e+00,0.000000000000000000e+00
2.140000000000000000e+02,-1.175939434797244498e+00,0.000000000000000000e+00
2.150000000000000000e+02,-8.672163201888362094e-01,0.000000000000000000e+00
2.160000000000000000e+02,-8.589151132589462057e-01,0.000000000000000000e+00
2.170000000000000000e+02,-7.306440314673212644e-01,0.000000000000000000e+00
2.180000000000000000e+02,-4.917743886479363780e-01,0.000000000000000000e+00
2.190000000000000000e+02,-7.521470404463007631e-01,0.000000000000000000e+00
2.200000000000000000e+02,-6.175523894918891754e-01,0.000000000000000000e+00
2.210000000000000000e+02,-5.631056012059184601e-01,0.000000000000000000e+00
2.220000000000000000e+02,-2.240332057273643207e-01,0.000000000000000000e+00
2.230000000000000000e+02,-3.828744285626792254e-01,0.000000000000000000e+00
2.240000000000000000e+02,2.003842704952992770e-01,0.000000000000000000e+00
2.250000000000000000e+02,3.038590419436993928e-01,0.000000000000000000e+00
2.260000000000000000e+02,7.108915364467005560e-02,0.000000000000000000e+00
2.270000000000000000e+02,1.191746982768745744e-01,0.000000000000000000e+00
2.280000000000000000e+02,-2.196571495087915604e-01,0.000000000000000000e+00
2.290000000000000000e+02,-4.483203663508521508e-01,0.000000000000000000e+00
2.300000000000000000e+02,-7.214055570518319860e-02,0.000000000000000000e+00
2.310000000000000000e+02,-4.532863111620943353e-01,0.000000000000000000e+00
2.320000000000000000e+02,3.173358854017994668e-01,0.000000000000000000e+00
2.330000000000000000e+02,-1.277205160998044819e+00,0.000000000000000000e+00
2.340000000000000000e+02,1.905961217108809391e+00,0.000000000000000000e+00
2.350000000000000000e+02,2.553115523182696744e+00,0.000000000000000000e+00
2.360000000000000000e+02,-6.615471204842134911e-01,1.000000000000000000e+00
2.370000000000000000e+02,-1.625561517792406541e-01,0.000000000000000000e+00
2.380000000000000000e+02,9.191229346488072327e-02,0.000000000000000000e+00
2.390000000000000000e+02,5.760139881161678854e-01,0.000000000000000000e+00
2.400000000000000000e+02,2.679706082782024601e-01,0.000000000000000000e+00
2.410000000000000000e+02,4.163320813241195295e-01,0.000000000000000000e+00
2.420000000000000000e+02,5.253924183234918166e-01,0.000000000000000000e+00
2.430000000000000000e+02,6.123389686889771921e-01,0.000000000000000000e+00
2.440000000000000000e+02,6.962102390226577731e-01,0.000000000000000000e+00
2.450000000000000000e+02,9.537226670752296798e-01,0.000000000000000000e+00
2.460000000000000000e+02,6.414791202007572579e-01,0.000000000000000000e+00
2.470000000000000000e+02,1.115891486159038770e+00,0.000000000000000000e+00
2.480000000000000000e+02,1.290387143617232946e+00,0.000000000000000000e+00
2.490000000000000000e+02,1.632624442634692530e+00,0.000000000000000000e+00
2.500000000000000000e+02,2.004025208274060610e+00,0.000000000000000000e+00
2.510000000000000000e+02,1.761972971429244916e+00,0.000000000000000000e+00
2.520000000000000000e+02,1.593739116728698502e+00,0.000000000000000000e+00
2.530000000000000000e+02,1.916896432677217266e-01,0.000000000000000000e+00
2.540000000000000000e+02,-8.418250810013215846e-01,0.000000000000000000e+00
2.550000000000000000e+02,-1.230347005871128996e+00,0.000000000000000000e+00
2.560000000000000000e+02,-1.551514330196048563e+00,0.000000000000000000e+00
2.570000000000000000e+02,-1.497328513982364218e+00,0.000000000000000000e+00
2.580000000000000000e+02,-1.431874484849561924e+00,0.000000000000000000e+00
2.590000000000000000e+02,-1.182972534299300271e+00,0.000000000000000000e+00
2.600000000000000000e+02,-1.200001530685478324e+00,0.000000000000000000e+00
2.610000000000000000e+02,-1.168070206274679279e+00,0.000000000000000000e+00
2.620000000000000000e+02,-9.814176791992318405e-01,0.000000000000000000e+00
2.630000000000000000e+02,-1.003771373204531692e+00,0.000000000000000000e+00
2.640000000000000000e+02,-5.750152422186838308e-01,0.000000000000000000e+00
2.650000000000000000e+02,-7.738523124238768647e-01,0.000000000000000000e+00
2.660000000000000000e+02,-9.572700924314625492e-01,0.000000000000000000e+00
2.670000000000000000e+02,-4.977222272349685062e-01,0.000000000000000000e+00
2.680000000000000000e+02,-3.412321658587655349e-01,0.000000000000000000e+00
2.690000000000000000e+02,-2.747489458818668795e-01,0.000000000000000000e+00
2.700000000000000000e+02,-7.607399495608291318e-02,0.000000000000000000e+00
2.710000000000000000e+02,-3.028643739901121235e-02,0.000000000000000000e+00
2.720000000000000000e+02,1.179132097472419122e-01,0.000000000000000000e+00
2.730000000000000000e+02,1.126339803865011695e-02,0.000000000000000000e+00
2.740000000000000000e+02,-2.233132309006098937e-01,0.000000000000000000e+00
2.750000000000000000e+02,-5.578394067379560672e-01,0.000000000000000000e+00
2.760000000000000000e+02,-1.393996825867585831e-01,0.000000000000000000e+00
2.770000000000000000e+02,-4.432592349433462919e-01,0.000000000000000000e+00
2.780000000000000000e+02,1.579980943948285366e-01,0.000000000000000000e+00
2.790000000000000000e+02,-6.692871812651101093e-01,0.000000000000000000e+00
2.800000000000000000e+02,2.297564490152238736e+00,0.000000000000000000e+00
2.810000000000000000e+02,1.405301326401870332e+00,1.000000000000000000e+00
2.820000000000000000e+02,-1.601984072023207251e+00,0.000000000000000000e+00
2.830000000000000000e+02,2.060767782572403006e-01,0.000000000000000000e+00
2.840000000000000000e+02,5.332768612976545447e-02,0.000000000000000000e+00
2.850000000000000000e+02,6.809162403163149246e-01,0.000000000000000000e+00
2.860000000000000000e+02,3.457224513782910513e-01,0.000000000000000000e+00
2.870000000000000000e+02,4.302958146942503226e-01,0.000000000000000000e+00
2.880000000000000000e+02,6.509626110699446855e-01,0.000000000000000000e+00
2.890000000000000000e+02,7.757206641064193775e-01,0.000000000000000000e+00
2.900000000000000000e+02,8.522200764652457794e-01,0.000000000000000000e+00
2.910000000000000000e+02,8.487275757145610333e-01,0.000000000000000000e+00
2.920000000000000000e+02,1.076942261849168636e+00,0.000000000000000000e+00
2.930000000000000000e+02,1.047840764751915010e+00,0.000000000000000000e+00
2.940000000000000000e+02,1.471180858810423597e+00,0.000000000000000000e+00
2.950000000000000000e+02,1.948943768127539666e+00,0.000000000000000000e+00
2.960000000000000000e+02,1.667740556632426152e+00,0.000000000000000000e+00
2.970000000000000000e+02,1.983140154698618707e+00,0.000000000000000000e+00
2.980000000000000000e+02,1.402996989798557470e+00,0.000000000000000000e+00
2.990000000000000000e+02,-1.940416314856365787e-01,0.000000000000000000e+00
3.000000000000000000e+02,-1.306096194039169545e+00,0.000000000000000000e+00
3.010000000000000000e+02,-1.368601242576660271e+00,0.000000000000000000e+00
3.020000000000000000e+02,-1.462750305783096394e+00,0.000000000000000000e+00
3.030000000000000000e+02,-1.476786793794639285e+00,0.000000000000000000e+00
3.040000000000000000e+02,-1.310204507623802472e+00,0.000000000000000000e+00
3.050000000000000000e+02,-1.510154463283307935e+00,0.000000000000000000e+00
3.060000000000000000e+02,-1.100390923653869368e+00,0.000000000000000000e+00
3.070000000000000000e+02,-1.122875312268267534e+00,0.000000000000000000e+00
3.080000000000000000e+02,-8.455022095858858444e-01,0.000000000000000000e+00
3.090000000000000000e+02,-1.133051911224740138e+00,0.000000000000000000e+00
3.100000000000000000e+02,-7.351217578247447593e-01,0.000000000000000000e+00
3.110000000000000000e+02,-8.021048535837445037e-01,0.000000000000000000e+00
3.120000000000000000e+02,-7.433733284923669249e-01,0.000000000000000000e+00
3.130000000000000000e+02,-4.987235274458025058e-01,0.000000000000000000e+00
3.140000000000000000e+02,-5.050408521857064903e-01,0.000000000000000000e+00
3.150000000000000000e+02,-1.368406880816167015e-01,0.000000000000000000e+00
3.160000000000000000e+02,-1.414727554894656680e-01,0.000000000000000000e+00
3.170000000000000000e+02,3.920000611125671469e-02,0.000000000000000000e+00
3.180000000000000000e+02,2.785658044819610546e-01,0.000000000000000000e+00
3.190000000000000000e+02,-1.612538978486932895e-01,0.000000000000000000e+00
3.200000000000000000e+02,-1.396686324461120510e-01,0.000000000000000000e+00
3.210000000000000000e+02,-3.460439296689695188e-01,0.000000000000000000e+00
3.220000000000000000e+02,-8.562654296823522804e-02,0.000000000000000000e+00
3.230000000000000000e+02,-2.995112364636821622e-01,0.000000000000000000e+00
3.240000000000000000e+02,5.008362240883490815e-03,0.000000000000000000e+00
3.250000000000000000e+02,-6.318511884832107572e-01,0.000000000000000000e+00
3.260000000000000000e+02,9.563648868860408214e-01,0.000000000000000000e+00
3.270000000000000000e+02,2.655290820843394517e+00,0.000000000000000000e+00
3.280000000000000000e+02,-9.438743444889157175e-01,1.000000000000000000e+00
3.290000000000000000e+02,9.992261291682402735e-02,0.000000000000000000e+00
3.300000000000000000e+02,4.969237044320806013e-02,0.000000000000000000e+00
3.310000000000000000e+02,3.240531475584824128e-01,0.000000000000000000e+00
3.320000000000000000e+02,2.566572531310055694e-01,0.000000000000000000e+00
3.330000000000000000e+02,7.761213103724048379e-01,0.000000000000000000e+00
3.340000000000000000e+02,4.153705901315989935e-01,0.000000000000000000e+00
3.350000000000000000e+02,5.746943936231727612e-01,0.000000000000000000e+00
3.360000000000000000e+02,5.674878570731278771e-01,0.000000000000000000e+00
3.370000000000000000e+02,9.060484443817568012e-01,0.000000000000000000e+00
3.380000000000000000e+02,8.840766438861272780e-01,0.000000000000000000e+00
3.390000000000000000e+02,1.235113679919317642e+00,0.000000000000000000e+00
3.400000000000000000e+02,1.008521286601536948e+00,0.000000000000000000e+00
3.410000000000000000e+02,1.461340747688045338e+00,0.000000000000000000e+00
3.420000000000000000e+02,1.647078059646449821e+00,0.000000000000000000e+00
3.430000000000000000e+02,1.853946229637070564e+00,0.000000000000000000e+00
3.440000000000000000e+02,1.743207004337892885e+00,0.000000000000000000e+00
3.450000000000000000e+02,4.962482110459787710e-01,0.000000000000000000e+00
3.460000000000000000e+02,-7.595784774217348989e-01,0.000000000000000000e+00
3.470000000000000000e+02,-1.178381900947137684e+00,0.000000000000000000e+00
3.480000000000000000e+02,-1.723840146561347986e+00,0.000000000000000000e+00
3.490000000000000000e+02,-1.303886191284509000e+00,0.000000000000000000e+00
3.500000000000000000e+02,-1.065672727173209156e+00,0.000000000000000000e+00
3.510000000000000000e+02,-1.268509103394527493e+00,0.000000000000000000e+00
3.520000000000000000e+02,-1.052751696431273087e+00,0.000000000000000000e+00
3.530000000000000000e+02,-1.225757224352282737e+00,0.000000000000000000e+00
3.540000000000000000e+02,-9.605670718173286993e-01,0.000000000000000000e+00
3.550000000000000000e+02,-5.281205665213685174e-01,0.000000000000000000e+00
3.560000000000000000e+02,-7.585072659710679899e-01,0.000000000000000000e+00
3.570000000000000000e+02,-8.089092058155874509e-01,0.000000000000000000e+00
3.580000000000000000e+02,-7.733227942499992791e-01,0.000000000000000000e+00
3.590000000000000000e+02,-4.225403089906759058e-01,0.000000000000000000e+00
3.600000000000000000e+02,-3.069609827409875424e-01,0.000000000000000000e+00
3.610000000000000000e+02,-3.992807851708025102e-01,0.000000000000000000e+00
3.620000000000000000e+02,-2.524990877541208878e-01,0.000000000000000000e+00
3.630000000000000000e+02,-2.836222130630814964e-01,0.000000000000000000e+00
3.640000000000000000e+02,4.870183549538122103e-02,0.000000000000000000e+00
3.650000000000000000e+02,1.510433831930455273e-01,0.000000000000000000e+00
3.660000000000000000e+02,6.295267832555723198e-01,0.000000000000000000e+00
3.670000000000000000e+02,2.233160717301677645e-01,0.000000000000000000e+00
3.680000000000000000e+02,-1.160818616704664408e-01,0.000000000000000000e+00
3.690000000000000000e+02,-1.833178219966902223e-01,0.000000000000000000e+00
3.700000000000000000e+02,-8.500642572187050439e-02,0.000000000000000000e+00
3.710000000000000000e+02,-2.699991871822761680e-01,0.000000000000000000e+00
3.720000000000000000e+02,3.868231843536946157e-01,0.000000000000000000e+00
3.730000000000000000e+02,-4.044734684371981137e-01,0.000000000000000000e+00
3.740000000000000000e+02,2.302478636586018645e-01,0.000000000000000000e+00
3.750000000000000000e+02,3.358223430826227318e+00,0.000000000000000000e+00
3.760000000000000000e+02,3.932890303086553768e-02,1.000000000000000000e+00
3.770000000000000000e+02,-6.808921572477817652e-02,0.000000000000000000e+00
3.780000000000000000e+02,1.528963502359781956e-01,0.000000000000000000e+00
3.790000000000000000e+02,4.836594500387869089e-01,0.000000000000000000e+00
3.800000000000000000e+02,-5.331925344643189540e-02,0.000000000000000000e+00
3.810000000000000000e+02,3.693662931234744651e-01,0.000000000000000000e+00
3.820000000000000000e+02,5.411087577827474737e-01,0.000000000000000000e+00
3.830000000000000000e+02,3.828842858548734407e-01,0.000000000000000000e+00
3.840000000000000000e+02,4.459241380402753085e-01,0.000000000000000000e+00
3.850000000000000000e+02,5.067595894620919861e-01,0.000000000000000000e+00
3.860000000000000000e+02,7.878989796759934272e-01,0.000000000000000000e+00
3.870000000000000000e+02,9.765664263701656633e-01,0.000000000000000000e+00
3.880000000000000000e+02,9.976437850708761435e-01,0.000000000000000000e+00
3.890000000000000000e+02,1.286568120830160034e+00,0.000000000000000000e+00
3.900000000000000000e+02,1.561091511878878846e+00,0.000000000000000000e+00
3.910000000000000000e+02,1.505898095071607434e+00,0.000000000000000000e+00
3.920000000000000000e+02,1.596176909709269065e+00,0.000000000000000000e+00
3.930000000000000000e+02,6.567970171783344968e-01,0.000000000000000000e+00
3.940000000000000000e+02,-8.215208554156474552e-01,0.000000000000000000e+00
3.950000000000000000e+02,-1.238690717254349094e+00,0.000000000000000000e+00
3.960000000000000000e+02,-1.499169283305545886e+00,0.000000000000000000e+00
3.970000000000000000e+02,-1.403838824532403384e+00,0.000000000000000000e+00
3.980000000000000000e+02,-1.472311954583326976e+00,0.000000000000000000e+00
3.990000000000000000e+02,-1.107195086405711182e+00,0.000000000000000000e+00
4.000000000000000000e+02,-1.467899040108800790e+00,0.000000000000000000e+00
4.010000000000000000e+02,-1.007313355906763297e+00,0.000000000000000000e+00
4.020000000000000000e+02,-1.060505345917110986e+00,0.000000000000000000e+00
4.030000000000000000e+02,-8.913170984767884164e-01,0.000000000000000000e+00
4.040000000000000000e+02,-9.955318930393626253e-01,0.000000000000000000e+00
4.050000000000000000e+02,-6.603803250124475888e-01,0.000000000000000000e+00
4.060000000000000000e+02,-7.805493226342605784e-01,0.000000000000000000e+00
4.070000000000000000e+02,-4.140526976003935378e-01,0.000000000000000000e+00
4.080000000000000000e+02,-8.486310695695636896e-01,0.000000000000000000e+00
4.090000000000000000e+02,-1.106851854062151051e-02,0.000000000000000000e+00
4.100000000000000000e+02,-6.982847357645308728e-01,0.000000000000000000e+00
4.110000000000000000e+02,-2.659844873494170980e-01,0.000000000000000000e+00
4.120000000000000000e+02,-3.035900423506580625e-01,0.000000000000000000e+00
4.130000000000000000e+02,-9.215270130733366205e-03,0.000000000000000000e+00
4.140000000000000000e+02,-1.931401910241296524e-02,0.000000000000000000e+00
4.150000000000000000e+02,1.998356217998331630e-01,0.000000000000000000e+00
4.160000000000000000e+02,4.393373115719761413e-01,0.000000000000000000e+00
4.170000000000000000e+02,5.811655186126877259e-01,0.000000000000000000e+00
4.180000000000000000e+02,6.293400319264999543e-02,0.000000000000000000e+00
4.190000000000000000e+02,-2.291667332421085113e-01,0.000000000000000000e+00
4.200000000000000000e+02,-1.477986794478384214e-01,0.000000000000000000e+00
4.210000000000000000e+02,1.630001739765430668e-01,0.000000000000000000e+00
4.220000000000000000e+02,-2.611632026632833004e-01,0.000000000000000000e+00
4.230000000000000000e+02,3.276636490791506873e-01,0.000000000000000000e+00
4.240000000000000000e+02,-9.154190242607731509e-01,0.000000000000000000e+00
4.250000000000000000e+02,7.633923538038924761e-01,0.000000000000000000e+00
4.260000000000000000e+02,3.432425503118752719e+00,0.000000000000000000e+00
4.270000000000000000e+02,-7.226172652339694080e-01,1.000000000000000000e+00
4.280000000000000000e+02,6.875568896017522635e-02,0.000000000000000000e+00
4.290000000000000000e+02,8.229440543070442107e-03,0.000000000000000000e+00
4.300000000000000000e+02,1.707192976250343219e-01,0.000000000000000000e+00
4.310000000000000000e+02,2.172592147541065333e-01,0.000000000000000000e+00
4.320000000000000000e+02,3.647790329155691791e-01,0.000000000000000000e+00
4.330000000000000000e+02,1.607908239499353520e-01,0.000000000000000000e+00
4.340000000000000000e+02,6.499892023845763589e-01,0.000000000000000000e+00
4.350000000000000000e+02,5.689832492786031093e-01,0.000000000000000000e+00
4.360000000000000000e+02,5.286291256087992663e-01,0.000000000000000000e+00
4.370000000000000000e+02,7.273126377868732728e-01,0.000000000000000000e+00
4.380000000000000000e+02,8.906813449531227889e-01,0.000000000000000000e+00
4.390000000000000000e+02,1.124020436890827757e+00,0.000000000000000000e+00
4.400000000000000000e+02,1.362358841594878855e+00,0.000000000000000000e+00
4.410000000000000000e+02,1.459031950118293119e+00,0.000000000000000000e+00
4.420000000000000000e+02,1.746897477943455845e+00,0.000000000000000000e+00
4.430000000000000000e+02,1.412919899551757563e+00,0.000000000000000000e+00
4.440000000000000000e+02,7.176276436163523398e-01,0.000000000000000000e+00
4.450000000000000000e+02,-9.680215453688302274e-01,0.000000000000000000e+00
4.460000000000000000e+02,-1.119125568041090535e+00,0.000000000000000000e+00
4.470000000000000000e+02,-1.651534128874967422e+00,0.000000000000000000e+00
4.480000000000000000e+02,-1.575115077251338924e+00,0.000000000000000000e+00
4.490000000000000000e+02,-1.600140836233632013e+00,0.000000000000000000e+00
4.500000000000000000e+02,-1.257224335123850789e+00,0.000000000000000000e+00
4.510000000000000000e+02,-1.349378411078458573e+00,0.000000000000000000e+00
4.520000000000000000e+02,-1.076589340318301113e+00,0.000000000000000000e+00
4.530000000000000000e+02,-1.189371041401207751e+00,0.000000000000000000e+00
4.540000000000000000e+02,-1.037471031866481930e+00,0.000000000000000000e+00
4.550000000000000000e+02,-7.410764055920038285e-01,0.000000000000000000e+00
4.560000000000000000e+02,-8.235302051018338343e-01,0.000000000000000000e+00
4.570000000000000000e+02,-6.401617827695927909e-01,0.000000000000000000e+00
4.580000000000000000e+02,-4.894437571878483273e-01,0.000000000000000000e+00
4.590000000000000000e+02,-7.643835640256624320e-01,0.000000000000000000e+00
4.600000000000000000e+02,-1.977778507081046078e-01,0.000000000000000000e+00
4.610000000000000000e+02,-6.286364909674838630e-01,0.000000000000000000e+00
4.620000000000000000e+02,2.475962278163839833e-02,0.000000000000000000e+00
4.630000000000000000e+02,-9.876443210368679448e-02,0.000000000000000000e+00
4.640000000000000000e+02,2.962903684523223585e-02,0.000000000000000000e+00
4.650000000000000000e+02,4.857758785272202617e-01,0.000000000000000000e+00
4.660000000000000000e+02,1.965021233367799658e-01,0.000000000000000000e+00
4.670000000000000000e+02,1.865179662971526986e-01,0.000000000000000000e+00
4.680000000000000000e+02,1.727454504451899145e-02,0.000000000000000000e+00
4.690000000000000000e+02,-1.552421607336718634e-01,0.000000000000000000e+00
4.700000000000000000e+02,3.292264445643921112e-03,0.000000000000000000e+00
4.710000000000000000e+02,-7.007963114323016718e-02,0.000000000000000000e+00
4.720000000000000000e+02,5.717513976058350433e-01,0.000000000000000000e+00
4.730000000000000000e+02,-8.003314785024683298e-01,0.000000000000000000e+00
4.740000000000000000e+02,1.333018362170094617e+00,0.000000000000000000e+00
4.750000000000000000e+02,2.990201279339939067e+00,0.000000000000000000e+00
4.760000000000000000e+02,-1.008520679476853754e+00,1.000000000000000000e+00
4.770000000000000000e+02,-6.618551905107709910e-02,0.000000000000000000e+00
4.780000000000000000e+02,3.765959032574560106e-01,0.000000000000000000e+00
4.790000000000000000e+02,3.835259091655044972e-01,0.000000000000000000e+00
4.800000000000000000e+02,5.200565229350198049e-01,0.000000000000000000e+00
4.810000000000000000e+02,6.297996506456209342e-01,0.000000000000000000e+00
4.820000000000000000e+02,5.853314924883663561e-01,0.000000000000000000e+00
4.830000000000000000e+02,8.331203104211504229e-01,0.000000000000000000e+00
4.840000000000000000e+02,7.361047053473598334e-01,0.000000000000000000e+00
4.850000000000000000e+02,9.622780910347611405e-01,0.000000000000000000e+00
4.860000000000000000e+02,1.004498479582836223e+00,0.000000000000000000e+00
4.870000000000000000e+02,1.143061485059567950e+00,0.000000000000000000e+00
4.880000000000000000e+02,1.298747427010073618e+00,0.000000000000000000e+00
4.890000000000000000e+02,1.678072983757153080e+00,0.000000000000000000e+00
4.900000000000000000e+02,1.806939943859424247e+00,0.000000000000000000e+00
4.910000000000000000e+02,1.985597736958514048e+00,0.000000000000000000e+00
4.920000000000000000e+02,1.592216743189219574e+00,0.000000000000000000e+00
4.930000000000000000e+02,7.928286031548048562e-01,0.000000000000000000e+00
4.940000000000000000e+02,-8.661096624563744406e-01,0.000000000000000000e+00
4.950000000000000000e+02,-1.061633312647168648e+00,0.000000000000000000e+00
4.960000000000000000e+02,-1.318356061043512995e+00,0.000000000000000000e+00
4.970000000000000000e+02,-1.562336248928991589e+00,0.000000000000000000e+00
4.980000000000000000e+02,-1.347273839068983792e+00,0.000000000000000000e+00
4.990000000000000000e+02,-1.115865786978496699e+00,0.000000000000000000e+00
5.000000000000000000e+02,-1.159294234554184344e+00,0.000000000000000000e+00
5.010000000000000000e+02,-1.183829365397276678e+00,0.000000000000000000e+00
5.020000000000000000e+02,-1.144021652480461393e+00,0.000000000000000000e+00
5.030000000000000000e+02,-6.217070161925990490e-01,0.000000000000000000e+00
5.040000000000000000e+02,-1.076592087062591130e+00,0.000000000000000000e+00
5.050000000000000000e+02,-5.094664049122158422e-01,0.000000000000000000e+00
5.060000000000000000e+02,-7.854231324244318468e-01,0.000000000000000000e+00
5.070000000000000000e+02,-5.445769288908771655e-01,0.000000000000000000e+00
5.080000000000000000e+02,-4.159793163519448500e-01,0.000000000000000000e+00
5.090000000000000000e+02,-6.573879614667833549e-01,0.000000000000000000e+00
5.100000000000000000e+02,-2.160336957442768047e-01,0.000000000000000000e+00
5.110000000000000000e+02,-5.561630850064935849e-02,0.000000000000000000e+00
5.120000000000000000e+02,-2.726586808903405657e-01,0.000000000000000000e+00
5.130000000000000000e+02,4.182069944287075680e-02,0.000000000000000000e+00
5.140000000000000000e+02,2.860837048871263666e-01,0.000000000000000000e+00
5.150000000000000000e+02,2.752453515762696146e-01,0.000000000000000000e+00
5.160000000000000000e+02,-3.554452949551452703e-03,0.000000000000000000e+00
5.170000000000000000e+02,-3.396624291086397518e-01,0.000000000000000000e+00
5.180000000000000000e+02,-2.556025875733675679e-01,0.000000000000000000e+00
5.190000000000000000e+02,3.754656799066523332e-03,0.000000000000000000e+00
5.200000000000000000e+02,-4.744061862743004232e-01,0.000000000000000000e+00
5.210000000000000000e+02,1.773279109062199932e-01,0.000000000000000000e+00
5.220000000000000000e+02,-8.556071841146531964e-01,0.000000000000000000e+00
5.230000000000000000e+02,2.944068576246192226e+00,0.000000000000000000e+00
5.240000000000000000e+02,7.662801519452083765e-01,1.000000000000000000e+00
5.250000000000000000e+02,-1.005276864484677457e+00,0.000000000000000000e+00
5.260000000000000000e+02,3.077465330603753602e-01,0.000000000000000000e+00
5.270000000000000000e+02,-2.911254438342442130e-01,0.000000000000000000e+00
5.280000000000000000e+02,4.261209873881280363e-01,0.000000000000000000e+00
5.290000000000000000e+02,1.531367464625345287e-01,0.000000000000000000e+00
5.300000000000000000e+02,2.284953064286059377e-01,0.000000000000000000e+00
5.310000000000000000e+02,4.552087428769732713e-01,0.000000000000000000e+00
5.320000000000000000e+02,3.863813900764601073e-01,0.000000000000000000e+00
5.330000000000000000e+02,2.448867214050686192e-01,0.000000000000000000e+00
5.340000000000000000e+02,7.594139745620248627e-01,0.000000000000000000e+00
5.350000000000000000e+02,6.472245535511552683e-01,0.000000000000000000e+00
5.360000000000000000e+02,9.429335489212657961e-01,0.000000000000000000e+00
5.370000000000000000e+02,1.161388165361420421e+00,0.000000000000000000e+00
5.380000000000000000e+02,1.220961492190997033e+00,0.000000000000000000e+00
5.390000000000000000e+02,1.749190001320409360e+00,0.000000000000000000e+00
5.400000000000000000e+02,1.537097085373853256e+00,0.000000000000000000e+00
5.410000000000000000e+02,1.080963794735349648e+00,0.000000000000000000e+00
5.420000000000000000e+02,-3.166369604928479520e-01,0.000000000000000000e+00
5.430000000000000000e+02,-1.223748277346851765e+00,0.000000000000000000e+00
5.440000000000000000e+02,-1.552687395565913286e+00,0.000000000000000000e+00
5.450000000000000000e+02,-1.450658375177740878e+00,0.000000000000000000e+00
5.460000000000000000e+02,-1.561624686931794903e+00,0.000000000000000000e+00
5.470000000000000000e+02,-1.495874375761894637e+00,0.000000000000000000e+00
5.480000000000000000e+02,-1.214054475309678027e+00,0.000000000000000000e+00
5.490000000000000000e+02,-1.050193237876524410e+00,0.000000000000000000e+00
5.500000000000000000e+02,-1.246012963389103279e+00,0.000000000000000000e+00
5.510000000000000000e+02,-8.541333410329926545e-01,0.000000000000000000e+00
5.520000000000000000e+02,-1.195738414765549429e+00,0.000000000000000000e+00
5.530000000000000000e+02,-7.075849694525165878e-01,0.000000000000000000e+00
5.540000000000000000e+02,-5.809606813382305335e-01,0.000000000000000000e+00
5.550000000000000000e+02,-4.571602300680340791e-01,0.000000000000000000e+00
5.560000000000000000e+02,-9.075410129123436809e-01,0.000000000000000000e+00
5.570000000000000000e+02,-1.688346897088923715e-01,0.000000000000000000e+00
5.580000000000000000e+02,-4.066960657764545628e-01,0.000000000000000000e+00
5.590000000000000000e+02,-3.014110731428201739e-01,0.000000000000000000e+00
5.600000000000000000e+02,-1.960425348914408283e-01,0.000000000000000000e+00
5.610000000000000000e+02,-3.318426066888038872e-01,0.000000000000000000e+00
5.620000000000000000e+02,1.630040679690484551e-01,0.000000000000000000e+00
5.630000000000000000e+02,4.560802865588637345e-01,0.000000000000000000e+00
5.640000000000000000e+02,4.937049230814786749e-01,0.000000000000000000e+00
5.650000000000000000e+02,4.381627376803018392e-01,0.000000000000000000e+00
5.660000000000000000e+02,-4.883597810992260785e-02,0.000000000000000000e+00
5.670000000000000000e+02,-1.906825402811343495e-01,0.000000000000000000e+00
5.680000000000000000e+02,6.661522765286928549e-02,0.000000000000000000e+00
5.690000000000000000e+02,5.093970303101932190e-02,0.000000000000000000e+00
5.700000000000000000e+02,3.327264957151118141e-01,0.000000000000000000e+00
5.710000000000000000e+02,-3.191099667214430946e-01,0.000000000000000000e+00
5.720000000000000000e+02,-3.526436636383389334e-01,0.000000000000000000e+00
5.730000000000000000e+02,3.474100789689271718e+00,0.000000000000000000e+00
5.740000000000000000e+02,3.668435564551377759e-01,1.000000000000000000e+00
5.750000000000000000e+02,-1.241794953618980957e-01,0.000000000000000000e+00
5.760000000000000000e+02,3.069374508574194693e-01,0.000000000000000000e+00
5.770000000000000000e+02,4.644144561784721570e-02,0.000000000000000000e+00
5.780000000000000000e+02,2.335493949156596805e-01,0.000000000000000000e+00
5.790000000000000000e+02,2.371042383234033546e-01,0.000000000000000000e+00
5.800000000000000000e+02,5.727471997889713728e-01,0.000000000000000000e+00
5.810000000000000000e+02,5.247663345523017053e-01,0.000000000000000000e+00
5.820000000000000000e+02,5.465055602465098694e-01,0.000000000000000000e+00
5.830000000000000000e+02,7.947978415315163359e-01,0.000000000000000000e+00
5.840000000000000000e+02,4.572159059372706280e-01,0.000000000000000000e+00
5.850000000000000000e+02,9.869864854778327423e-01,0.000000000000000000e+00
5.860000000000000000e+02,1.158342035137414294e+00,0.000000000000000000e+00
5.870000000000000000e+02,1.331196406409854704e+00,0.000000000000000000e+00
5.880000000000000000e+02,1.719834254026563869e+00,0.000000000000000000e+00
5.890000000000000000e+02,1.549439821930034489e+00,0.000000000000000000e+00
5.900000000000000000e+02,1.708355189291906884e+00,0.000000000000000000e+00
5.910000000000000000e+02,1.178637881683115118e+00,0.000000000000000000e+00
5.920000000000000000e+02,-3.084044021221909460e-01,0.000000000000000000e+00
5.930000000000000000e+02,-9.892111678024592125e-01,0.000000000000000000e+00
5.940000000000000000e+02,-1.522802552945602850e+00,0.000000000000000000e+00
5.950000000000000000e+02,-1.499483506191845228e+00,0.000000000000000000e+00
5.960000000000000000e+02,-1.196937116688749470e+00,0.000000000000000000e+00
5.970000000000000000e+02,-1.264296936227647938e+00,0.000000000000000000e+00
5.980000000000000000e+02,-7.748049655355057075e-01,0.000000000000000000e+00
5.990000000000000000e+02,-1.311046242245566207e+00,0.000000000000000000e+00
6.000000000000000000e+02,-8.980372151794465685e-01,0.000000000000000000e+00
6.010000000000000000e+02,-9.325356742618571282e-01,0.000000000000000000e+00
6.020000000000000000e+02,-9.740470975674128118e-01,0.000000000000000000e+00
6.030000000000000000e+02,-6.684177214962639946e-01,0.000000000000000000e+00
6.040000000000000000e+02,-5.570876945516618495e-01,0.000000000000000000e+00
6.050000000000000000e+02,-7.378745371344006543e-01,0.000000000000000000e+00
6.060000000000000000e+02,-1.743942728352210203e-01,0.000000000000000000e+00
6.070000000000000000e+02,-7.624196794291344670e-01,0.000000000000000000e+00
6.080000000000000000e+02,-1.916515550839910098e-01,0.000000000000000000e+00
6.090000000000000000e+02,-1.204351920781284585e-01,0.000000000000000000e+00
6.100000000000000000e+02,-4.332936633196756149e-01,0.000000000000000000e+00
6.110000000000000000e+02,-3.351790651345214894e-02,0.000000000000000000e+00
6.120000000000000000e+02,-1.907092272911020681e-01,0.000000000000000000e+00
6.130000000000000000e+02,4.350220490923996652e-01,0.000000000000000000e+00
6.140000000000000000e+02,4.619484995960151941e-01,0.000000000000000000e+00
6.150000000000000000e+02,2.471475526567682435e-01,0.000000000000000000e+00
6.160000000000000000e+02,1.053863664964382885e-02,0.000000000000000000e+00
6.170000000000000000e+02,-1.646505113841447432e-01,0.000000000000000000e+00
6.180000000000000000e+02,-1.246290304845328878e-01,0.000000000000000000e+00
6.190000000000000000e+02,3.075640550274942597e-02,0.000000000000000000e+00
6.200000000000000000e+02,-1.922258789750561914e-01,0.000000000000000000e+00
6.210000000000000000e+02,-1.452338548144950330e-02,0.000000000000000000e+00
6.220000000000000000e+02,-7.844239920554667567e-01,0.000000000000000000e+00
6.230000000000000000e+02,3.186154458580300997e+00,0.000000000000000000e+00
6.240000000000000000e+02,1.383500296302198285e+00,1.000000000000000000e+00
6.250000000000000000e+02,-8.173516008179635417e-01,0.000000000000000000e+00
6.260000000000000000e+02,3.463712032123194007e-01,0.000000000000000000e+00
6.270000000000000000e+02,2.089831925346063435e-01,0.000000000000000000e+00
6.280000000000000000e+02,4.534474592613705335e-01,0.000000000000000000e+00
6.290000000000000000e+02,1.809541833977452163e-01,0.000000000000000000e+00
6.300000000000000000e+02,4.107093227162824101e-01,0.000000000000000000e+00
6.310000000000000000e+02,3.557059719778351559e-01,0.000000000000000000e+00
6.320000000000000000e+02,3.946902287528838427e-01,0.000000000000000000e+00
6.330000000000000000e+02,6.491065877887788327e-01,0.000000000000000000e+00
6.340000000000000000e+02,5.813303250071081285e-01,0.000000000000000000e+00
6.350000000000000000e+02,7.058194063341778346e-01,0.000000000000000000e+00
6.360000000000000000e+02,9.051484860319557457e-01,0.000000000000000000e+00
6.370000000000000000e+02,1.112718195531507748e+00,0.000000000000000000e+00
6.380000000000000000e+02,1.596191780036794183e+00,0.000000000000000000e+00
6.390000000000000000e+02,1.625573035526048038e+00,0.000000000000000000e+00
6.400000000000000000e+02,1.809136375678640940e+00,0.000000000000000000e+00
6.410000000000000000e+02,8.969199199493697039e-01,0.000000000000000000e+00
6.420000000000000000e+02,-4.832977340197416698e-03,0.000000000000000000e+00
6.430000000000000000e+02,-1.048816025590746825e+00,0.000000000000000000e+00
6.440000000000000000e+02,-1.395353137386038833e+00,0.000000000000000000e+00
6.450000000000000000e+02,-1.564487274344379397e+00,0.000000000000000000e+00
6.460000000000000000e+02,-1.391761042316006058e+00,0.000000000000000000e+00
6.470000000000000000e+02,-1.308979429103517278e+00,0.000000000000000000e+00
6.480000000000000000e+02,-1.050787879944154124e+00,0.000000000000000000e+00
6.490000000000000000e+02,-1.398868587449756618e+00,0.000000000000000000e+00
6.500000000000000000e+02,-1.147042353458562314e+00,0.000000000000000000e+00
6.510000000000000000e+02,-1.021829619250918419e+00,0.000000000000000000e+00
6.520000000000000000e+02,-1.051742373824041454e+00,0.000000000000000000e+00
6.530000000000000000e+02,-8.309693932997219701e-01,0.000000000000000000e+00
6.540000000000000000e+02,-5.161433982274720167e-01,0.000000000000000000e+00
6.550000000000000000e+02,-6.490691865399256244e-01,0.000000000000000000e+00
6.560000000000000000e+02,-7.390743564710328117e-01,0.000000000000000000e+00
6.570000000000000000e+02,-4.849605200625247137e-01,0.000000000000000000e+00
6.580000000000000000e+02,-3.361410319652088363e-01,0.000000000000000000e+00
6.590000000000000000e+02,-5.138521025325226699e-01,0.000000000000000000e+00
6.600000000000000000e+02,-2.059731724080574033e-01,0.000000000000000000e+00
6.610000000000000000e+02,-2.375311875522551075e-01,0.000000000000000000e+00
6.620000000000000000e+02,3.149718041823080239e-01,0.000000000000000000e+00
6.630000000000000000e+02,3.259402861360190529e-01,0.000000000000000000e+00
6.640000000000000000e+02,4.550637620086729895e-01,0.000000000000000000e+00
6.650000000000000000e+02,-5.122054054915835541e-01,0.000000000000000000e+00
6.660000000000000000e+02,3.775511183028711776e-02,0.000000000000000000e+00
6.670000000000000000e+02,-3.742195047415303177e-01,0.000000000000000000e+00
6.680000000000000000e+02,1.361888202987691920e-01,0.000000000000000000e+00
6.690000000000000000e+02,-2.038630699327636242e-01,0.000000000000000000e+00
6.700000000000000000e+02,-8.046243608697689620e-02,0.000000000000000000e+00
6.710000000000000000e+02,-4.387858214808738055e-01,0.000000000000000000e+00
6.720000000000000000e+02,3.205228008422392527e+00,0.000000000000000000e+00
6.730000000000000000e+02,6.034633856276101493e-01,1.000000000000000000e+00
6.740000000000000000e+02,-1.138280666284375187e+00,0.000000000000000000e+00
6.750000000000000000e+02,3.401650575342425320e-01,0.000000000000000000e+00
6.760000000000000000e+02,2.390642187794271289e-01,0.000000000000000000e+00
6.770000000000000000e+02,1.711520848421271279e-01,0.000000000000000000e+00
6.780000000000000000e+02,6.404658832836654936e-01,0.000000000000000000e+00
6.790000000000000000e+02,2.447224558614669865e-01,0.000000000000000000e+00
6.800000000000000000e+02,7.535890503679846253e-01,0.000000000000000000e+00
6.810000000000000000e+02,5.086036095133973367e-01,0.000000000000000000e+00
6.820000000000000000e+02,7.220190441276909121e-01,0.000000000000000000e+00
6.830000000000000000e+02,9.789358268240074823e-01,0.000000000000000000e+00
6.840000000000000000e+02,7.261844416595525376e-01,0.000000000000000000e+00
6.850000000000000000e+02,1.377500869619219248e+00,0.000000000000000000e+00
6.860000000000000000e+02,1.505672572539970888e+00,0.000000000000000000e+00
6.870000000000000000e+02,1.503550535078344907e+00,0.000000000000000000e+00
6.880000000000000000e+02,1.915450727371964090e+00,0.000000000000000000e+00
6.890000000000000000e+02,1.825937404997385105e+00,0.000000000000000000e+00
6.900000000000000000e+02,1.479623020230318220e+00,0.000000000000000000e+00
6.910000000000000000e+02,-2.841332332045788944e-01,0.000000000000000000e+00
6.920000000000000000e+02,-1.043374395917548325e+00,0.000000000000000000e+00
6.930000000000000000e+02,-1.461779203273160022e+00,0.000000000000000000e+00
6.940000000000000000e+02,-1.558452917108506197e+00,0.000000000000000000e+00
6.950000000000000000e+02,-1.223775847991600552e+00,0.000000000000000000e+00
6.960000000000000000e+02,-1.294201127053025591e+00,0.000000000000000000e+00
6.970000000000000000e+02,-1.310541219265929369e+00,0.000000000000000000e+00
6.980000000000000000e+02,-1.210549565317208476e+00,0.000000000000000000e+00
6.990000000000000000e+02,-9.905479663160378090e-01,0.000000000000000000e+00
7.000000000000000000e+02,-8.830075926398036623e-01,0.000000000000000000e+00
7.010000000000000000e+02,-9.276368333211486572e-01,0.000000000000000000e+00
7.020000000000000000e+02,-9.543603507958946519e-01,0.000000000000000000e+00
7.030000000000000000e+02,-6.139516234316243493e-01,0.000000000000000000e+00
7.040000000000000000e+02,-6.241742444990322491e-01,0.000000000000000000e+00
7.050000000000000000e+02,-4.708907508871827408e-01,0.000000000000000000e+00
7.060000000000000000e+02,-4.763049806033491373e-01,0.000000000000000000e+00
7.070000000000000000e+02,-3.241470310020806989e-01,0.000000000000000000e+00
7.080000000000000000e+02,-3.881609095963893252e-01,0.000000000000000000e+00
7.090000000000000000e+02,-1.271436822871679743e-02,0.000000000000000000e+00
7.100000000000000000e+02,1.668420228820455820e-01,0.000000000000000000e+00
7.110000000000000000e+02,6.185277972205036751e-02,0.000000000000000000e+00
7.120000000000000000e+02,3.948768328902784175e-01,0.000000000000000000e+00
7.130000000000000000e+02,-9.686106756993220768e-02,0.000000000000000000e+00
7.140000000000000000e+02,6.226378422521804124e-02,0.000000000000000000e+00
7.150000000000000000e+02,-4.207992201521426612e-01,0.000000000000000000e+00
7.160000000000000000e+02,2.617453831218407440e-02,0.000000000000000000e+00
7.170000000000000000e+02,-2.655915876386596985e-01,0.000000000000000000e+00
7.180000000000000000e+02,1.559780822285670721e-01,0.000000000000000000e+00
7.190000000000000000e+02,-4.878424375295111748e-01,0.000000000000000000e+00
7.200000000000000000e+02,1.678585781024614310e+00,0.000000000000000000e+00
7.210000000000000000e+02,1.913259703477429463e+00,0.000000000000000000e+00
7.220000000000000000e+02,-1.270487760572592606e+00,1.000000000000000000e+00
7.230000000000000000e+02,4.811510338125278563e-02,0.000000000000000000e+00
7.240000000000000000e+02,5.213705323852489693e-02,0.000000000000000000e+00
7.250000000000000000e+02,6.647658732332029086e-01,0.000000000000000000e+00
7.260000000000000000e+02,3.080840473101364441e-01,0.000000000000000000e+00
7.270000000000000000e+02,6.683986304646395427e-01,0.000000000000000000e+00
7.280000000000000000e+02,2.700098198664168114e-01,0.000000000000000000e+00
7.290000000000000000e+02,8.191331495137126328e-01,0.000000000000000000e+00
7.300000000000000000e+02,5.801038771006382655e-01,0.000000000000000000e+00
7.310000000000000000e+02,8.980631907600699071e-01,0.000000000000000000e+00
7.320000000000000000e+02,6.820817292457657111e-01,0.000000000000000000e+00
7.330000000000000000e+02,1.305540594419936529e+00,0.000000000000000000e+00
7.340000000000000000e+02,9.933077931452439779e-01,0.000000000000000000e+00
7.350000000000000000e+02,1.414241968147669226e+00,0.000000000000000000e+00
7.360000000000000000e+02,1.862208459010317618e+00,0.000000000000000000e+00
7.370000000000000000e+02,1.957507440414548272e+00,0.000000000000000000e+00
7.380000000000000000e+02,1.332301873357590427e+00,0.000000000000000000e+00
7.390000000000000000e+02,7.558898282987565331e-02,0.000000000000000000e+00
7.400000000000000000e+02,-7.641708227394494735e-01,0.000000000000000000e+00
7.410000000000000000e+02,-1.517450808798564532e+00,0.000000000000000000e+00
7.420000000000000000e+02,-1.612859845873352294e+00,0.000000000000000000e+00
7.430000000000000000e+02,-1.448822562579390461e+00,0.000000000000000000e+00
7.440000000000000000e+02,-1.219221378479135920e+00,0.000000000000000000e+00
7.450000000000000000e+02,-1.394848819128526873e+00,0.000000000000000000e+00
7.460000000000000000e+02,-1.163125447356207376e+00,0.000000000000000000e+00
7.470000000000000000e+02,-1.108365805305475238e+00,0.000000000000000000e+00
7.480000000000000000e+02,-1.280912628192764524e+00,0.000000000000000000e+00
7.490000000000000000e+02,-7.292573653777401077e-01,0.000000000000000000e+00
7.500000000000000000e+02,-7.936455229532097810e-01,0.000000000000000000e+00
7.510000000000000000e+02,-9.479520532955182377e-01,0.000000000000000000e+00
7.520000000000000000e+02,-6.220448780418754708e-01,0.000000000000000000e+00
7.530000000000000000e+02,-5.258611765936510585e-01,0.000000000000000000e+00
7.540000000000000000e+02,-6.932021420923780708e-01,0.000000000000000000e+00
7.550000000000000000e+02,-2.130523187883152925e-01,0.000000000000000000e+00
7.560000000000000000e+02,-6.768834652827718790e-01,0.000000000000000000e+00
7.570000000000000000e+02,1.453449256410513151e-03,0.000000000000000000e+00
7.580000000000000000e+02,-1.927902789857813270e-02,0.000000000000000000e+00
7.590000000000000000e+02,2.673685175274012615e-01,0.000000000000000000e+00
7.600000000000000000e+02,1.723202661363429644e-01,0.000000000000000000e+00
7.610000000000000000e+02,-1.884304358807909752e-01,0.000000000000000000e+00
7.620000000000000000e+02,-5.919513911255619952e-03,0.000000000000000000e+00
7.630000000000000000e+02,-3.568877033659943465e-01,0.000000000000000000e+00
7.640000000000000000e+02,-3.600072125310473103e-02,0.000000000000000000e+00
7.650000000000000000e+02,-3.223067002123783387e-01,0.000000000000000000e+00
7.660000000000000000e+02,-7.342922745039959231e-02,0.000000000000000000e+00
7.670000000000000000e+02,-7.829175229287822779e-02,0.000000000000000000e+00
7.680000000000000000e+02,3.105226287207036862e+00,0.000000000000000000e+00
7.690000000000000000e+02,3.682658339528309677e-01,1.000000000000000000e+00
7.700000000000000000e+02,-3.565854400491275666e-01,0.000000000000000000e+00
7.710000000000000000e+02,1.888463535930816617e-01,0.000000000000000000e+00
7.720000000000000000e+02,2.524038148806040938e-01,0.000000000000000000e+00
7.730000000000000000e+02,4.191793189441599399e-01,0.000000000000000000e+00
7.740000000000000000e+02,3.938961789336635766e-01,0.000000000000000000e+00
7.750000000000000000e+02,4.773006230234511649e-01,0.000000000000000000e+00
7.760000000000000000e+02,5.528210733937714005e-01,0.000000000000000000e+00
7.770000000000000000e+02,6.344566409062826207e-01,0.000000000000000000e+00
7.780000000000000000e+02,6.919622064565819075e-01,0.000000000000000000e+00
7.790000000000000000e+02,1.019421920140413995e+00,0.000000000000000000e+00
7.800000000000000000e+02,7.122187416035501428e-01,0.000000000000000000e+00
7.810000000000000000e+02,1.162417792959896445e+00,0.000000000000000000e+00
7.820000000000000000e+02,1.491635854601067956e+00,0.000000000000000000e+00
7.830000000000000000e+02,1.468984345304182204e+00,0.000000000000000000e+00
7.840000000000000000e+02,1.789864478960130123e+00,0.000000000000000000e+00
7.850000000000000000e+02,1.637929145699309919e+00,0.000000000000000000e+00
7.860000000000000000e+02,9.191792171024605329e-01,0.000000000000000000e+00
7.870000000000000000e+02,-3.484616246576532350e-01,0.000000000000000000e+00
7.880000000000000000e+02,-1.117389830030753206e+00,0.000000000000000000e+00
7.890000000000000000e+02,-1.131480441035208173e+00,0.000000000000000000e+00
7.900000000000000000e+02,-1.731881987888702179e+00,0.000000000000000000e+00
7.910000000000000000e+02,-1.378126687392224436e+00,0.000000000000000000e+00
7.920000000000000000e+02,-1.327332704928769758e+00,0.000000000000000000e+00
7.930000000000000000e+02,-1.151807468431982118e+00,0.000000000000000000e+00
7.940000000000000000e+02,-1.098131205511275521e+00,0.000000000000000000e+00
7.950000000000000000e+02,-9.977000218953105959e-01,0.000000000000000000e+00
7.960000000000000000e+02,-1.018994354877459818e+00,0.000000000000000000e+00
7.970000000000000000e+02,-8.433530207732617967e-01,0.000000000000000000e+00
7.980000000000000000e+02,-5.974838436883984638e-01,0.000000000000000000e+00
7.990000000000000000e+02,-7.047289097395594837e-01,0.000000000000000000e+00
8.000000000000000000e+02,-7.090203646073346411e-01,0.000000000000000000e+00
8.010000000000000000e+02,-4.210856474237799074e-01,0.000000000000000000e+00
8.020000000000000000e+02,-3.127549801523472617e-01,0.000000000000000000e+00
8.030000000000000000e+02,-3.100663797122897858e-01,0.000000000000000000e+00
8.040000000000000000e+02,-1.853801359261539883e-01,0.000000000000000000e+00
8.050000000000000000e+02,-1.964526356402143958e-01,0.000000000000000000e+00
8.060000000000000000e+02,-2.435061021394117342e-01,0.000000000000000000e+00
8.070000000000000000e+02,-5.391462975093311988e-02,0.000000000000000000e+00
8.080000000000000000e+02,4.479056988085830526e-01,0.000000000000000000e+00
8.090000000000000000e+02,3.912764975668258649e-01,0.000000000000000000e+00
8.100000000000000000e+02,3.598505819452534893e-01,0.000000000000000000e+00
8.110000000000000000e+02,2.808152767417947393e-01,0.000000000000000000e+00
8.120000000000000000e+02,-6.222737082388885010e-02,0.000000000000000000e+00
8.130000000000000000e+02,-4.253405798860430687e-01,0.000000000000000000e+00
8.140000000000000000e+02,2.371193615826279744e-01,0.000000000000000000e+00
8.150000000000000000e+02,-2.425280703769982227e-01,0.000000000000000000e+00
8.160000000000000000e+02,2.309251105210740063e-01,0.000000000000000000e+00
8.170000000000000000e+02,-7.728743529292916303e-01,0.000000000000000000e+00
8.180000000000000000e+02,2.388657182517583077e+00,0.000000000000000000e+00
8.190000000000000000e+02,1.866388582402861207e+00,1.000000000000000000e+00
8.200000000000000000e+02,-5.751814900231811967e-01,0.000000000000000000e+00
8.210000000000000000e+02,2.121647303053146860e-01,0.000000000000000000e+00
8.220000000000000000e+02,1.204879052009920348e-01,0.000000000000000000e+00
8.230000000000000000e+02,3.843181307493054866e-01,0.000000000000000000e+00
8.240000000000000000e+02,3.549829574017706463e-02,0.000000000000000000e+00
8.250000000000000000e+02,5.282100919947821938e-01,0.000000000000000000e+00
8.260000000000000000e+02,5.320417458135516808e-01,0.000000000000000000e+00
8.270000000000000000e+02,6.729538393241678573e-01,0.000000000000000000e+00
8.280000000000000000e+02,4.402210193094465707e-01,0.000000000000000000e+00
8.290000000000000000e+02,7.810535697077655160e-01,0.000000000000000000e+00
8.300000000000000000e+02,8.121123271680698030e-01,0.000000000000000000e+00
8.310000000000000000e+02,1.067000469474274515e+00,0.000000000000000000e+00
8.320000000000000000e+02,1.263574991445879592e+00,0.000000000000000000e+00
8.330000000000000000e+02,1.533526995753339728e+00,0.000000000000000000e+00
8.340000000000000000e+02,1.605227277900839189e+00,0.000000000000000000e+00
8.350000000000000000e+02,1.893062939148776103e+00,0.000000000000000000e+00
8.360000000000000000e+02,1.362415656899811589e+00,0.000000000000000000e+00
8.370000000000000000e+02,4.512895329834956670e-01,0.000000000000000000e+00
8.380000000000000000e+02,-1.013265769399373628e+00,0.000000000000000000e+00
8.390000000000000000e+02,-1.352902956233971610e+00,0.000000000000000000e+00
8.400000000000000000e+02,-1.447082140888500179e+00,0.000000000000000000e+00
8.410000000000000000e+02,-1.209786539112566395e+00,0.000000000000000000e+00
8.420000000000000000e+02,-1.301239820716470819e+00,0.000000000000000000e+00
8.430000000000000000e+02,-1.401128039255821855e+00,0.000000000000000000e+00
8.440000000000000000e+02,-1.097720478704758085e+00,0.000000000000000000e+00
8.450000000000000000e+02,-1.340249181340148699e+00,0.000000000000000000e+00
8.460000000000000000e+02,-1.062958889864074274e+00,0.000000000000000000e+00
8.470000000000000000e+02,-9.140239684615393267e-01,0.000000000000000000e+00
8.480000000000000000e+02,-8.404272483529755533e-01,0.000000000000000000e+00
8.490000000000000000e+02,-8.561326025020078445e-01,0.000000000000000000e+00
8.500000000000000000e+02,-6.806218411011796254e-01,0.000000000000000000e+00
8.510000000000000000e+02,-5.733690093984321612e-01,0.000000000000000000e+00
8.520000000000000000e+02,-6.017625054528746853e-01,0.000000000000000000e+00
8.530000000000000000e+02,-4.329630694170832350e-01,0.000000000000000000e+00
8.540000000000000000e+02,-3.116375959397503781e-01,0.000000000000000000e+00
8.550000000000000000e+02,-5.795105477401345517e-01,0.000000000000000000e+00
8.560000000000000000e+02,-2.301033576138824255e-01,0.000000000000000000e+00
8.570000000000000000e+02,8.892457363420955274e-02,0.000000000000000000e+00
8.580000000000000000e+02,-1.310176337714285925e-02,0.000000000000000000e+00
8.590000000000000000e+02,6.108093975175549195e-01,0.000000000000000000e+00
8.600000000000000000e+02,-5.839179265415399278e-02,0.000000000000000000e+00
8.610000000000000000e+02,1.222575260386007528e-01,0.000000000000000000e+00
8.620000000000000000e+02,-2.882922931634984698e-01,0.000000000000000000e+00
8.630000000000000000e+02,-3.870673693286525441e-01,0.000000000000000000e+00
8.640000000000000000e+02,-1.913589642916736777e-01,0.000000000000000000e+00
8.650000000000000000e+02,-1.068440734070781328e-01,0.000000000000000000e+00
8.660000000000000000e+02,8.515623054830634420e-02,0.000000000000000000e+00
8.670000000000000000e+02,-7.862607077519949694e-01,0.000000000000000000e+00
8.680000000000000000e+02,2.768490438980366175e+00,0.000000000000000000e+00
8.690000000000000000e+02,1.034216550998600548e+00,1.000000000000000000e+00
8.700000000000000000e+02,-9.598706282049170868e-01,0.000000000000000000e+00
8.710000000000000000e+02,2.626604878607925464e-01,0.000000000000000000e+00
8.720000000000000000e+02,-3.498549300751310071e-02,0.000000000000000000e+00
8.730000000000000000e+02,3.148968889234742830e-01,0.000000000000000000e+00
8.740000000000000000e+02,2.472705126095162964e-01,0.000000000000000000e+00
8.750000000000000000e+02,4.218660121709799649e-01,0.000000000000000000e+00
8.760000000000000000e+02,7.313323058353103923e-01,0.000000000000000000e+00
8.770000000000000000e+02,5.110449133531945742e-01,0.000000000000000000e+00
8.780000000000000000e+02,6.960786085743263518e-01,0.000000000000000000e+00
8.790000000000000000e+02,6.429174190301676362e-01,0.000000000000000000e+00
8.800000000000000000e+02,7.562285281010070470e-01,0.000000000000000000e+00
8.810000000000000000e+02,1.097343732628662361e+00,0.000000000000000000e+00
8.820000000000000000e+02,1.132754723962411170e+00,0.000000000000000000e+00
8.830000000000000000e+02,1.878109525385308620e+00,0.000000000000000000e+00
8.840000000000000000e+02,1.599151561572615066e+00,0.000000000000000000e+00
8.850000000000000000e+02,1.975774888815916341e+00,0.000000000000000000e+00
8.860000000000000000e+02,1.155727071666096339e+00,0.000000000000000000e+00
8.870000000000000000e+02,-1.084384489467492690e-01,0.000000000000000000e+00
8.880000000000000000e+02,-9.823380170149033086e-01,0.000000000000000000e+00
8.890000000000000000e+02,-1.663005371690878142e+00,0.000000000000000000e+00
8.900000000000000000e+02,-1.636322627465951252e+00,0.000000000000000000e+00
8.910000000000000000e+02,-1.077564212668797206e+00,0.000000000000000000e+00
8.920000000000000000e+02,-1.885778960989605402e+00,0.000000000000000000e+00
8.930000000000000000e+02,-1.258014260072216617e+00,0.000000000000000000e+00
8.940000000000000000e+02,-1.225215493775949849e+00,0.000000000000000000e+00
8.950000000000000000e+02,-1.186591318802529660e+00,0.000000000000000000e+00
8.960000000000000000e+02,-1.044943629788508410e+00,0.000000000000000000e+00
8.970000000000000000e+02,-1.060100921087927084e+00,0.000000000000000000e+00
8.980000000000000000e+02,-8.154489300656257988e-01,0.000000000000000000e+00
8.990000000000000000e+02,-6.444902797329095101e-01,0.000000000000000000e+00
9.000000000000000000e+02,-6.747005323308431501e-01,0.000000000000000000e+00
9.010000000000000000e+02,-4.424260507255213803e-01,0.000000000000000000e+00
9.020000000000000000e+02,-6.230024639104035922e-01,0.000000000000000000e+00
9.030000000000000000e+02,-1.424651280453413660e-01,0.000000000000000000e+00
9.040000000000000000e+02,-3.379382151950233726e-01,0.000000000000000000e+00
9.050000000000000000e+02,-6.043773451232147681e-02,0.000000000000000000e+00
9.060000000000000000e+02,6.458664205770250355e-01,0.000000000000000000e+00
9.070000000000000000e+02,9.654919828989014241e-02,0.000000000000000000e+00
9.080000000000000000e+02,1.756338013784528584e-01,0.000000000000000000e+00
9.090000000000000000e+02,6.043569607170272417e-02,0.000000000000000000e+00
9.100000000000000000e+02,-3.561874127581363125e-01,0.000000000000000000e+00
9.110000000000000000e+02,1.593889224641836799e-02,0.000000000000000000e+00
9.120000000000000000e+02,-3.615796323162842052e-01,0.000000000000000000e+00
9.130000000000000000e+02,2.076069442123270881e-01,0.000000000000000000e+00
9.140000000000000000e+02,-4.624199622744175620e-01,0.000000000000000000e+00
9.150000000000000000e+02,1.216759726740364922e+00,0.000000000000000000e+00
9.160000000000000000e+02,2.626093551886559574e+00,0.000000000000000000e+00
9.170000000000000000e+02,-1.198937102165109181e+00,1.000000000000000000e+00
9.180000000000000000e+02,-3.147312092020801977e-01,0.000000000000000000e+00
9.190000000000000000e+02,4.317747507442536437e-01,0.000000000000000000e+00
9.200000000000000000e+02,4.199406329795967729e-01,0.000000000000000000e+00
9.210000000000000000e+02,2.715277438935174703e-01,0.000000000000000000e+00
9.220000000000000000e+02,5.689986924075742802e-01,0.000000000000000000e+00
9.230000000000000000e+02,2.934540001820047372e-01,0.000000000000000000e+00
9.240000000000000000e+02,9.022492081819285525e-01,0.000000000000000000e+00
9.250000000000000000e+02,7.138224937851502805e-01,0.000000000000000000e+00
9.260000000000000000e+02,9.035293686261075541e-01,0.000000000000000000e+00
9.270000000000000000e+02,7.341367845636544986e-01,0.000000000000000000e+00
9.280000000000000000e+02,1.011149233560785010e+00,0.000000000000000000e+00
9.290000000000000000e+02,1.205351403828959889e+00,0.000000000000000000e+00
9.300000000000000000e+02,1.709871142295741775e+00,0.000000000000000000e+00
9.310000000000000000e+02,1.610745902031917476e+00,0.000000000000000000e+00
9.320000000000000000e+02,1.681116176079952007e+00,0.000000000000000000e+00
9.330000000000000000e+02,1.797018502261971795e+00,0.000000000000000000e+00
9.340000000000000000e+02,2.610385200058619737e-01,0.000000000000000000e+00
9.350000000000000000e+02,-5.792214556638238809e-01,0.000000000000000000e+00
9.360000000000000000e+02,-1.317034553696795118e+00,0.000000000000000000e+00
9.370000000000000000e+02,-1.519178630311584843e+00,0.000000000000000000e+00
9.380000000000000000e+02,-1.671349744465082221e+00,0.000000000000000000e+00
9.390000000000000000e+02,-1.245393049077385461e+00,0.000000000000000000e+00
9.400000000000000000e+02,-1.237069669213345602e+00,0.000000000000000000e+00
9.410000000000000000e+02,-1.222054021927360790e+00,0.000000000000000000e+00
9.420000000000000000e+02,-1.081443049821668279e+00,0.000000000000000000e+00
9.430000000000000000e+02,-9.343099091613614737e-01,0.000000000000000000e+00
9.440000000000000000e+02,-9.583552398643261361e-01,0.000000000000000000e+00
9.450000000000000000e+02,-6.599941566189942987e-01,0.000000000000000000e+00
9.460000000000000000e+02,-5.778693323840501384e-01,0.000000000000000000e+00
9.470000000000000000e+02,-7.180036139642215209e-01,0.000000000000000000e+00
9.480000000000000000e+02,-5.377967661088057794e-01,0.000000000000000000e+00
9.490000000000000000e+02,-4.002746017175590199e-01,0.000000000000000000e+00
9.500000000000000000e+02,-3.883832680567247952e-01,0.000000000000000000e+00
9.510000000000000000e+02,-2.367486133095663692e-01,0.000000000000000000e+00
9.520000000000000000e+02,1.096359616140186594e-01,0.000000000000000000e+00
9.530000000000000000e+02,1.841754889885470481e-01,0.000000000000000000e+00
9.540000000000000000e+02,2.489903496625388846e-01,0.000000000000000000e+00
9.550000000000000000e+02,-1.498473338328197291e-01,0.000000000000000000e+00
9.560000000000000000e+02,-1.758886544097684468e-01,0.000000000000000000e+00
9.570000000000000000e+02,-4.966801591184775710e-01,0.000000000000000000e+00
9.580000000000000000e+02,-3.505923101504204165e-01,0.000000000000000000e+00
9.590000000000000000e+02,3.316805360708348100e-03,0.000000000000000000e+00
9.600000000000000000e+02,1.266807852623000608e-01,0.000000000000000000e+00
9.610000000000000000e+02,-7.370885770990628361e-01,0.000000000000000000e+00
9.620000000000000000e+02,2.894256146511231975e+00,0.000000000000000000e+00
9.630000000000000000e+02,9.271514691362024996e-01,1.000000000000000000e+00
9.640000000000000000e+02,-6.149871882792543598e-01,0.000000000000000000e+00
9.650000000000000000e+02,4.029498018546444627e-01,0.000000000000000000e+00
9.660000000000000000e+02,1.747114330805378257e-01,0.000000000000000000e+00
9.670000000000000000e+02,3.435958440420652793e-01,0.000000000000000000e+00
9.680000000000000000e+02,2.941498993158941366e-01,0.000000000000000000e+00
9.690000000000000000e+02,6.976360077794541148e-01,0.000000000000000000e+00
9.700000000000000000e+02,4.297653478532853510e-01,0.000000000000000000e+00
9.710000000000000000e+02,6.208521201753722796e-01,0.000000000000000000e+00
9.720000000000000000e+02,7.215354484378245781e-01,0.000000000000000000e+00
9.730000000000000000e+02,7.946610548269412710e-01,0.000000000000000000e+00
9.740000000000000000e+02,9.996284448851465720e-01,0.000000000000000000e+00
9.750000000000000000e+02,1.184786866621419410e+00,0.000000000000000000e+00
9.760000000000000000e+02,1.197338296989823636e+00,0.000000000000000000e+00
9.770000000000000000e+02,1.579328629692280384e+00,0.000000000000000000e+00
9.780000000000000000e+02,1.739462722292451691e+00,0.000000000000000000e+00
9.790000000000000000e+02,1.989774791476099924e+00,0.000000000000000000e+00
9.800000000000000000e+02,9.580937085016939525e-01,0.000000000000000000e+00
9.810000000000000000e+02,-3.514801399036864282e-01,0.000000000000000000e+00
9.820000000000000000e+02,-7.167780375764311040e-01,0.000000000000000000e+00
9.830000000000000000e+02,-1.524223268795508179e+00,0.000000000000000000e+00
9.840000000000000000e+02,-1.299189268474249426e+00,0.000000000000000000e+00
9.850000000000000000e+02,-1.257220368659696330e+00,0.000000000000000000e+00
9.860000000000000000e+02,-1.323440736125460315e+00,0.000000000000000000e+00
9.870000000000000000e+02,-1.327542108001305232e+00,0.000000000000000000e+00
9.880000000000000000e+02,-9.446831644227625668e-01,0.000000000000000000e+00
9.890000000000000000e+02,-8.905242847896178704e-01,0.000000000000000000e+00
9.900000000000000000e+02,-9.627672332599076510e-01,0.000000000000000000e+00
9.910000000000000000e+02,-7.092677915500759100e-01,0.000000000000000000e+00
9.920000000000000000e+02,-1.025791309482452451e+00,0.000000000000000000e+00
9.930000000000000000e+02,-6.528736627379232438e-01,0.000000000000000000e+00
9.940000000000000000e+02,-4.932858247154769393e-01,0.000000000000000000e+00
9.950000000000000000e+02,-4.161722014681290549e-01,0.000000000000000000e+00
9.960000000000000000e+02,-4.427336539837233853e-01,0.000000000000000000e+00
9.970000000000000000e+02,-2.241319395331777820e-01,0.000000000000000000e+00
9.980000000000000000e+02,-1.241337916278844183e-01,0.000000000000000000e+00
9.990000000000000000e+02,1.617948993060651930e-01,0.000000000000000000e+00
1.000000000000000000e+03,2.422684625053427576e-01,0.000000000000000000e+00
1.001000000000000000e+03,-1.211228982723854125e-01,0.000000000000000000e+00
1.002000000000000000e+03,-1.310925548753582859e-01,0.000000000000000000e+00
1.003000000000000000e+03,-4.974433635701771550e-01,0.000000000000000000e+00
1.004000000000000000e+03,-7.146841860090184795e-02,0.000000000000000000e+00
1.005000000000000000e+03,-3.058913415056331297e-01,0.000000000000000000e+00
1.006000000000000000e+03,6.174202185908612278e-02,0.000000000000000000e+00
1.007000000000000000e+03,-8.468077501403129537e-01,0.000000000000000000e+00
1.008000000000000000e+03,5.880352541406633771e-01,0.000000000000000000e+00
1.009000000000000000e+03,3.287093334642965825e+00,0.000000000000000000e+00
1.010000000000000000e+03,-6.026622466220638019e-01,1.000000000000000000e+00
1.011000000000000000e+03,-1.764183125479759362e-01,0.000000000000000000e+00
1.012000000000000000e+03,1.551023799614474896e-01,0.000000000000000000e+00
1.013000000000000000e+03,1.988778998188003855e-01,0.000000000000000000e+00
1.014000000000000000e+03,2.924596152362877732e-01,0.000000000000000000e+00
1.015000000000000000e+03,3.678571785870323740e-01,0.000000000000000000e+00
1.016000000000000000e+03,1.826954139890118178e-01,0.000000000000000000e+00
1.017000000000000000e+03,3.472377581393069623e-01,0.000000000000000000e+00
1.018000000000000000e+03,9.120021714265702517e-01,0.000000000000000000e+00
1.019000000000000000e+03,6.008018358535649472e-01,0.000000000000000000e+00
1.020000000000000000e+03,7.567583368385573106e-01,0.000000000000000000e+00
1.021000000000000000e+03,7.847603063123022027e-01,0.000000000000000000e+00
1.022000000000000000e+03,1.090665137696772646e+00,0.000000000000000000e+00
1.023000000000000000e+03,1.367942194717116200e+00,0.000000000000000000e+00
1.024000000000000000e+03,1.688371033108517549e+00,0.000000000000000000e+00
1.025000000000000000e+03,1.598930863652601175e+00,0.000000000000000000e+00
1.026000000000000000e+03,1.659824707942159527e+00,0.000000000000000000e+00
1.027000000000000000e+03,4.184919785372021583e-01,0.000000000000000000e+00
1.028000000000000000e+03,-6.941778908991699248e-01,0.000000000000000000e+00
1.029000000000000000e+03,-1.415295650745640232e+00,0.000000000000000000e+00
1.030000000000000000e+03,-1.625359377564949304e+00,0.000000000000000000e+00
1.031000000000000000e+03,-1.262828907809480095e+00,0.000000000000000000e+00
1.032000000000000000e+03,-1.303664625026951684e+00,0.000000000000000000e+00
1.033000000000000000e+03,-1.262796163831287899e+00,0.000000000000000000e+00
1.034000000000000000e+03,-1.327450044906418825e+00,0.000000000000000000e+00
1.035000000000000000e+03,-1.084730039758750264e+00,0.000000000000000000e+00
1.036000000000000000e+03,-8.765556847145359320e-01,0.000000000000000000e+00
1.037000000000000000e+03,-9.551999516775360188e-01,0.000000000000000000e+00
1.038000000000000000e+03,-1.022999532104797549e+00,0.000000000000000000e+00
1.039000000000000000e+03,-7.194564050618261764e-01,0.000000000000000000e+00
1.040000000000000000e+03,-8.045941625841869227e-01,0.000000000000000000e+00
1.041000000000000000e+03,-3.854747938826700859e-01,0.000000000000000000e+00
1.042000000000000000e+03,-6.371547667960040240e-01,0.000000000000000000e+00
1.043000000000000000e+03,-3.229868968792575790e-01,0.000000000000000000e+00
1.044000000000000000e+03,-2.956815441812629119e-01,0.000000000000000000e+00
1.045000000000000000e+03,-3.599141994163277403e-01,0.000000000000000000e+00
1.046000000000000000e+03,6.509530342770630806e-02,0.000000000000000000e+00
1.047000000000000000e+03,3.350331172232562937e-01,0.000000000000000000e+00
1.048000000000000000e+03,2.812407415331893423e-01,0.000000000000000000e+00
1.049000000000000000e+03,-2.503116246550717849e-01,0.000000000000000000e+00
1.050000000000000000e+03,-3.206492578490005019e-01,0.000000000000000000e+00
1.051000000000000000e+03,-3.849478029824857095e-01,0.000000000000000000e+00
1.052000000000000000e+03,-1.074368220714090605e-01,0.000000000000000000e+00
1.053000000000000000e+03,-4.353073804847659156e-01,0.000000000000000000e+00
1.054000000000000000e+03,1.717987487655527890e-01,0.000000000000000000e+00
1.055000000000000000e+03,-8.566651295079867889e-01,0.000000000000000000e+00
1.056000000000000000e+03,2.709230941408772964e+00,0.000000000000000000e+00
1.057000000000000000e+03,1.028571868268937983e+00,1.000000000000000000e+00
1.058000000000000000e+03,-9.605342949755508730e-01,0.000000000000000000e+00
1.059000000000000000e+03,2.093154823030989042e-01,0.000000000000000000e+00
1.060000000000000000e+03,3.545271441900298137e-02,0.000000000000000000e+00
1.061000000000000000e+03,5.789460284751226649e-01,0.000000000000000000e+00
1.062000000000000000e+03,-8.171313793514525803e-02,0.000000000000000000e+00
1.063000000000000000e+03,4.328499222616374875e-01,0.000000000000000000e+00
1.064000000000000000e+03,3.895676195656257446e-01,0.000000000000000000e+00
1.065000000000000000e+03,7.330070524719415337e-01,0.000000000000000000e+00
1.066000000000000000e+03,3.302342184255927515e-01,0.000000000000000000e+00
1.067000000000000000e+03,1.003147945517247175e+00,0.000000000000000000e+00
1.068000000000000000e+03,5.766804110843959386e-01,0.000000000000000000e+00
1.069000000000000000e+03,1.284428872081794903e+00,0.000000000000000000e+00
1.070000000000000000e+03,1.368420361958470499e+00,0.000000000000000000e+00
1.071000000000000000e+03,1.497521267185502269e+00,0.000000000000000000e+00
1.072000000000000000e+03,2.008691704400012767e+00,0.000000000000000000e+00
1.073000000000000000e+03,1.823891823661609957e+00,0.000000000000000000e+00
1.074000000000000000e+03,8.925898318954064159e-01,0.000000000000000000e+00
1.075000000000000000e+03,5.230430122007930643e-02,0.000000000000000000e+00
1.076000000000000000e+03,-1.206757476175104538e+00,0.000000000000000000e+00
1.077000000000000000e+03,-1.414513969512035452e+00,0.000000000000000000e+00
1.078000000000000000e+03,-1.482977269858789082e+00,0.000000000000000000e+00
1.079000000000000000e+03,-1.398016915382478631e+00,0.000000000000000000e+00
1.080000000000000000e+03,-1.439246417080088714e+00,0.000000000000000000e+00
1.081000000000000000e+03,-1.100574753259915717e+00,0.000000000000000000e+00
1.082000000000000000e+03,-1.209884257227767712e+00,0.000000000000000000e+00
1.083000000000000000e+03,-8.726281901036058164e-01,0.000000000000000000e+00
1.084000000000000000e+03,-9.361969924109703189e-01,0.000000000000000000e+00
1.085000000000000000e+03,-9.245006835967858327e-01,0.000000000000000000e+00
1.086000000000000000e+03,-7.275536174426558977e-01,0.000000000000000000e+00
1.087000000000000000e+03,-6.536224484524979506e-01,0.000000000000000000e+00
1.088000000000000000e+03,-3.776278043383138883e-01,0.000000000000000000e+00
1.089000000000000000e+03,-4.727867088032090548e-01,0.000000000000000000e+00
1.090000000000000000e+03,-4.964088780958996194e-01,0.000000000000000000e+00
1.091000000000000000e+03,-2.642446643569457479e-02,0.000000000000000000e+00
1.092000000000000000e+03,-2.594643839036752109e-01,0.000000000000000000e+00
1.093000000000000000e+03,4.053100589763189987e-01,0.000000000000000000e+00
1.094000000000000000e+03,2.331935667454869410e-01,0.000000000000000000e+00
1.095000000000000000e+03,4.426793220417241659e-01,0.000000000000000000e+00
1.096000000000000000e+03,1.008706338006069986e-01,0.000000000000000000e+00
1.097000000000000000e+03,-2.440028173023817970e-01,0.000000000000000000e+00
1.098000000000000000e+03,-1.484390752823042808e-02,0.000000000000000000e+00
1.099000000000000000e+03,3.407098431359591867e-02,0.000000000000000000e+00
1.100000000000000000e+03,6.200002502904506524e-02,0.000000000000000000e+00
1.101000000000000000e+03,2.203672220651679003e-01,0.000000000000000000e+00
1.102000000000000000e+03,-7.969674557116158686e-01,0.000000000000000000e+00
1.103000000000000000e+03,2.799004579314287255e+00,0.000000000000000000e+00
1.104000000000000000e+03,1.362910129016030591e+00,1.000000000000000000e+00
1.105000000000000000e+03,-1.089359179203216454e+00,0.000000000000000000e+00
1.106000000000000000e+03,3.159166205822550033e-01,0.000000000000000000e+00
1.107000000000000000e+03,3.068483086529990578e-01,0.000000000000000000e+00
1.108000000000000000e+03,5.854931898994648609e-01,0.000000000000000000e+00
1.109000000000000000e+03,6.137130191255776301e-01,0.000000000000000000e+00
1.110000000000000000e+03,8.496910663254968465e-01,0.000000000000000000e+00
1.111000000000000000e+03,6.526114251336490035e-01,0.000000000000000000e+00
1.112000000000000000e+03,7.349558630172313700e-01,0.000000000000000000e+00
1.113000000000000000e+03,7.216760970637999817e-01,0.000000000000000000e+00
1.114000000000000000e+03,1.381425529639524807e+00,0.000000000000000000e+00
1.115000000000000000e+03,1.061837141166200427e+00,0.000000000000000000e+00
1.116000000000000000e+03,1.168742727435189588e+00,0.000000000000000000e+00
1.117000000000000000e+03,1.741672036529039014e+00,0.000000000000000000e+00
1.118000000000000000e+03,1.559879714151868324e+00,0.000000000000000000e+00
1.119000000000000000e+03,1.985915456365499709e+00,0.000000000000000000e+00
1.120000000000000000e+03,2.212095548921489740e+00,0.000000000000000000e+00
1.121000000000000000e+03,1.422137871839091128e+00,0.000000000000000000e+00
1.122000000000000000e+03,5.652153706173006914e-02,0.000000000000000000e+00
1.123000000000000000e+03,-8.968430457525445876e-01,0.000000000000000000e+00
1.124000000000000000e+03,-1.580194357643023961e+00,0.000000000000000000e+00
1.125000000000000000e+03,-1.147310509620013796e+00,0.000000000000000000e+00
1.126000000000000000e+03,-1.296819575939288427e+00,0.000000000000000000e+00
1.127000000000000000e+03,-1.344939559058791589e+00,0.000000000000000000e+00
1.128000000000000000e+03,-1.317183219203776234e+00,0.000000000000000000e+00
1.129000000000000000e+03,-1.328895718016066985e+00,0.000000000000000000e+00
1.130000000000000000e+03,-8.861973402030826064e-01,0.000000000000000000e+00
1.131000000000000000e+03,-8.313637513353099306e-01,0.000000000000000000e+00
1.132000000000000000e+03,-1.054618925418020936e+00,0.000000000000000000e+00
1.133000000000000000e+03,-8.018541366845417517e-01,0.000000000000000000e+00
1.134000000000000000e+03,-8.639010077369346785e-01,0.000000000000000000e+00
1.135000000000000000e+03,-5.965532578448832224e-01,0.000000000000000000e+00
1.136000000000000000e+03,-4.704338053753321369e-01,0.000000000000000000e+00
1.137000000000000000e+03,-5.112413471912564678e-01,0.000000000000000000e+00
1.138000000000000000e+03,-3.427316333041811047e-01,0.000000000000000000e+00
1.139000000000000000e+03,-1.424609307086590337e-01,0.000000000000000000e+00
1.140000000000000000e+03,5.591575942283608103e-02,0.000000000000000000e+00
1.141000000000000000e+03,-1.467944092559739511e-01,0.000000000000000000e+00
1.142000000000000000e+03,-1.698718882125749008e-01,0.000000000000000000e+00
1.143000000000000000e+03,-4.628425592152765056e-01,0.000000000000000000e+00
1.144000000000000000e+03,-5.699207112992813462e-01,0.000000000000000000e+00
1.145000000000000000e+03,-3.349903377932182957e-01,0.000000000000000000e+00
1.146000000000000000e+03,-3.236606871893785708e-01,0.000000000000000000e+00
1.147000000000000000e+03,-1.870678503590493813e-01,0.000000000000000000e+00
1.148000000000000000e+03,-7.277594124147577226e-01,0.000000000000000000e+00
1.149000000000000000e+03,2.452535777534921024e+00,0.000000000000000000e+00
1.150000000000000000e+03,8.277623699589334860e-01,1.000000000000000000e+00
1.151000000000000000e+03,-1.251621410405534984e+00,0.000000000000000000e+00
1.152000000000000000e+03,4.737128954192557084e-01,0.000000000000000000e+00
1.153000000000000000e+03,-2.054833970969347778e-01,0.000000000000000000e+00
1.154000000000000000e+03,3.438031404166800309e-01,0.000000000000000000e+00
1.155000000000000000e+03,2.493657549017587460e-01,0.000000000000000000e+00
1.156000000000000000e+03,2.860359420285766840e-01,0.000000000000000000e+00
1.157000000000000000e+03,2.477685330446342815e-01,0.000000000000000000e+00
1.158000000000000000e+03,4.784811289053597094e-01,0.000000000000000000e+00
1.159000000000000000e+03,3.365013750032758710e-01,0.000000000000000000e+00
1.160000000000000000e+03,6.936507081763373384e-01,0.000000000000000000e+00
1.161000000000000000e+03,8.268209238582304721e-01,0.000000000000000000e+00
1.162000000000000000e+03,8.317949302164708847e-01,0.000000000000000000e+00
1.163000000000000000e+03,1.325685546201209153e+00,0.000000000000000000e+00
1.164000000000000000e+03,1.349780013082849228e+00,0.000000000000000000e+00
1.165000000000000000e+03,1.698621116470711012e+00,0.000000000000000000e+00
1.166000000000000000e+03,1.507587634329428328e+00,0.000000000000000000e+00
1.167000000000000000e+03,9.106939171433907632e-01,0.000000000000000000e+00
1.168000000000000000e+03,-4.275592870124190203e-01,0.000000000000000000e+00
1.169000000000000000e+03,-1.333581011476316913e+00,0.000000000000000000e+00
1.170000000000000000e+03,-1.487912730559974195e+00,0.000000000000000000e+00
1.171000000000000000e+03,-1.640391919247613295e+00,0.000000000000000000e+00
1.172000000000000000e+03,-1.470899147287251463e+00,0.000000000000000000e+00
1.173000000000000000e+03,-1.321257180818615096e+00,0.000000000000000000e+00
1.174000000000000000e+03,-1.064308631298500396e+00,0.000000000000000000e+00
1.175000000000000000e+03,-1.257747258829288173e+00,0.000000000000000000e+00
1.176000000000000000e+03,-1.034155549789157025e+00,0.000000000000000000e+00
1.177000000000000000e+03,-7.761664992235540739e-01,0.000000000000000000e+00
1.178000000000000000e+03,-9.405643225532163143e-01,0.000000000000000000e+00
1.179000000000000000e+03,-1.024303984345432905e+00,0.000000000000000000e+00
1.180000000000000000e+03,-5.510153342381968189e-01,0.000000000000000000e+00
1.181000000000000000e+03,-7.285169845735218752e-01,0.000000000000000000e+00
1.182000000000000000e+03,-3.261419897024424031e-01,0.000000000000000000e+00
1.183000000000000000e+03,-4.942434066901878476e-01,0.000000000000000000e+00
1.184000000000000000e+03,-2.739459130323790292e-01,0.000000000000000000e+00
1.185000000000000000e+03,-1.230468235158780309e-02,0.000000000000000000e+00
1.186000000000000000e+03,1.949836483320812053e-01,0.000000000000000000e+00
1.187000000000000000e+03,3.652110073004870006e-01,0.000000000000000000e+00
1.188000000000000000e+03,2.836404321152757313e-01,0.000000000000000000e+00
1.189000000000000000e+03,-1.110207894335979162e-01,0.000000000000000000e+00
1.190000000000000000e+03,-5.261625930253232414e-02,0.000000000000000000e+00
1.191000000000000000e+03,-2.658456890527783889e-01,0.000000000000000000e+00
1.192000000000000000e+03,2.418541893983311777e-02,0.000000000000000000e+00
1.193000000000000000e+03,-4.362409164005812828e-02,0.000000000000000000e+00
1.194000000000000000e+03,5.016114272035817473e-02,0.000000000000000000e+00
1.195000000000000000e+03,-7.909329358694396905e-01,0.000000000000000000e+00
1.196000000000000000e+03,3.353895617270442386e+00,0.000000000000000000e+00
1.197000000000000000e+03,6.995937770306835946e-01,1.000000000000000000e+00
1.198000000000000000e+03,-4.561746570143900836e-01,0.000000000000000000e+00
1.199000000000000000e+03,6.295721266646236991e-02,0.000000000000000000e+00
1.200000000000000000e+03,3.403959852138931097e-02,0.000000000000000000e+00
1.201000000000000000e+03,3.662626696409890803e-01,0.000000000000000000e+00
1.202000000000000000e+03,9.593830752593089650e-02,0.000000000000000000e+00
1.203000000000000000e+03,2.095652452025855983e-01,0.000000000000000000e+00
1.204000000000000000e+03,4.119338856683408823e-01,0.000000000000000000e+00
1.205000000000000000e+03,4.231321688849626339e-01,0.000000000000000000e+00
1.206000000000000000e+03,4.100581054643320789e-01,0.000000000000000000e+00
1.207000000000000000e+03,5.918600144893217951e-01,0.000000000000000000e+00
1.208000000000000000e+03,8.050087018545653006e-01,0.000000000000000000e+00
1.209000000000000000e+03,1.002578637810419782e+00,0.000000000000000000e+00
1.210000000000000000e+03,9.945991187733930206e-01,0.000000000000000000e+00
1.211000000000000000e+03,1.498679926913867311e+00,0.000000000000000000e+00
1.212000000000000000e+03,1.458934603632132232e+00,0.000000000000000000e+00
1.213000000000000000e+03,1.742104156058115860e+00,0.000000000000000000e+00
1.214000000000000000e+03,9.545902231398650795e-01,0.000000000000000000e+00
1.215000000000000000e+03,-6.366112023317652691e-01,0.000000000000000000e+00
1.216000000000000000e+03,-1.237231285020344407e+00,0.000000000000000000e+00
1.217000000000000000e+03,-1.443964269386267096e+00,0.000000000000000000e+00
1.218000000000000000e+03,-1.394920547361331753e+00,0.000000000000000000e+00
1.219000000000000000e+03,-1.331201537927819034e+00,0.000000000000000000e+00
1.220000000000000000e+03,-1.477410713454925251e+00,0.000000000000000000e+00
1.221000000000000000e+03,-1.399055875448339981e+00,0.000000000000000000e+00
1.222000000000000000e+03,-1.105457940312559062e+00,0.000000000000000000e+00
1.223000000000000000e+03,-8.734252861727556105e-01,0.000000000000000000e+00
1.224000000000000000e+03,-8.067699107171923956e-01,0.000000000000000000e+00
1.225000000000000000e+03,-9.253605038075856104e-01,0.000000000000000000e+00
1.226000000000000000e+03,-8.850861889380773340e-01,0.000000000000000000e+00
1.227000000000000000e+03,-5.753254097634139530e-01,0.000000000000000000e+00
1.228000000000000000e+03,-4.340991031435244007e-01,0.000000000000000000e+00
1.229000000000000000e+03,-5.196435800551758577e-01,0.000000000000000000e+00
1.230000000000000000e+03,-2.123513867544463141e-01,0.000000000000000000e+00
1.231000000000000000e+03,-3.362006184152097621e-01,0.000000000000000000e+00
1.232000000000000000e+03,8.013213678561116604e-02,0.000000000000000000e+00
1.233000000000000000e+03,3.275383895087171093e-01,0.000000000000000000e+00
1.234000000000000000e+03,6.188241299623650216e-01,0.000000000000000000e+00
1.235000000000000000e+03,1.067092423846199983e-01,0.000000000000000000e+00
1.236000000000000000e+03,-1.490841476339785018e-02,0.000000000000000000e+00
1.237000000000000000e+03,8.131288064852373876e-03,0.000000000000000000e+00
1.238000000000000000e+03,-1.375352203326754563e-01,0.000000000000000000e+00
1.239000000000000000e+03,3.557110106335094613e-01,0.000000000000000000e+00
1.240000000000000000e+03,-8.538553486412514375e-04,0.000000000000000000e+00
1.241000000000000000e+03,-1.776831538184653891e-01,0.000000000000000000e+00
1.242000000000000000e+03,5.154973584388098384e-01,0.000000000000000000e+00
1.243000000000000000e+03,3.607396681701596552e+00,0.000000000000000000e+00
1.244000000000000000e+03,4.466934142815939118e-02,1.000000000000000000e+00
1.245000000000000000e+03,1.584064939756705259e-01,0.000000000000000000e+00
1.246000000000000000e+03,3.831376325095186552e-01,0.000000000000000000e+00
1.247000000000000000e+03,5.894605999057708212e-01,0.000000000000000000e+00
1.248000000000000000e+03,4.454236914544132397e-01,0.000000000000000000e+00
1.249000000000000000e+03,7.545888434145365808e-01,0.000000000000000000e+00
1.250000000000000000e+03,6.075500230045256522e-01,0.000000000000000000e+00
1.251000000000000000e+03,6.718206048402661779e-01,0.000000000000000000e+00
1.252000000000000000e+03,9.578236873241074978e-01,0.000000000000000000e+00
1.253000000000000000e+03,9.727284094332577791e-01,0.000000000000000000e+00
1.254000000000000000e+03,1.182031880990014994e+00,0.000000000000000000e+00
1.255000000000000000e+03,1.152788803503361104e+00,0.000000000000000000e+00
1.256000000000000000e+03,1.229124605077396737e+00,0.000000000000000000e+00
1.257000000000000000e+03,1.826004193625349492e+00,0.000000000000000000e+00
1.258000000000000000e+03,1.907884385812390171e+00,0.000000000000000000e+00
1.259000000000000000e+03,2.058934767546325428e+00,0.000000000000000000e+00
1.260000000000000000e+03,1.777437134750220693e+00,0.000000000000000000e+00
1.261000000000000000e+03,5.901325431860506843e-01,0.000000000000000000e+00
1.262000000000000000e+03,-2.997293259151311701e-02,0.000000000000000000e+00
1.263000000000000000e+03,-1.146485387990052507e+00,0.000000000000000000e+00
1.264000000000000000e+03,-1.354277147193208242e+00,0.000000000000000000e+00
1.265000000000000000e+03,-1.410239450792297067e+00,0.000000000000000000e+00
1.266000000000000000e+03,-1.268334193893883244e+00,0.000000000000000000e+00
1.267000000000000000e+03,-1.276805455550312551e+00,0.000000000000000000e+00
1.268000000000000000e+03,-1.116877096233878097e+00,0.000000000000000000e+00
1.269000000000000000e+03,-1.048833207491485009e+00,0.000000000000000000e+00
1.270000000000000000e+03,-1.040447669487892135e+00,0.000000000000000000e+00
1.271000000000000000e+03,-1.082576442284369111e+00,0.000000000000000000e+00
1.272000000000000000e+03,-7.160417026474533708e-01,0.000000000000000000e+00
1.273000000000000000e+03,-6.720780189322500542e-01,0.000000000000000000e+00
1.274000000000000000e+03,-8.540587178657772505e-01,0.000000000000000000e+00
1.275000000000000000e+03,-6.870315138049182258e-01,0.000000000000000000e+00
1.276000000000000000e+03,-1.417810358889059763e-01,0.000000000000000000e+00
1.277000000000000000e+03,-1.404240991047142062e-01,0.000000000000000000e+00
1.278000000000000000e+03,4.862782062623412227e-02,0.000000000000000000e+00
1.279000000000000000e+03,-1.975575699006233352e-02,0.000000000000000000e+00
1.280000000000000000e+03,2.542035271255341580e-02,0.000000000000000000e+00
1.281000000000000000e+03,-2.537106711639495749e-01,0.000000000000000000e+00
1.282000000000000000e+03,-4.503567297323453622e-01,0.000000000000000000e+00
1.283000000000000000e+03,-5.839324858675390972e-01,0.000000000000000000e+00
1.284000000000000000e+03,-3.072606395159920845e-01,0.000000000000000000e+00
1.285000000000000000e+03,-4.741006070372585368e-01,0.000000000000000000e+00
1.286000000000000000e+03,7.839194760716156063e-02,0.000000000000000000e+00
1.287000000000000000e+03,-9.543436239869158566e-01,0.000000000000000000e+00
1.288000000000000000e+03,2.585128814303248035e+00,0.000000000000000000e+00
1.289000000000000000e+03,5.491674696835623370e-01,1.000000000000000000e+00
1.290000000000000000e+03,-1.605024567080532760e+00,0.000000000000000000e+00
1.291000000000000000e+03,2.014536434469180737e-01,0.000000000000000000e+00
1.292000000000000000e+03,-3.203111844742496245e-02,0.000000000000000000e+00
1.293000000000000000e+03,9.422189458604919576e-02,0.000000000000000000e+00
1.294000000000000000e+03,1.594022040052993361e-01,0.000000000000000000e+00
1.295000000000000000e+03,7.189138269475828791e-01,0.000000000000000000e+00
1.296000000000000000e+03,3.815439152424460190e-01,0.000000000000000000e+00
1.297000000000000000e+03,6.025864968130649757e-01,0.000000000000000000e+00
1.298000000000000000e+03,4.320914179778439501e-01,0.000000000000000000e+00
1.299000000000000000e+03,5.937808964533386469e-01,0.000000000000000000e+00
1.300000000000000000e+03,8.495240173608904488e-01,0.000000000000000000e+00
1.301000000000000000e+03,1.161759088089103553e+00,0.000000000000000000e+00
1.302000000000000000e+03,1.306076852957279044e+00,0.000000000000000000e+00
1.303000000000000000e+03,1.550463006609630101e+00,0.000000000000000000e+00
1.304000000000000000e+03,1.693617471939530938e+00,0.000000000000000000e+00
1.305000000000000000e+03,1.787070772187515644e+00,0.000000000000000000e+00
1.306000000000000000e+03,8.400932215404346426e-01,0.000000000000000000e+00
1.307000000000000000e+03,-5.274326130260016399e-01,0.000000000000000000e+00
1.308000000000000000e+03,-1.296351145926164072e+00,0.000000000000000000e+00
1.309000000000000000e+03,-1.737076952848557898e+00,0.000000000000000000e+00
1.310000000000000000e+03,-1.696897347858327798e+00,0.000000000000000000e+00
1.311000000000000000e+03,-1.672074231257266508e+00,0.000000000000000000e+00
1.312000000000000000e+03,-1.519253331000065987e+00,0.000000000000000000e+00
1.313000000000000000e+03,-1.328138432202490282e+00,0.000000000000000000e+00
1.314000000000000000e+03,-1.128077393366423209e+00,0.000000000000000000e+00
1.315000000000000000e+03,-1.402267357496131517e+00,0.000000000000000000e+00
1.316000000000000000e+03,-1.036758990800308089e+00,0.000000000000000000e+00
1.317000000000000000e+03,-9.616037894398461461e-01,0.000000000000000000e+00
1.318000000000000000e+03,-8.806236719755393683e-01,0.000000000000000000e+00
1.319000000000000000e+03,-9.011979214444720832e-01,0.000000000000000000e+00
1.320000000000000000e+03,-6.872517223746937853e-01,0.000000000000000000e+00
1.321000000000000000e+03,-6.865922059156021051e-01,0.000000000000000000e+00
1.322000000000000000e+03,-1.149191454974288484e-01,0.000000000000000000e+00
1.323000000000000000e+03,-2.599404527105020346e-01,0.000000000000000000e+00
1.324000000000000000e+03,-9.105876155863266985e-02,0.000000000000000000e+00
1.325000000000000000e+03,-4.348661197543665091e-01,0.000000000000000000e+00
1.326000000000000000e+03,-5.196712967924230764e-01,0.000000000000000000e+00
1.327000000000000000e+03,-3.473971405077701524e-01,0.000000000000000000e+00
1.328000000000000000e+03,-3.461111226794371110e-01,0.000000000000000000e+00
1.329000000000000000e+03,-5.393608549611129677e-01,0.000000000000000000e+00
1.330000000000000000e+03,-2.933349800506398486e-01,0.000000000000000000e+00
1.331000000000000000e+03,-7.629396118815320316e-01,0.000000000000000000e+00
1.332000000000000000e+03,1.256373682719449381e+00,0.000000000000000000e+00
1.333000000000000000e+03,2.365602793484616218e+00,0.000000000000000000e+00
1.334000000000000000e+03,-1.549350539581073605e+00,1.000000000000000000e+00
1.335000000000000000e+03,-3.306125843304004355e-03,0.000000000000000000e+00
1.336000000000000000e+03,-6.032730276815521930e-02,0.000000000000000000e+00
1.337000000000000000e+03,5.021813695414247825e-01,0.000000000000000000e+00
1.338000000000000000e+03,3.238384783917927501e-01,0.000000000000000000e+00
1.339000000000000000e+03,6.080236926586154445e-01,0.000000000000000000e+00
1.340000000000000000e+03,3.435749370984679252e-01,0.000000000000000000e+00
1.341000000000000000e+03,6.151478958065124125e-01,0.000000000000000000e+00
1.342000000000000000e+03,3.682116963258812992e-01,0.000000000000000000e+00
1.343000000000000000e+03,8.641506120242260502e-01,0.000000000000000000e+00
1.344000000000000000e+03,7.924716436161844957e-01,0.000000000000000000e+00
1.345000000000000000e+03,1.159801890958925830e+00,0.000000000000000000e+00
1.346000000000000000e+03,1.125712686781856098e+00,0.000000000000000000e+00
1.347000000000000000e+03,1.469427227773543398e+00,0.000000000000000000e+00
1.348000000000000000e+03,1.568545612488236651e+00,0.000000000000000000e+00
1.349000000000000000e+03,2.100238265482932132e+00,0.000000000000000000e+00
1.350000000000000000e+03,1.073302084558342750e+00,0.000000000000000000e+00
1.351000000000000000e+03,1.355765470442810705e-01,0.000000000000000000e+00
1.352000000000000000e+03,-1.056875884400663379e+00,0.000000000000000000e+00
1.353000000000000000e+03,-1.234776211058267847e+00,0.000000000000000000e+00
1.354000000000000000e+03,-1.613814681486752445e+00,0.000000000000000000e+00
1.355000000000000000e+03,-1.463229840432969331e+00,0.000000000000000000e+00
1.356000000000000000e+03,-1.276584609100403833e+00,0.000000000000000000e+00
1.357000000000000000e+03,-1.133348086685237899e+00,0.000000000000000000e+00
1.358000000000000000e+03,-1.209246471648687704e+00,0.000000000000000000e+00
1.359000000000000000e+03,-8.948002361749289868e-01,0.000000000000000000e+00
1.360000000000000000e+03,-1.220735666280504672e+00,0.000000000000000000e+00
1.361000000000000000e+03,-5.723825453248067019e-01,0.000000000000000000e+00
1.362000000000000000e+03,-8.258363881158009567e-01,0.000000000000000000e+00
1.363000000000000000e+03,-5.490234238867133243e-01,0.000000000000000000e+00
1.364000000000000000e+03,-3.954651300063042885e-01,0.000000000000000000e+00
1.365000000000000000e+03,-3.621956655114444423e-01,0.000000000000000000e+00
1.366000000000000000e+03,-3.549732100188365269e-01,0.000000000000000000e+00
1.367000000000000000e+03,3.399899521365575272e-01,0.000000000000000000e+00
1.368000000000000000e+03,1.085398100236353580e-01,0.000000000000000000e+00
1.369000000000000000e+03,3.362453032701040456e-01,0.000000000000000000e+00
1.370000000000000000e+03,4.056326711455542772e-02,0.000000000000000000e+00
1.371000000000000000e+03,-8.386117068875578728e-02,0.000000000000000000e+00
1.372000000000000000e+03,-5.348719348462810386e-01,0.000000000000000000e+00
1.373000000000000000e+03,3.548672871351105096e-01,0.000000000000000000e+00
1.374000000000000000e+03,-1.672604710075238088e-01,0.000000000000000000e+00
1.375000000000000000e+03,6.170751371581000289e-01,0.000000000000000000e+00
1.376000000000000000e+03,-9.893733183979550594e-01,0.000000000000000000e+00
1.377000000000000000e+03,2.394811492840921208e+00,0.000000000000000000e+00
1.378000000000000000e+03,2.324926791830276507e+00,1.000000000000000000e+00
1.379000000000000000e+03,-4.347322228323288185e-01,0.000000000000000000e+00
1.380000000000000000e+03,6.456073891841535017e-01,0.000000000000000000e+00
1.381000000000000000e+03,1.734871518655864697e-01,0.000000000000000000e+00
1.382000000000000000e+03,5.586556754114967438e-01,0.000000000000000000e+00
1.383000000000000000e+03,6.887383181366527607e-01,0.000000000000000000e+00
1.384000000000000000e+03,7.625738373453403440e-01,0.000000000000000000e+00
1.385000000000000000e+03,8.166518838044627415e-01,0.000000000000000000e+00
1.386000000000000000e+03,7.724936488078628649e-01,0.000000000000000000e+00
1.387000000000000000e+03,8.231296442386792922e-01,0.000000000000000000e+00
1.388000000000000000e+03,1.234002745962239134e+00,0.000000000000000000e+00
1.389000000000000000e+03,1.294058269008136364e+00,0.000000000000000000e+00
1.390000000000000000e+03,1.513640684788482016e+00,0.000000000000000000e+00
1.391000000000000000e+03,1.470130843036369317e+00,0.000000000000000000e+00
1.392000000000000000e+03,1.880899836637041522e+00,0.000000000000000000e+00
1.393000000000000000e+03,1.975284343775274953e+00,0.000000000000000000e+00
1.394000000000000000e+03,2.221355693067418535e+00,0.000000000000000000e+00
1.395000000000000000e+03,1.623504860670350158e+00,0.000000000000000000e+00
1.396000000000000000e+03,2.850713482151550071e-01,0.000000000000000000e+00
1.397000000000000000e+03,-6.257697586953372415e-01,0.000000000000000000e+00
1.398000000000000000e+03,-8.973384443415207690e-01,0.000000000000000000e+00
1.399000000000000000e+03,-1.413085849284063000e+00,0.000000000000000000e+00
1.400000000000000000e+03,-9.855197663907321326e-01,0.000000000000000000e+00
1.401000000000000000e+03,-1.057767960484834902e+00,0.000000000000000000e+00
1.402000000000000000e+03,-7.789357973347212916e-01,0.000000000000000000e+00
1.403000000000000000e+03,-9.733870638337110970e-01,0.000000000000000000e+00
1.404000000000000000e+03,-8.488469706303412021e-01,0.000000000000000000e+00
1.405000000000000000e+03,-7.384781905635213750e-01,0.000000000000000000e+00
1.406000000000000000e+03,-6.498598895714998713e-01,0.000000000000000000e+00
1.407000000000000000e+03,-7.829728788183842880e-01,0.000000000000000000e+00
1.408000000000000000e+03,-6.338649483398216544e-01,0.000000000000000000e+00
1.409000000000000000e+03,-6.821157920675200437e-01,0.000000000000000000e+00
1.410000000000000000e+03,-5.218583351198216036e-01,0.000000000000000000e+00
1.411000000000000000e+03,-4.237042370235726829e-01,0.000000000000000000e+00
1.412000000000000000e+03,-1.870324095723001623e-01,0.000000000000000000e+00
1.413000000000000000e+03,1.618987880695471615e-01,0.000000000000000000e+00
1.414000000000000000e+03,4.576777316911759264e-02,0.000000000000000000e+00
1.415000000000000000e+03,-1.632943059563808086e-01,0.000000000000000000e+00
1.416000000000000000e+03,-2.440991878246234481e-01,0.000000000000000000e+00
1.417000000000000000e+03,-5.592094109764915721e-01,0.000000000000000000e+00
1.418000000000000000e+03,-2.430779190547571189e-01,0.000000000000000000e+00
1.419000000000000000e+03,-6.642548621516805030e-01,0.000000000000000000e+00
1.420000000000000000e+03,1.377329004250657241e-01,0.000000000000000000e+00
1.421000000000000000e+03,-9.379135701151036786e-01,0.000000000000000000e+00
1.422000000000000000e+03,5.852946218219111651e-01,0.000000000000000000e+00
1.423000000000000000e+03,2.855409155740749938e+00,0.000000000000000000e+00
1.424000000000000000e+03,-9.527065571612030048e-01,1.000000000000000000e+00
1.425000000000000000e+03,-2.566636950628080061e-01,0.000000000000000000e+00
1.426000000000000000e+03,-5.769172663601206466e-03,0.000000000000000000e+00
1.427000000000000000e+03,-1.816903323997981490e-02,0.000000000000000000e+00
1.428000000000000000e+03,1.601452081726390808e-01,0.000000000000000000e+00
1.429000000000000000e+03,1.331466195180683598e-01,0.000000000000000000e+00
1.430000000000000000e+03,3.491319873479363511e-02,0.000000000000000000e+00
1.431000000000000000e+03,4.311680863831488519e-01,0.000000000000000000e+00
1.432000000000000000e+03,3.266542341541869288e-01,0.000000000000000000e+00
1.433000000000000000e+03,5.770789049869164966e-01,0.000000000000000000e+00
1.434000000000000000e+03,4.775911326216261132e-01,0.000000000000000000e+00
1.435000000000000000e+03,8.804409196743777644e-01,0.000000000000000000e+00
1.436000000000000000e+03,7.228984071584316773e-01,0.000000000000000000e+00
1.437000000000000000e+03,1.229749440779692948e+00,0.000000000000000000e+00
1.438000000000000000e+03,1.467190127069551320e+00,0.000000000000000000e+00
1.439000000000000000e+03,1.789437629955406228e+00,0.000000000000000000e+00
1.440000000000000000e+03,1.221219343020525816e+00,0.000000000000000000e+00
1.441000000000000000e+03,1.240583149238407290e-01,0.000000000000000000e+00
1.442000000000000000e+03,-1.227363732876917801e+00,0.000000000000000000e+00
1.443000000000000000e+03,-1.500587451086836221e+00,0.000000000000000000e+00
1.444000000000000000e+03,-1.547388721823445668e+00,0.000000000000000000e+00
1.445000000000000000e+03,-1.704652687404979661e+00,0.000000000000000000e+00
1.446000000000000000e+03,-1.417638705251698994e+00,0.000000000000000000e+00
1.447000000000000000e+03,-1.598680860594523301e+00,0.000000000000000000e+00
1.448000000000000000e+03,-1.271594633777105132e+00,0.000000000000000000e+00
1.449000000000000000e+03,-1.432861438255771835e+00,0.000000000000000000e+00
1.450000000000000000e+03,-1.276935209865483589e+00,0.000000000000000000e+00
1.451000000000000000e+03,-8.893989540158250273e-01,0.000000000000000000e+00
1.452000000000000000e+03,-1.155045775414220710e+00,0.000000000000000000e+00
1.453000000000000000e+03,-1.064826622362997854e+00,0.000000000000000000e+00
1.454000000000000000e+03,-7.757364141346576591e-01,0.000000000000000000e+00
1.455000000000000000e+03,-9.058794217051072684e-01,0.000000000000000000e+00
1.456000000000000000e+03,-5.811823194513376922e-01,0.000000000000000000e+00
1.457000000000000000e+03,-3.174927807484388409e-01,0.000000000000000000e+00
1.458000000000000000e+03,-2.629327920418258469e-01,0.000000000000000000e+00
1.459000000000000000e+03,1.580863820266486808e-01,0.000000000000000000e+00
1.460000000000000000e+03,1.780513509083536672e-02,0.000000000000000000e+00
1.461000000000000000e+03,-5.537459608710643133e-01,0.000000000000000000e+00
1.462000000000000000e+03,-3.424930370166641147e-01,0.000000000000000000e+00
1.463000000000000000e+03,-4.748579827085900873e-01,0.000000000000000000e+00
1.464000000000000000e+03,-3.237624101832093926e-01,0.000000000000000000e+00
1.465000000000000000e+03,-6.234161887474585217e-01,0.000000000000000000e+00
1.466000000000000000e+03,2.384050683549298888e-01,0.000000000000000000e+00
1.467000000000000000e+03,-1.085077054858307966e+00,0.000000000000000000e+00
1.468000000000000000e+03,2.208025965627416376e+00,0.000000000000000000e+00
1.469000000000000000e+03,1.712907775049637316e+00,1.000000000000000000e+00
1.470000000000000000e+03,-1.408043703408111913e+00,0.000000000000000000e+00
1.471000000000000000e+03,1.031911529759562719e-02,0.000000000000000000e+00
1.472000000000000000e+03,1.816818539228071405e-01,0.000000000000000000e+00
1.473000000000000000e+03,6.299972680826936289e-01,0.000000000000000000e+00
1.474000000000000000e+03,1.454741980258059120e-01,0.000000000000000000e+00
1.475000000000000000e+03,6.147226178852271961e-01,0.000000000000000000e+00
1.476000000000000000e+03,4.860169534238293898e-01,0.000000000000000000e+00
1.477000000000000000e+03,6.908759714658533335e-01,0.000000000000000000e+00
1.478000000000000000e+03,6.695763738446511848e-01,0.000000000000000000e+00
1.479000000000000000e+03,1.053152512200689284e+00,0.000000000000000000e+00
1.480000000000000000e+03,8.076115040385302146e-01,0.000000000000000000e+00
1.481000000000000000e+03,1.471804380033177262e+00,0.000000000000000000e+00
1.482000000000000000e+03,1.229660826603518053e+00,0.000000000000000000e+00
1.483000000000000000e+03,1.858818083495211271e+00,0.000000000000000000e+00
1.484000000000000000e+03,1.916305951600014046e+00,0.000000000000000000e+00
1.485000000000000000e+03,2.210400769051394931e+00,0.000000000000000000e+00
1.486000000000000000e+03,1.297324232680398870e+00,0.000000000000000000e+00
1.487000000000000000e+03,3.027847466226609163e-01,0.000000000000000000e+00
1.488000000000000000e+03,-1.006146959678982489e+00,0.000000000000000000e+00
1.489000000000000000e+03,-9.364059172722709601e-01,0.000000000000000000e+00
1.490000000000000000e+03,-1.476498111636225241e+00,0.000000000000000000e+00
1.491000000000000000e+03,-1.132627420418633957e+00,0.000000000000000000e+00
1.492000000000000000e+03,-9.582550883311311551e-01,0.000000000000000000e+00
1.493000000000000000e+03,-1.114228448089811918e+00,0.000000000000000000e+00
1.494000000000000000e+03,-8.471553051768032638e-01,0.000000000000000000e+00
1.495000000000000000e+03,-7.200884119870467615e-01,0.000000000000000000e+00
1.496000000000000000e+03,-7.480145363185738416e-01,0.000000000000000000e+00
1.497000000000000000e+03,-6.174557774823815626e-01,0.000000000000000000e+00
1.498000000000000000e+03,-6.840451224643996353e-01,0.000000000000000000e+00
1.499000000000000000e+03,-4.281872718280735901e-01,0.000000000000000000e+00
1.500000000000000000e+03,-3.544063856569186211e-01,0.000000000000000000e+00
1.501000000000000000e+03,-7.084213587916431132e-02,0.000000000000000000e+00
1.502000000000000000e+03,-2.476278326802713869e-01,0.000000000000000000e+00
1.503000000000000000e+03,2.950284406185880726e-01,0.000000000000000000e+00
1.504000000000000000e+03,1.330448760202559699e-01,0.000000000000000000e+00
1.505000000000000000e+03,3.095896029503545921e-01,0.000000000000000000e+00
1.506000000000000000e+03,-6.371741558678122030e-02,0.000000000000000000e+00
1.507000000000000000e+03,-2.915298760217604479e-01,0.000000000000000000e+00
1.508000000000000000e+03,-4.653144907574665590e-01,0.000000000000000000e+00
1.509000000000000000e+03,1.094322931194962323e-01,0.000000000000000000e+00
1.510000000000000000e+03,-1.115439344309019087e-01,0.000000000000000000e+00
1.511000000000000000e+03,9.601994390727482120e-02,0.000000000000000000e+00
1.512000000000000000e+03,-6.192504178833609929e-01,0.000000000000000000e+00
1.513000000000000000e+03,3.156714303838634716e+00,0.000000000000000000e+00
1.514000000000000000e+03,1.716969316968429971e-01,1.000000000000000000e+00
1.515000000000000000e+03,-6.367172952996164037e-01,0.000000000000000000e+00
1.516000000000000000e+03,2.501435367258414977e-01,0.000000000000000000e+00
1.517000000000000000e+03,2.822674529406045130e-01,0.000000000000000000e+00
1.518000000000000000e+03,4.837569780043310952e-01,0.000000000000000000e+00
1.519000000000000000e+03,6.467899956329536959e-01,0.000000000000000000e+00
1.520000000000000000e+03,5.079992197575293744e-01,0.000000000000000000e+00
1.521000000000000000e+03,6.897693487242571031e-01,0.000000000000000000e+00
1.522000000000000000e+03,7.074749240925733984e-01,0.000000000000000000e+00
1.523000000000000000e+03,6.463437936133287209e-01,0.000000000000000000e+00
1.524000000000000000e+03,9.177866897910991195e-01,0.000000000000000000e+00
1.525000000000000000e+03,1.063096674375167972e+00,0.000000000000000000e+00
1.526000000000000000e+03,1.036855551448394364e+00,0.000000000000000000e+00
1.527000000000000000e+03,1.354735777215415382e+00,0.000000000000000000e+00
1.528000000000000000e+03,1.749844906382689302e+00,0.000000000000000000e+00
1.529000000000000000e+03,1.732883296744858859e+00,0.000000000000000000e+00
1.530000000000000000e+03,2.035794528344580190e+00,0.000000000000000000e+00
1.531000000000000000e+03,6.510389086059791275e-01,0.000000000000000000e+00
1.532000000000000000e+03,-5.118891564454755017e-01,0.000000000000000000e+00
1.533000000000000000e+03,-1.100961252719404593e+00,0.000000000000000000e+00
1.534000000000000000e+03,-1.449203200490356336e+00,0.000000000000000000e+00
1.535000000000000000e+03,-1.326481426460251578e+00,0.000000000000000000e+00
1.536000000000000000e+03,-1.547408060797870188e+00,0.000000000000000000e+00
1.537000000000000000e+03,-1.318059323187401599e+00,0.000000000000000000e+00
1.538000000000000000e+03,-1.169373221040822086e+00,0.000000000000000000e+00
1.539000000000000000e+03,-1.262712656853991922e+00,0.000000000000000000e+00
1.540000000000000000e+03,-9.960683738760950368e-01,0.000000000000000000e+00
1.541000000000000000e+03,-7.380369534917260443e-01,0.000000000000000000e+00
1.542000000000000000e+03,-1.037028083421801083e+00,0.000000000000000000e+00
1.543000000000000000e+03,-8.204722637982408973e-01,0.000000000000000000e+00
1.544000000000000000e+03,-8.120865871911980838e-01,0.000000000000000000e+00
1.545000000000000000e+03,-4.356166873769172776e-01,0.000000000000000000e+00
1.546000000000000000e+03,-5.029766107531516983e-01,0.000000000000000000e+00
1.547000000000000000e+03,-2.698467500011548018e-02,0.000000000000000000e+00
1.548000000000000000e+03,-1.410961057198959756e-01,0.000000000000000000e+00
1.549000000000000000e+03,-7.319133355171383859e-02,0.000000000000000000e+00
1.550000000000000000e+03,-5.203414111737509895e-01,0.000000000000000000e+00
1.551000000000000000e+03,-1.622034352151080772e-01,0.000000000000000000e+00
1.552000000000000000e+03,-6.300230723518965847e-01,0.000000000000000000e+00
1.553000000000000000e+03,-2.255973474015428581e-01,0.000000000000000000e+00
1.554000000000000000e+03,-4.979858630917116114e-01,0.000000000000000000e+00
1.555000000000000000e+03,-2.392700172916850943e-01,0.000000000000000000e+00
1.556000000000000000e+03,-1.049447239905583862e+00,0.000000000000000000e+00
1.557000000000000000e+03,1.851908480354282460e+00,0.000000000000000000e+00
1.558000000000000000e+03,1.840719410886370477e+00,1.000000000000000000e+00
1.559000000000000000e+03,-8.965173400957584526e-01,0.000000000000000000e+00
1.560000000000000000e+03,1.785912614422072164e-01,0.000000000000000000e+00
1.561000000000000000e+03,-6.894273452483722087e-02,0.000000000000000000e+00
1.562000000000000000e+03,4.572943747872037501e-01,0.000000000000000000e+00
1.563000000000000000e+03,-1.647209959214212815e-01,0.000000000000000000e+00
1.564000000000000000e+03,5.062977057332671560e-01,0.000000000000000000e+00
1.565000000000000000e+03,1.501096661749419803e-01,0.000000000000000000e+00
1.566000000000000000e+03,7.351979197507174657e-01,0.000000000000000000e+00
1.567000000000000000e+03,3.969243916683585227e-01,0.000000000000000000e+00
1.568000000000000000e+03,8.125374582325068928e-01,0.000000000000000000e+00
1.569000000000000000e+03,6.473241556076189118e-01,0.000000000000000000e+00
1.570000000000000000e+03,1.152996556112666049e+00,0.000000000000000000e+00
1.571000000000000000e+03,1.052127863292562360e+00,0.000000000000000000e+00
1.572000000000000000e+03,1.549600292898788867e+00,0.000000000000000000e+00
1.573000000000000000e+03,1.606921972854078229e+00,0.000000000000000000e+00
1.574000000000000000e+03,1.757389591850262001e+00,0.000000000000000000e+00
1.575000000000000000e+03,1.336675403149356844e+00,0.000000000000000000e+00
1.576000000000000000e+03,-2.426888731856687575e-01,0.000000000000000000e+00
1.577000000000000000e+03,-1.026636689144420522e+00,0.000000000000000000e+00
1.578000000000000000e+03,-1.418806623411225099e+00,0.000000000000000000e+00
1.579000000000000000e+03,-1.331790699520944088e+00,0.000000000000000000e+00
1.580000000000000000e+03,-1.284007464268967613e+00,0.000000000000000000e+00
1.581000000000000000e+03,-1.271355188505651768e+00,0.000000000000000000e+00
1.582000000000000000e+03,-1.083314969745276191e+00,0.000000000000000000e+00
1.583000000000000000e+03,-1.026756668913646031e+00,0.000000000000000000e+00
1.584000000000000000e+03,-1.177656069238594005e+00,0.000000000000000000e+00
1.585000000000000000e+03,-1.016793284719591517e+00,0.000000000000000000e+00
1.586000000000000000e+03,-6.669163173262729893e-01,0.000000000000000000e+00
1.587000000000000000e+03,-9.113836052594610493e-01,0.000000000000000000e+00
