timestamp,ecg_measurement,qrs_detected
0.000000000000000000e+00,3.378834201148350064e-02,0.000000000000000000e+00
1.000000000000000000e+00,2.604056937456257492e-02,0.000000000000000000e+00
2.000000000000000000e+00,6.398328340263069458e-02,0.000000000000000000e+00
3.000000000000000000e+00,1.309423160025296740e-01,0.000000000000000000e+00
4.000000000000000000e+00,1.237077265509707036e-01,0.000000000000000000e+00
5.000000000000000000e+00,2.089320635892528977e-01,0.000000000000000000e+00
6.000000000000000000e+00,1.687527610347580032e-01,0.000000000000000000e+00
7.000000000000000000e+00,8.901173716211641107e-02,0.000000000000000000e+00
8.000000000000000000e+00,-7.515914974351181610e-02,0.000000000000000000e+00
9.000000000000000000e+00,-1.489254618467424074e-01,0.000000000000000000e+00
1.000000000000000000e+01,-2.004281670062807719e-01,0.000000000000000000e+00
1.100000000000000000e+01,-1.659026236251416042e-01,0.000000000000000000e+00
1.200000000000000000e+01,-1.778980779443985194e-01,0.000000000000000000e+00
1.300000000000000000e+01,-1.596324079970151966e-01,0.000000000000000000e+00
1.400000000000000000e+01,-1.589067691438809937e-01,0.000000000000000000e+00
1.500000000000000000e+01,-1.241353173925364706e-01,0.000000000000000000e+00
1.600000000000000000e+01,-1.603113281779740551e-01,0.000000000000000000e+00
1.700000000000000000e+01,-6.733987202720637111e-02,0.000000000000000000e+00
1.800000000000000000e+01,-1.214259344019387732e-01,0.000000000000000000e+00
1.900000000000000000e+01,-9.837437315905982194e-02,0.000000000000000000e+00
2.000000000000000000e+01,-5.013336206813410328e-02,0.000000000000000000e+00
2.100000000000000000e+01,-7.131242206820570528e-02,0.000000000000000000e+00
2.200000000000000000e+01,3.924381266584316477e-03,0.000000000000000000e+00
2.300000000000000000e+01,1.541726932823072899e-03,0.000000000000000000e+00
2.400000000000000000e+01,2.088991414460053542e-02,0.000000000000000000e+00
2.500000000000000000e+01,2.566684952327338842e-02,0.000000000000000000e+00
2.600000000000000000e+01,8.452824741783893092e-02,0.000000000000000000e+00
2.700000000000000000e+01,8.233534640300667340e-02,0.000000000000000000e+00
2.800000000000000000e+01,4.380004776478042816e-02,0.000000000000000000e+00
2.900000000000000000e+01,1.613604938195302516e-03,0.000000000000000000e+00
3.000000000000000000e+01,-1.966991631775272947e-02,0.000000000000000000e+00
3.100000000000000000e+01,-1.632264857273675943e-02,0.000000000000000000e+00
3.200000000000000000e+01,1.067665720637729458e-02,0.000000000000000000e+00
3.300000000000000000e+01,5.072261421913668022e-02,0.000000000000000000e+00
3.400000000000000000e+01,-1.014781885411076279e-01,0.000000000000000000e+00
3.500000000000000000e+01,1.240469240090450870e-01,0.000000000000000000e+00
3.600000000000000000e+01,4.542715140984288635e-01,0.000000000000000000e+00
3.700000000000000000e+01,-7.977868211223250461e-02,0.000000000000000000e+00
3.800000000000000000e+01,4.662469526404073444e-02,0.000000000000000000e+00
3.900000000000000000e+01,1.431901030603040768e-02,0.000000000000000000e+00
4.000000000000000000e+01,8.251930082298272739e-02,0.000000000000000000e+00
4.100000000000000000e+01,5.317203441645684120e-02,0.000000000000000000e+00
4.200000000000000000e+01,7.534321798652465763e-02,0.000000000000000000e+00
4.300000000000000000e+01,8.293636182240363142e-02,0.000000000000000000e+00
4.400000000000000000e+01,7.997482305478451070e-02,0.000000000000000000e+00
4.500000000000000000e+01,8.308419790192790588e-02,0.000000000000000000e+00
4.600000000000000000e+01,1.213040522140299005e-01,0.000000000000000000e+00
4.700000000000000000e+01,1.165856375503196707e-01,0.000000000000000000e+00
4.800000000000000000e+01,1.422172507598514213e-01,0.000000000000000000e+00
4.900000000000000000e+01,1.706757600666490848e-01,0.000000000000000000e+00
5.000000000000000000e+01,1.745067015347299966e-01,0.000000000000000000e+00
5.100000000000000000e+01,1.912039045826794681e-01,0.000000000000000000e+00
5.200000000000000000e+01,2.446965314953994386e-01,0.000000000000000000e+00
5.300000000000000000e+01,2.169517085512966958e-01,0.000000000000000000e+00
5.400000000000000000e+01,7.861480254950468927e-02,0.000000000000000000e+00
5.500000000000000000e+01,-7.032394508493888807e-02,0.000000000000000000e+00
5.600000000000000000e+01,-1.690552265555820832e-01,0.000000000000000000e+00
5.700000000000000000e+01,-2.187148873278445260e-01,0.000000000000000000e+00
5.800000000000000000e+01,-2.258427974450697151e-01,0.000000000000000000e+00
5.900000000000000000e+01,-1.637333306679238376e-01,0.000000000000000000e+00
6.000000000000000000e+01,-2.130178935372784021e-01,0.000000000000000000e+00
6.100000000000000000e+01,-2.110087916287947951e-01,0.000000000000000000e+00
6.200000000000000000e+01,-1.510025444485464940e-01,0.000000000000000000e+00
6.300000000000000000e+01,-1.976664778417988877e-01,0.000000000000000000e+00
6.400000000000000000e+01,-1.611948294049402874e-01,0.000000000000000000e+00
6.500000000000000000e+01,-1.368653190689887167e-01,0.000000000000000000e+00
6.600000000000000000e+01,-1.276997780926449055e-01,0.000000000000000000e+00
6.700000000000000000e+01,-1.300164351266352158e-01,0.000000000000000000e+00
6.800000000000000000e+01,-8.790841007218824776e-02,0.000000000000000000e+00
6.900000000000000000e+01,-8.401117751104821008e-02,0.000000000000000000e+00
7.000000000000000000e+01,-5.666942583845663989e-02,0.000000000000000000e+00
7.100000000000000000e+01,-5.508223678138875895e-02,0.000000000000000000e+00
7.200000000000000000e+01,-2.300946566239092314e-02,0.000000000000000000e+00
7.300000000000000000e+01,4.950450675741031870e-02,0.000000000000000000e+00
7.400000000000000000e+01,3.674165179186991703e-02,0.000000000000000000e+00
7.500000000000000000e+01,4.655611531686457139e-02,0.000000000000000000e+00
7.600000000000000000e+01,-4.590244319589032590e-02,0.000000000000000000e+00
7.700000000000000000e+01,-1.969192250262541410e-02,0.000000000000000000e+00
7.800000000000000000e+01,-4.184020604545492933e-02,0.000000000000000000e+00
7.900000000000000000e+01,-4.215745752166235455e-03,0.000000000000000000e+00
8.000000000000000000e+01,1.438173437691083086e-02,0.000000000000000000e+00
8.100000000000000000e+01,-3.098044266466142439e-03,0.000000000000000000e+00
8.200000000000000000e+01,-6.267467611162663710e-02,0.000000000000000000e+00
8.300000000000000000e+01,4.410215891333179594e-01,0.000000000000000000e+00
8.400000000000000000e+01,4.158576201131049255e-02,0.000000000000000000e+00
8.500000000000000000e+01,-1.269328604899829793e-01,0.000000000000000000e+00
8.600000000000000000e+01,5.624602060567159001e-02,0.000000000000000000e+00
8.700000000000000000e+01,3.332155403140407701e-02,0.000000000000000000e+00
8.800000000000000000e+01,9.998499889049242140e-02,0.000000000000000000e+00
8.900000000000000000e+01,3.997894139763714244e-02,0.000000000000000000e+00
9.000000000000000000e+01,1.364894132016433448e-01,0.000000000000000000e+00
9.100000000000000000e+01,7.250130347440697509e-02,0.000000000000000000e+00
9.200000000000000000e+01,1.433681829592811374e-01,0.000000000000000000e+00
9.300000000000000000e+01,9.478865081239236379e-02,0.000000000000000000e+00
9.400000000000000000e+01,1.784794366064774707e-01,0.000000000000000000e+00
9.500000000000000000e+01,1.290243733136019477e-01,0.000000000000000000e+00
9.600000000000000000e+01,1.854758324402144554e-01,0.000000000000000000e+00
9.700000000000000000e+01,2.364253833172797747e-01,0.000000000000000000e+00
9.800000000000000000e+01,2.507814609162517527e-01,0.000000000000000000e+00
9.900000000000000000e+01,2.756884492297292932e-01,0.000000000000000000e+00
1.000000000000000000e+02,3.062168319524164461e-01,0.000000000000000000e+00
1.010000000000000000e+02,1.892557235840029162e-01,0.000000000000000000e+00
1.020000000000000000e+02,3.673761518205170135e-02,0.000000000000000000e+00
1.030000000000000000e+02,-9.330126088337380164e-02,0.000000000000000000e+00
1.040000000000000000e+02,-2.051866117742233153e-01,0.000000000000000000e+00
1.050000000000000000e+02,-1.858880785036605143e-01,0.000000000000000000e+00
1.060000000000000000e+02,-1.923311368301072743e-01,0.000000000000000000e+00
1.070000000000000000e+02,-2.057087991036819219e-01,0.000000000000000000e+00
1.080000000000000000e+02,-1.629888203381829326e-01,0.000000000000000000e+00
1.090000000000000000e+02,-1.617556085205204830e-01,0.000000000000000000e+00
1.100000000000000000e+02,-1.783353488055677838e-01,0.000000000000000000e+00
1.110000000000000000e+02,-9.840927221066496366e-02,0.000000000000000000e+00
1.120000000000000000e+02,-1.378446354568952092e-01,0.000000000000000000e+00
1.130000000000000000e+02,-9.622335211654786669e-02,0.000000000000000000e+00
1.140000000000000000e+02,-1.177103695904751363e-01,0.000000000000000000e+00
1.150000000000000000e+02,-1.279743149464779572e-01,0.000000000000000000e+00
1.160000000000000000e+02,-5.068651882734510200e-02,0.000000000000000000e+00
1.170000000000000000e+02,-9.764628084335413849e-02,0.000000000000000000e+00
1.180000000000000000e+02,-7.189533307347754920e-02,0.000000000000000000e+00
1.190000000000000000e+02,-6.999145159479724931e-02,0.000000000000000000e+00
1.200000000000000000e+02,-4.185980971935831380e-02,0.000000000000000000e+00
1.210000000000000000e+02,2.224595118246271500e-02,0.000000000000000000e+00
1.220000000000000000e+02,-7.069895534784881308e-02,0.000000000000000000e+00
1.230000000000000000e+02,-6.906192792576473782e-02,0.000000000000000000e+00
1.240000000000000000e+02,-8.622071211444976013e-02,0.000000000000000000e+00
1.250000000000000000e+02,-7.938154671125371986e-02,0.000000000000000000e+00
1.260000000000000000e+02,3.515379396426035127e-03,0.000000000000000000e+00
1.270000000000000000e+02,-6.432182923928009277e-02,0.000000000000000000e+00
1.280000000000000000e+02,-6.744944550011320455e-03,0.000000000000000000e+00
1.290000000000000000e+02,-9.530459564850457532e-02,0.000000000000000000e+00
1.300000000000000000e+02,4.053184087393633117e-01,0.000000000000000000e+00
1.310000000000000000e+02,7.625197211719507429e-02,0.000000000000000000e+00
1.320000000000000000e+02,-1.299325232149464437e-01,0.000000000000000000e+00
1.330000000000000000e+02,9.059485334670377976e-02,0.000000000000000000e+00
1.340000000000000000e+02,4.753304228496128131e-02,0.000000000000000000e+00
1.350000000000000000e+02,1.336632778916307107e-01,0.000000000000000000e+00
1.360000000000000000e+02,1.460039121820801422e-01,0.000000000000000000e+00
1.370000000000000000e+02,1.868708887450133138e-01,0.000000000000000000e+00
1.380000000000000000e+02,1.651071896790826943e-01,0.000000000000000000e+00
1.390000000000000000e+02,1.889361760068012652e-01,0.000000000000000000e+00
1.400000000000000000e+02,1.616309085617000374e-01,0.000000000000000000e+00
1.410000000000000000e+02,2.108685775406208829e-01,0.000000000000000000e+00
1.420000000000000000e+02,1.904788950951841198e-01,0.000000000000000000e+00
1.430000000000000000e+02,2.382459371879693255e-01,0.000000000000000000e+00
1.440000000000000000e+02,2.431383086770737556e-01,0.000000000000000000e+00
1.450000000000000000e+02,2.742650503655832961e-01,0.000000000000000000e+00
1.460000000000000000e+02,2.899589126928859839e-01,0.000000000000000000e+00
1.470000000000000000e+02,2.796039258455014775e-01,0.000000000000000000e+00
1.480000000000000000e+02,2.060769458287970424e-01,0.000000000000000000e+00
1.490000000000000000e+02,6.938128162011476807e-02,0.000000000000000000e+00
1.500000000000000000e+02,-1.070739288616003732e-01,0.000000000000000000e+00
1.510000000000000000e+02,-1.647533109010570207e-01,0.000000000000000000e+00
1.520000000000000000e+02,-1.775884384713774244e-01,0.000000000000000000e+00
1.530000000000000000e+02,-1.991120265983603033e-01,0.000000000000000000e+00
1.540000000000000000e+02,-1.435625202568613923e-01,0.000000000000000000e+00
1.550000000000000000e+02,-1.956534984432923285e-01,0.000000000000000000e+00
1.560000000000000000e+02,-1.342346012778623809e-01,0.000000000000000000e+00
1.570000000000000000e+02,-1.650153810954045619e-01,0.000000000000000000e+00
1.580000000000000000e+02,-1.313795172631514185e-01,0.000000000000000000e+00
1.590000000000000000e+02,-1.692074805706795526e-01,0.000000000000000000e+00
1.600000000000000000e+02,-1.567402553079965954e-01,0.000000000000000000e+00
1.610000000000000000e+02,-1.172783658723623029e-01,0.000000000000000000e+00
1.620000000000000000e+02,-9.690766010496074112e-02,0.000000000000000000e+00
1.630000000000000000e+02,-1.388056844928248768e-01,0.000000000000000000e+00
1.640000000000000000e+02,-1.210662735358149084e-01,0.000000000000000000e+00
1.650000000000000000e+02,-1.317636063224890408e-01,0.000000000000000000e+00
1.660000000000000000e+02,-1.044415150832172512e-01,0.000000000000000000e+00
1.670000000000000000e+02,-2.398204628847718650e-02,0.000000000000000000e+00
1.680000000000000000e+02,-1.657671780782538767e-02,0.000000000000000000e+00
1.690000000000000000e+02,-2.505495421321893290e-02,0.000000000000000000e+00
1.700000000000000000e+02,-9.510975097651908072e-02,0.000000000000000000e+00
1.710000000000000000e+02,-1.022603218611029541e-01,0.000000000000000000e+00
1.720000000000000000e+02,-8.205267019612468016e-02,0.000000000000000000e+00
1.730000000000000000e+02,-8.205950350720953024e-02,0.000000000000000000e+00
1.740000000000000000e+02,-1.075913147349252807e-01,0.000000000000000000e+00
1.750000000000000000e+02,-5.471362372689128617e-02,0.000000000000000000e+00
1.760000000000000000e+02,-1.654645662945993245e-01,0.000000000000000000e+00
1.770000000000000000e+02,8.452449236512137032e-02,0.000000000000000000e+00
1.780000000000000000e+02,3.591277433326859891e-01,0.000000000000000000e+00
1.790000000000000000e+02,-1.371018839022460079e-01,0.000000000000000000e+00
1.800000000000000000e+02,-7.190521739995073269e-02,0.000000000000000000e+00
1.810000000000000000e+02,-3.796867408473672545e-02,0.000000000000000000e+00
1.820000000000000000e+02,-5.924117061113517470e-03,0.000000000000000000e+00
1.830000000000000000e+02,-2.473117269855912292e-03,0.000000000000000000e+00
1.840000000000000000e+02,2.380036763411226552e-02,0.000000000000000000e+00
1.850000000000000000e+02,-3.423853856216951754e-04,0.000000000000000000e+00
1.860000000000000000e+02,2.104221910282369837e-02,0.000000000000000000e+00
1.870000000000000000e+02,2.520944445383378404e-02,0.000000000000000000e+00
1.880000000000000000e+02,5.421150260672707305e-02,0.000000000000000000e+00
1.890000000000000000e+02,6.529323414959853356e-02,0.000000000000000000e+00
1.900000000000000000e+02,7.973317831774598408e-02,0.000000000000000000e+00
1.910000000000000000e+02,9.047615774806447297e-02,0.000000000000000000e+00
1.920000000000000000e+02,1.678547160358610235e-01,0.000000000000000000e+00
1.930000000000000000e+02,1.883621108303137615e-01,0.000000000000000000e+00
1.940000000000000000e+02,2.202259011804182653e-01,0.000000000000000000e+00
1.950000000000000000e+02,1.679655995567865823e-01,0.000000000000000000e+00
1.960000000000000000e+02,8.294686172218859732e-02,0.000000000000000000e+00
1.970000000000000000e+02,-6.005191786880133969e-02,0.000000000000000000e+00
1.980000000000000000e+02,-1.618295087928772746e-01,0.000000000000000000e+00
1.990000000000000000e+02,-2.175624244972365895e-01,0.000000000000000000e+00
2.000000000000000000e+02,-1.804055444456018065e-01,0.000000000000000000e+00
2.010000000000000000e+02,-1.852192664397932786e-01,0.000000000000000000e+00
2.020000000000000000e+02,-2.052212842457674657e-01,0.000000000000000000e+00
2.030000000000000000e+02,-1.564430506432297197e-01,0.000000000000000000e+00
2.040000000000000000e+02,-1.379371294952162208e-01,0.000000000000000000e+00
2.050000000000000000e+02,-1.731191323082975075e-01,0.000000000000000000e+00
2.060000000000000000e+02,-1.371192790480391110e-01,0.000000000000000000e+00
2.070000000000000000e+02,-1.580627218185818861e-01,0.000000000000000000e+00
2.080000000000000000e+02,-1.180620405107386944e-01,0.000000000000000000e+00
2.090000000000000000e+02,-1.292051692042672784e-01,0.000000000000000000e+00
2.100000000000000000e+02,-9.286533817614313346e-02,0.000000000000000000e+00
2.110000000000000000e+02,-6.015528475571740863e-02,0.000000000000000000e+00
2.120000000000000000e+02,-2.700103389594430206e-02,0.000000000000000000e+00
2.130000000000000000e+02,-3.801339951222099112e-02,0.000000000000000000e+00
2.140000000000000000e+02,1.795563687735276040e-02,0.000000000000000000e+00
2.150000000000000000e+02,5.065631710800948262e-02,0.000000000000000000e+00
2.160000000000000000e+02,8.782116432780784354e-02,0.000000000000000000e+00
2.170000000000000000e+02,8.314176235231796053e-02,0.000000000000000000e+00
2.180000000000000000e+02,3.516878388027341179e-02,0.000000000000000000e+00
2.190000000000000000e+02,2.274384235478033034e-02,0.000000000000000000e+00
2.200000000000000000e+02,2.078986403211845885e-02,0.000000000000000000e+00
2.210000000000000000e+02,5.189278047593123139e-02,0.000000000000000000e+00
2.220000000000000000e+02,9.416648707068496493e-02,0.000000000000000000e+00
2.230000000000000000e+02,2.415204574162810036e-01,0.000000000000000000e+00
2.240000000000000000e+02,1.315661199560368977e-01,0.000000000000000000e+00
2.250000000000000000e+02,3.878784286638120582e-01,0.000000000000000000e+00
2.260000000000000000e+02,4.900679350392604383e-01,0.000000000000000000e+00
2.270000000000000000e+02,-1.148727306675890875e-01,0.000000000000000000e+00
2.280000000000000000e+02,-1.313994860805230494e-02,0.000000000000000000e+00
2.290000000000000000e+02,-7.029025232219988928e-02,0.000000000000000000e+00
2.300000000000000000e+02,-2.173427998418555468e-02,0.000000000000000000e+00
2.310000000000000000e+02,-9.594987551777556245e-02,0.000000000000000000e+00
2.320000000000000000e+02,1.683657852860338464e-02,0.000000000000000000e+00
2.330000000000000000e+02,-7.053577744249237003e-02,0.000000000000000000e+00
2.340000000000000000e+02,-2.545881407231609817e-03,0.000000000000000000e+00
2.350000000000000000e+02,-6.822415678429842589e-02,0.000000000000000000e+00
2.360000000000000000e+02,-1.519335223972977447e-02,0.000000000000000000e+00
2.370000000000000000e+02,2.310628427472110995e-03,0.000000000000000000e+00
2.380000000000000000e+02,9.520448426103596262e-02,0.000000000000000000e+00
2.390000000000000000e+02,1.123401185140044528e-01,0.000000000000000000e+00
2.400000000000000000e+02,1.734976927112308054e-01,0.000000000000000000e+00
2.410000000000000000e+02,1.451047913677218915e-01,0.000000000000000000e+00
2.420000000000000000e+02,1.750259359380222368e-01,0.000000000000000000e+00
2.430000000000000000e+02,1.467297088975574870e-01,0.000000000000000000e+00
2.440000000000000000e+02,7.609593158465158269e-02,0.000000000000000000e+00
2.450000000000000000e+02,-5.004921268675859708e-02,0.000000000000000000e+00
2.460000000000000000e+02,-1.650141892686759204e-01,0.000000000000000000e+00
2.470000000000000000e+02,-2.062484831533889507e-01,0.000000000000000000e+00
2.480000000000000000e+02,-1.780364069192726661e-01,0.000000000000000000e+00
2.490000000000000000e+02,-2.471874424521450786e-01,0.000000000000000000e+00
2.500000000000000000e+02,-1.612529601988013928e-01,0.000000000000000000e+00
2.510000000000000000e+02,-1.942743708870411090e-01,0.000000000000000000e+00
2.520000000000000000e+02,-8.508548824026426760e-02,0.000000000000000000e+00
2.530000000000000000e+02,-1.317392480108956765e-01,0.000000000000000000e+00
2.540000000000000000e+02,-1.093293892372937948e-01,0.000000000000000000e+00
2.550000000000000000e+02,-8.096589081500016327e-02,0.000000000000000000e+00
2.560000000000000000e+02,-6.460581398277302767e-02,0.000000000000000000e+00
2.570000000000000000e+02,-6.582554803918833075e-02,0.000000000000000000e+00
2.580000000000000000e+02,-4.274378592984915542e-02,0.000000000000000000e+00
2.590000000000000000e+02,-6.043778977149186216e-02,0.000000000000000000e+00
2.600000000000000000e+02,6.336708865097347154e-02,0.000000000000000000e+00
2.610000000000000000e+02,-1.029167238645624718e-02,0.000000000000000000e+00
2.620000000000000000e+02,3.840044211006810732e-02,0.000000000000000000e+00
2.630000000000000000e+02,6.221680475914760644e-02,0.000000000000000000e+00
2.640000000000000000e+02,9.842794396407456015e-02,0.000000000000000000e+00
2.650000000000000000e+02,1.273755828385511601e-01,0.000000000000000000e+00
2.660000000000000000e+02,1.305817046204257592e-01,0.000000000000000000e+00
2.670000000000000000e+02,9.020595905125540492e-02,0.000000000000000000e+00
2.680000000000000000e+02,1.049889396508471018e-01,0.000000000000000000e+00
2.690000000000000000e+02,2.230805340694021199e-02,0.000000000000000000e+00
2.700000000000000000e+02,9.548151804783015784e-02,0.000000000000000000e+00
2.710000000000000000e+02,4.106041784697597730e-02,0.000000000000000000e+00
2.720000000000000000e+02,1.215401794873391672e-01,0.000000000000000000e+00
2.730000000000000000e+02,-2.844951648127397315e-02,0.000000000000000000e+00
2.740000000000000000e+02,4.089718628202113626e-01,0.000000000000000000e+00
2.750000000000000000e+02,3.167245253377141134e-01,0.000000000000000000e+00
2.760000000000000000e+02,-1.183988600239592043e-01,0.000000000000000000e+00
2.770000000000000000e+02,9.937990785431922991e-02,0.000000000000000000e+00
2.780000000000000000e+02,6.486218722321301922e-02,0.000000000000000000e+00
2.790000000000000000e+02,1.220784403227677256e-01,0.000000000000000000e+00
2.800000000000000000e+02,1.142932295401679899e-01,0.000000000000000000e+00
2.810000000000000000e+02,1.193275687296588422e-01,0.000000000000000000e+00
2.820000000000000000e+02,1.253907520755058735e-01,0.000000000000000000e+00
2.830000000000000000e+02,9.713611961171127185e-02,0.000000000000000000e+00
2.840000000000000000e+02,9.777856165254378285e-02,0.000000000000000000e+00
2.850000000000000000e+02,1.517146577884602443e-01,0.000000000000000000e+00
2.860000000000000000e+02,1.096255482476300031e-01,0.000000000000000000e+00
2.870000000000000000e+02,1.760557137888469348e-01,0.000000000000000000e+00
2.880000000000000000e+02,1.620361430013037007e-01,0.000000000000000000e+00
2.890000000000000000e+02,2.114168132846045434e-01,0.000000000000000000e+00
2.900000000000000000e+02,2.655888857208753007e-01,0.000000000000000000e+00
2.910000000000000000e+02,2.342646450910866318e-01,0.000000000000000000e+00
2.920000000000000000e+02,2.045551850918924941e-01,0.000000000000000000e+00
2.930000000000000000e+02,6.519332024567275896e-02,0.000000000000000000e+00
2.940000000000000000e+02,-7.660264520001780486e-02,0.000000000000000000e+00
2.950000000000000000e+02,-2.013006303046088741e-01,0.000000000000000000e+00
2.960000000000000000e+02,-2.303308458028402450e-01,0.000000000000000000e+00
2.970000000000000000e+02,-2.178216505712598783e-01,0.000000000000000000e+00
2.980000000000000000e+02,-2.482562603484516350e-01,0.000000000000000000e+00
2.990000000000000000e+02,-2.123283232197986370e-01,0.000000000000000000e+00
3.000000000000000000e+02,-2.286823849972218214e-01,0.000000000000000000e+00
3.010000000000000000e+02,-1.721460960780460403e-01,0.000000000000000000e+00
3.020000000000000000e+02,-2.291773851429474984e-01,0.000000000000000000e+00
3.030000000000000000e+02,-1.651488326833286668e-01,0.000000000000000000e+00
3.040000000000000000e+02,-2.068732494655127763e-01,0.000000000000000000e+00
3.050000000000000000e+02,-1.470920612085830637e-01,0.000000000000000000e+00
3.060000000000000000e+02,-1.517447001962107245e-01,0.000000000000000000e+00
3.070000000000000000e+02,-1.090573887432104289e-01,0.000000000000000000e+00
3.080000000000000000e+02,-1.420018183649749410e-01,0.000000000000000000e+00
3.090000000000000000e+02,-8.120101483358026229e-02,0.000000000000000000e+00
3.100000000000000000e+02,-1.198293774652248039e-01,0.000000000000000000e+00
3.110000000000000000e+02,-2.925422495948273860e-02,0.000000000000000000e+00
3.120000000000000000e+02,-2.596401600942069635e-02,0.000000000000000000e+00
3.130000000000000000e+02,-2.599766643035544833e-02,0.000000000000000000e+00
3.140000000000000000e+02,-7.059366997242610964e-02,0.000000000000000000e+00
3.150000000000000000e+02,-7.375556054593691846e-02,0.000000000000000000e+00
3.160000000000000000e+02,-7.174174843632892540e-02,0.000000000000000000e+00
3.170000000000000000e+02,-1.022642258657193715e-01,0.000000000000000000e+00
3.180000000000000000e+02,-5.281834912160993795e-02,0.000000000000000000e+00
3.190000000000000000e+02,-3.444493867142633947e-02,0.000000000000000000e+00
3.200000000000000000e+02,-1.192940832776568372e-01,0.000000000000000000e+00
3.210000000000000000e+02,6.277862727728365788e-02,0.000000000000000000e+00
3.220000000000000000e+02,3.335349492069631383e-01,0.000000000000000000e+00
3.230000000000000000e+02,-1.792048787057291814e-01,0.000000000000000000e+00
3.240000000000000000e+02,-5.524971717974658941e-02,0.000000000000000000e+00
3.250000000000000000e+02,-7.743373310167256038e-03,0.000000000000000000e+00
3.260000000000000000e+02,3.502685235990618540e-02,0.000000000000000000e+00
3.270000000000000000e+02,6.157672358670751578e-02,0.000000000000000000e+00
3.280000000000000000e+02,4.994145375031328049e-02,0.000000000000000000e+00
3.290000000000000000e+02,6.341884454626164902e-02,0.000000000000000000e+00
3.300000000000000000e+02,9.855947924464139587e-02,0.000000000000000000e+00
3.310000000000000000e+02,6.876953678911681966e-02,0.000000000000000000e+00
3.320000000000000000e+02,9.307342262357932994e-02,0.000000000000000000e+00
3.330000000000000000e+02,8.163362345035379830e-02,0.000000000000000000e+00
3.340000000000000000e+02,1.510238222929308760e-01,0.000000000000000000e+00
3.350000000000000000e+02,1.327324635766104488e-01,0.000000000000000000e+00
3.360000000000000000e+02,1.765772072823468264e-01,0.000000000000000000e+00
3.370000000000000000e+02,1.909540684571160718e-01,0.000000000000000000e+00
3.380000000000000000e+02,2.367423713736128976e-01,0.000000000000000000e+00
3.390000000000000000e+02,2.200006530179513808e-01,0.000000000000000000e+00
3.400000000000000000e+02,6.118193773232914051e-02,0.000000000000000000e+00
3.410000000000000000e+02,-2.983464557909301998e-02,0.000000000000000000e+00
3.420000000000000000e+02,-1.800764450440635878e-01,0.000000000000000000e+00
3.430000000000000000e+02,-2.052315083885045410e-01,0.000000000000000000e+00
3.440000000000000000e+02,-2.118504951546515136e-01,0.000000000000000000e+00
3.450000000000000000e+02,-1.887158453675431835e-01,0.000000000000000000e+00
3.460000000000000000e+02,-2.120325422335472831e-01,0.000000000000000000e+00
3.470000000000000000e+02,-2.031436399579941432e-01,0.000000000000000000e+00
3.480000000000000000e+02,-1.868137454817549448e-01,0.000000000000000000e+00
3.490000000000000000e+02,-2.026036507847969459e-01,0.000000000000000000e+00
3.500000000000000000e+02,-1.612425795175631005e-01,0.000000000000000000e+00
3.510000000000000000e+02,-1.697161423455465501e-01,0.000000000000000000e+00
3.520000000000000000e+02,-1.036030925352827703e-01,0.000000000000000000e+00
3.530000000000000000e+02,-1.300098782246079943e-01,0.000000000000000000e+00
3.540000000000000000e+02,-1.008655943823218298e-01,0.000000000000000000e+00
3.550000000000000000e+02,-1.172548622361457293e-01,0.000000000000000000e+00
3.560000000000000000e+02,-3.715369190402890986e-02,0.000000000000000000e+00
3.570000000000000000e+02,-4.086735388802820862e-02,0.000000000000000000e+00
3.580000000000000000e+02,1.912346735694582522e-02,0.000000000000000000e+00
3.590000000000000000e+02,4.687706428316850554e-02,0.000000000000000000e+00
3.600000000000000000e+02,5.890302132700805243e-02,0.000000000000000000e+00
3.610000000000000000e+02,2.165419500240541072e-04,0.000000000000000000e+00
3.620000000000000000e+02,1.380938695360174780e-02,0.000000000000000000e+00
3.630000000000000000e+02,2.712000810064175635e-02,0.000000000000000000e+00
3.640000000000000000e+02,3.655152382770442826e-02,0.000000000000000000e+00
3.650000000000000000e+02,1.762815653472286914e-02,0.000000000000000000e+00
3.660000000000000000e+02,6.861791151110857578e-02,0.000000000000000000e+00
3.670000000000000000e+02,-9.136887384029643289e-02,0.000000000000000000e+00
3.680000000000000000e+02,2.704010549283954457e-01,0.000000000000000000e+00
3.690000000000000000e+02,3.466083657981890997e-01,0.000000000000000000e+00
3.700000000000000000e+02,-1.238520206157503606e-01,0.000000000000000000e+00
3.710000000000000000e+02,3.588074452085397714e-02,0.000000000000000000e+00
3.720000000000000000e+02,4.097825302009904663e-02,0.000000000000000000e+00
3.730000000000000000e+02,8.040405489889622392e-02,0.000000000000000000e+00
3.740000000000000000e+02,3.370627544439219053e-02,0.000000000000000000e+00
3.750000000000000000e+02,1.013622056957708822e-01,0.000000000000000000e+00
3.760000000000000000e+02,5.274119793167380416e-02,0.000000000000000000e+00
3.770000000000000000e+02,9.420223419147386035e-02,0.000000000000000000e+00
3.780000000000000000e+02,1.250788980208671908e-01,0.000000000000000000e+00
3.790000000000000000e+02,1.397761220489301959e-01,0.000000000000000000e+00
3.800000000000000000e+02,7.861694211605631255e-02,0.000000000000000000e+00
3.810000000000000000e+02,1.321499337218729475e-01,0.000000000000000000e+00
3.820000000000000000e+02,1.545372207214867066e-01,0.000000000000000000e+00
3.830000000000000000e+02,1.909958052255838201e-01,0.000000000000000000e+00
3.840000000000000000e+02,2.253507574306541361e-01,0.000000000000000000e+00
3.850000000000000000e+02,2.557899183905888441e-01,0.000000000000000000e+00
3.860000000000000000e+02,2.150353081293980284e-01,0.000000000000000000e+00
3.870000000000000000e+02,7.077001739787269763e-02,0.000000000000000000e+00
3.880000000000000000e+02,-9.788718255170880678e-02,0.000000000000000000e+00
3.890000000000000000e+02,-1.652091754371620425e-01,0.000000000000000000e+00
3.900000000000000000e+02,-1.779185648624997673e-01,0.000000000000000000e+00
3.910000000000000000e+02,-1.613613562167812709e-01,0.000000000000000000e+00
3.920000000000000000e+02,-1.586543214933690549e-01,0.000000000000000000e+00
3.930000000000000000e+02,-1.513472019973965688e-01,0.000000000000000000e+00
3.940000000000000000e+02,-1.988797727154781869e-01,0.000000000000000000e+00
3.950000000000000000e+02,-1.638193384843954215e-01,0.000000000000000000e+00
3.960000000000000000e+02,-1.469595382335694145e-01,0.000000000000000000e+00
3.970000000000000000e+02,-1.257451627828085061e-01,0.000000000000000000e+00
3.980000000000000000e+02,-1.077864632112556509e-01,0.000000000000000000e+00
3.990000000000000000e+02,-6.570605772147455892e-02,0.000000000000000000e+00
4.000000000000000000e+02,-1.336315509034746163e-01,0.000000000000000000e+00
4.010000000000000000e+02,-4.910714910743443212e-02,0.000000000000000000e+00
4.020000000000000000e+02,-5.789431010768601726e-02,0.000000000000000000e+00
4.030000000000000000e+02,-3.775975053354341249e-02,0.000000000000000000e+00
4.040000000000000000e+02,-1.101247685406257608e-02,0.000000000000000000e+00
4.050000000000000000e+02,3.588497633474548726e-02,0.000000000000000000e+00
4.060000000000000000e+02,2.415966297704103330e-02,0.000000000000000000e+00
4.070000000000000000e+02,2.791271223316890010e-02,0.000000000000000000e+00
4.080000000000000000e+02,1.256605087380896837e-02,0.000000000000000000e+00
4.090000000000000000e+02,-2.960817773893994337e-02,0.000000000000000000e+00
4.100000000000000000e+02,-5.038996339708830957e-02,0.000000000000000000e+00
4.110000000000000000e+02,4.359212294430458642e-03,0.000000000000000000e+00
4.120000000000000000e+02,-7.583590302039900331e-03,0.000000000000000000e+00
4.130000000000000000e+02,5.722526453966441523e-02,0.000000000000000000e+00
4.140000000000000000e+02,-1.002114712439756555e-01,0.000000000000000000e+00
4.150000000000000000e+02,3.542752052976161914e-01,0.000000000000000000e+00
4.160000000000000000e+02,2.241480712121743379e-01,0.000000000000000000e+00
4.170000000000000000e+02,-1.228284637767875637e-01,0.000000000000000000e+00
4.180000000000000000e+02,4.601022802009031853e-02,0.000000000000000000e+00
4.190000000000000000e+02,2.185059005688736247e-02,0.000000000000000000e+00
4.200000000000000000e+02,4.536454846977778371e-02,0.000000000000000000e+00
4.210000000000000000e+02,6.169393144350829999e-02,0.000000000000000000e+00
4.220000000000000000e+02,6.213453217564512271e-02,0.000000000000000000e+00
4.230000000000000000e+02,4.654580303389187906e-02,0.000000000000000000e+00
4.240000000000000000e+02,7.349436922062564659e-02,0.000000000000000000e+00
4.250000000000000000e+02,9.699138995228749616e-02,0.000000000000000000e+00
4.260000000000000000e+02,1.169280283041038426e-01,0.000000000000000000e+00
4.270000000000000000e+02,1.224082191382261792e-01,0.000000000000000000e+00
4.280000000000000000e+02,1.176723742772138870e-01,0.000000000000000000e+00
4.290000000000000000e+02,1.646988675042895811e-01,0.000000000000000000e+00
4.300000000000000000e+02,1.924165152771176168e-01,0.000000000000000000e+00
4.310000000000000000e+02,2.309216283003198422e-01,0.000000000000000000e+00
4.320000000000000000e+02,2.118112615879561289e-01,0.000000000000000000e+00
4.330000000000000000e+02,1.695550598079408611e-01,0.000000000000000000e+00
4.340000000000000000e+02,-1.163775385937179142e-02,0.000000000000000000e+00
4.350000000000000000e+02,-1.380126463543902005e-01,0.000000000000000000e+00
4.360000000000000000e+02,-2.161159411746140790e-01,0.000000000000000000e+00
4.370000000000000000e+02,-2.031644175132056862e-01,0.000000000000000000e+00
4.380000000000000000e+02,-2.140508263664910871e-01,0.000000000000000000e+00
4.390000000000000000e+02,-2.159240347841945018e-01,0.000000000000000000e+00
4.400000000000000000e+02,-2.084702816433083583e-01,0.000000000000000000e+00
4.410000000000000000e+02,-1.823152600584748428e-01,0.000000000000000000e+00
4.420000000000000000e+02,-1.791403738369048981e-01,0.000000000000000000e+00
4.430000000000000000e+02,-1.801189457445289133e-01,0.000000000000000000e+00
4.440000000000000000e+02,-1.756967297748902868e-01,0.000000000000000000e+00
4.450000000000000000e+02,-1.729675502331632642e-01,0.000000000000000000e+00
4.460000000000000000e+02,-1.389120228952199498e-01,0.000000000000000000e+00
4.470000000000000000e+02,-1.368185925630567290e-01,0.000000000000000000e+00
4.480000000000000000e+02,-8.873174045453184611e-02,0.000000000000000000e+00
4.490000000000000000e+02,-5.876850538463660595e-02,0.000000000000000000e+00
4.500000000000000000e+02,-3.271500090802312299e-02,0.000000000000000000e+00
4.510000000000000000e+02,-2.857567736817388099e-02,0.000000000000000000e+00
4.520000000000000000e+02,7.165620092009036823e-03,0.000000000000000000e+00
4.530000000000000000e+02,1.087997057775084812e-02,0.000000000000000000e+00
4.540000000000000000e+02,3.951342313518023397e-02,0.000000000000000000e+00
4.550000000000000000e+02,8.124421585368978016e-02,0.000000000000000000e+00
4.560000000000000000e+02,1.164767329571834154e-01,0.000000000000000000e+00
4.570000000000000000e+02,6.369404548628222751e-02,0.000000000000000000e+00
4.580000000000000000e+02,1.119897900914365758e-02,0.000000000000000000e+00
4.590000000000000000e+02,-2.236106344519224118e-02,0.000000000000000000e+00
4.600000000000000000e+02,-1.848418560343070838e-02,0.000000000000000000e+00
4.610000000000000000e+02,2.269069812380894099e-02,0.000000000000000000e+00
4.620000000000000000e+02,3.535919117988350902e-02,0.000000000000000000e+00
4.630000000000000000e+02,-5.191125477124867299e-02,0.000000000000000000e+00
4.640000000000000000e+02,7.305839528295059344e-03,0.000000000000000000e+00
4.650000000000000000e+02,4.198528335304041459e-01,0.000000000000000000e+00
4.660000000000000000e+02,4.149906226079416727e-02,0.000000000000000000e+00
4.670000000000000000e+02,-6.858042265953762096e-02,0.000000000000000000e+00
4.680000000000000000e+02,1.461030212357579579e-02,0.000000000000000000e+00
4.690000000000000000e+02,3.821072949926906243e-02,0.000000000000000000e+00
4.700000000000000000e+02,4.365770048721535207e-02,0.000000000000000000e+00
4.710000000000000000e+02,2.554313373809399129e-02,0.000000000000000000e+00
4.720000000000000000e+02,4.778322539508121636e-02,0.000000000000000000e+00
4.730000000000000000e+02,1.131810301068080643e-02,0.000000000000000000e+00
4.740000000000000000e+02,3.217220653495871108e-02,0.000000000000000000e+00
4.750000000000000000e+02,6.745624617118177457e-02,0.000000000000000000e+00
4.760000000000000000e+02,4.830634041105497101e-02,0.000000000000000000e+00
4.770000000000000000e+02,4.012506331837529389e-02,0.000000000000000000e+00
4.780000000000000000e+02,7.159443519979992454e-02,0.000000000000000000e+00
4.790000000000000000e+02,1.093468116686256153e-01,0.000000000000000000e+00
4.800000000000000000e+02,1.235268474260349525e-01,0.000000000000000000e+00
4.810000000000000000e+02,1.702026356225295467e-01,0.000000000000000000e+00
4.820000000000000000e+02,1.817482149223084709e-01,0.000000000000000000e+00
4.830000000000000000e+02,8.598503412374727817e-02,0.000000000000000000e+00
4.840000000000000000e+02,-9.447440075805640936e-02,0.000000000000000000e+00
4.850000000000000000e+02,-1.707741756599239491e-01,0.000000000000000000e+00
4.860000000000000000e+02,-2.530898227377766929e-01,0.000000000000000000e+00
4.870000000000000000e+02,-2.623640067685203969e-01,0.000000000000000000e+00
4.880000000000000000e+02,-2.476140627929520055e-01,0.000000000000000000e+00
4.890000000000000000e+02,-2.634939040545743461e-01,0.000000000000000000e+00
4.900000000000000000e+02,-2.663531916463774407e-01,0.000000000000000000e+00
4.910000000000000000e+02,-2.974744869772680267e-01,0.000000000000000000e+00
4.920000000000000000e+02,-2.778268444480126442e-01,0.000000000000000000e+00
4.930000000000000000e+02,-3.144723875975251048e-01,0.000000000000000000e+00
4.940000000000000000e+02,-2.728741950942010219e-01,0.000000000000000000e+00
4.950000000000000000e+02,-2.953323257263393287e-01,0.000000000000000000e+00
4.960000000000000000e+02,-2.834624178210887746e-01,0.000000000000000000e+00
4.970000000000000000e+02,-2.843074946747540244e-01,0.000000000000000000e+00
4.980000000000000000e+02,-3.210597651041509071e-01,0.000000000000000000e+00
4.990000000000000000e+02,-2.738114951085987014e-01,0.000000000000000000e+00
5.000000000000000000e+02,-2.361651128179750037e-01,0.000000000000000000e+00
5.010000000000000000e+02,-2.213334847427335106e-01,0.000000000000000000e+00
5.020000000000000000e+02,-2.228803680006601062e-01,0.000000000000000000e+00
5.030000000000000000e+02,-1.980395154374005595e-01,0.000000000000000000e+00
5.040000000000000000e+02,-1.965279258151162722e-01,0.000000000000000000e+00
5.050000000000000000e+02,-1.236736346563910849e-01,0.000000000000000000e+00
5.060000000000000000e+02,-1.182238065970606655e-01,0.000000000000000000e+00
5.070000000000000000e+02,-3.803172900031319414e-02,0.000000000000000000e+00
5.080000000000000000e+02,-4.448365628516653958e-02,0.000000000000000000e+00
5.090000000000000000e+02,2.225654551051901853e-02,0.000000000000000000e+00
5.100000000000000000e+02,1.220199028490609183e-01,0.000000000000000000e+00
5.110000000000000000e+02,1.104197799172627475e-01,0.000000000000000000e+00
5.120000000000000000e+02,1.445032525279719149e-01,0.000000000000000000e+00
5.130000000000000000e+02,1.638767930770959613e-01,0.000000000000000000e+00
5.140000000000000000e+02,1.507975088199696168e-01,0.000000000000000000e+00
5.150000000000000000e+02,2.655723692253796897e-01,0.000000000000000000e+00
5.160000000000000000e+02,2.341132133726581965e-01,0.000000000000000000e+00
5.170000000000000000e+02,3.154527631942550259e-01,0.000000000000000000e+00
5.180000000000000000e+02,2.251871860333836406e-01,0.000000000000000000e+00
5.190000000000000000e+02,5.753740148599166826e-01,0.000000000000000000e+00
5.200000000000000000e+02,7.261101443913795528e-01,0.000000000000000000e+00
5.210000000000000000e+02,2.302962529904534761e-01,0.000000000000000000e+00
5.220000000000000000e+02,4.033377384252261888e-01,0.000000000000000000e+00
5.230000000000000000e+02,4.005788540805510500e-01,0.000000000000000000e+00
5.240000000000000000e+02,5.328347647148765631e-01,0.000000000000000000e+00
5.250000000000000000e+02,5.292368458329005376e-01,0.000000000000000000e+00
5.260000000000000000e+02,5.898973087376611080e-01,0.000000000000000000e+00
5.270000000000000000e+02,5.328802144778763683e-01,0.000000000000000000e+00
5.280000000000000000e+02,4.939501906838298928e-01,0.000000000000000000e+00
5.290000000000000000e+02,3.791934156862420413e-01,0.000000000000000000e+00
5.300000000000000000e+02,3.127884872958068274e-01,0.000000000000000000e+00
5.310000000000000000e+02,2.285675049093327249e-01,0.000000000000000000e+00
5.320000000000000000e+02,2.639411909136113454e-01,0.000000000000000000e+00
5.330000000000000000e+02,2.901395126398900182e-01,0.000000000000000000e+00
5.340000000000000000e+02,2.944398012440175849e-01,0.000000000000000000e+00
5.350000000000000000e+02,2.956011129089409772e-01,0.000000000000000000e+00
5.360000000000000000e+02,2.425701811624079718e-01,0.000000000000000000e+00
5.370000000000000000e+02,2.498529098505596346e-01,0.000000000000000000e+00
5.380000000000000000e+02,1.047001975110436051e-01,0.000000000000000000e+00
5.390000000000000000e+02,-5.743830499746113011e-02,0.000000000000000000e+00
5.400000000000000000e+02,-1.315422895215754562e-01,0.000000000000000000e+00
5.410000000000000000e+02,-1.843497957349558569e-01,0.000000000000000000e+00
5.420000000000000000e+02,-1.552269633251616432e-01,0.000000000000000000e+00
5.430000000000000000e+02,-8.735410139011580422e-02,0.000000000000000000e+00
5.440000000000000000e+02,-2.743626855943247234e-02,0.000000000000000000e+00
5.450000000000000000e+02,3.610821356665448734e-02,0.000000000000000000e+00
5.460000000000000000e+02,5.794672908338800027e-02,0.000000000000000000e+00
5.470000000000000000e+02,1.363210029227490405e-01,0.000000000000000000e+00
5.480000000000000000e+02,1.639452934170550769e-01,0.000000000000000000e+00
5.490000000000000000e+02,2.755027799912555531e-01,0.000000000000000000e+00
5.500000000000000000e+02,2.521399426750712824e-01,0.000000000000000000e+00
5.510000000000000000e+02,3.179006895598490146e-01,0.000000000000000000e+00
5.520000000000000000e+02,3.382277219101814114e-01,0.000000000000000000e+00
5.530000000000000000e+02,4.123117083768493285e-01,0.000000000000000000e+00
5.540000000000000000e+02,3.487391162532367250e-01,0.000000000000000000e+00
5.550000000000000000e+02,3.918299849796235690e-01,0.000000000000000000e+00
5.560000000000000000e+02,3.858874748135390220e-01,0.000000000000000000e+00
5.570000000000000000e+02,3.614787965315975349e-01,0.000000000000000000e+00
5.580000000000000000e+02,3.415845828374446391e-01,0.000000000000000000e+00
5.590000000000000000e+02,3.386169978302557282e-01,0.000000000000000000e+00
5.600000000000000000e+02,2.846167108287863123e-01,0.000000000000000000e+00
5.610000000000000000e+02,2.854707915367556414e-01,0.000000000000000000e+00
5.620000000000000000e+02,2.374826004624890630e-01,0.000000000000000000e+00
5.630000000000000000e+02,2.361197760100892107e-01,0.000000000000000000e+00
5.640000000000000000e+02,2.154440114125614480e-01,0.000000000000000000e+00
5.650000000000000000e+02,1.108154511717392154e-01,0.000000000000000000e+00
5.660000000000000000e+02,3.760840095894856655e-02,0.000000000000000000e+00
5.670000000000000000e+02,4.979205544685390977e-03,0.000000000000000000e+00
5.680000000000000000e+02,-7.745610943426446682e-02,0.000000000000000000e+00
5.690000000000000000e+02,-1.281815396358032821e-01,0.000000000000000000e+00
5.700000000000000000e+02,-1.991847538134186857e-01,0.000000000000000000e+00
5.710000000000000000e+02,-1.826817487268415086e-01,0.000000000000000000e+00
5.720000000000000000e+02,-2.774211240732871175e-01,0.000000000000000000e+00
5.730000000000000000e+02,1.668212748105751542e-01,0.000000000000000000e+00
5.740000000000000000e+02,-1.872733502304963771e-01,0.000000000000000000e+00
5.750000000000000000e+02,-4.739050596646905422e-01,0.000000000000000000e+00
5.760000000000000000e+02,-4.388693289238215778e-01,0.000000000000000000e+00
5.770000000000000000e+02,-4.074564104595816416e-01,0.000000000000000000e+00
5.780000000000000000e+02,-3.630939448555535187e-01,0.000000000000000000e+00
5.790000000000000000e+02,-4.451867548090367444e-01,0.000000000000000000e+00
5.800000000000000000e+02,-3.969562224286085073e-01,0.000000000000000000e+00
5.810000000000000000e+02,-5.241889320851880196e-01,0.000000000000000000e+00
5.820000000000000000e+02,-4.691570163312660524e-01,0.000000000000000000e+00
5.830000000000000000e+02,-5.505105041781321873e-01,0.000000000000000000e+00
5.840000000000000000e+02,-5.429030663276477320e-01,0.000000000000000000e+00
5.850000000000000000e+02,-4.966413643447342707e-01,0.000000000000000000e+00
5.860000000000000000e+02,-5.114485316796640868e-01,0.000000000000000000e+00
5.870000000000000000e+02,-4.695644087401393274e-01,0.000000000000000000e+00
5.880000000000000000e+02,-4.243299439043708987e-01,0.000000000000000000e+00
5.890000000000000000e+02,-4.249716078811648368e-01,0.000000000000000000e+00
5.900000000000000000e+02,-4.116192113343947745e-01,0.000000000000000000e+00
5.910000000000000000e+02,-4.767591691430128620e-01,0.000000000000000000e+00
5.920000000000000000e+02,-5.559101725909544323e-01,0.000000000000000000e+00
5.930000000000000000e+02,-7.076892176663310829e-01,0.000000000000000000e+00
5.940000000000000000e+02,-7.468570657475936958e-01,0.000000000000000000e+00
5.950000000000000000e+02,-8.329482048306160458e-01,0.000000000000000000e+00
5.960000000000000000e+02,-8.235210316011415399e-01,0.000000000000000000e+00
5.970000000000000000e+02,-7.934465542073348976e-01,0.000000000000000000e+00
5.980000000000000000e+02,-7.802360852276576386e-01,0.000000000000000000e+00
5.990000000000000000e+02,-7.168523870366382278e-01,0.000000000000000000e+00
6.000000000000000000e+02,-6.949349107283434579e-01,0.000000000000000000e+00
6.010000000000000000e+02,-7.005010405544710439e-01,0.000000000000000000e+00
6.020000000000000000e+02,-6.610341431225624786e-01,0.000000000000000000e+00
6.030000000000000000e+02,-6.251735253295975792e-01,0.000000000000000000e+00
6.040000000000000000e+02,-5.700330673935363190e-01,0.000000000000000000e+00
6.050000000000000000e+02,-5.338428556450909301e-01,0.000000000000000000e+00
6.060000000000000000e+02,-4.702080102323358268e-01,0.000000000000000000e+00
6.070000000000000000e+02,-4.680854304006886180e-01,0.000000000000000000e+00
6.080000000000000000e+02,-3.823737307439510347e-01,0.000000000000000000e+00
6.090000000000000000e+02,-3.674376706253020819e-01,0.000000000000000000e+00
6.100000000000000000e+02,-2.949376681703291259e-01,0.000000000000000000e+00
6.110000000000000000e+02,-2.547616322198465455e-01,0.000000000000000000e+00
6.120000000000000000e+02,-1.561057730855751891e-01,0.000000000000000000e+00
6.130000000000000000e+02,-1.241948794557530406e-01,0.000000000000000000e+00
6.140000000000000000e+02,-8.802302153306384991e-02,0.000000000000000000e+00
6.150000000000000000e+02,-8.879314150879555334e-02,0.000000000000000000e+00
6.160000000000000000e+02,-7.085980684521364648e-02,0.000000000000000000e+00
6.170000000000000000e+02,-4.285654020810814036e-02,0.000000000000000000e+00
6.180000000000000000e+02,-3.780202766018685850e-02,0.000000000000000000e+00
6.190000000000000000e+02,-1.788386443010724428e-02,0.000000000000000000e+00
6.200000000000000000e+02,5.994052011358331350e-02,0.000000000000000000e+00
6.210000000000000000e+02,2.024440660109790360e-02,0.000000000000000000e+00
6.220000000000000000e+02,1.292617251992148053e-01,0.000000000000000000e+00
6.230000000000000000e+02,5.324294809682217355e-01,0.000000000000000000e+00
6.240000000000000000e+02,1.171280257577708844e-01,0.000000000000000000e+00
6.250000000000000000e+02,1.175238704908280890e-01,0.000000000000000000e+00
6.260000000000000000e+02,2.622147852014395930e-01,0.000000000000000000e+00
6.270000000000000000e+02,2.489930089484595488e-01,0.000000000000000000e+00
6.280000000000000000e+02,3.159551126103432028e-01,0.000000000000000000e+00
6.290000000000000000e+02,3.428718535318077132e-01,0.000000000000000000e+00
6.300000000000000000e+02,3.822635692230388349e-01,0.000000000000000000e+00
6.310000000000000000e+02,4.140335893457871563e-01,0.000000000000000000e+00
6.320000000000000000e+02,4.210256246722433593e-01,0.000000000000000000e+00
6.330000000000000000e+02,4.536582670568149456e-01,0.000000000000000000e+00
6.340000000000000000e+02,4.491733109509676858e-01,0.000000000000000000e+00
6.350000000000000000e+02,4.714380661418621776e-01,0.000000000000000000e+00
6.360000000000000000e+02,4.753304696294411436e-01,0.000000000000000000e+00
6.370000000000000000e+02,5.785441209958609443e-01,0.000000000000000000e+00
6.380000000000000000e+02,5.752281041169495790e-01,0.000000000000000000e+00
6.390000000000000000e+02,5.944698609565920444e-01,0.000000000000000000e+00
6.400000000000000000e+02,5.848166889184935879e-01,0.000000000000000000e+00
6.410000000000000000e+02,5.160058102613582776e-01,0.000000000000000000e+00
6.420000000000000000e+02,3.899191613259226363e-01,0.000000000000000000e+00
6.430000000000000000e+02,2.744045032310851728e-01,0.000000000000000000e+00
6.440000000000000000e+02,2.381341907221004028e-01,0.000000000000000000e+00
6.450000000000000000e+02,2.367426335942081905e-01,0.000000000000000000e+00
6.460000000000000000e+02,2.329582656506015981e-01,0.000000000000000000e+00
6.470000000000000000e+02,2.332584575103911206e-01,0.000000000000000000e+00
6.480000000000000000e+02,2.276898147831837305e-01,0.000000000000000000e+00
6.490000000000000000e+02,2.151670952388065050e-01,0.000000000000000000e+00
6.500000000000000000e+02,2.367181586411850336e-01,0.000000000000000000e+00
6.510000000000000000e+02,2.125193449224005438e-01,0.000000000000000000e+00
6.520000000000000000e+02,2.297215622989939865e-01,0.000000000000000000e+00
6.530000000000000000e+02,2.109460364376974928e-01,0.000000000000000000e+00
6.540000000000000000e+02,1.740898701772204404e-01,0.000000000000000000e+00
6.550000000000000000e+02,1.967987265881676884e-01,0.000000000000000000e+00
6.560000000000000000e+02,2.386250945843226834e-01,0.000000000000000000e+00
6.570000000000000000e+02,2.407621006605517866e-01,0.000000000000000000e+00
6.580000000000000000e+02,2.661804124731501076e-01,0.000000000000000000e+00
6.590000000000000000e+02,2.302325356951288871e-01,0.000000000000000000e+00
6.600000000000000000e+02,2.491605902976150866e-01,0.000000000000000000e+00
6.610000000000000000e+02,2.150173172042830760e-01,0.000000000000000000e+00
6.620000000000000000e+02,2.941144621287231642e-01,0.000000000000000000e+00
6.630000000000000000e+02,2.934577939142986591e-01,0.000000000000000000e+00
6.640000000000000000e+02,2.611784149827879875e-01,0.000000000000000000e+00
6.650000000000000000e+02,2.032826613414191741e-01,0.000000000000000000e+00
6.660000000000000000e+02,1.565677877328531808e-01,0.000000000000000000e+00
6.670000000000000000e+02,1.262052069271994426e-01,0.000000000000000000e+00
6.680000000000000000e+02,1.516145273589240838e-01,0.000000000000000000e+00
6.690000000000000000e+02,1.019675257680228847e-01,0.000000000000000000e+00
6.700000000000000000e+02,1.614661151915120774e-01,0.000000000000000000e+00
6.710000000000000000e+02,6.421203675916545284e-02,0.000000000000000000e+00
6.720000000000000000e+02,5.150727228611835518e-01,0.000000000000000000e+00
6.730000000000000000e+02,3.073228154724657046e-01,0.000000000000000000e+00
6.740000000000000000e+02,-8.272886233189063673e-03,0.000000000000000000e+00
6.750000000000000000e+02,1.268257911371531432e-01,0.000000000000000000e+00
6.760000000000000000e+02,7.317383621472163535e-02,0.000000000000000000e+00
6.770000000000000000e+02,1.303551136904586571e-01,0.000000000000000000e+00
6.780000000000000000e+02,1.344218794302547426e-01,0.000000000000000000e+00
6.790000000000000000e+02,7.284881936290400761e-02,0.000000000000000000e+00
6.800000000000000000e+02,6.998761767415274948e-02,0.000000000000000000e+00
6.810000000000000000e+02,7.992863735659898328e-02,0.000000000000000000e+00
6.820000000000000000e+02,3.698975106387526746e-02,0.000000000000000000e+00
6.830000000000000000e+02,9.637997644253924745e-02,0.000000000000000000e+00
6.840000000000000000e+02,1.068404222335258974e-01,0.000000000000000000e+00
6.850000000000000000e+02,7.330608551955022922e-02,0.000000000000000000e+00
6.860000000000000000e+02,9.117347455125843214e-02,0.000000000000000000e+00
6.870000000000000000e+02,1.574976936563046714e-01,0.000000000000000000e+00
6.880000000000000000e+02,1.449593435456082435e-01,0.000000000000000000e+00
6.890000000000000000e+02,1.625818461953234817e-01,0.000000000000000000e+00
6.900000000000000000e+02,1.133027191669888495e-01,0.000000000000000000e+00
6.910000000000000000e+02,-4.514211897967922854e-02,0.000000000000000000e+00
6.920000000000000000e+02,-1.764378158692803122e-01,0.000000000000000000e+00
6.930000000000000000e+02,-2.548873386500727922e-01,0.000000000000000000e+00
6.940000000000000000e+02,-2.909697070997247503e-01,0.000000000000000000e+00
6.950000000000000000e+02,-2.855414717254927126e-01,0.000000000000000000e+00
6.960000000000000000e+02,-2.781044216041586581e-01,0.000000000000000000e+00
6.970000000000000000e+02,-2.727907438324893019e-01,0.000000000000000000e+00
6.980000000000000000e+02,-2.551796464599959124e-01,0.000000000000000000e+00
6.990000000000000000e+02,-3.155971080756067026e-01,0.000000000000000000e+00
7.000000000000000000e+02,-2.905122338015411754e-01,0.000000000000000000e+00
7.010000000000000000e+02,-2.909303906690734465e-01,0.000000000000000000e+00
7.020000000000000000e+02,-3.077227531599878163e-01,0.000000000000000000e+00
7.030000000000000000e+02,-2.442138188020180345e-01,0.000000000000000000e+00
7.040000000000000000e+02,-2.588828277353890095e-01,0.000000000000000000e+00
7.050000000000000000e+02,-2.392147394636068847e-01,0.000000000000000000e+00
7.060000000000000000e+02,-2.426791457413377817e-01,0.000000000000000000e+00
7.070000000000000000e+02,-1.842642457696467007e-01,0.000000000000000000e+00
7.080000000000000000e+02,-1.542061567883986906e-01,0.000000000000000000e+00
7.090000000000000000e+02,-1.806405554383367085e-01,0.000000000000000000e+00
7.100000000000000000e+02,-1.435862388151737390e-01,0.000000000000000000e+00
7.110000000000000000e+02,-9.084698447542378930e-02,0.000000000000000000e+00
7.120000000000000000e+02,-1.078326822561692933e-01,0.000000000000000000e+00
7.130000000000000000e+02,-9.682751041392045899e-02,0.000000000000000000e+00
7.140000000000000000e+02,-1.184725815078763178e-01,0.000000000000000000e+00
7.150000000000000000e+02,-1.242540630197862678e-01,0.000000000000000000e+00
7.160000000000000000e+02,-1.776764927434353603e-01,0.000000000000000000e+00
7.170000000000000000e+02,-1.603016391590411649e-01,0.000000000000000000e+00
7.180000000000000000e+02,-1.261768803411187079e-01,0.000000000000000000e+00
7.190000000000000000e+02,-1.032007092503037099e-01,0.000000000000000000e+00
7.200000000000000000e+02,-2.122548167081059201e-01,0.000000000000000000e+00
7.210000000000000000e+02,2.787329148839556847e-01,0.000000000000000000e+00
7.220000000000000000e+02,1.217078143580328925e-01,0.000000000000000000e+00
7.230000000000000000e+02,-2.512016195558335885e-01,0.000000000000000000e+00
7.240000000000000000e+02,-4.970622736740178127e-02,0.000000000000000000e+00
7.250000000000000000e+02,-8.695337989053728012e-02,0.000000000000000000e+00
7.260000000000000000e+02,4.921187033237839348e-02,0.000000000000000000e+00
7.270000000000000000e+02,-9.634072438172252423e-03,0.000000000000000000e+00
7.280000000000000000e+02,5.398385030186297895e-02,0.000000000000000000e+00
7.290000000000000000e+02,3.176603232919452541e-02,0.000000000000000000e+00
7.300000000000000000e+02,3.050056986302312687e-02,0.000000000000000000e+00
7.310000000000000000e+02,5.973116567821725592e-02,0.000000000000000000e+00
7.320000000000000000e+02,4.295179775111220705e-02,0.000000000000000000e+00
7.330000000000000000e+02,8.787573965649644880e-02,0.000000000000000000e+00
7.340000000000000000e+02,8.853122077357544750e-02,0.000000000000000000e+00
7.350000000000000000e+02,1.389061349501353182e-01,0.000000000000000000e+00
7.360000000000000000e+02,1.641495163434520399e-01,0.000000000000000000e+00
7.370000000000000000e+02,1.722081780174028187e-01,0.000000000000000000e+00
7.380000000000000000e+02,2.274482491666365014e-01,0.000000000000000000e+00
7.390000000000000000e+02,1.404829050124469514e-01,0.000000000000000000e+00
7.400000000000000000e+02,8.480772451530046996e-02,0.000000000000000000e+00
7.410000000000000000e+02,-9.249533783177871227e-02,0.000000000000000000e+00
7.420000000000000000e+02,-1.275926840001206375e-01,0.000000000000000000e+00
7.430000000000000000e+02,-2.080072768314258080e-01,0.000000000000000000e+00
7.440000000000000000e+02,-1.938679067142755619e-01,0.000000000000000000e+00
7.450000000000000000e+02,-2.265291099607612268e-01,0.000000000000000000e+00
7.460000000000000000e+02,-1.648553066090951702e-01,0.000000000000000000e+00
7.470000000000000000e+02,-1.780900897696469087e-01,0.000000000000000000e+00
7.480000000000000000e+02,-1.401922306935569629e-01,0.000000000000000000e+00
7.490000000000000000e+02,-1.451304819043995609e-01,0.000000000000000000e+00
7.500000000000000000e+02,-1.861296384063626519e-01,0.000000000000000000e+00
7.510000000000000000e+02,-1.573721023173993705e-01,0.000000000000000000e+00
7.520000000000000000e+02,-1.238752635995816753e-01,0.000000000000000000e+00
7.530000000000000000e+02,-1.141448319853285154e-01,0.000000000000000000e+00
7.540000000000000000e+02,-8.959999807818608275e-02,0.000000000000000000e+00
7.550000000000000000e+02,-5.747847739111228843e-02,0.000000000000000000e+00
7.560000000000000000e+02,-7.278081964180528607e-02,0.000000000000000000e+00
7.570000000000000000e+02,-1.711497012063458584e-02,0.000000000000000000e+00
7.580000000000000000e+02,-2.966503979418442377e-02,0.000000000000000000e+00
7.590000000000000000e+02,5.736775767659154507e-02,0.000000000000000000e+00
7.600000000000000000e+02,5.521111127794676998e-02,0.000000000000000000e+00
7.610000000000000000e+02,1.232202330421997352e-02,0.000000000000000000e+00
7.620000000000000000e+02,1.408717447058594960e-02,0.000000000000000000e+00
7.630000000000000000e+02,-4.684923776288909408e-02,0.000000000000000000e+00
7.640000000000000000e+02,-1.485490657025207925e-02,0.000000000000000000e+00
7.650000000000000000e+02,-4.491304839675278743e-02,0.000000000000000000e+00
7.660000000000000000e+02,3.011863206782082122e-02,0.000000000000000000e+00
7.670000000000000000e+02,-1.150336037609204012e-02,0.000000000000000000e+00
7.680000000000000000e+02,1.275466574417634669e-01,0.000000000000000000e+00
7.690000000000000000e+02,3.697336993463568589e-01,0.000000000000000000e+00
7.700000000000000000e+02,-1.480346871715058910e-01,0.000000000000000000e+00
7.710000000000000000e+02,-1.455817565943243186e-02,0.000000000000000000e+00
7.720000000000000000e+02,1.055622518113247255e-01,0.000000000000000000e+00
7.730000000000000000e+02,1.409879531030898969e-01,0.000000000000000000e+00
7.740000000000000000e+02,1.151304894402801482e-01,0.000000000000000000e+00
7.750000000000000000e+02,1.280021693675681693e-01,0.000000000000000000e+00
7.760000000000000000e+02,1.304905686955609989e-01,0.000000000000000000e+00
7.770000000000000000e+02,1.598727061075300993e-01,0.000000000000000000e+00
7.780000000000000000e+02,1.768413742573967662e-01,0.000000000000000000e+00
7.790000000000000000e+02,1.597102749333705884e-01,0.000000000000000000e+00
7.800000000000000000e+02,1.395022927079402897e-01,0.000000000000000000e+00
7.810000000000000000e+02,1.938000151041490426e-01,0.000000000000000000e+00
7.820000000000000000e+02,2.019733904426868620e-01,0.000000000000000000e+00
7.830000000000000000e+02,2.610359989960021054e-01,0.000000000000000000e+00
7.840000000000000000e+02,2.656343396430090320e-01,0.000000000000000000e+00
7.850000000000000000e+02,3.046866897443765154e-01,0.000000000000000000e+00
7.860000000000000000e+02,2.849138879658228984e-01,0.000000000000000000e+00
7.870000000000000000e+02,2.006066972687641503e-01,0.000000000000000000e+00
7.880000000000000000e+02,5.365597012316317138e-02,0.000000000000000000e+00
7.890000000000000000e+02,-4.593680878207025142e-02,0.000000000000000000e+00
7.900000000000000000e+02,-1.088148874523243853e-01,0.000000000000000000e+00
7.910000000000000000e+02,-8.124172830430458070e-02,0.000000000000000000e+00
7.920000000000000000e+02,-6.068981214719677830e-02,0.000000000000000000e+00
7.930000000000000000e+02,-9.258571809258740737e-02,0.000000000000000000e+00
7.940000000000000000e+02,-6.666461605156780157e-02,0.000000000000000000e+00
7.950000000000000000e+02,-1.088241322313261150e-01,0.000000000000000000e+00
7.960000000000000000e+02,-8.533826637924368796e-02,0.000000000000000000e+00
7.970000000000000000e+02,-1.019632390497525465e-01,0.000000000000000000e+00
7.980000000000000000e+02,-1.063229847617516988e-01,0.000000000000000000e+00
7.990000000000000000e+02,-1.087345709547046790e-01,0.000000000000000000e+00
8.000000000000000000e+02,-1.136958383597512223e-01,0.000000000000000000e+00
8.010000000000000000e+02,-1.053934391466423842e-01,0.000000000000000000e+00
8.020000000000000000e+02,-1.110669661662106872e-01,0.000000000000000000e+00
8.030000000000000000e+02,-1.037032719114666379e-01,0.000000000000000000e+00
8.040000000000000000e+02,-8.224033262882914086e-02,0.000000000000000000e+00
8.050000000000000000e+02,-3.893720041517789721e-02,0.000000000000000000e+00
8.060000000000000000e+02,-3.641123951245447965e-02,0.000000000000000000e+00
8.070000000000000000e+02,-3.418984120330149229e-02,0.000000000000000000e+00
8.080000000000000000e+02,-1.331123787983599753e-02,0.000000000000000000e+00
8.090000000000000000e+02,2.264966446083499767e-03,0.000000000000000000e+00
8.100000000000000000e+02,9.651893685228247338e-03,0.000000000000000000e+00
8.110000000000000000e+02,1.392346538062203855e-02,0.000000000000000000e+00
8.120000000000000000e+02,-2.568615204716043557e-02,0.000000000000000000e+00
8.130000000000000000e+02,-3.259182100696621925e-02,0.000000000000000000e+00
8.140000000000000000e+02,-9.887664528330079861e-02,0.000000000000000000e+00
8.150000000000000000e+02,-3.531344113540845625e-02,0.000000000000000000e+00
8.160000000000000000e+02,-7.256124076722982041e-02,0.000000000000000000e+00
8.170000000000000000e+02,-6.260553455230336017e-02,0.000000000000000000e+00
8.180000000000000000e+02,-9.322972138706624168e-02,0.000000000000000000e+00
8.190000000000000000e+02,3.832465530997751779e-01,0.000000000000000000e+00
8.200000000000000000e+02,5.889113281000643574e-02,0.000000000000000000e+00
8.210000000000000000e+02,-2.272903680296806672e-01,0.000000000000000000e+00
8.220000000000000000e+02,-7.234496749846515374e-04,0.000000000000000000e+00
8.230000000000000000e+02,-1.838325665381735155e-02,0.000000000000000000e+00
8.240000000000000000e+02,-4.354837587743033353e-03,0.000000000000000000e+00
8.250000000000000000e+02,3.038623662084623603e-02,0.000000000000000000e+00
8.260000000000000000e+02,2.423085582638775243e-02,0.000000000000000000e+00
8.270000000000000000e+02,-1.791112053274343877e-02,0.000000000000000000e+00
8.280000000000000000e+02,1.691314296570755119e-02,0.000000000000000000e+00
8.290000000000000000e+02,2.245782816994812761e-02,0.000000000000000000e+00
8.300000000000000000e+02,2.071620435255682596e-02,0.000000000000000000e+00
8.310000000000000000e+02,6.942573459932298297e-02,0.000000000000000000e+00
8.320000000000000000e+02,5.281019633320093581e-02,0.000000000000000000e+00
8.330000000000000000e+02,1.113441626222331643e-01,0.000000000000000000e+00
8.340000000000000000e+02,1.523139288967754468e-01,0.000000000000000000e+00
8.350000000000000000e+02,1.470205730898874186e-01,0.000000000000000000e+00
8.360000000000000000e+02,1.952306583854008515e-01,0.000000000000000000e+00
8.370000000000000000e+02,1.810531753343554151e-01,0.000000000000000000e+00
8.380000000000000000e+02,3.995867667712514615e-02,0.000000000000000000e+00
8.390000000000000000e+02,-1.245183625570195490e-01,0.000000000000000000e+00
8.400000000000000000e+02,-1.364474162842440330e-01,0.000000000000000000e+00
8.410000000000000000e+02,-1.827617499108421251e-01,0.000000000000000000e+00
8.420000000000000000e+02,-2.201950966977349322e-01,0.000000000000000000e+00
8.430000000000000000e+02,-2.014085870552324020e-01,0.000000000000000000e+00
8.440000000000000000e+02,-1.713401521849798603e-01,0.000000000000000000e+00
8.450000000000000000e+02,-1.462426886407099391e-01,0.000000000000000000e+00
8.460000000000000000e+02,-1.611109667428381187e-01,0.000000000000000000e+00
8.470000000000000000e+02,-1.397112855286032074e-01,0.000000000000000000e+00
8.480000000000000000e+02,-1.455824732056587023e-01,0.000000000000000000e+00
8.490000000000000000e+02,-1.159496031975925101e-01,0.000000000000000000e+00
8.500000000000000000e+02,-1.512468748143923070e-01,0.000000000000000000e+00
8.510000000000000000e+02,-2.618458412549075701e-02,0.000000000000000000e+00
8.520000000000000000e+02,-7.928365922415396561e-02,0.000000000000000000e+00
8.530000000000000000e+02,3.876658464094064668e-03,0.000000000000000000e+00
8.540000000000000000e+02,-2.844190962269882439e-02,0.000000000000000000e+00
8.550000000000000000e+02,6.590523987459215999e-03,0.000000000000000000e+00
8.560000000000000000e+02,5.496578037078227175e-02,0.000000000000000000e+00
8.570000000000000000e+02,8.898264735550123761e-02,0.000000000000000000e+00
8.580000000000000000e+02,1.545112008808142701e-01,0.000000000000000000e+00
8.590000000000000000e+02,2.019741049745915895e-01,0.000000000000000000e+00
8.600000000000000000e+02,2.242385106464451494e-01,0.000000000000000000e+00
8.610000000000000000e+02,3.059105338758406067e-01,0.000000000000000000e+00
8.620000000000000000e+02,2.619418118859846989e-01,0.000000000000000000e+00
8.630000000000000000e+02,3.769966111561900979e-01,0.000000000000000000e+00
8.640000000000000000e+02,3.000477487558889655e-01,0.000000000000000000e+00
8.650000000000000000e+02,3.730906856718025910e-01,0.000000000000000000e+00
8.660000000000000000e+02,3.219883434328687510e-01,0.000000000000000000e+00
8.670000000000000000e+02,4.071293432983160709e-01,0.000000000000000000e+00
8.680000000000000000e+02,5.214617124543321491e-01,0.000000000000000000e+00
8.690000000000000000e+02,6.564959816915106883e-01,0.000000000000000000e+00
8.700000000000000000e+02,7.611879293173314798e-01,0.000000000000000000e+00
8.710000000000000000e+02,1.026770348844007863e+00,0.000000000000000000e+00
8.720000000000000000e+02,1.120667466598086026e+00,0.000000000000000000e+00
8.730000000000000000e+02,1.506884344448546242e+00,0.000000000000000000e+00
8.740000000000000000e+02,1.671771859373117897e+00,0.000000000000000000e+00
8.750000000000000000e+02,2.093158807318549641e+00,0.000000000000000000e+00
8.760000000000000000e+02,2.275267123921011603e+00,0.000000000000000000e+00
8.770000000000000000e+02,2.776375746908921638e+00,0.000000000000000000e+00
8.780000000000000000e+02,2.988868458274068995e+00,0.000000000000000000e+00
8.790000000000000000e+02,3.429226718788614736e+00,0.000000000000000000e+00
8.800000000000000000e+02,3.437179305223649006e+00,0.000000000000000000e+00
8.810000000000000000e+02,5.322183355259912041e+00,0.000000000000000000e+00
8.820000000000000000e+02,8.488450547988922068e+00,0.000000000000000000e+00
8.830000000000000000e+02,1.309531156759505421e+01,1.000000000000000000e+00
8.840000000000000000e+02,1.739449204168098362e+01,0.000000000000000000e+00
8.850000000000000000e+02,1.702718001322541852e+01,0.000000000000000000e+00
8.860000000000000000e+02,1.622356037295132580e+01,0.000000000000000000e+00
8.870000000000000000e+02,1.411577902728828526e+01,0.000000000000000000e+00
8.880000000000000000e+02,1.223008366638845423e+01,0.000000000000000000e+00
8.890000000000000000e+02,9.669138923907734551e+00,0.000000000000000000e+00
8.900000000000000000e+02,7.122380277689107864e+00,0.000000000000000000e+00
8.910000000000000000e+02,4.312762403534071254e+00,0.000000000000000000e+00
8.920000000000000000e+02,1.781848918990051267e+00,0.000000000000000000e+00
8.930000000000000000e+02,-8.118345480031378125e-01,0.000000000000000000e+00
8.940000000000000000e+02,-3.046302903592303934e+00,0.000000000000000000e+00
8.950000000000000000e+02,-5.171064991379000553e+00,0.000000000000000000e+00
8.960000000000000000e+02,-8.956357087853410448e+00,0.000000000000000000e+00
8.970000000000000000e+02,-2.125273310028555329e+01,0.000000000000000000e+00
8.980000000000000000e+02,-2.759104542478271327e+01,0.000000000000000000e+00
8.990000000000000000e+02,-2.963508040258177800e+01,0.000000000000000000e+00
9.000000000000000000e+02,-3.034976504043331857e+01,0.000000000000000000e+00
9.010000000000000000e+02,-2.990221001355663688e+01,0.000000000000000000e+00
9.020000000000000000e+02,-2.857184580316257438e+01,0.000000000000000000e+00
9.030000000000000000e+02,-2.657424569309650408e+01,0.000000000000000000e+00
9.040000000000000000e+02,-2.436662615864264225e+01,0.000000000000000000e+00
9.050000000000000000e+02,-2.199660829417654284e+01,0.000000000000000000e+00
9.060000000000000000e+02,-1.917791962145175688e+01,0.000000000000000000e+00
9.070000000000000000e+02,-1.667867665017374534e+01,0.000000000000000000e+00
9.080000000000000000e+02,-1.424048310346020507e+01,0.000000000000000000e+00
9.090000000000000000e+02,-1.193777718609004168e+01,0.000000000000000000e+00
9.100000000000000000e+02,-9.614052194350977132e+00,0.000000000000000000e+00
9.110000000000000000e+02,-7.097381881871931419e+00,0.000000000000000000e+00
9.120000000000000000e+02,-4.801487891807011188e+00,0.000000000000000000e+00
9.130000000000000000e+02,-2.932032663081366231e+00,0.000000000000000000e+00
9.140000000000000000e+02,-1.374040400273890183e+00,0.000000000000000000e+00
9.150000000000000000e+02,-9.792857118915272718e-02,0.000000000000000000e+00
9.160000000000000000e+02,1.149981782565751676e+00,0.000000000000000000e+00
9.170000000000000000e+02,2.214393384045737712e+00,0.000000000000000000e+00
9.180000000000000000e+02,3.227959640876605807e+00,0.000000000000000000e+00
9.190000000000000000e+02,4.276231262938829047e+00,0.000000000000000000e+00
9.200000000000000000e+02,5.426982381175823988e+00,0.000000000000000000e+00
9.210000000000000000e+02,6.628164450131571961e+00,0.000000000000000000e+00
9.220000000000000000e+02,7.670062235975396270e+00,0.000000000000000000e+00
9.230000000000000000e+02,8.391120447090502310e+00,0.000000000000000000e+00
9.240000000000000000e+02,8.815018711113584260e+00,0.000000000000000000e+00
9.250000000000000000e+02,9.183411577350902633e+00,0.000000000000000000e+00
9.260000000000000000e+02,9.493443806051150347e+00,0.000000000000000000e+00
9.270000000000000000e+02,9.598495772114212343e+00,0.000000000000000000e+00
9.280000000000000000e+02,9.795993428101605005e+00,0.000000000000000000e+00
9.290000000000000000e+02,9.768336245559620323e+00,0.000000000000000000e+00
9.300000000000000000e+02,9.807361998026172145e+00,0.000000000000000000e+00
9.310000000000000000e+02,9.661138249943048706e+00,0.000000000000000000e+00
9.320000000000000000e+02,9.558181698255182823e+00,0.000000000000000000e+00
9.330000000000000000e+02,9.381778440291382637e+00,0.000000000000000000e+00
9.340000000000000000e+02,9.196181177568842458e+00,0.000000000000000000e+00
9.350000000000000000e+02,8.883431667144249033e+00,0.000000000000000000e+00
9.360000000000000000e+02,8.666775694449505352e+00,0.000000000000000000e+00
9.370000000000000000e+02,8.155638961016528299e+00,0.000000000000000000e+00
9.380000000000000000e+02,7.866257272430006608e+00,0.000000000000000000e+00
9.390000000000000000e+02,7.592737058901133373e+00,0.000000000000000000e+00
9.400000000000000000e+02,7.403515315675676334e+00,0.000000000000000000e+00
9.410000000000000000e+02,7.102985047633975313e+00,0.000000000000000000e+00
9.420000000000000000e+02,6.920749560936958922e+00,0.000000000000000000e+00
9.430000000000000000e+02,7.128379093031361968e+00,0.000000000000000000e+00
9.440000000000000000e+02,6.403730146357367481e+00,0.000000000000000000e+00
9.450000000000000000e+02,6.093123420904517751e+00,0.000000000000000000e+00
9.460000000000000000e+02,6.005195204971116141e+00,0.000000000000000000e+00
9.470000000000000000e+02,5.693941778780923002e+00,0.000000000000000000e+00
9.480000000000000000e+02,5.437984029505722461e+00,0.000000000000000000e+00
9.490000000000000000e+02,5.109819500425598626e+00,0.000000000000000000e+00
9.500000000000000000e+02,4.839800764851164061e+00,0.000000000000000000e+00
9.510000000000000000e+02,4.420981308738265447e+00,0.000000000000000000e+00
9.520000000000000000e+02,4.125415830655476235e+00,0.000000000000000000e+00
9.530000000000000000e+02,3.724963990476287456e+00,0.000000000000000000e+00
9.540000000000000000e+02,3.498423511768653960e+00,0.000000000000000000e+00
9.550000000000000000e+02,3.173996306401175804e+00,0.000000000000000000e+00
9.560000000000000000e+02,2.853238453230186433e+00,0.000000000000000000e+00
9.570000000000000000e+02,2.460974630393281348e+00,0.000000000000000000e+00
9.580000000000000000e+02,2.224292255421997933e+00,0.000000000000000000e+00
9.590000000000000000e+02,1.797680231280766483e+00,0.000000000000000000e+00
9.600000000000000000e+02,1.635175054474817591e+00,0.000000000000000000e+00
9.610000000000000000e+02,1.171377111118560910e+00,0.000000000000000000e+00
9.620000000000000000e+02,7.887412586922755153e-01,0.000000000000000000e+00
9.630000000000000000e+02,2.937855656734969512e-01,0.000000000000000000e+00
9.640000000000000000e+02,-3.920994246984305098e-02,0.000000000000000000e+00
9.650000000000000000e+02,-4.435517284301042085e-01,0.000000000000000000e+00
9.660000000000000000e+02,-6.562341343036525165e-01,0.000000000000000000e+00
9.670000000000000000e+02,-9.963644739856565291e-01,0.000000000000000000e+00
9.680000000000000000e+02,-1.167109501515460446e+00,0.000000000000000000e+00
9.690000000000000000e+02,-1.437361412644733605e+00,0.000000000000000000e+00
9.700000000000000000e+02,-1.622820850685404270e+00,0.000000000000000000e+00
9.710000000000000000e+02,-1.916288152172248349e+00,0.000000000000000000e+00
9.720000000000000000e+02,-2.047741056115075953e+00,0.000000000000000000e+00
9.730000000000000000e+02,-2.254443909981269201e+00,0.000000000000000000e+00
9.740000000000000000e+02,-2.376847057478487457e+00,0.000000000000000000e+00
9.750000000000000000e+02,-2.540555884732745184e+00,0.000000000000000000e+00
9.760000000000000000e+02,-2.634229043280554183e+00,0.000000000000000000e+00
9.770000000000000000e+02,-2.813587485083992146e+00,0.000000000000000000e+00
9.780000000000000000e+02,-2.830937617160829589e+00,0.000000000000000000e+00
9.790000000000000000e+02,-2.954804906631052219e+00,0.000000000000000000e+00
9.800000000000000000e+02,-2.907531621594118043e+00,0.000000000000000000e+00
9.810000000000000000e+02,-2.976316570324824440e+00,0.000000000000000000e+00
9.820000000000000000e+02,-2.994021243373970353e+00,0.000000000000000000e+00
9.830000000000000000e+02,-3.023529779098817816e+00,0.000000000000000000e+00
9.840000000000000000e+02,-3.012710312462613782e+00,0.000000000000000000e+00
9.850000000000000000e+02,-3.093010848429431192e+00,0.000000000000000000e+00
9.860000000000000000e+02,-3.078228652144582522e+00,0.000000000000000000e+00
9.870000000000000000e+02,-3.241892712982983760e+00,0.000000000000000000e+00
9.880000000000000000e+02,-3.182768621139695497e+00,0.000000000000000000e+00
9.890000000000000000e+02,-3.252936172204515142e+00,0.000000000000000000e+00
9.900000000000000000e+02,-3.248110008600435972e+00,0.000000000000000000e+00
9.910000000000000000e+02,-3.274776603214615278e+00,0.000000000000000000e+00
9.920000000000000000e+02,-3.227995327703944817e+00,0.000000000000000000e+00
9.930000000000000000e+02,-3.209115840397208874e+00,0.000000000000000000e+00
9.940000000000000000e+02,-3.131467578823180276e+00,0.000000000000000000e+00
9.950000000000000000e+02,-3.113661619641094447e+00,0.000000000000000000e+00
9.960000000000000000e+02,-2.982279615707800868e+00,0.000000000000000000e+00
9.970000000000000000e+02,-2.996940774687534503e+00,0.000000000000000000e+00
9.980000000000000000e+02,-2.929961279016096043e+00,0.000000000000000000e+00
9.990000000000000000e+02,-2.857266509446307001e+00,0.000000000000000000e+00
1.000000000000000000e+03,-2.728592561355781765e+00,0.000000000000000000e+00
1.001000000000000000e+03,-2.686808848442952868e+00,0.000000000000000000e+00
1.002000000000000000e+03,-2.558972328281785558e+00,0.000000000000000000e+00
1.003000000000000000e+03,-2.537467762817622319e+00,0.000000000000000000e+00
1.004000000000000000e+03,-1.999273314119837108e+00,0.000000000000000000e+00
1.005000000000000000e+03,-1.974878626176336249e+00,0.000000000000000000e+00
1.006000000000000000e+03,-2.281461586641241990e+00,0.000000000000000000e+00
1.007000000000000000e+03,-2.055876427164110787e+00,0.000000000000000000e+00
1.008000000000000000e+03,-1.903244011879909214e+00,0.000000000000000000e+00
1.009000000000000000e+03,-1.713691896629023326e+00,0.000000000000000000e+00
1.010000000000000000e+03,-1.719346060180483082e+00,0.000000000000000000e+00
1.011000000000000000e+03,-1.502946937257676918e+00,0.000000000000000000e+00
1.012000000000000000e+03,-1.290655710098020492e+00,0.000000000000000000e+00
1.013000000000000000e+03,-1.148451757833918396e+00,0.000000000000000000e+00
1.014000000000000000e+03,-1.012394022529798043e+00,0.000000000000000000e+00
1.015000000000000000e+03,-9.215632698957734181e-01,0.000000000000000000e+00
1.016000000000000000e+03,-8.936495425539870974e-01,0.000000000000000000e+00
1.017000000000000000e+03,-8.360501688366638318e-01,0.000000000000000000e+00
1.018000000000000000e+03,-7.226261906091627774e-01,0.000000000000000000e+00
1.019000000000000000e+03,-4.537129605737319493e-01,0.000000000000000000e+00
1.020000000000000000e+03,-1.020393873124501305e-01,0.000000000000000000e+00
1.021000000000000000e+03,7.612704598965273906e-02,0.000000000000000000e+00
1.022000000000000000e+03,2.708512584494564557e-01,0.000000000000000000e+00
1.023000000000000000e+03,2.361748879562743930e-01,0.000000000000000000e+00
1.024000000000000000e+03,1.421700603127672713e-01,0.000000000000000000e+00
1.025000000000000000e+03,1.073238904915444075e-01,0.000000000000000000e+00
1.026000000000000000e+03,1.783953309766274919e-01,0.000000000000000000e+00
1.027000000000000000e+03,1.885981423415265534e-01,0.000000000000000000e+00
1.028000000000000000e+03,3.056066486548585370e-01,0.000000000000000000e+00
1.029000000000000000e+03,3.536563135018043758e-01,0.000000000000000000e+00
1.030000000000000000e+03,5.166042573543085936e-01,0.000000000000000000e+00
1.031000000000000000e+03,5.292521160710244033e-01,0.000000000000000000e+00
1.032000000000000000e+03,7.094761751119481596e-01,0.000000000000000000e+00
1.033000000000000000e+03,8.306427674900428437e-01,0.000000000000000000e+00
1.034000000000000000e+03,9.318635939654632550e-01,0.000000000000000000e+00
1.035000000000000000e+03,9.753016301978797431e-01,0.000000000000000000e+00
1.036000000000000000e+03,1.044323758079860109e+00,0.000000000000000000e+00
1.037000000000000000e+03,1.107335392702545329e+00,0.000000000000000000e+00
1.038000000000000000e+03,1.110541017289228494e+00,0.000000000000000000e+00
1.039000000000000000e+03,1.143264531673193307e+00,0.000000000000000000e+00
1.040000000000000000e+03,1.194975483067921562e+00,0.000000000000000000e+00
1.041000000000000000e+03,1.209309037149171928e+00,0.000000000000000000e+00
1.042000000000000000e+03,1.231708619675155214e+00,0.000000000000000000e+00
1.043000000000000000e+03,1.259899982033925170e+00,0.000000000000000000e+00
1.044000000000000000e+03,1.327604594517395542e+00,0.000000000000000000e+00
1.045000000000000000e+03,1.289182803690371415e+00,0.000000000000000000e+00
1.046000000000000000e+03,1.369724913247266862e+00,0.000000000000000000e+00
1.047000000000000000e+03,1.388734561598331751e+00,0.000000000000000000e+00
1.048000000000000000e+03,1.151842091665085999e+00,0.000000000000000000e+00
1.049000000000000000e+03,8.736292638497089591e-01,0.000000000000000000e+00
1.050000000000000000e+03,8.141399730892634468e-01,0.000000000000000000e+00
1.051000000000000000e+03,8.251876963080287952e-01,0.000000000000000000e+00
1.052000000000000000e+03,9.110465131803843208e-01,0.000000000000000000e+00
1.053000000000000000e+03,9.007754700833182637e-01,0.000000000000000000e+00
1.054000000000000000e+03,9.003510602604202218e-01,0.000000000000000000e+00
1.055000000000000000e+03,8.501009832033766811e-01,0.000000000000000000e+00
1.056000000000000000e+03,7.764069550464479663e-01,0.000000000000000000e+00
1.057000000000000000e+03,7.113237551046659446e-01,0.000000000000000000e+00
1.058000000000000000e+03,6.321507314117669196e-01,0.000000000000000000e+00
1.059000000000000000e+03,6.209343601057031314e-01,0.000000000000000000e+00
1.060000000000000000e+03,6.380895765068550496e-01,0.000000000000000000e+00
1.061000000000000000e+03,5.477891269745924774e-01,0.000000000000000000e+00
1.062000000000000000e+03,5.872676874780323741e-01,0.000000000000000000e+00
1.063000000000000000e+03,5.709266191852944150e-01,0.000000000000000000e+00
1.064000000000000000e+03,1.069402533541639055e+00,0.000000000000000000e+00
1.065000000000000000e+03,7.696785726524012494e-01,0.000000000000000000e+00
1.066000000000000000e+03,3.137832649855796241e-01,0.000000000000000000e+00
1.067000000000000000e+03,2.126730114957588180e-01,0.000000000000000000e+00
1.068000000000000000e+03,1.066930130410025518e-01,0.000000000000000000e+00
1.069000000000000000e+03,1.542524909213911499e-01,0.000000000000000000e+00
1.070000000000000000e+03,1.808350024716419979e-01,0.000000000000000000e+00
1.071000000000000000e+03,2.347823986959138853e-01,0.000000000000000000e+00
1.072000000000000000e+03,2.223289118555607236e-01,0.000000000000000000e+00
1.073000000000000000e+03,2.655735093979210704e-01,0.000000000000000000e+00
1.074000000000000000e+03,2.902578950582094808e-01,0.000000000000000000e+00
1.075000000000000000e+03,2.925505819126910656e-01,0.000000000000000000e+00
1.076000000000000000e+03,3.199362407748974624e-01,0.000000000000000000e+00
1.077000000000000000e+03,3.025951211747450187e-01,0.000000000000000000e+00
1.078000000000000000e+03,2.530337358944195203e-01,0.000000000000000000e+00
1.079000000000000000e+03,3.194515516853312365e-01,0.000000000000000000e+00
1.080000000000000000e+03,3.752517977182390774e-01,0.000000000000000000e+00
1.081000000000000000e+03,3.760374404452330177e-01,0.000000000000000000e+00
1.082000000000000000e+03,2.728693141191899096e-01,0.000000000000000000e+00
1.083000000000000000e+03,1.332586395766845178e-01,0.000000000000000000e+00
1.084000000000000000e+03,-9.447353365101027189e-02,0.000000000000000000e+00
1.085000000000000000e+03,-2.320793267160930484e-01,0.000000000000000000e+00
1.086000000000000000e+03,-2.983132176980854977e-01,0.000000000000000000e+00
1.087000000000000000e+03,-3.279248638700838492e-01,0.000000000000000000e+00
1.088000000000000000e+03,-3.381209155709258285e-01,0.000000000000000000e+00
1.089000000000000000e+03,-4.087598468267982232e-01,0.000000000000000000e+00
1.090000000000000000e+03,-3.955256225735648834e-01,0.000000000000000000e+00
1.091000000000000000e+03,-3.908995424019132692e-01,0.000000000000000000e+00
1.092000000000000000e+03,-3.941683230578706398e-01,0.000000000000000000e+00
1.093000000000000000e+03,-3.836809321854419697e-01,0.000000000000000000e+00
1.094000000000000000e+03,-3.912700790022312636e-01,0.000000000000000000e+00
1.095000000000000000e+03,-3.771560064572746507e-01,0.000000000000000000e+00
1.096000000000000000e+03,-3.979617303738322565e-01,0.000000000000000000e+00
1.097000000000000000e+03,-4.194992278985427703e-01,0.000000000000000000e+00
1.098000000000000000e+03,-4.385555610715801689e-01,0.000000000000000000e+00
1.099000000000000000e+03,-4.374609532551417268e-01,0.000000000000000000e+00
1.100000000000000000e+03,-3.462066052853536302e-01,0.000000000000000000e+00
1.101000000000000000e+03,-4.384712991971141394e-01,0.000000000000000000e+00
1.102000000000000000e+03,-3.414100790483655112e-01,0.000000000000000000e+00
1.103000000000000000e+03,-3.321406293926047470e-01,0.000000000000000000e+00
1.104000000000000000e+03,-2.551272390852000749e-01,0.000000000000000000e+00
1.105000000000000000e+03,-2.530905478098158246e-01,0.000000000000000000e+00
1.106000000000000000e+03,-1.869324016595654558e-01,0.000000000000000000e+00
1.107000000000000000e+03,-2.147942510674921979e-01,0.000000000000000000e+00
1.108000000000000000e+03,-1.436360296869217679e-01,0.000000000000000000e+00
1.109000000000000000e+03,1.818242943844582159e-04,0.000000000000000000e+00
1.110000000000000000e+03,7.366057131398609514e-02,0.000000000000000000e+00
1.111000000000000000e+03,3.883855633824627451e-02,0.000000000000000000e+00
1.112000000000000000e+03,6.119330330857553762e-02,0.000000000000000000e+00
1.113000000000000000e+03,7.227034382398962731e-02,0.000000000000000000e+00
1.114000000000000000e+03,-1.283704005675392543e-02,0.000000000000000000e+00
1.115000000000000000e+03,-4.721069387715731702e-02,0.000000000000000000e+00
1.116000000000000000e+03,-8.475198712644854693e-02,0.000000000000000000e+00
1.117000000000000000e+03,3.614126300827824947e-03,0.000000000000000000e+00
1.118000000000000000e+03,-1.255577242418032952e-02,0.000000000000000000e+00
1.119000000000000000e+03,-1.097843667409690582e-01,0.000000000000000000e+00
1.120000000000000000e+03,-1.758896579201248700e-01,0.000000000000000000e+00
1.121000000000000000e+03,-2.196445591540599762e-01,0.000000000000000000e+00
1.122000000000000000e+03,3.145637782770105417e-01,0.000000000000000000e+00
1.123000000000000000e+03,-8.425572752341314864e-02,0.000000000000000000e+00
1.124000000000000000e+03,-3.214173912526750998e-01,0.000000000000000000e+00
1.125000000000000000e+03,-2.027368284686658362e-01,0.000000000000000000e+00
1.126000000000000000e+03,-1.707189327858194272e-01,0.000000000000000000e+00
1.127000000000000000e+03,-1.195470815814421162e-01,0.000000000000000000e+00
1.128000000000000000e+03,-8.713394975042655644e-02,0.000000000000000000e+00
1.129000000000000000e+03,-1.097489064397638714e-01,0.000000000000000000e+00
1.130000000000000000e+03,-5.193872561227986379e-02,0.000000000000000000e+00
1.131000000000000000e+03,-2.448188229103592101e-02,0.000000000000000000e+00
1.132000000000000000e+03,-1.131891760808649387e-02,0.000000000000000000e+00
1.133000000000000000e+03,-5.204052313802779361e-04,0.000000000000000000e+00
1.134000000000000000e+03,8.784931079073299287e-02,0.000000000000000000e+00
1.135000000000000000e+03,1.044190604111361054e-01,0.000000000000000000e+00
1.136000000000000000e+03,1.571257990300967688e-01,0.000000000000000000e+00
1.137000000000000000e+03,1.761628846304205132e-01,0.000000000000000000e+00
1.138000000000000000e+03,2.660460012799791829e-01,0.000000000000000000e+00
1.139000000000000000e+03,2.713687626975259115e-01,0.000000000000000000e+00
1.140000000000000000e+03,2.707626135683406932e-01,0.000000000000000000e+00
1.141000000000000000e+03,1.123831278679264384e-01,0.000000000000000000e+00
1.142000000000000000e+03,-5.982800410144645600e-03,0.000000000000000000e+00
1.143000000000000000e+03,-1.206302704063022535e-01,0.000000000000000000e+00
1.144000000000000000e+03,-1.370625652826301388e-01,0.000000000000000000e+00
1.145000000000000000e+03,-1.172292695903322107e-01,0.000000000000000000e+00
1.146000000000000000e+03,-1.032186166527581939e-01,0.000000000000000000e+00
1.147000000000000000e+03,-8.509715851173726975e-02,0.000000000000000000e+00
1.148000000000000000e+03,-4.630051874010654434e-02,0.000000000000000000e+00
1.149000000000000000e+03,-5.734340888680486414e-02,0.000000000000000000e+00
1.150000000000000000e+03,-3.746630818577383060e-02,0.000000000000000000e+00
1.151000000000000000e+03,-2.322275700914369287e-02,0.000000000000000000e+00
1.152000000000000000e+03,1.611024513881697748e-02,0.000000000000000000e+00
1.153000000000000000e+03,-2.346961666677505574e-03,0.000000000000000000e+00
1.154000000000000000e+03,2.518299388514322681e-02,0.000000000000000000e+00
1.155000000000000000e+03,2.618822285801515604e-02,0.000000000000000000e+00
1.156000000000000000e+03,7.059143745015471205e-02,0.000000000000000000e+00
1.157000000000000000e+03,9.212536118547033637e-03,0.000000000000000000e+00
1.158000000000000000e+03,8.412271340743995851e-02,0.000000000000000000e+00
1.159000000000000000e+03,4.820524928153881172e-02,0.000000000000000000e+00
1.160000000000000000e+03,1.121770584778698093e-01,0.000000000000000000e+00
1.161000000000000000e+03,9.730517396244479922e-02,0.000000000000000000e+00
1.162000000000000000e+03,9.200566526979743476e-02,0.000000000000000000e+00
1.163000000000000000e+03,6.072502259957635040e-02,0.000000000000000000e+00
1.164000000000000000e+03,1.129303921026471452e-01,0.000000000000000000e+00
1.165000000000000000e+03,9.748010176192976883e-02,0.000000000000000000e+00
1.166000000000000000e+03,1.213399281473533653e-01,0.000000000000000000e+00
1.167000000000000000e+03,1.258345741419948927e-01,0.000000000000000000e+00
1.168000000000000000e+03,1.798710127460254049e-01,0.000000000000000000e+00
1.169000000000000000e+03,1.670322187493999133e-01,0.000000000000000000e+00
1.170000000000000000e+03,1.273566653467151921e-01,0.000000000000000000e+00
1.171000000000000000e+03,6.200670120424493781e-02,0.000000000000000000e+00
1.172000000000000000e+03,5.624644559456948995e-02,0.000000000000000000e+00
1.173000000000000000e+03,4.739957358510993313e-02,0.000000000000000000e+00
1.174000000000000000e+03,2.592177918235021375e-02,0.000000000000000000e+00
1.175000000000000000e+03,3.864787665529147154e-02,0.000000000000000000e+00
1.176000000000000000e+03,3.186645995971493228e-02,0.000000000000000000e+00
1.177000000000000000e+03,3.098890483612823724e-02,0.000000000000000000e+00
1.178000000000000000e+03,4.827702554699841997e-01,0.000000000000000000e+00
1.179000000000000000e+03,5.975792826614238079e-02,0.000000000000000000e+00
1.180000000000000000e+03,-1.115750250024188372e-01,0.000000000000000000e+00
1.181000000000000000e+03,-9.846979154143760751e-03,0.000000000000000000e+00
1.182000000000000000e+03,4.284222345221011530e-02,0.000000000000000000e+00
1.183000000000000000e+03,3.687085379851162692e-02,0.000000000000000000e+00
1.184000000000000000e+03,1.743985828580059058e-02,0.000000000000000000e+00
1.185000000000000000e+03,4.537591276056539974e-02,0.000000000000000000e+00
1.186000000000000000e+03,4.580236602809354546e-02,0.000000000000000000e+00
1.187000000000000000e+03,1.111696478881895114e-02,0.000000000000000000e+00
1.188000000000000000e+03,6.044620439097486697e-02,0.000000000000000000e+00
1.189000000000000000e+03,8.163791481410487966e-03,0.000000000000000000e+00
1.190000000000000000e+03,5.617954259529738675e-02,0.000000000000000000e+00
1.191000000000000000e+03,8.185257570271842198e-02,0.000000000000000000e+00
1.192000000000000000e+03,9.073826768285338240e-02,0.000000000000000000e+00
1.193000000000000000e+03,1.214974570669697940e-01,0.000000000000000000e+00
1.194000000000000000e+03,1.633653366678783636e-01,0.000000000000000000e+00
1.195000000000000000e+03,1.176076469065269470e-01,0.000000000000000000e+00
1.196000000000000000e+03,1.096784211202668641e-01,0.000000000000000000e+00
1.197000000000000000e+03,4.619440928184047682e-03,0.000000000000000000e+00
1.198000000000000000e+03,-2.087030375200143173e-01,0.000000000000000000e+00
1.199000000000000000e+03,-2.831530172007908908e-01,0.000000000000000000e+00
1.200000000000000000e+03,-2.875681561610496928e-01,0.000000000000000000e+00
1.201000000000000000e+03,-3.024620630931701415e-01,0.000000000000000000e+00
1.202000000000000000e+03,-2.995391984818734921e-01,0.000000000000000000e+00
1.203000000000000000e+03,-2.414409987264654334e-01,0.000000000000000000e+00
1.204000000000000000e+03,-2.605569820531015157e-01,0.000000000000000000e+00
1.205000000000000000e+03,-2.449450590712259623e-01,0.000000000000000000e+00
1.206000000000000000e+03,-2.451821476017012613e-01,0.000000000000000000e+00
1.207000000000000000e+03,-2.365340764423154996e-01,0.000000000000000000e+00
1.208000000000000000e+03,-2.396246677148539395e-01,0.000000000000000000e+00
1.209000000000000000e+03,-1.811842484526459962e-01,0.000000000000000000e+00
1.210000000000000000e+03,-2.182586609221639218e-01,0.000000000000000000e+00
1.211000000000000000e+03,-1.784203715995817952e-01,0.000000000000000000e+00
1.212000000000000000e+03,-1.738205736971477899e-01,0.000000000000000000e+00
1.213000000000000000e+03,-1.494531475650414942e-01,0.000000000000000000e+00
1.214000000000000000e+03,-1.475997670115195559e-01,0.000000000000000000e+00
1.215000000000000000e+03,-1.459566644905155863e-01,0.000000000000000000e+00
1.216000000000000000e+03,-7.187341162859763044e-02,0.000000000000000000e+00
1.217000000000000000e+03,-1.342501102046931016e-01,0.000000000000000000e+00
1.218000000000000000e+03,-8.610708548837225917e-02,0.000000000000000000e+00
1.219000000000000000e+03,-7.123946610213802155e-02,0.000000000000000000e+00
1.220000000000000000e+03,-7.722157386146130675e-02,0.000000000000000000e+00
1.221000000000000000e+03,-5.318204258197826995e-02,0.000000000000000000e+00
1.222000000000000000e+03,-4.410674368797631861e-02,0.000000000000000000e+00
1.223000000000000000e+03,-3.374877996496180449e-02,0.000000000000000000e+00
1.224000000000000000e+03,-2.107640029607766446e-02,0.000000000000000000e+00
1.225000000000000000e+03,-2.150739371504641756e-02,0.000000000000000000e+00
1.226000000000000000e+03,3.850673122421020139e-02,0.000000000000000000e+00
1.227000000000000000e+03,8.999433249238530941e-02,0.000000000000000000e+00
1.228000000000000000e+03,3.722943447451433630e-02,0.000000000000000000e+00
1.229000000000000000e+03,-1.838473936131758413e-02,0.000000000000000000e+00
1.230000000000000000e+03,-1.754983343082175407e-02,0.000000000000000000e+00
1.231000000000000000e+03,-3.497024181253138853e-02,0.000000000000000000e+00
1.232000000000000000e+03,2.031246869841787581e-03,0.000000000000000000e+00
1.233000000000000000e+03,-4.580390787148572174e-02,0.000000000000000000e+00
1.234000000000000000e+03,2.854632855674417782e-02,0.000000000000000000e+00
1.235000000000000000e+03,-1.047304695650034811e-01,0.000000000000000000e+00
1.236000000000000000e+03,2.953932365147064476e-01,0.000000000000000000e+00
1.237000000000000000e+03,3.347917744709285048e-01,0.000000000000000000e+00
1.238000000000000000e+03,-8.796683839555739792e-02,0.000000000000000000e+00
1.239000000000000000e+03,1.849916747681401227e-02,0.000000000000000000e+00
1.240000000000000000e+03,-4.547797141927869755e-03,0.000000000000000000e+00
1.241000000000000000e+03,9.208856920329923021e-03,0.000000000000000000e+00
1.242000000000000000e+03,1.743923849628876629e-02,0.000000000000000000e+00
1.243000000000000000e+03,5.573997501601656024e-02,0.000000000000000000e+00
1.244000000000000000e+03,4.830212009290212744e-02,0.000000000000000000e+00
1.245000000000000000e+03,3.482341810394880277e-02,0.000000000000000000e+00
1.246000000000000000e+03,7.677397816291470223e-02,0.000000000000000000e+00
1.247000000000000000e+03,7.355735346426724164e-02,0.000000000000000000e+00
1.248000000000000000e+03,1.304400183924632750e-01,0.000000000000000000e+00
1.249000000000000000e+03,1.190408356008924862e-01,0.000000000000000000e+00
1.250000000000000000e+03,1.393098459576373738e-01,0.000000000000000000e+00
1.251000000000000000e+03,1.805628037523453744e-01,0.000000000000000000e+00
1.252000000000000000e+03,2.279330384623424466e-01,0.000000000000000000e+00
1.253000000000000000e+03,2.506677685475641737e-01,0.000000000000000000e+00
1.254000000000000000e+03,2.369475353966143116e-01,0.000000000000000000e+00
1.255000000000000000e+03,1.195099632919894017e-01,0.000000000000000000e+00
1.256000000000000000e+03,3.365421597951072374e-02,0.000000000000000000e+00
1.257000000000000000e+03,-1.511999374950238340e-01,0.000000000000000000e+00
1.258000000000000000e+03,-1.950861500132727855e-01,0.000000000000000000e+00
1.259000000000000000e+03,-1.577765525536577451e-01,0.000000000000000000e+00
1.260000000000000000e+03,-1.666668051556765007e-01,0.000000000000000000e+00
1.261000000000000000e+03,-1.757338157146803304e-01,0.000000000000000000e+00
1.262000000000000000e+03,-1.205702558560293874e-01,0.000000000000000000e+00
1.263000000000000000e+03,-1.375842817872323098e-01,0.000000000000000000e+00
1.264000000000000000e+03,-1.038723218559139821e-01,0.000000000000000000e+00
1.265000000000000000e+03,-1.095675014777679340e-01,0.000000000000000000e+00
1.266000000000000000e+03,-9.971607275667815351e-02,0.000000000000000000e+00
1.267000000000000000e+03,-8.673317715109087056e-02,0.000000000000000000e+00
1.268000000000000000e+03,-7.405781656704941984e-02,0.000000000000000000e+00
1.269000000000000000e+03,-3.948644591504973933e-02,0.000000000000000000e+00
1.270000000000000000e+03,-3.055640444744648146e-02,0.000000000000000000e+00
1.271000000000000000e+03,-6.245287346542456597e-02,0.000000000000000000e+00
1.272000000000000000e+03,-7.669264072961185126e-03,0.000000000000000000e+00
1.273000000000000000e+03,-2.147905516380648264e-02,0.000000000000000000e+00
1.274000000000000000e+03,-9.303829615470028680e-03,0.000000000000000000e+00
1.275000000000000000e+03,1.391121329754526487e-02,0.000000000000000000e+00
1.276000000000000000e+03,1.935336502242317180e-02,0.000000000000000000e+00
1.277000000000000000e+03,2.753257950396035408e-02,0.000000000000000000e+00
1.278000000000000000e+03,3.007458195706200557e-02,0.000000000000000000e+00
1.279000000000000000e+03,3.704495661101037812e-02,0.000000000000000000e+00
1.280000000000000000e+03,6.449434368785331162e-02,0.000000000000000000e+00
1.281000000000000000e+03,-1.541581638233003324e-03,0.000000000000000000e+00
1.282000000000000000e+03,9.343056255091532203e-02,0.000000000000000000e+00
1.283000000000000000e+03,7.221907259649318345e-02,0.000000000000000000e+00
1.284000000000000000e+03,1.623601902270444819e-01,0.000000000000000000e+00
1.285000000000000000e+03,1.229343918028996813e-01,0.000000000000000000e+00
1.286000000000000000e+03,5.951496804643024302e-02,0.000000000000000000e+00
1.287000000000000000e+03,8.562745806439807372e-02,0.000000000000000000e+00
1.288000000000000000e+03,3.611168933353451488e-02,0.000000000000000000e+00
1.289000000000000000e+03,-2.842613635929305219e-03,0.000000000000000000e+00
1.290000000000000000e+03,3.926280333215148577e-02,0.000000000000000000e+00
1.291000000000000000e+03,-5.708182943422183270e-03,0.000000000000000000e+00
1.292000000000000000e+03,4.865315401897064157e-02,0.000000000000000000e+00
1.293000000000000000e+03,-1.764745327070189537e-02,0.000000000000000000e+00
1.294000000000000000e+03,4.318682040817363732e-01,0.000000000000000000e+00
1.295000000000000000e+03,2.561301520654671871e-01,0.000000000000000000e+00
1.296000000000000000e+03,-9.715531553037115575e-02,0.000000000000000000e+00
1.297000000000000000e+03,2.795786460609610974e-02,0.000000000000000000e+00
1.298000000000000000e+03,3.150737282022382513e-02,0.000000000000000000e+00
1.299000000000000000e+03,3.933537859201222120e-02,0.000000000000000000e+00
1.300000000000000000e+03,1.638446717032965337e-03,0.000000000000000000e+00
1.301000000000000000e+03,6.199402952133193506e-02,0.000000000000000000e+00
1.302000000000000000e+03,7.079000511012596697e-02,0.000000000000000000e+00
1.303000000000000000e+03,6.464599426902589707e-02,0.000000000000000000e+00
1.304000000000000000e+03,8.094524075416557884e-02,0.000000000000000000e+00
1.305000000000000000e+03,8.888361056062930865e-02,0.000000000000000000e+00
1.306000000000000000e+03,1.134958299813618732e-01,0.000000000000000000e+00
1.307000000000000000e+03,1.282851204003788992e-01,0.000000000000000000e+00
1.308000000000000000e+03,1.539384159604366420e-01,0.000000000000000000e+00
1.309000000000000000e+03,1.658719955700896642e-01,0.000000000000000000e+00
1.310000000000000000e+03,2.103358725471392021e-01,0.000000000000000000e+00
1.311000000000000000e+03,2.402387241698238640e-01,0.000000000000000000e+00
1.312000000000000000e+03,1.931213704079912941e-01,0.000000000000000000e+00
1.313000000000000000e+03,8.720515776607741520e-02,0.000000000000000000e+00
1.314000000000000000e+03,-7.414923114865219766e-02,0.000000000000000000e+00
1.315000000000000000e+03,-1.795059030656476207e-01,0.000000000000000000e+00
1.316000000000000000e+03,-1.917765719478869979e-01,0.000000000000000000e+00
1.317000000000000000e+03,-2.334859692300989831e-01,0.000000000000000000e+00
1.318000000000000000e+03,-1.935944196963018948e-01,0.000000000000000000e+00
1.319000000000000000e+03,-1.924725403718436645e-01,0.000000000000000000e+00
1.320000000000000000e+03,-1.884668405643735722e-01,0.000000000000000000e+00
1.321000000000000000e+03,-1.821407309098557470e-01,0.000000000000000000e+00
1.322000000000000000e+03,-1.612365563503531385e-01,0.000000000000000000e+00
1.323000000000000000e+03,-1.261445646307177426e-01,0.000000000000000000e+00
1.324000000000000000e+03,-1.472842826486335521e-01,0.000000000000000000e+00
1.325000000000000000e+03,-1.154688341860198725e-01,0.000000000000000000e+00
1.326000000000000000e+03,-1.109270387562688309e-01,0.000000000000000000e+00
1.327000000000000000e+03,-8.287446014974952924e-02,0.000000000000000000e+00
1.328000000000000000e+03,-9.635153870986755409e-02,0.000000000000000000e+00
1.329000000000000000e+03,-5.989752559011615740e-02,0.000000000000000000e+00
1.330000000000000000e+03,-7.243947801083926163e-02,0.000000000000000000e+00
1.331000000000000000e+03,-1.901607792494019317e-02,0.000000000000000000e+00
1.332000000000000000e+03,-5.616428857322853380e-02,0.000000000000000000e+00
1.333000000000000000e+03,-1.495295534188595052e-02,0.000000000000000000e+00
1.334000000000000000e+03,-5.470663339300224637e-02,0.000000000000000000e+00
1.335000000000000000e+03,1.248143834540808676e-02,0.000000000000000000e+00
1.336000000000000000e+03,2.806675945734496760e-02,0.000000000000000000e+00
1.337000000000000000e+03,8.507619482548105109e-04,0.000000000000000000e+00
1.338000000000000000e+03,2.320826805416069394e-02,0.000000000000000000e+00
1.339000000000000000e+03,-1.304939709784684598e-02,0.000000000000000000e+00
1.340000000000000000e+03,3.103285682212716598e-02,0.000000000000000000e+00
1.341000000000000000e+03,4.328439947957091194e-02,0.000000000000000000e+00
1.342000000000000000e+03,3.000153622702012718e-02,0.000000000000000000e+00
1.343000000000000000e+03,4.380673620325641754e-02,0.000000000000000000e+00
1.344000000000000000e+03,3.557649961213404238e-02,0.000000000000000000e+00
1.345000000000000000e+03,1.144915728197647697e-01,0.000000000000000000e+00
1.346000000000000000e+03,1.251382568315764499e-01,0.000000000000000000e+00
1.347000000000000000e+03,8.415917130422717607e-02,0.000000000000000000e+00
1.348000000000000000e+03,3.775897850079323881e-02,0.000000000000000000e+00
1.349000000000000000e+03,-1.180055831197587835e-02,0.000000000000000000e+00
1.350000000000000000e+03,-2.000079693273159806e-02,0.000000000000000000e+00
1.351000000000000000e+03,2.304745035093448691e-02,0.000000000000000000e+00
1.352000000000000000e+03,-3.144444333570589611e-02,0.000000000000000000e+00
1.353000000000000000e+03,4.000152521785670101e-02,0.000000000000000000e+00
1.354000000000000000e+03,-1.051501095236471589e-01,0.000000000000000000e+00
1.355000000000000000e+03,1.754663605211971289e-01,0.000000000000000000e+00
1.356000000000000000e+03,4.739673377355091421e-01,0.000000000000000000e+00
1.357000000000000000e+03,-1.311487854292613664e-01,0.000000000000000000e+00
1.358000000000000000e+03,-9.103534553881037494e-02,0.000000000000000000e+00
1.359000000000000000e+03,-2.124341888138719589e-02,0.000000000000000000e+00
1.360000000000000000e+03,2.564316509075914227e-02,0.000000000000000000e+00
1.361000000000000000e+03,-5.532900393934056483e-04,0.000000000000000000e+00
1.362000000000000000e+03,4.476152514097564428e-02,0.000000000000000000e+00
1.363000000000000000e+03,3.957831958267502004e-02,0.000000000000000000e+00
1.364000000000000000e+03,3.322007087703909151e-02,0.000000000000000000e+00
1.365000000000000000e+03,6.918130415511164477e-02,0.000000000000000000e+00
1.366000000000000000e+03,5.432010895316528171e-02,0.000000000000000000e+00
1.367000000000000000e+03,1.123617327503776686e-01,0.000000000000000000e+00
1.368000000000000000e+03,6.238035536805556364e-02,0.000000000000000000e+00
1.369000000000000000e+03,1.326535138338835740e-01,0.000000000000000000e+00
1.370000000000000000e+03,1.562231789559326844e-01,0.000000000000000000e+00
1.371000000000000000e+03,1.795000541758889345e-01,0.000000000000000000e+00
1.372000000000000000e+03,1.987200625028753553e-01,0.000000000000000000e+00
1.373000000000000000e+03,2.148510843167507067e-01,0.000000000000000000e+00
1.374000000000000000e+03,1.713185229677010313e-01,0.000000000000000000e+00
1.375000000000000000e+03,-1.776244649662461067e-02,0.000000000000000000e+00
1.376000000000000000e+03,-1.285857157275020479e-01,0.000000000000000000e+00
1.377000000000000000e+03,-2.060946091066394037e-01,0.000000000000000000e+00
1.378000000000000000e+03,-2.358960736715257078e-01,0.000000000000000000e+00
1.379000000000000000e+03,-2.748491230178700118e-01,0.000000000000000000e+00
1.380000000000000000e+03,-2.010298359026055359e-01,0.000000000000000000e+00
1.381000000000000000e+03,-2.082162195177298392e-01,0.000000000000000000e+00
1.382000000000000000e+03,-1.972013185876717034e-01,0.000000000000000000e+00
1.383000000000000000e+03,-1.428816751602713930e-01,0.000000000000000000e+00
1.384000000000000000e+03,-1.752436669878028319e-01,0.000000000000000000e+00
1.385000000000000000e+03,-1.424700002864865145e-01,0.000000000000000000e+00
1.386000000000000000e+03,-1.536198786100512470e-01,0.000000000000000000e+00
1.387000000000000000e+03,-1.124838693185233468e-01,0.000000000000000000e+00
1.388000000000000000e+03,-1.236231998807972715e-01,0.000000000000000000e+00
1.389000000000000000e+03,-1.163703963270256991e-01,0.000000000000000000e+00
1.390000000000000000e+03,-6.816105784341633389e-02,0.000000000000000000e+00
1.391000000000000000e+03,-8.224274086430385933e-02,0.000000000000000000e+00
1.392000000000000000e+03,-5.755557406722217051e-02,0.000000000000000000e+00
1.393000000000000000e+03,-4.089149107708400094e-02,0.000000000000000000e+00
1.394000000000000000e+03,-4.139369984685709047e-02,0.000000000000000000e+00
1.395000000000000000e+03,-2.631878235753159698e-02,0.000000000000000000e+00
1.396000000000000000e+03,-1.936929640356188642e-02,0.000000000000000000e+00
1.397000000000000000e+03,5.247176674709054349e-03,0.000000000000000000e+00
1.398000000000000000e+03,1.006795953856486417e-03,0.000000000000000000e+00
1.399000000000000000e+03,3.247963690486631305e-02,0.000000000000000000e+00
1.400000000000000000e+03,2.401230949389180844e-02,0.000000000000000000e+00
1.401000000000000000e+03,2.824502269781660815e-02,0.000000000000000000e+00
1.402000000000000000e+03,8.651477260257625646e-02,0.000000000000000000e+00
1.403000000000000000e+03,8.081253528795843966e-02,0.000000000000000000e+00
1.404000000000000000e+03,1.126990988624077261e-01,0.000000000000000000e+00
1.405000000000000000e+03,5.489679426332354228e-02,0.000000000000000000e+00
1.406000000000000000e+03,4.953442258185462854e-02,0.000000000000000000e+00
1.407000000000000000e+03,-2.331617144855425289e-02,0.000000000000000000e+00
1.408000000000000000e+03,-5.824612804706606750e-03,0.000000000000000000e+00
1.409000000000000000e+03,1.351816144419957545e-02,0.000000000000000000e+00
1.410000000000000000e+03,2.182764281555943375e-02,0.000000000000000000e+00
1.411000000000000000e+03,-9.099441199532857030e-03,0.000000000000000000e+00
1.412000000000000000e+03,-1.828934861801729053e-02,0.000000000000000000e+00
1.413000000000000000e+03,4.543517155420612741e-01,0.000000000000000000e+00
1.414000000000000000e+03,1.156157141097562957e-01,0.000000000000000000e+00
1.415000000000000000e+03,-1.203441098559436956e-01,0.000000000000000000e+00
1.416000000000000000e+03,3.620601034967815303e-03,0.000000000000000000e+00
1.417000000000000000e+03,9.804661525112246326e-03,0.000000000000000000e+00
1.418000000000000000e+03,6.194728595171669627e-02,0.000000000000000000e+00
1.419000000000000000e+03,6.242022008476663664e-02,0.000000000000000000e+00
1.420000000000000000e+03,7.756066609003367529e-02,0.000000000000000000e+00
1.421000000000000000e+03,6.635750545603688599e-02,0.000000000000000000e+00
1.422000000000000000e+03,8.097404550267844892e-02,0.000000000000000000e+00
1.423000000000000000e+03,7.186923137404824247e-02,0.000000000000000000e+00
1.424000000000000000e+03,1.153960316850103085e-01,0.000000000000000000e+00
1.425000000000000000e+03,1.088436194775647542e-01,0.000000000000000000e+00
1.426000000000000000e+03,1.467054281032549867e-01,0.000000000000000000e+00
1.427000000000000000e+03,1.452462575900444197e-01,0.000000000000000000e+00
1.428000000000000000e+03,2.285999349598069330e-01,0.000000000000000000e+00
1.429000000000000000e+03,2.144821514438564058e-01,0.000000000000000000e+00
1.430000000000000000e+03,2.243516416643670242e-01,0.000000000000000000e+00
1.431000000000000000e+03,2.054861115773936320e-01,0.000000000000000000e+00
1.432000000000000000e+03,1.016546915729018008e-01,0.000000000000000000e+00
1.433000000000000000e+03,-9.482569973832589982e-02,0.000000000000000000e+00
1.434000000000000000e+03,-1.910754113369106388e-01,0.000000000000000000e+00
1.435000000000000000e+03,-2.133682545768301742e-01,0.000000000000000000e+00
1.436000000000000000e+03,-2.042148102421863787e-01,0.000000000000000000e+00
1.437000000000000000e+03,-2.221344115040471134e-01,0.000000000000000000e+00
1.438000000000000000e+03,-2.102459758594106554e-01,0.000000000000000000e+00
1.439000000000000000e+03,-1.797868203936793530e-01,0.000000000000000000e+00
1.440000000000000000e+03,-1.552352032958365935e-01,0.000000000000000000e+00
1.441000000000000000e+03,-1.493288702377041921e-01,0.000000000000000000e+00
1.442000000000000000e+03,-1.487096337089821307e-01,0.000000000000000000e+00
1.443000000000000000e+03,-1.345956326743098230e-01,0.000000000000000000e+00
1.444000000000000000e+03,-1.070806301975165825e-01,0.000000000000000000e+00
1.445000000000000000e+03,-1.196254157233507531e-01,0.000000000000000000e+00
1.446000000000000000e+03,-3.679951369061370409e-02,0.000000000000000000e+00
1.447000000000000000e+03,-1.089861699488722802e-01,0.000000000000000000e+00
1.448000000000000000e+03,-6.681896412470872404e-02,0.000000000000000000e+00
1.449000000000000000e+03,-4.133280441774495745e-02,0.000000000000000000e+00
1.450000000000000000e+03,-4.182288081349341130e-02,0.000000000000000000e+00
1.451000000000000000e+03,-3.728629300359056348e-02,0.000000000000000000e+00
1.452000000000000000e+03,-4.425650821667846679e-02,0.000000000000000000e+00
1.453000000000000000e+03,-7.444384811316481082e-03,0.000000000000000000e+00
1.454000000000000000e+03,-6.163773560549297946e-03,0.000000000000000000e+00
1.455000000000000000e+03,1.730756878855542122e-02,0.000000000000000000e+00
1.456000000000000000e+03,1.294259751291720190e-02,0.000000000000000000e+00
1.457000000000000000e+03,-1.513979436820862487e-02,0.000000000000000000e+00
1.458000000000000000e+03,3.403748588003831232e-02,0.000000000000000000e+00
1.459000000000000000e+03,1.187184598189570083e-02,0.000000000000000000e+00
1.460000000000000000e+03,5.672478423121438823e-02,0.000000000000000000e+00
1.461000000000000000e+03,5.277136151494394439e-02,0.000000000000000000e+00
1.462000000000000000e+03,8.859603518433810387e-02,0.000000000000000000e+00
1.463000000000000000e+03,9.964258919321483665e-02,0.000000000000000000e+00
1.464000000000000000e+03,8.838922801729365286e-02,0.000000000000000000e+00
1.465000000000000000e+03,7.309562397990512772e-02,0.000000000000000000e+00
1.466000000000000000e+03,2.605419784567329644e-02,0.000000000000000000e+00
1.467000000000000000e+03,-1.096704778617453233e-02,0.000000000000000000e+00
1.468000000000000000e+03,5.135179343685625231e-02,0.000000000000000000e+00
1.469000000000000000e+03,-2.897361443478899123e-02,0.000000000000000000e+00
1.470000000000000000e+03,4.307898386798311025e-02,0.000000000000000000e+00
1.471000000000000000e+03,-3.842386281295886996e-02,0.000000000000000000e+00
1.472000000000000000e+03,9.290041516937011523e-02,0.000000000000000000e+00
1.473000000000000000e+03,5.033694554437948554e-01,0.000000000000000000e+00
1.474000000000000000e+03,5.052281419705167281e-02,0.000000000000000000e+00
1.475000000000000000e+03,-6.718104448681022633e-02,0.000000000000000000e+00
1.476000000000000000e+03,1.988094038663689930e-02,0.000000000000000000e+00
1.477000000000000000e+03,1.361625597259456116e-02,0.000000000000000000e+00
1.478000000000000000e+03,5.312529070386180774e-02,0.000000000000000000e+00
1.479000000000000000e+03,9.945945495566831801e-03,0.000000000000000000e+00
1.480000000000000000e+03,3.078943412374063326e-02,0.000000000000000000e+00
1.481000000000000000e+03,4.175356229836519467e-02,0.000000000000000000e+00
1.482000000000000000e+03,7.290462110568160514e-02,0.000000000000000000e+00
1.483000000000000000e+03,6.055624558576960803e-02,0.000000000000000000e+00
1.484000000000000000e+03,9.229884145383850103e-02,0.000000000000000000e+00
1.485000000000000000e+03,7.236871384358069259e-02,0.000000000000000000e+00
1.486000000000000000e+03,1.172112695880629940e-01,0.000000000000000000e+00
1.487000000000000000e+03,1.277974641945251733e-01,0.000000000000000000e+00
1.488000000000000000e+03,1.856660835773096818e-01,0.000000000000000000e+00
1.489000000000000000e+03,2.029165263381611239e-01,0.000000000000000000e+00
1.490000000000000000e+03,2.386709044061346707e-01,0.000000000000000000e+00
1.491000000000000000e+03,1.553407221999234256e-01,0.000000000000000000e+00
1.492000000000000000e+03,1.763211991105286675e-02,0.000000000000000000e+00
1.493000000000000000e+03,-1.497391374904386563e-01,0.000000000000000000e+00
1.494000000000000000e+03,-1.990295872674671673e-01,0.000000000000000000e+00
1.495000000000000000e+03,-2.354478456626975524e-01,0.000000000000000000e+00
1.496000000000000000e+03,-2.165231346423807657e-01,0.000000000000000000e+00
1.497000000000000000e+03,-2.011237345004376065e-01,0.000000000000000000e+00
1.498000000000000000e+03,-2.108295791725464385e-01,0.000000000000000000e+00
1.499000000000000000e+03,-1.771125557876411794e-01,0.000000000000000000e+00
1.500000000000000000e+03,-1.869488949878547468e-01,0.000000000000000000e+00
1.501000000000000000e+03,-1.472954187941775128e-01,0.000000000000000000e+00
1.502000000000000000e+03,-1.394549250237275273e-01,0.000000000000000000e+00
1.503000000000000000e+03,-1.509910149048052097e-01,0.000000000000000000e+00
1.504000000000000000e+03,-1.152255242274355385e-01,0.000000000000000000e+00
1.505000000000000000e+03,-1.163099771729604326e-01,0.000000000000000000e+00
1.506000000000000000e+03,-8.816811104762213580e-02,0.000000000000000000e+00
1.507000000000000000e+03,-6.412253063489087301e-02,0.000000000000000000e+00
1.508000000000000000e+03,-7.300079275246455779e-02,0.000000000000000000e+00
1.509000000000000000e+03,-9.391770766242091284e-02,0.000000000000000000e+00
1.510000000000000000e+03,-4.188566275906541181e-02,0.000000000000000000e+00
1.511000000000000000e+03,-1.133733445115747869e-02,0.000000000000000000e+00
1.512000000000000000e+03,-3.697399744290363194e-02,0.000000000000000000e+00
1.513000000000000000e+03,-8.612779829428995199e-03,0.000000000000000000e+00
1.514000000000000000e+03,-6.192616180990110492e-02,0.000000000000000000e+00
1.515000000000000000e+03,-1.441028434597530286e-02,0.000000000000000000e+00
1.516000000000000000e+03,3.249660680685191941e-03,0.000000000000000000e+00
1.517000000000000000e+03,2.299175297553429989e-02,0.000000000000000000e+00
1.518000000000000000e+03,1.630402491858318160e-03,0.000000000000000000e+00
1.519000000000000000e+03,2.156444298038700039e-02,0.000000000000000000e+00
1.520000000000000000e+03,3.496569135350569013e-02,0.000000000000000000e+00
1.521000000000000000e+03,9.231761704891694453e-02,0.000000000000000000e+00
1.522000000000000000e+03,9.557551855759352510e-02,0.000000000000000000e+00
1.523000000000000000e+03,7.723356186268362511e-02,0.000000000000000000e+00
1.524000000000000000e+03,1.547346668067095359e-02,0.000000000000000000e+00
1.525000000000000000e+03,1.263172922822873752e-02,0.000000000000000000e+00
1.526000000000000000e+03,-1.674841582755583896e-02,0.000000000000000000e+00
1.527000000000000000e+03,1.178232129143803918e-03,0.000000000000000000e+00
1.528000000000000000e+03,9.080959713935671859e-04,0.000000000000000000e+00
1.529000000000000000e+03,2.214621631176251493e-02,0.000000000000000000e+00
1.530000000000000000e+03,-9.434445045889566783e-02,0.000000000000000000e+00
1.531000000000000000e+03,1.589778414462997558e-01,0.000000000000000000e+00
1.532000000000000000e+03,4.813777781949813983e-01,0.000000000000000000e+00
1.533000000000000000e+03,-6.837095276759302953e-02,0.000000000000000000e+00
1.534000000000000000e+03,-5.531721010921462206e-02,0.000000000000000000e+00
1.535000000000000000e+03,-3.618778626651601715e-02,0.000000000000000000e+00
1.536000000000000000e+03,2.340903448869074976e-02,0.000000000000000000e+00
1.537000000000000000e+03,4.016244087300554350e-02,0.000000000000000000e+00
1.538000000000000000e+03,5.170847154999084344e-02,0.000000000000000000e+00
1.539000000000000000e+03,4.252887127141617013e-02,0.000000000000000000e+00
1.540000000000000000e+03,6.421735440872927692e-02,0.000000000000000000e+00
1.541000000000000000e+03,6.024994610101771370e-02,0.000000000000000000e+00
1.542000000000000000e+03,8.633154518255030385e-02,0.000000000000000000e+00
1.543000000000000000e+03,7.823123658531534741e-02,0.000000000000000000e+00
1.544000000000000000e+03,1.217556625951033422e-01,0.000000000000000000e+00
1.545000000000000000e+03,1.175144066402649262e-01,0.000000000000000000e+00
1.546000000000000000e+03,2.070816000718065930e-01,0.000000000000000000e+00
1.547000000000000000e+03,2.089829168842732565e-01,0.000000000000000000e+00
1.548000000000000000e+03,2.164929530902795496e-01,0.000000000000000000e+00
1.549000000000000000e+03,2.369682242358118751e-01,0.000000000000000000e+00
1.550000000000000000e+03,1.595301216665167832e-01,0.000000000000000000e+00
1.551000000000000000e+03,-4.392078094508267312e-03,0.000000000000000000e+00
1.552000000000000000e+03,-1.132178124647578166e-01,0.000000000000000000e+00
1.553000000000000000e+03,-2.268188826825481563e-01,0.000000000000000000e+00
1.554000000000000000e+03,-2.030108621304933803e-01,0.000000000000000000e+00
1.555000000000000000e+03,-2.562248786094435404e-01,0.000000000000000000e+00
1.556000000000000000e+03,-1.458887448408561494e-01,0.000000000000000000e+00
1.557000000000000000e+03,-2.263938923417227189e-01,0.000000000000000000e+00
1.558000000000000000e+03,-1.293488782528630088e-01,0.000000000000000000e+00
1.559000000000000000e+03,-1.986589804239075052e-01,0.000000000000000000e+00
1.560000000000000000e+03,-1.620950464061547691e-01,0.000000000000000000e+00
1.561000000000000000e+03,-1.261621935156500840e-01,0.000000000000000000e+00
1.562000000000000000e+03,-7.059223560954265564e-02,0.000000000000000000e+00
1.563000000000000000e+03,-1.471246808336087453e-01,0.000000000000000000e+00
1.564000000000000000e+03,-6.762909057050045525e-02,0.000000000000000000e+00
1.565000000000000000e+03,-9.807767058012878403e-02,0.000000000000000000e+00
1.566000000000000000e+03,-6.718725353569757197e-02,0.000000000000000000e+00
1.567000000000000000e+03,-6.778430751387987119e-02,0.000000000000000000e+00
1.568000000000000000e+03,-3.784916958754747183e-03,0.000000000000000000e+00
1.569000000000000000e+03,-6.169509295615224764e-02,0.000000000000000000e+00
1.570000000000000000e+03,-1.086173294693055548e-02,0.000000000000000000e+00
1.571000000000000000e+03,-3.823106300470117264e-02,0.000000000000000000e+00
1.572000000000000000e+03,-7.767869150438055405e-03,0.000000000000000000e+00
1.573000000000000000e+03,6.024958150830909791e-03,0.000000000000000000e+00
1.574000000000000000e+03,-3.082207002865527262e-03,0.000000000000000000e+00
1.575000000000000000e+03,2.484107546498801056e-02,0.000000000000000000e+00
1.576000000000000000e+03,2.402216062443784939e-02,0.000000000000000000e+00
1.577000000000000000e+03,1.542989100629631009e-02,0.000000000000000000e+00
1.578000000000000000e+03,9.816558398963348697e-02,0.000000000000000000e+00
1.579000000000000000e+03,1.121636248056604446e-01,0.000000000000000000e+00
1.580000000000000000e+03,1.069381716321535780e-01,0.000000000000000000e+00
1.581000000000000000e+03,-1.220627680766779057e-02,0.000000000000000000e+00
1.582000000000000000e+03,2.828078140856719012e-03,0.000000000000000000e+00
1.583000000000000000e+03,-9.155085264627637817e-03,0.000000000000000000e+00
1.584000000000000000e+03,3.585214597462075409e-02,0.000000000000000000e+00
1.585000000000000000e+03,-3.488394440378272260e-02,0.000000000000000000e+00
1.586000000000000000e+03,2.496057553934812392e-02,0.000000000000000000e+00
1.587000000000000000e+03,-5.744406788455572177e-02,0.000000000000000000e+00
1.588000000000000000e+03,3.122065131547582251e-01,0.000000000000000000e+00
