timestamp,ecg_measurement,qrs_detected
0.000000000000000000e+00,1.834714228308566286e-01,0.000000000000000000e+00
1.000000000000000000e+00,2.921875056978289198e-01,0.000000000000000000e+00
2.000000000000000000e+00,3.293458467370065090e-01,0.000000000000000000e+00
3.000000000000000000e+00,5.467015923834245283e-01,0.000000000000000000e+00
4.000000000000000000e+00,7.324634904375199040e-01,0.000000000000000000e+00
5.000000000000000000e+00,6.924074078415082267e-01,0.000000000000000000e+00
6.000000000000000000e+00,7.536431359208255465e-01,0.000000000000000000e+00
7.000000000000000000e+00,5.495125137981488050e-01,0.000000000000000000e+00
8.000000000000000000e+00,3.129374405262658199e-01,0.000000000000000000e+00
9.000000000000000000e+00,1.460665308721167122e-01,0.000000000000000000e+00
1.000000000000000000e+01,-1.157899652559990222e-01,0.000000000000000000e+00
1.100000000000000000e+01,-2.147240051175785536e-01,0.000000000000000000e+00
1.200000000000000000e+01,-3.264609711738520326e-01,0.000000000000000000e+00
1.300000000000000000e+01,-2.399198799241628599e-01,0.000000000000000000e+00
1.400000000000000000e+01,-2.417568039754725007e-01,0.000000000000000000e+00
1.500000000000000000e+01,-1.925098751247349971e-01,0.000000000000000000e+00
1.600000000000000000e+01,-1.171225360939493615e-01,0.000000000000000000e+00
1.700000000000000000e+01,-9.559967298898616739e-02,0.000000000000000000e+00
1.800000000000000000e+01,-1.551507656407349611e-01,0.000000000000000000e+00
1.900000000000000000e+01,2.649677636109757164e-02,0.000000000000000000e+00
2.000000000000000000e+01,-4.226520949462329174e-03,0.000000000000000000e+00
2.100000000000000000e+01,-1.356756098640369418e-02,0.000000000000000000e+00
2.200000000000000000e+01,-2.194760751184101494e-02,0.000000000000000000e+00
2.300000000000000000e+01,9.618212747721241809e-03,0.000000000000000000e+00
2.400000000000000000e+01,1.178669186739800256e-01,0.000000000000000000e+00
2.500000000000000000e+01,-3.455057956530310087e-02,0.000000000000000000e+00
2.600000000000000000e+01,6.123217255728334585e-02,0.000000000000000000e+00
2.700000000000000000e+01,9.814695847173146581e-02,0.000000000000000000e+00
2.800000000000000000e+01,2.758029129938914248e-01,0.000000000000000000e+00
2.900000000000000000e+01,3.181587653281241490e-01,0.000000000000000000e+00
3.000000000000000000e+01,5.424054817404192486e-01,0.000000000000000000e+00
3.100000000000000000e+01,3.162660906960492735e-01,0.000000000000000000e+00
3.200000000000000000e+01,-1.948917529991268244e-02,0.000000000000000000e+00
3.300000000000000000e+01,-1.364642270150827896e-01,0.000000000000000000e+00
3.400000000000000000e+01,-2.940316023727670980e-01,0.000000000000000000e+00
3.500000000000000000e+01,-1.857002548045628698e-01,0.000000000000000000e+00
3.600000000000000000e+01,-3.518200611480676865e-01,0.000000000000000000e+00
3.700000000000000000e+01,-1.035124477101250218e-01,0.000000000000000000e+00
3.800000000000000000e+01,-2.930594528601100368e-01,0.000000000000000000e+00
3.900000000000000000e+01,5.451980679308817551e-02,0.000000000000000000e+00
4.000000000000000000e+01,-6.539001007811796606e-01,0.000000000000000000e+00
4.100000000000000000e+01,2.430377045568484995e+00,0.000000000000000000e+00
4.200000000000000000e+01,2.395659926140361051e+00,0.000000000000000000e+00
4.300000000000000000e+01,-9.289244369485533115e-01,1.000000000000000000e+00
4.400000000000000000e+01,-6.129273502123717687e-01,0.000000000000000000e+00
4.500000000000000000e+01,-5.193010536949952405e-01,0.000000000000000000e+00
4.600000000000000000e+01,-3.458502124538314626e-01,0.000000000000000000e+00
4.700000000000000000e+01,-1.805516578239947378e-01,0.000000000000000000e+00
4.800000000000000000e+01,-2.587254401375186363e-01,0.000000000000000000e+00
4.900000000000000000e+01,-2.152808202655450420e-01,0.000000000000000000e+00
5.000000000000000000e+01,1.152731840544414174e-02,0.000000000000000000e+00
5.100000000000000000e+01,-1.343218304130740781e-01,0.000000000000000000e+00
5.200000000000000000e+01,2.660910908687237897e-01,0.000000000000000000e+00
5.300000000000000000e+01,2.351232403330934251e-01,0.000000000000000000e+00
5.400000000000000000e+01,4.522682575885536571e-01,0.000000000000000000e+00
5.500000000000000000e+01,6.425095030416797526e-01,0.000000000000000000e+00
5.600000000000000000e+01,5.436784667228767853e-01,0.000000000000000000e+00
5.700000000000000000e+01,3.721821350312302101e-01,0.000000000000000000e+00
5.800000000000000000e+01,6.956600729465316213e-02,0.000000000000000000e+00
5.900000000000000000e+01,-2.344267855298952929e-01,0.000000000000000000e+00
6.000000000000000000e+01,-3.848569486004052020e-01,0.000000000000000000e+00
6.100000000000000000e+01,-5.424633063575599046e-01,0.000000000000000000e+00
6.200000000000000000e+01,-5.176115667534691989e-01,0.000000000000000000e+00
6.300000000000000000e+01,-6.264688443301880127e-01,0.000000000000000000e+00
6.400000000000000000e+01,-5.840541972899879752e-01,0.000000000000000000e+00
6.500000000000000000e+01,-3.857438280251089258e-01,0.000000000000000000e+00
6.600000000000000000e+01,-4.811299983050945084e-01,0.000000000000000000e+00
6.700000000000000000e+01,-4.969037514308815018e-01,0.000000000000000000e+00
6.800000000000000000e+01,2.918190487974809399e-01,0.000000000000000000e+00
6.900000000000000000e+01,1.527722492748733618e+00,0.000000000000000000e+00
7.000000000000000000e+01,3.299499674391921822e+00,0.000000000000000000e+00
7.100000000000000000e+01,6.474186239081846317e+00,0.000000000000000000e+00
7.200000000000000000e+01,8.254014385421879041e+00,0.000000000000000000e+00
7.300000000000000000e+01,7.223332654122923913e+00,0.000000000000000000e+00
7.400000000000000000e+01,-5.338176319967622430e-01,0.000000000000000000e+00
7.500000000000000000e+01,-5.699207425545004035e+00,1.000000000000000000e+00
7.600000000000000000e+01,-5.546357616051426298e+00,0.000000000000000000e+00
7.700000000000000000e+01,-5.628729274421137241e+00,0.000000000000000000e+00
7.800000000000000000e+01,-4.805124441865615381e+00,0.000000000000000000e+00
7.900000000000000000e+01,-4.529743548001085252e+00,0.000000000000000000e+00
8.000000000000000000e+01,-4.096581358953010010e+00,0.000000000000000000e+00
8.100000000000000000e+01,-3.982856639009648703e+00,0.000000000000000000e+00
8.200000000000000000e+01,-3.624415482849308034e+00,0.000000000000000000e+00
8.300000000000000000e+01,-3.876095005923371861e+00,0.000000000000000000e+00
8.400000000000000000e+01,-3.904725254226389275e+00,0.000000000000000000e+00
8.500000000000000000e+01,-3.392726303373889252e+00,0.000000000000000000e+00
8.600000000000000000e+01,-2.692573553631716354e+00,0.000000000000000000e+00
8.700000000000000000e+01,-1.402778235822044417e+00,0.000000000000000000e+00
8.800000000000000000e+01,1.836492291423617515e-02,0.000000000000000000e+00
8.900000000000000000e+01,1.090104406257083491e+00,0.000000000000000000e+00
9.000000000000000000e+01,1.586542946840267421e+00,0.000000000000000000e+00
9.100000000000000000e+01,1.780323423470618893e+00,0.000000000000000000e+00
9.200000000000000000e+01,1.731413124628949252e+00,0.000000000000000000e+00
9.300000000000000000e+01,1.873342106948391095e+00,0.000000000000000000e+00
9.400000000000000000e+01,1.869930069851726717e+00,0.000000000000000000e+00
9.500000000000000000e+01,1.794349587659892276e+00,0.000000000000000000e+00
9.600000000000000000e+01,1.659482050624957905e+00,0.000000000000000000e+00
9.700000000000000000e+01,1.603683092911134089e+00,0.000000000000000000e+00
9.800000000000000000e+01,1.591695094334655280e+00,0.000000000000000000e+00
9.900000000000000000e+01,1.475780999405515104e+00,0.000000000000000000e+00
1.000000000000000000e+02,1.439643042964872777e+00,0.000000000000000000e+00
1.010000000000000000e+02,1.438078404966074642e+00,0.000000000000000000e+00
1.020000000000000000e+02,1.282545769228210064e+00,0.000000000000000000e+00
1.030000000000000000e+02,1.240762397268617034e+00,0.000000000000000000e+00
1.040000000000000000e+02,1.196093896211381624e+00,0.000000000000000000e+00
1.050000000000000000e+02,1.097700525173751496e+00,0.000000000000000000e+00
1.060000000000000000e+02,9.956178688005455912e-01,0.000000000000000000e+00
1.070000000000000000e+02,9.840803599469402085e-01,0.000000000000000000e+00
1.080000000000000000e+02,9.795147121089798903e-01,0.000000000000000000e+00
1.090000000000000000e+02,8.652309672143282393e-01,0.000000000000000000e+00
1.100000000000000000e+02,7.872246987309725608e-01,0.000000000000000000e+00
1.110000000000000000e+02,7.103149710299725417e-01,0.000000000000000000e+00
1.120000000000000000e+02,6.598422252221095574e-01,0.000000000000000000e+00
1.130000000000000000e+02,4.714553281649739302e-01,0.000000000000000000e+00
1.140000000000000000e+02,6.284272683638907342e-01,0.000000000000000000e+00
1.150000000000000000e+02,3.843429529740127193e-01,0.000000000000000000e+00
1.160000000000000000e+02,4.842027223801069202e-01,0.000000000000000000e+00
1.170000000000000000e+02,2.542669205074751804e-01,0.000000000000000000e+00
1.180000000000000000e+02,3.381801299022584306e-01,0.000000000000000000e+00
1.190000000000000000e+02,2.423004844316963002e-01,0.000000000000000000e+00
1.200000000000000000e+02,2.221767037295754033e-01,0.000000000000000000e+00
1.210000000000000000e+02,7.504957479278651089e-02,0.000000000000000000e+00
1.220000000000000000e+02,3.139231996380651979e-01,0.000000000000000000e+00
1.230000000000000000e+02,1.845090341981824988e-03,0.000000000000000000e+00
1.240000000000000000e+02,1.305823978365795446e-01,0.000000000000000000e+00
1.250000000000000000e+02,-8.924392092630240025e-02,0.000000000000000000e+00
1.260000000000000000e+02,3.913337459375102606e-02,0.000000000000000000e+00
1.270000000000000000e+02,-4.380301444296597763e-02,0.000000000000000000e+00
1.280000000000000000e+02,-3.981536272345675281e-02,0.000000000000000000e+00
1.290000000000000000e+02,-1.730651878048596326e-01,0.000000000000000000e+00
1.300000000000000000e+02,3.584186847277416599e-02,0.000000000000000000e+00
1.310000000000000000e+02,1.680802855655434344e-02,0.000000000000000000e+00
1.320000000000000000e+02,3.367433315966045920e-02,0.000000000000000000e+00
1.330000000000000000e+02,2.655480793269655027e-01,0.000000000000000000e+00
1.340000000000000000e+02,7.929862619512085056e-03,0.000000000000000000e+00
1.350000000000000000e+02,-2.748915321304534753e-01,0.000000000000000000e+00
1.360000000000000000e+02,-4.471222885778403100e-01,0.000000000000000000e+00
1.370000000000000000e+02,-6.212627213669832393e-01,0.000000000000000000e+00
1.380000000000000000e+02,-6.750254187201819578e-01,0.000000000000000000e+00
1.390000000000000000e+02,-4.952340376978087710e-01,0.000000000000000000e+00
1.400000000000000000e+02,-7.432645958987159629e-01,0.000000000000000000e+00
1.410000000000000000e+02,-3.679553685398246898e-01,0.000000000000000000e+00
1.420000000000000000e+02,-1.085105341156904712e+00,0.000000000000000000e+00
1.430000000000000000e+02,6.347071106236383820e-01,0.000000000000000000e+00
1.440000000000000000e+02,3.004155133514638365e+00,0.000000000000000000e+00
1.450000000000000000e+02,-6.737113919690558284e-01,1.000000000000000000e+00
1.460000000000000000e+02,-1.453990340682114413e+00,0.000000000000000000e+00
1.470000000000000000e+02,-1.183930526208340384e+00,0.000000000000000000e+00
1.480000000000000000e+02,-7.719728933443329444e-01,0.000000000000000000e+00
1.490000000000000000e+02,-8.535886356856261514e-01,0.000000000000000000e+00
1.500000000000000000e+02,-7.929326681685086031e-01,0.000000000000000000e+00
1.510000000000000000e+02,-6.307468084567362521e-01,0.000000000000000000e+00
1.520000000000000000e+02,-4.531074907143547437e-01,0.000000000000000000e+00
1.530000000000000000e+02,-5.941741043905411912e-01,0.000000000000000000e+00
1.540000000000000000e+02,-1.464712320110023447e-01,0.000000000000000000e+00
1.550000000000000000e+02,-2.870954597492579863e-01,0.000000000000000000e+00
1.560000000000000000e+02,9.268058194301523334e-02,0.000000000000000000e+00
1.570000000000000000e+02,1.028271506002404329e-01,0.000000000000000000e+00
1.580000000000000000e+02,3.181928937433452509e-01,0.000000000000000000e+00
1.590000000000000000e+02,1.860000815320553835e-01,0.000000000000000000e+00
1.600000000000000000e+02,3.208535725768578706e-01,0.000000000000000000e+00
1.610000000000000000e+02,1.570559589479684215e-01,0.000000000000000000e+00
1.620000000000000000e+02,-2.148202238757590254e-01,0.000000000000000000e+00
1.630000000000000000e+02,-4.176980082496588587e-01,0.000000000000000000e+00
1.640000000000000000e+02,-6.611754053909314477e-01,0.000000000000000000e+00
1.650000000000000000e+02,-6.871889007358908952e-01,0.000000000000000000e+00
1.660000000000000000e+02,-6.077952793636652862e-01,0.000000000000000000e+00
1.670000000000000000e+02,-7.327549811176951033e-01,0.000000000000000000e+00
1.680000000000000000e+02,-5.025850623738002954e-01,0.000000000000000000e+00
1.690000000000000000e+02,-6.111482000032202322e-01,0.000000000000000000e+00
1.700000000000000000e+02,-4.207123466035901371e-01,0.000000000000000000e+00
1.710000000000000000e+02,-5.370527007176709722e-01,0.000000000000000000e+00
1.720000000000000000e+02,-3.968058480411043587e-01,0.000000000000000000e+00
1.730000000000000000e+02,-4.244560591931499371e-01,0.000000000000000000e+00
1.740000000000000000e+02,-2.955610453869136345e-01,0.000000000000000000e+00
1.750000000000000000e+02,-4.585434337000998672e-01,0.000000000000000000e+00
1.760000000000000000e+02,-1.600083237052761509e-01,0.000000000000000000e+00
1.770000000000000000e+02,-3.399209044953648284e-01,0.000000000000000000e+00
1.780000000000000000e+02,-3.870826049889361520e-02,0.000000000000000000e+00
1.790000000000000000e+02,-2.327308616661640517e-01,0.000000000000000000e+00
1.800000000000000000e+02,-8.716532376405171367e-02,0.000000000000000000e+00
1.810000000000000000e+02,-1.565234385092147407e-01,0.000000000000000000e+00
1.820000000000000000e+02,3.442056847434966094e-01,0.000000000000000000e+00
1.830000000000000000e+02,-2.532819142807010357e-02,0.000000000000000000e+00
1.840000000000000000e+02,5.692147375179881230e-01,0.000000000000000000e+00
1.850000000000000000e+02,2.948173166328987294e-01,0.000000000000000000e+00
1.860000000000000000e+02,5.366291746059008716e-01,0.000000000000000000e+00
1.870000000000000000e+02,6.469372005982208795e-02,0.000000000000000000e+00
1.880000000000000000e+02,2.140442295563183342e-02,0.000000000000000000e+00
1.890000000000000000e+02,-2.980944784963577843e-01,0.000000000000000000e+00
1.900000000000000000e+02,2.723314430401292674e-02,0.000000000000000000e+00
1.910000000000000000e+02,-1.594805505941560564e-01,0.000000000000000000e+00
1.920000000000000000e+02,4.843526400142301319e-02,0.000000000000000000e+00
1.930000000000000000e+02,-1.227620503247775358e-01,0.000000000000000000e+00
1.940000000000000000e+02,1.693300651668492307e-01,0.000000000000000000e+00
1.950000000000000000e+02,-3.929323446005961173e-01,0.000000000000000000e+00
1.960000000000000000e+02,3.192776430069008686e+00,0.000000000000000000e+00
1.970000000000000000e+02,2.344564879052452699e+00,1.000000000000000000e+00
1.980000000000000000e+02,-1.097665233400834550e+00,0.000000000000000000e+00
1.990000000000000000e+02,-3.432914980488042667e-01,0.000000000000000000e+00
2.000000000000000000e+02,-4.488350509705850144e-01,0.000000000000000000e+00
2.010000000000000000e+02,4.799427171118687135e-03,0.000000000000000000e+00
2.020000000000000000e+02,-1.431761011950831997e-01,0.000000000000000000e+00
2.030000000000000000e+02,1.615822352541986806e-01,0.000000000000000000e+00
2.040000000000000000e+02,1.085508116084602376e-01,0.000000000000000000e+00
2.050000000000000000e+02,2.159743735213713323e-01,0.000000000000000000e+00
2.060000000000000000e+02,1.981477220616945645e-01,0.000000000000000000e+00
2.070000000000000000e+02,5.529161388981508329e-01,0.000000000000000000e+00
2.080000000000000000e+02,5.049551154229663386e-01,0.000000000000000000e+00
2.090000000000000000e+02,9.705488028947247825e-01,0.000000000000000000e+00
2.100000000000000000e+02,5.494694099726512571e-01,0.000000000000000000e+00
2.110000000000000000e+02,6.955025388840192502e-01,0.000000000000000000e+00
2.120000000000000000e+02,4.276687232628631485e-01,0.000000000000000000e+00
2.130000000000000000e+02,3.640868329453798569e-01,0.000000000000000000e+00
2.140000000000000000e+02,1.063264816684998532e-01,0.000000000000000000e+00
2.150000000000000000e+02,-1.751411543015521100e-01,0.000000000000000000e+00
2.160000000000000000e+02,-3.881104359051139041e-01,0.000000000000000000e+00
2.170000000000000000e+02,-2.951085850418789236e-01,0.000000000000000000e+00
2.180000000000000000e+02,-3.317340752669791226e-01,0.000000000000000000e+00
2.190000000000000000e+02,-3.267277155478591766e-01,0.000000000000000000e+00
2.200000000000000000e+02,-6.539070736108039406e-02,0.000000000000000000e+00
2.210000000000000000e+02,-2.065609201771596848e-01,0.000000000000000000e+00
2.220000000000000000e+02,-1.082314514925766628e-02,0.000000000000000000e+00
2.230000000000000000e+02,-1.138397845128316099e-01,0.000000000000000000e+00
2.240000000000000000e+02,-8.462890285357836662e-02,0.000000000000000000e+00
2.250000000000000000e+02,-9.460525519316048682e-02,0.000000000000000000e+00
2.260000000000000000e+02,1.162026515580158181e-01,0.000000000000000000e+00
2.270000000000000000e+02,-2.437600468337343396e-02,0.000000000000000000e+00
2.280000000000000000e+02,-1.215828928764557254e-01,0.000000000000000000e+00
2.290000000000000000e+02,-4.143964234324853252e-02,0.000000000000000000e+00
2.300000000000000000e+02,-7.607821797041403045e-02,0.000000000000000000e+00
2.310000000000000000e+02,9.569123715913301076e-02,0.000000000000000000e+00
2.320000000000000000e+02,-2.969127024328968578e-02,0.000000000000000000e+00
2.330000000000000000e+02,8.681550299959784125e-03,0.000000000000000000e+00
2.340000000000000000e+02,1.382648999400693524e-01,0.000000000000000000e+00
2.350000000000000000e+02,1.270366923206096565e-01,0.000000000000000000e+00
2.360000000000000000e+02,4.492446794161130130e-01,0.000000000000000000e+00
2.370000000000000000e+02,5.080431402464807844e-01,0.000000000000000000e+00
2.380000000000000000e+02,3.001009649131538559e-01,0.000000000000000000e+00
2.390000000000000000e+02,2.678893655487365327e-02,0.000000000000000000e+00
2.400000000000000000e+02,-2.370431652007396195e-01,0.000000000000000000e+00
2.410000000000000000e+02,-2.422880698222059093e-01,0.000000000000000000e+00
2.420000000000000000e+02,-7.842529587596708263e-02,0.000000000000000000e+00
2.430000000000000000e+02,-2.340248322701512229e-01,0.000000000000000000e+00
2.440000000000000000e+02,-7.894829212944952379e-02,0.000000000000000000e+00
2.450000000000000000e+02,-1.745627949143385704e-01,0.000000000000000000e+00
2.460000000000000000e+02,-1.723713662507402045e-01,0.000000000000000000e+00
2.470000000000000000e+02,-4.065502599101328829e-01,0.000000000000000000e+00
2.480000000000000000e+02,3.273661658345577319e+00,0.000000000000000000e+00
2.490000000000000000e+02,1.192968977897669314e+00,1.000000000000000000e+00
2.500000000000000000e+02,-1.337729342723328108e+00,0.000000000000000000e+00
2.510000000000000000e+02,-9.220268575347877471e-01,0.000000000000000000e+00
2.520000000000000000e+02,-3.850703154564440456e-01,0.000000000000000000e+00
2.530000000000000000e+02,-1.835806687693073702e-01,0.000000000000000000e+00
2.540000000000000000e+02,-2.900156780865048578e-01,0.000000000000000000e+00
2.550000000000000000e+02,2.679650797875790871e-02,0.000000000000000000e+00
2.560000000000000000e+02,-1.284369101657630852e-01,0.000000000000000000e+00
2.570000000000000000e+02,1.777081342464024438e-01,0.000000000000000000e+00
2.580000000000000000e+02,7.680721470671456053e-02,0.000000000000000000e+00
2.590000000000000000e+02,2.706835384964846880e-01,0.000000000000000000e+00
2.600000000000000000e+02,3.666980663465040369e-01,0.000000000000000000e+00
2.610000000000000000e+02,6.243271914692355429e-01,0.000000000000000000e+00
2.620000000000000000e+02,5.439420307563610502e-01,0.000000000000000000e+00
2.630000000000000000e+02,4.889678982856232592e-01,0.000000000000000000e+00
2.640000000000000000e+02,1.605706142075244702e-01,0.000000000000000000e+00
2.650000000000000000e+02,9.012687091861515398e-02,0.000000000000000000e+00
2.660000000000000000e+02,-3.839957390237832557e-01,0.000000000000000000e+00
2.670000000000000000e+02,-3.335816405276590402e-01,0.000000000000000000e+00
2.680000000000000000e+02,-6.014875737764121544e-01,0.000000000000000000e+00
2.690000000000000000e+02,-5.808069628258883954e-01,0.000000000000000000e+00
2.700000000000000000e+02,-5.710349238603831257e-01,0.000000000000000000e+00
2.710000000000000000e+02,-5.358929211897891509e-01,0.000000000000000000e+00
2.720000000000000000e+02,-3.913870893862543832e-01,0.000000000000000000e+00
2.730000000000000000e+02,-3.142171136589209102e-01,0.000000000000000000e+00
2.740000000000000000e+02,-2.778862774144349457e-01,0.000000000000000000e+00
2.750000000000000000e+02,-3.037849117910361163e-01,0.000000000000000000e+00
2.760000000000000000e+02,-1.737643761195187819e-01,0.000000000000000000e+00
2.770000000000000000e+02,-1.910016521651710097e-01,0.000000000000000000e+00
2.780000000000000000e+02,-1.645589947113885732e-01,0.000000000000000000e+00
2.790000000000000000e+02,-1.997136481960847809e-01,0.000000000000000000e+00
2.800000000000000000e+02,-2.930606768620827030e-01,0.000000000000000000e+00
2.810000000000000000e+02,-8.349502486664761580e-02,0.000000000000000000e+00
2.820000000000000000e+02,-2.970952169902092987e-01,0.000000000000000000e+00
2.830000000000000000e+02,-1.571129170722279922e-01,0.000000000000000000e+00
2.840000000000000000e+02,-2.381515112094728381e-01,0.000000000000000000e+00
2.850000000000000000e+02,4.955028763216186294e-02,0.000000000000000000e+00
2.860000000000000000e+02,3.045067700785151956e-03,0.000000000000000000e+00
2.870000000000000000e+02,3.198987866535003832e-02,0.000000000000000000e+00
2.880000000000000000e+02,2.348678941655567010e-01,0.000000000000000000e+00
2.890000000000000000e+02,2.408047386974015158e-01,0.000000000000000000e+00
2.900000000000000000e+02,7.442350579754974937e-02,0.000000000000000000e+00
2.910000000000000000e+02,-2.539082277536452992e-01,0.000000000000000000e+00
2.920000000000000000e+02,-2.677087973594390324e-01,0.000000000000000000e+00
2.930000000000000000e+02,-2.880293665166103745e-01,0.000000000000000000e+00
2.940000000000000000e+02,-4.220067980935339746e-01,0.000000000000000000e+00
2.950000000000000000e+02,-1.679477591814386717e-01,0.000000000000000000e+00
2.960000000000000000e+02,-1.336794908416317762e-01,0.000000000000000000e+00
2.970000000000000000e+02,-1.026536571872457976e-01,0.000000000000000000e+00
2.980000000000000000e+02,-6.364115183409900789e-01,0.000000000000000000e+00
2.990000000000000000e+02,1.703495394048556433e+00,0.000000000000000000e+00
3.000000000000000000e+02,2.744827525105010935e+00,0.000000000000000000e+00
3.010000000000000000e+02,-4.973982559636731526e-01,1.000000000000000000e+00
3.020000000000000000e+02,-9.809396285596040377e-01,0.000000000000000000e+00
3.030000000000000000e+02,-6.241196556066029855e-01,0.000000000000000000e+00
3.040000000000000000e+02,-2.814895479947885359e-01,0.000000000000000000e+00
3.050000000000000000e+02,-3.466369022361733832e-01,0.000000000000000000e+00
3.060000000000000000e+02,-4.926423832223562893e-02,0.000000000000000000e+00
3.070000000000000000e+02,-3.840365807736407372e-02,0.000000000000000000e+00
3.080000000000000000e+02,8.442617626023253552e-02,0.000000000000000000e+00
3.090000000000000000e+02,-8.925196834347758068e-02,0.000000000000000000e+00
3.100000000000000000e+02,3.076521518561448620e-01,0.000000000000000000e+00
3.110000000000000000e+02,3.606427886064650368e-01,0.000000000000000000e+00
3.120000000000000000e+02,7.576676508433682899e-01,0.000000000000000000e+00
3.130000000000000000e+02,6.068617971649683529e-01,0.000000000000000000e+00
3.140000000000000000e+02,6.878892463831800530e-01,0.000000000000000000e+00
3.150000000000000000e+02,3.262445924044544698e-01,0.000000000000000000e+00
3.160000000000000000e+02,2.742519835359334412e-01,0.000000000000000000e+00
3.170000000000000000e+02,-8.644448484503280267e-03,0.000000000000000000e+00
3.180000000000000000e+02,-1.779149839954430046e-01,0.000000000000000000e+00
3.190000000000000000e+02,-4.412351513432878902e-01,0.000000000000000000e+00
3.200000000000000000e+02,-3.682262794354886903e-01,0.000000000000000000e+00
3.210000000000000000e+02,-5.575646093502332201e-01,0.000000000000000000e+00
3.220000000000000000e+02,-3.309826991074431568e-01,0.000000000000000000e+00
3.230000000000000000e+02,-2.513339310024543249e-01,0.000000000000000000e+00
3.240000000000000000e+02,-3.159616394120279281e-01,0.000000000000000000e+00
3.250000000000000000e+02,-1.649462970105198267e-01,0.000000000000000000e+00
3.260000000000000000e+02,-9.972830896409443091e-02,0.000000000000000000e+00
3.270000000000000000e+02,-8.034831928983879323e-02,0.000000000000000000e+00
3.280000000000000000e+02,5.999530776113617958e-02,0.000000000000000000e+00
3.290000000000000000e+02,-1.215352199884230655e-01,0.000000000000000000e+00
3.300000000000000000e+02,6.014092202557985017e-02,0.000000000000000000e+00
3.310000000000000000e+02,-1.437474886793387308e-01,0.000000000000000000e+00
3.320000000000000000e+02,7.732332961575874575e-02,0.000000000000000000e+00
3.330000000000000000e+02,-3.948448525258115016e-02,0.000000000000000000e+00
3.340000000000000000e+02,-6.859462150763043220e-02,0.000000000000000000e+00
3.350000000000000000e+02,6.716361609086522744e-02,0.000000000000000000e+00
3.360000000000000000e+02,-5.091750603415270970e-02,0.000000000000000000e+00
3.370000000000000000e+02,1.482685603845043942e-01,0.000000000000000000e+00
3.380000000000000000e+02,1.544225163468951334e-01,0.000000000000000000e+00
3.390000000000000000e+02,4.672967361431940025e-01,0.000000000000000000e+00
3.400000000000000000e+02,4.496453310352429011e-01,0.000000000000000000e+00
3.410000000000000000e+02,3.229038063250571633e-01,0.000000000000000000e+00
3.420000000000000000e+02,-1.048018751360101919e-01,0.000000000000000000e+00
3.430000000000000000e+02,-1.413185306944887420e-01,0.000000000000000000e+00
3.440000000000000000e+02,-2.124915010578875829e-01,0.000000000000000000e+00
3.450000000000000000e+02,-1.351900734836642415e-01,0.000000000000000000e+00
3.460000000000000000e+02,-1.391452482069975294e-01,0.000000000000000000e+00
3.470000000000000000e+02,-1.576807876594358560e-01,0.000000000000000000e+00
3.480000000000000000e+02,-1.024122817818491488e-01,0.000000000000000000e+00
3.490000000000000000e+02,-3.319074949452383017e-01,0.000000000000000000e+00
3.500000000000000000e+02,2.500650611818594493e-01,0.000000000000000000e+00
3.510000000000000000e+02,3.303251403843036282e+00,0.000000000000000000e+00
3.520000000000000000e+02,9.411891391175202237e-01,1.000000000000000000e+00
3.530000000000000000e+02,-8.534712478147532533e-01,0.000000000000000000e+00
3.540000000000000000e+02,-5.369527001141055633e-01,0.000000000000000000e+00
3.550000000000000000e+02,-4.048522281411072732e-01,0.000000000000000000e+00
3.560000000000000000e+02,-2.569952977794366933e-01,0.000000000000000000e+00
3.570000000000000000e+02,-2.114145816487717211e-01,0.000000000000000000e+00
3.580000000000000000e+02,-1.822703594177168263e-01,0.000000000000000000e+00
3.590000000000000000e+02,-7.660474186469312012e-04,0.000000000000000000e+00
3.600000000000000000e+02,-2.476917825013986649e-02,0.000000000000000000e+00
3.610000000000000000e+02,2.310969628394022035e-01,0.000000000000000000e+00
3.620000000000000000e+02,2.303738882226583629e-01,0.000000000000000000e+00
3.630000000000000000e+02,5.015527079467159144e-01,0.000000000000000000e+00
3.640000000000000000e+02,6.068348064874450332e-01,0.000000000000000000e+00
3.650000000000000000e+02,7.129440879356540028e-01,0.000000000000000000e+00
3.660000000000000000e+02,4.481471325745657319e-01,0.000000000000000000e+00
3.670000000000000000e+02,3.532565436187562469e-01,0.000000000000000000e+00
3.680000000000000000e+02,8.106295632615358182e-02,0.000000000000000000e+00
3.690000000000000000e+02,-3.710845457871874697e-01,0.000000000000000000e+00
3.700000000000000000e+02,-4.567039068926239120e-01,0.000000000000000000e+00
3.710000000000000000e+02,-4.104911935233747089e-01,0.000000000000000000e+00
3.720000000000000000e+02,-6.808092429546090951e-01,0.000000000000000000e+00
3.730000000000000000e+02,-3.031747697434749034e-01,0.000000000000000000e+00
3.740000000000000000e+02,-3.985398888107240523e-01,0.000000000000000000e+00
3.750000000000000000e+02,-4.492960707755686012e-01,0.000000000000000000e+00
3.760000000000000000e+02,-3.339418415493917158e-01,0.000000000000000000e+00
3.770000000000000000e+02,-2.443905881282747439e-01,0.000000000000000000e+00
3.780000000000000000e+02,-2.923655381364108630e-01,0.000000000000000000e+00
3.790000000000000000e+02,-9.150986720121695450e-02,0.000000000000000000e+00
3.800000000000000000e+02,-2.710910482178551240e-01,0.000000000000000000e+00
3.810000000000000000e+02,-1.101752529451255486e-01,0.000000000000000000e+00
3.820000000000000000e+02,-2.561635721297274015e-01,0.000000000000000000e+00
3.830000000000000000e+02,-6.853264256998925497e-02,0.000000000000000000e+00
3.840000000000000000e+02,-1.749106617182117074e-01,0.000000000000000000e+00
3.850000000000000000e+02,-1.431125536998199554e-01,0.000000000000000000e+00
3.860000000000000000e+02,-1.472917236414407194e-01,0.000000000000000000e+00
3.870000000000000000e+02,-4.756012105435643983e-02,0.000000000000000000e+00
3.880000000000000000e+02,-1.025126609706593223e-01,0.000000000000000000e+00
3.890000000000000000e+02,2.556261138859720373e-03,0.000000000000000000e+00
3.900000000000000000e+02,3.577093108258174725e-01,0.000000000000000000e+00
3.910000000000000000e+02,1.713007116773400396e-01,0.000000000000000000e+00
3.920000000000000000e+02,3.147669906038173537e-01,0.000000000000000000e+00
3.930000000000000000e+02,3.820196002585000694e-01,0.000000000000000000e+00
3.940000000000000000e+02,-1.190397960232414815e-01,0.000000000000000000e+00
3.950000000000000000e+02,-6.795611175463507625e-02,0.000000000000000000e+00
3.960000000000000000e+02,-2.121470706040559373e-01,0.000000000000000000e+00
3.970000000000000000e+02,-2.836238571909147632e-01,0.000000000000000000e+00
3.980000000000000000e+02,-2.917311512450546096e-01,0.000000000000000000e+00
3.990000000000000000e+02,-7.499252993279709179e-02,0.000000000000000000e+00
4.000000000000000000e+02,-2.221855983773331766e-01,0.000000000000000000e+00
4.010000000000000000e+02,4.924323403067638188e-02,0.000000000000000000e+00
4.020000000000000000e+02,-5.842604662692434392e-01,0.000000000000000000e+00
4.030000000000000000e+02,2.693566522942288710e+00,0.000000000000000000e+00
4.040000000000000000e+02,2.282141276838832944e+00,0.000000000000000000e+00
4.050000000000000000e+02,-8.397929499847691659e-01,1.000000000000000000e+00
4.060000000000000000e+02,-4.219358524763984208e-01,0.000000000000000000e+00
4.070000000000000000e+02,-4.737855700288706728e-01,0.000000000000000000e+00
4.080000000000000000e+02,-3.023579080466877733e-01,0.000000000000000000e+00
4.090000000000000000e+02,-3.721369419454575445e-01,0.000000000000000000e+00
4.100000000000000000e+02,-1.455155087846328466e-01,0.000000000000000000e+00
4.110000000000000000e+02,-2.143728067190951991e-01,0.000000000000000000e+00
4.120000000000000000e+02,9.867191282907832039e-02,0.000000000000000000e+00
4.130000000000000000e+02,-1.044879608002075855e-01,0.000000000000000000e+00
4.140000000000000000e+02,3.231135048589449110e-01,0.000000000000000000e+00
4.150000000000000000e+02,2.369172982759970847e-01,0.000000000000000000e+00
4.160000000000000000e+02,6.016710688931807827e-01,0.000000000000000000e+00
4.170000000000000000e+02,5.723786770345327124e-01,0.000000000000000000e+00
4.180000000000000000e+02,6.748612705707055515e-01,0.000000000000000000e+00
4.190000000000000000e+02,2.987703922113181254e-01,0.000000000000000000e+00
4.200000000000000000e+02,2.592867063670523664e-01,0.000000000000000000e+00
4.210000000000000000e+02,-3.175872571580887760e-01,0.000000000000000000e+00
4.220000000000000000e+02,-3.382698619178348687e-01,0.000000000000000000e+00
4.230000000000000000e+02,-7.654321972436410881e-01,0.000000000000000000e+00
4.240000000000000000e+02,-3.272549525024660566e-01,0.000000000000000000e+00
4.250000000000000000e+02,-6.329096235034741280e-01,0.000000000000000000e+00
4.260000000000000000e+02,-3.402992838092259720e-01,0.000000000000000000e+00
4.270000000000000000e+02,-6.246687450606333014e-01,0.000000000000000000e+00
4.280000000000000000e+02,-1.950536856342708347e-01,0.000000000000000000e+00
4.290000000000000000e+02,-4.682457626270636886e-01,0.000000000000000000e+00
4.300000000000000000e+02,-2.039237615599871767e-01,0.000000000000000000e+00
4.310000000000000000e+02,-3.161387971755802995e-01,0.000000000000000000e+00
4.320000000000000000e+02,-2.525579004578231215e-02,0.000000000000000000e+00
4.330000000000000000e+02,-2.969436356391275678e-01,0.000000000000000000e+00
4.340000000000000000e+02,-3.137072539329015253e-02,0.000000000000000000e+00
4.350000000000000000e+02,-2.314156308583896760e-01,0.000000000000000000e+00
4.360000000000000000e+02,-4.730312259896455457e-02,0.000000000000000000e+00
4.370000000000000000e+02,-5.361767343585357309e-02,0.000000000000000000e+00
4.380000000000000000e+02,-4.712736785933697992e-02,0.000000000000000000e+00
4.390000000000000000e+02,-1.001461454616803803e-01,0.000000000000000000e+00
4.400000000000000000e+02,-6.350841158019007726e-02,0.000000000000000000e+00
4.410000000000000000e+02,-5.234422140460957829e-02,0.000000000000000000e+00
4.420000000000000000e+02,1.007759893650109900e-01,0.000000000000000000e+00
4.430000000000000000e+02,-2.665687267499195975e-02,0.000000000000000000e+00
4.440000000000000000e+02,3.952717486162338756e-01,0.000000000000000000e+00
4.450000000000000000e+02,1.086641808603810572e-01,0.000000000000000000e+00
4.460000000000000000e+02,4.516919273817771585e-01,0.000000000000000000e+00
4.470000000000000000e+02,3.256772869540853765e-01,0.000000000000000000e+00
4.480000000000000000e+02,4.242096680121273944e-01,0.000000000000000000e+00
4.490000000000000000e+02,-2.357670267882782528e-02,0.000000000000000000e+00
4.500000000000000000e+02,-3.730987536565501944e-02,0.000000000000000000e+00
4.510000000000000000e+02,-2.873229530887264072e-01,0.000000000000000000e+00
4.520000000000000000e+02,-2.020415478851300128e-01,0.000000000000000000e+00
4.530000000000000000e+02,-3.246350035264156664e-01,0.000000000000000000e+00
4.540000000000000000e+02,-2.974910553481189060e-02,0.000000000000000000e+00
4.550000000000000000e+02,-2.085733343105920234e-01,0.000000000000000000e+00
4.560000000000000000e+02,1.246473645792132816e-02,0.000000000000000000e+00
4.570000000000000000e+02,-4.800390988708105877e-01,0.000000000000000000e+00
4.580000000000000000e+02,2.612335179687420350e+00,0.000000000000000000e+00
4.590000000000000000e+02,2.273787416600498990e+00,0.000000000000000000e+00
4.600000000000000000e+02,-8.548808273811849823e-01,1.000000000000000000e+00
4.610000000000000000e+02,-3.903191956635267412e-01,0.000000000000000000e+00
4.620000000000000000e+02,-6.001275522096303217e-01,0.000000000000000000e+00
4.630000000000000000e+02,-1.915414917875603584e-01,0.000000000000000000e+00
4.640000000000000000e+02,-2.758399945178457435e-01,0.000000000000000000e+00
4.650000000000000000e+02,-1.388667897100822890e-01,0.000000000000000000e+00
4.660000000000000000e+02,-2.816714440019678790e-03,0.000000000000000000e+00
4.670000000000000000e+02,6.428511985595725120e-02,0.000000000000000000e+00
4.680000000000000000e+02,-6.787399295079762918e-02,0.000000000000000000e+00
4.690000000000000000e+02,3.328979931759460942e-01,0.000000000000000000e+00
4.700000000000000000e+02,3.285246666012858197e-01,0.000000000000000000e+00
4.710000000000000000e+02,6.642227522072723378e-01,0.000000000000000000e+00
4.720000000000000000e+02,7.021442423553390100e-01,0.000000000000000000e+00
4.730000000000000000e+02,6.088530628315214077e-01,0.000000000000000000e+00
4.740000000000000000e+02,4.080529064455331589e-01,0.000000000000000000e+00
4.750000000000000000e+02,1.463331141835080285e-01,0.000000000000000000e+00
4.760000000000000000e+02,-1.474862114889211040e-01,0.000000000000000000e+00
4.770000000000000000e+02,-3.495538171375389136e-01,0.000000000000000000e+00
4.780000000000000000e+02,-4.712542276123713458e-01,0.000000000000000000e+00
4.790000000000000000e+02,-5.535504324821769462e-01,0.000000000000000000e+00
4.800000000000000000e+02,-5.230229148959527619e-01,0.000000000000000000e+00
4.810000000000000000e+02,-4.962480023488460845e-01,0.000000000000000000e+00
4.820000000000000000e+02,-4.622170428521695240e-01,0.000000000000000000e+00
4.830000000000000000e+02,-3.824306235221677785e-01,0.000000000000000000e+00
4.840000000000000000e+02,-2.904863776826550059e-01,0.000000000000000000e+00
4.850000000000000000e+02,-2.913652487248095668e-01,0.000000000000000000e+00
4.860000000000000000e+02,-2.397364266837389013e-01,0.000000000000000000e+00
4.870000000000000000e+02,-2.381641366109933378e-01,0.000000000000000000e+00
4.880000000000000000e+02,-4.080671872072702371e-03,0.000000000000000000e+00
4.890000000000000000e+02,-2.985071313719038222e-01,0.000000000000000000e+00
4.900000000000000000e+02,-1.634999325817909632e-02,0.000000000000000000e+00
4.910000000000000000e+02,-2.782672774668482618e-01,0.000000000000000000e+00
4.920000000000000000e+02,9.358467687123003115e-03,0.000000000000000000e+00
4.930000000000000000e+02,-9.697497904440312289e-02,0.000000000000000000e+00
4.940000000000000000e+02,-2.147850204151827147e-01,0.000000000000000000e+00
4.950000000000000000e+02,7.052326378433680654e-02,0.000000000000000000e+00
4.960000000000000000e+02,-2.749382779232231733e-02,0.000000000000000000e+00
4.970000000000000000e+02,-7.969772037059190406e-02,0.000000000000000000e+00
4.980000000000000000e+02,5.490857078448209416e-02,0.000000000000000000e+00
4.990000000000000000e+02,6.003926050248651475e-02,0.000000000000000000e+00
5.000000000000000000e+02,1.506459826933872481e-01,0.000000000000000000e+00
5.010000000000000000e+02,3.686089935079652768e-01,0.000000000000000000e+00
5.020000000000000000e+02,4.521071512981904572e-01,0.000000000000000000e+00
5.030000000000000000e+02,4.274303749290985777e-01,0.000000000000000000e+00
5.040000000000000000e+02,2.929241202175548731e-01,0.000000000000000000e+00
5.050000000000000000e+02,-7.168662108865610227e-02,0.000000000000000000e+00
5.060000000000000000e+02,-1.036475785510696246e-01,0.000000000000000000e+00
5.070000000000000000e+02,-1.902329916557969902e-01,0.000000000000000000e+00
5.080000000000000000e+02,-1.400225352460345574e-01,0.000000000000000000e+00
5.090000000000000000e+02,-1.657681998576464311e-01,0.000000000000000000e+00
5.100000000000000000e+02,-5.074189345762065290e-02,0.000000000000000000e+00
5.110000000000000000e+02,-7.679907504063091320e-03,0.000000000000000000e+00
5.120000000000000000e+02,-1.536248688414619257e-01,0.000000000000000000e+00
5.130000000000000000e+02,1.984480989779155175e-03,0.000000000000000000e+00
5.140000000000000000e+02,3.576955585686345085e+00,0.000000000000000000e+00
5.150000000000000000e+02,9.996191477435052430e-01,1.000000000000000000e+00
5.160000000000000000e+02,-1.033053654046616421e+00,0.000000000000000000e+00
5.170000000000000000e+02,-3.984155766071209026e-01,0.000000000000000000e+00
5.180000000000000000e+02,-3.428535038497764753e-01,0.000000000000000000e+00
5.190000000000000000e+02,-2.137904937531638072e-01,0.000000000000000000e+00
5.200000000000000000e+02,-2.821872035292863345e-01,0.000000000000000000e+00
5.210000000000000000e+02,-1.479388827876369494e-01,0.000000000000000000e+00
5.220000000000000000e+02,-1.023990169306470965e-01,0.000000000000000000e+00
5.230000000000000000e+02,3.049313165447052609e-02,0.000000000000000000e+00
5.240000000000000000e+02,1.265894359051842888e-01,0.000000000000000000e+00
5.250000000000000000e+02,2.240912335856379001e-01,0.000000000000000000e+00
5.260000000000000000e+02,5.298226789796066649e-01,0.000000000000000000e+00
5.270000000000000000e+02,5.350450875937146078e-01,0.000000000000000000e+00
5.280000000000000000e+02,6.950919060187272791e-01,0.000000000000000000e+00
5.290000000000000000e+02,3.623685425626470558e-01,0.000000000000000000e+00
5.300000000000000000e+02,3.930628957058758255e-01,0.000000000000000000e+00
5.310000000000000000e+02,2.508491174401062188e-02,0.000000000000000000e+00
5.320000000000000000e+02,-3.224511828593217277e-01,0.000000000000000000e+00
5.330000000000000000e+02,-4.426882554412481241e-01,0.000000000000000000e+00
5.340000000000000000e+02,-6.558580521514603134e-01,0.000000000000000000e+00
5.350000000000000000e+02,-6.043388346395859312e-01,0.000000000000000000e+00
5.360000000000000000e+02,-5.947050904509715297e-01,0.000000000000000000e+00
5.370000000000000000e+02,-5.774835698908524773e-01,0.000000000000000000e+00
5.380000000000000000e+02,-5.517328793339002502e-01,0.000000000000000000e+00
5.390000000000000000e+02,-3.205480386957530459e-01,0.000000000000000000e+00
5.400000000000000000e+02,-4.134365316141243585e-01,0.000000000000000000e+00
5.410000000000000000e+02,-3.361254394080488983e-01,0.000000000000000000e+00
5.420000000000000000e+02,-2.619448988713028448e-01,0.000000000000000000e+00
5.430000000000000000e+02,-3.568459266246804540e-01,0.000000000000000000e+00
5.440000000000000000e+02,-1.240425422914187004e-01,0.000000000000000000e+00
5.450000000000000000e+02,-2.380378873692200192e-01,0.000000000000000000e+00
5.460000000000000000e+02,-1.317744418924714500e-01,0.000000000000000000e+00
5.470000000000000000e+02,-1.586505408237171011e-01,0.000000000000000000e+00
5.480000000000000000e+02,-2.128820073599726470e-01,0.000000000000000000e+00
5.490000000000000000e+02,-1.690334075660717417e-01,0.000000000000000000e+00
5.500000000000000000e+02,-1.968333413645521543e-02,0.000000000000000000e+00
5.510000000000000000e+02,-1.016970129467096029e-01,0.000000000000000000e+00
5.520000000000000000e+02,4.730625270534431770e-02,0.000000000000000000e+00
5.530000000000000000e+02,-1.170915597535395619e-01,0.000000000000000000e+00
5.540000000000000000e+02,1.108730560616224062e-02,0.000000000000000000e+00
5.550000000000000000e+02,-1.288121108248754254e-01,0.000000000000000000e+00
5.560000000000000000e+02,3.521878289023930853e-01,0.000000000000000000e+00
5.570000000000000000e+02,1.798797053091410469e-01,0.000000000000000000e+00
5.580000000000000000e+02,4.501218902426115664e-01,0.000000000000000000e+00
5.590000000000000000e+02,3.283215340358951462e-01,0.000000000000000000e+00
5.600000000000000000e+02,3.721497680722233303e-01,0.000000000000000000e+00
5.610000000000000000e+02,-3.716283349174274910e-03,0.000000000000000000e+00
5.620000000000000000e+02,8.789672222307466642e-02,0.000000000000000000e+00
5.630000000000000000e+02,-2.677954648901540446e-01,0.000000000000000000e+00
5.640000000000000000e+02,-3.956575905633973045e-02,0.000000000000000000e+00
5.650000000000000000e+02,-2.865856418756441704e-01,0.000000000000000000e+00
5.660000000000000000e+02,-3.956211356585552508e-02,0.000000000000000000e+00
5.670000000000000000e+02,-2.350265617015133424e-01,0.000000000000000000e+00
5.680000000000000000e+02,1.666316634023956023e-01,0.000000000000000000e+00
5.690000000000000000e+02,-5.945237991605060168e-01,0.000000000000000000e+00
5.700000000000000000e+02,2.296912059718150267e+00,0.000000000000000000e+00
5.710000000000000000e+02,2.628678761387176710e+00,0.000000000000000000e+00
5.720000000000000000e+02,-9.757267441300080391e-01,1.000000000000000000e+00
5.730000000000000000e+02,-7.820617311940710747e-01,0.000000000000000000e+00
5.740000000000000000e+02,-4.116973967033843440e-01,0.000000000000000000e+00
5.750000000000000000e+02,3.167091857913782726e-02,0.000000000000000000e+00
5.760000000000000000e+02,-2.282478815626013402e-01,0.000000000000000000e+00
5.770000000000000000e+02,2.712469701831100952e-03,0.000000000000000000e+00
5.780000000000000000e+02,-1.200966313193364554e-01,0.000000000000000000e+00
5.790000000000000000e+02,1.162781615212363923e-01,0.000000000000000000e+00
5.800000000000000000e+02,1.559618265341164087e-02,0.000000000000000000e+00
5.810000000000000000e+02,1.981106496914422088e-01,0.000000000000000000e+00
5.820000000000000000e+02,2.424918897456388722e-01,0.000000000000000000e+00
5.830000000000000000e+02,5.225853247762504150e-01,0.000000000000000000e+00
5.840000000000000000e+02,5.439286435975214662e-01,0.000000000000000000e+00
5.850000000000000000e+02,6.834767935832271046e-01,0.000000000000000000e+00
5.860000000000000000e+02,2.801022712132229531e-01,0.000000000000000000e+00
5.870000000000000000e+02,2.306764099776471844e-01,0.000000000000000000e+00
5.880000000000000000e+02,-1.049974350105407073e-01,0.000000000000000000e+00
5.890000000000000000e+02,-4.488388448578937151e-01,0.000000000000000000e+00
5.900000000000000000e+02,-4.143082687926438190e-01,0.000000000000000000e+00
5.910000000000000000e+02,-5.150415872410742946e-01,0.000000000000000000e+00
5.920000000000000000e+02,-5.936226751533340007e-01,0.000000000000000000e+00
5.930000000000000000e+02,-3.449989707991419907e-01,0.000000000000000000e+00
5.940000000000000000e+02,-4.279930057574283797e-01,0.000000000000000000e+00
5.950000000000000000e+02,-2.142487836132847268e-01,0.000000000000000000e+00
5.960000000000000000e+02,-3.129779268324256458e-01,0.000000000000000000e+00
5.970000000000000000e+02,-1.948960290729835620e-01,0.000000000000000000e+00
5.980000000000000000e+02,-1.369671625988661545e-01,0.000000000000000000e+00
5.990000000000000000e+02,-1.075443768264368050e-01,0.000000000000000000e+00
6.000000000000000000e+02,-6.875689311535683468e-03,0.000000000000000000e+00
6.010000000000000000e+02,-5.370870892013010489e-02,0.000000000000000000e+00
6.020000000000000000e+02,-1.256049938406420541e-01,0.000000000000000000e+00
6.030000000000000000e+02,-3.865021218521969698e-02,0.000000000000000000e+00
6.040000000000000000e+02,-1.097224216349871467e-01,0.000000000000000000e+00
6.050000000000000000e+02,-2.353331739446868145e-02,0.000000000000000000e+00
6.060000000000000000e+02,-4.330830710973320591e-02,0.000000000000000000e+00
6.070000000000000000e+02,-9.675738061093358544e-02,0.000000000000000000e+00
6.080000000000000000e+02,-6.109842955848341500e-02,0.000000000000000000e+00
6.090000000000000000e+02,1.460237589817520443e-01,0.000000000000000000e+00
6.100000000000000000e+02,-1.967531463383396378e-02,0.000000000000000000e+00
6.110000000000000000e+02,3.408037690895939220e-01,0.000000000000000000e+00
6.120000000000000000e+02,2.675567675707688498e-01,0.000000000000000000e+00
6.130000000000000000e+02,4.243204798265702848e-01,0.000000000000000000e+00
6.140000000000000000e+02,2.201690234150620318e-01,0.000000000000000000e+00
6.150000000000000000e+02,-1.063506295816477737e-01,0.000000000000000000e+00
6.160000000000000000e+02,-9.433779172096862231e-02,0.000000000000000000e+00
6.170000000000000000e+02,-3.636906277874454307e-01,0.000000000000000000e+00
6.180000000000000000e+02,-1.069842860488953579e-01,0.000000000000000000e+00
6.190000000000000000e+02,-6.962210965619222702e-02,0.000000000000000000e+00
6.200000000000000000e+02,-2.374341651040392243e-01,0.000000000000000000e+00
6.210000000000000000e+02,8.630235390473644727e-03,0.000000000000000000e+00
6.220000000000000000e+02,-4.367805725626686120e-01,0.000000000000000000e+00
6.230000000000000000e+02,3.972687620462512226e-01,0.000000000000000000e+00
6.240000000000000000e+02,3.349496174145207394e+00,0.000000000000000000e+00
6.250000000000000000e+02,3.398626448827933300e-01,1.000000000000000000e+00
6.260000000000000000e+02,-1.262122573247662416e+00,0.000000000000000000e+00
6.270000000000000000e+02,-7.862963550966874937e-01,0.000000000000000000e+00
6.280000000000000000e+02,-2.232844826508095792e-01,0.000000000000000000e+00
6.290000000000000000e+02,-2.692144097731097863e-01,0.000000000000000000e+00
6.300000000000000000e+02,-1.054143436361395236e-01,0.000000000000000000e+00
6.310000000000000000e+02,-1.024870118852205941e-01,0.000000000000000000e+00
6.320000000000000000e+02,-4.789717616781723891e-02,0.000000000000000000e+00
6.330000000000000000e+02,-5.346497631338197054e-02,0.000000000000000000e+00
6.340000000000000000e+02,2.514140601026474409e-01,0.000000000000000000e+00
6.350000000000000000e+02,1.562555407905806826e-01,0.000000000000000000e+00
6.360000000000000000e+02,6.582864846069661491e-01,0.000000000000000000e+00
6.370000000000000000e+02,5.442339278057884977e-01,0.000000000000000000e+00
6.380000000000000000e+02,7.656609619402032774e-01,0.000000000000000000e+00
6.390000000000000000e+02,4.343743788986096921e-01,0.000000000000000000e+00
6.400000000000000000e+02,2.329781681742550403e-01,0.000000000000000000e+00
6.410000000000000000e+02,5.432117170705364102e-03,0.000000000000000000e+00
6.420000000000000000e+02,-2.254659626462651445e-01,0.000000000000000000e+00
6.430000000000000000e+02,-3.098590135440780213e-01,0.000000000000000000e+00
6.440000000000000000e+02,-5.546582983561264557e-01,0.000000000000000000e+00
6.450000000000000000e+02,-4.012298215244005650e-01,0.000000000000000000e+00
6.460000000000000000e+02,-4.137169524223527350e-01,0.000000000000000000e+00
6.470000000000000000e+02,-3.820321268242501400e-01,0.000000000000000000e+00
6.480000000000000000e+02,-2.582651952097300696e-01,0.000000000000000000e+00
6.490000000000000000e+02,-2.377859637862457798e-01,0.000000000000000000e+00
6.500000000000000000e+02,-1.667679818035229244e-01,0.000000000000000000e+00
6.510000000000000000e+02,-1.846067244282932895e-01,0.000000000000000000e+00
6.520000000000000000e+02,-6.510697305559273729e-02,0.000000000000000000e+00
6.530000000000000000e+02,-8.715770374052486669e-02,0.000000000000000000e+00
6.540000000000000000e+02,3.843074942647196901e-02,0.000000000000000000e+00
6.550000000000000000e+02,-1.683136000102953556e-01,0.000000000000000000e+00
6.560000000000000000e+02,1.200622231409999296e-02,0.000000000000000000e+00
6.570000000000000000e+02,-1.587428234128166749e-01,0.000000000000000000e+00
6.580000000000000000e+02,1.230454165069822664e-02,0.000000000000000000e+00
6.590000000000000000e+02,-2.143411941571347068e-01,0.000000000000000000e+00
6.600000000000000000e+02,6.173680415514789209e-03,0.000000000000000000e+00
6.610000000000000000e+02,-1.414718213694302895e-01,0.000000000000000000e+00
6.620000000000000000e+02,6.802684492509052452e-03,0.000000000000000000e+00
6.630000000000000000e+02,3.244334142027181008e-03,0.000000000000000000e+00
6.640000000000000000e+02,4.217822553172093092e-02,0.000000000000000000e+00
6.650000000000000000e+02,-4.008775601356306256e-02,0.000000000000000000e+00
6.660000000000000000e+02,1.779360211466038955e-01,0.000000000000000000e+00
6.670000000000000000e+02,1.036312232797321070e-01,0.000000000000000000e+00
6.680000000000000000e+02,4.481083691974427907e-01,0.000000000000000000e+00
6.690000000000000000e+02,3.727284505904246981e-01,0.000000000000000000e+00
6.700000000000000000e+02,3.799904209193857296e-01,0.000000000000000000e+00
6.710000000000000000e+02,1.406416079692880405e-01,0.000000000000000000e+00
6.720000000000000000e+02,-1.505593816692470110e-01,0.000000000000000000e+00
6.730000000000000000e+02,-9.476742863152277929e-02,0.000000000000000000e+00
6.740000000000000000e+02,-2.037382537763824941e-01,0.000000000000000000e+00
6.750000000000000000e+02,-2.287757069106846897e-01,0.000000000000000000e+00
6.760000000000000000e+02,-1.455158792755625596e-01,0.000000000000000000e+00
6.770000000000000000e+02,-1.820251359478075592e-01,0.000000000000000000e+00
6.780000000000000000e+02,-3.361303168331521152e-02,0.000000000000000000e+00
6.790000000000000000e+02,-4.958717232152034526e-01,0.000000000000000000e+00
6.800000000000000000e+02,2.068741037767852564e+00,0.000000000000000000e+00
6.810000000000000000e+02,2.683381428870161844e+00,0.000000000000000000e+00
6.820000000000000000e+02,-6.710848065236846294e-01,1.000000000000000000e+00
6.830000000000000000e+02,-8.628892934814466065e-01,0.000000000000000000e+00
6.840000000000000000e+02,-6.405868385570804291e-01,0.000000000000000000e+00
6.850000000000000000e+02,-3.210008147598650274e-01,0.000000000000000000e+00
6.860000000000000000e+02,-3.280622940012467015e-01,0.000000000000000000e+00
6.870000000000000000e+02,-1.692406585141375264e-01,0.000000000000000000e+00
6.880000000000000000e+02,-2.357749711766609912e-01,0.000000000000000000e+00
6.890000000000000000e+02,-1.270180545188833443e-01,0.000000000000000000e+00
6.900000000000000000e+02,4.387235355426476299e-04,0.000000000000000000e+00
6.910000000000000000e+02,9.708450296112450251e-02,0.000000000000000000e+00
6.920000000000000000e+02,2.265615999971701822e-01,0.000000000000000000e+00
6.930000000000000000e+02,4.738968560518874718e-01,0.000000000000000000e+00
6.940000000000000000e+02,4.058335559389530944e-01,0.000000000000000000e+00
6.950000000000000000e+02,6.357807491683404866e-01,0.000000000000000000e+00
6.960000000000000000e+02,3.299053433893793241e-01,0.000000000000000000e+00
6.970000000000000000e+02,1.940689767647779951e-01,0.000000000000000000e+00
6.980000000000000000e+02,-2.121824972663773345e-01,0.000000000000000000e+00
6.990000000000000000e+02,-2.399716791639331659e-01,0.000000000000000000e+00
7.000000000000000000e+02,-5.680078845442319002e-01,0.000000000000000000e+00
7.010000000000000000e+02,-5.652630131625073773e-01,0.000000000000000000e+00
7.020000000000000000e+02,-5.974365070229876729e-01,0.000000000000000000e+00
7.030000000000000000e+02,-5.308793191831532310e-01,0.000000000000000000e+00
7.040000000000000000e+02,-4.649606847880384808e-01,0.000000000000000000e+00
7.050000000000000000e+02,-3.693432672060377731e-01,0.000000000000000000e+00
7.060000000000000000e+02,-3.594345787566467498e-01,0.000000000000000000e+00
7.070000000000000000e+02,-2.900495240819638276e-01,0.000000000000000000e+00
7.080000000000000000e+02,-3.824486272716977053e-01,0.000000000000000000e+00
7.090000000000000000e+02,-9.370099835548069411e-02,0.000000000000000000e+00
7.100000000000000000e+02,-2.401823446711255916e-01,0.000000000000000000e+00
7.110000000000000000e+02,-4.603005391512682287e-02,0.000000000000000000e+00
7.120000000000000000e+02,-2.426086043603514764e-01,0.000000000000000000e+00
7.130000000000000000e+02,-6.374773953933789150e-02,0.000000000000000000e+00
7.140000000000000000e+02,-1.592075980903343013e-01,0.000000000000000000e+00
7.150000000000000000e+02,-7.836161475111655395e-02,0.000000000000000000e+00
7.160000000000000000e+02,-1.324113330661165489e-01,0.000000000000000000e+00
7.170000000000000000e+02,-9.098090872268421725e-02,0.000000000000000000e+00
7.180000000000000000e+02,6.644671780220759438e-02,0.000000000000000000e+00
7.190000000000000000e+02,2.306486504706739826e-01,0.000000000000000000e+00
7.200000000000000000e+02,9.002506287375457161e-02,0.000000000000000000e+00
7.210000000000000000e+02,5.507559750900202777e-01,0.000000000000000000e+00
7.220000000000000000e+02,4.523948897241998890e-01,0.000000000000000000e+00
7.230000000000000000e+02,3.535151986151605641e-01,0.000000000000000000e+00
7.240000000000000000e+02,8.021902540619522959e-02,0.000000000000000000e+00
7.250000000000000000e+02,-8.412399414108880091e-02,0.000000000000000000e+00
7.260000000000000000e+02,-1.904836477612139867e-01,0.000000000000000000e+00
7.270000000000000000e+02,-9.548487193505753035e-02,0.000000000000000000e+00
7.280000000000000000e+02,-2.824730563310726139e-01,0.000000000000000000e+00
7.290000000000000000e+02,-1.722143796681111644e-02,0.000000000000000000e+00
7.300000000000000000e+02,-7.552364765714847383e-02,0.000000000000000000e+00
7.310000000000000000e+02,-6.653046984062472267e-03,0.000000000000000000e+00
7.320000000000000000e+02,-3.456110992539355165e-01,0.000000000000000000e+00
7.330000000000000000e+02,2.941000233629064819e+00,0.000000000000000000e+00
7.340000000000000000e+02,1.937955252162498754e+00,1.000000000000000000e+00
7.350000000000000000e+02,-8.755560586539297141e-01,0.000000000000000000e+00
7.360000000000000000e+02,-3.631815415863281493e-01,0.000000000000000000e+00
7.370000000000000000e+02,-4.034740301044211774e-01,0.000000000000000000e+00
7.380000000000000000e+02,-1.590899610682205145e-01,0.000000000000000000e+00
7.390000000000000000e+02,-3.201698055257869435e-01,0.000000000000000000e+00
7.400000000000000000e+02,-1.403910280438643854e-01,0.000000000000000000e+00
7.410000000000000000e+02,-1.179819908629012176e-01,0.000000000000000000e+00
7.420000000000000000e+02,9.276362719150156588e-02,0.000000000000000000e+00
7.430000000000000000e+02,8.512868592440603344e-02,0.000000000000000000e+00
7.440000000000000000e+02,2.720004156717584221e-01,0.000000000000000000e+00
7.450000000000000000e+02,4.248017609078787449e-01,0.000000000000000000e+00
7.460000000000000000e+02,5.461757686863052408e-01,0.000000000000000000e+00
7.470000000000000000e+02,7.246594760824806025e-01,0.000000000000000000e+00
7.480000000000000000e+02,6.674564364973541997e-01,0.000000000000000000e+00
7.490000000000000000e+02,3.209269399891216401e-01,0.000000000000000000e+00
7.500000000000000000e+02,1.561767235481858473e-01,0.000000000000000000e+00
7.510000000000000000e+02,-2.061353526333076780e-01,0.000000000000000000e+00
7.520000000000000000e+02,-3.903421465039609295e-01,0.000000000000000000e+00
7.530000000000000000e+02,-4.689443478214461170e-01,0.000000000000000000e+00
7.540000000000000000e+02,-4.466955672314898984e-01,0.000000000000000000e+00
7.550000000000000000e+02,-4.694578501495451639e-01,0.000000000000000000e+00
7.560000000000000000e+02,-4.889881853299306025e-01,0.000000000000000000e+00
7.570000000000000000e+02,-4.771857071626849356e-01,0.000000000000000000e+00
7.580000000000000000e+02,-2.794270874439033769e-01,0.000000000000000000e+00
7.590000000000000000e+02,-2.495672117021414116e-01,0.000000000000000000e+00
7.600000000000000000e+02,-2.161062135488486802e-01,0.000000000000000000e+00
7.610000000000000000e+02,-1.627062680911303683e-01,0.000000000000000000e+00
7.620000000000000000e+02,-1.942092397315643426e-01,0.000000000000000000e+00
7.630000000000000000e+02,-1.453086760125779364e-01,0.000000000000000000e+00
7.640000000000000000e+02,-1.754571831738804544e-01,0.000000000000000000e+00
7.650000000000000000e+02,-4.879541610735584067e-02,0.000000000000000000e+00
7.660000000000000000e+02,-5.025309738353835737e-02,0.000000000000000000e+00
7.670000000000000000e+02,-1.423577059233007425e-01,0.000000000000000000e+00
7.680000000000000000e+02,-8.407284285683626346e-02,0.000000000000000000e+00
7.690000000000000000e+02,-1.150237134584674581e-01,0.000000000000000000e+00
7.700000000000000000e+02,-1.225944253727113825e-01,0.000000000000000000e+00
7.710000000000000000e+02,2.898721812001271367e-02,0.000000000000000000e+00
7.720000000000000000e+02,-8.499043227615300788e-02,0.000000000000000000e+00
7.730000000000000000e+02,1.755335706154039291e-02,0.000000000000000000e+00
7.740000000000000000e+02,-4.171014160607377369e-02,0.000000000000000000e+00
7.750000000000000000e+02,2.305457041918047012e-01,0.000000000000000000e+00
7.760000000000000000e+02,1.864049000193358507e-01,0.000000000000000000e+00
7.770000000000000000e+02,4.724471548278165733e-01,0.000000000000000000e+00
7.780000000000000000e+02,3.502223744081317536e-01,0.000000000000000000e+00
7.790000000000000000e+02,2.538352120766066977e-01,0.000000000000000000e+00
7.800000000000000000e+02,9.822883821112227132e-02,0.000000000000000000e+00
7.810000000000000000e+02,-1.978878534567868330e-01,0.000000000000000000e+00
7.820000000000000000e+02,-1.859619621931538347e-01,0.000000000000000000e+00
7.830000000000000000e+02,-2.058168424717232436e-01,0.000000000000000000e+00
7.840000000000000000e+02,-2.916034239949362172e-01,0.000000000000000000e+00
7.850000000000000000e+02,-8.047336389799769618e-02,0.000000000000000000e+00
7.860000000000000000e+02,-2.648198890134960681e-01,0.000000000000000000e+00
7.870000000000000000e+02,-2.777515509756307566e-01,0.000000000000000000e+00
7.880000000000000000e+02,-2.589284934029003060e-01,0.000000000000000000e+00
7.890000000000000000e+02,3.190320891512053780e+00,0.000000000000000000e+00
7.900000000000000000e+02,1.344314128680845766e+00,1.000000000000000000e+00
7.910000000000000000e+02,-1.028742074348706792e+00,0.000000000000000000e+00
7.920000000000000000e+02,-4.973024794446371799e-01,0.000000000000000000e+00
7.930000000000000000e+02,-4.848279087399201548e-01,0.000000000000000000e+00
7.940000000000000000e+02,-2.428929553289543852e-01,0.000000000000000000e+00
7.950000000000000000e+02,-3.356264349474163966e-01,0.000000000000000000e+00
7.960000000000000000e+02,-1.888757530781661198e-01,0.000000000000000000e+00
7.970000000000000000e+02,-5.588758332337402700e-04,0.000000000000000000e+00
7.980000000000000000e+02,-1.701556053620647546e-01,0.000000000000000000e+00
7.990000000000000000e+02,1.932705101348821120e-01,0.000000000000000000e+00
8.000000000000000000e+02,1.524679201655737004e-01,0.000000000000000000e+00
8.010000000000000000e+02,3.973384447671342024e-01,0.000000000000000000e+00
8.020000000000000000e+02,6.808993726139012104e-01,0.000000000000000000e+00
8.030000000000000000e+02,5.816154457240758635e-01,0.000000000000000000e+00
8.040000000000000000e+02,6.272034669143928820e-01,0.000000000000000000e+00
8.050000000000000000e+02,4.348893994447178835e-01,0.000000000000000000e+00
8.060000000000000000e+02,1.282171123068553409e-01,0.000000000000000000e+00
8.070000000000000000e+02,-8.954660339765095622e-02,0.000000000000000000e+00
8.080000000000000000e+02,-2.548956094215387158e-01,0.000000000000000000e+00
8.090000000000000000e+02,-5.967823816411864657e-01,0.000000000000000000e+00
8.100000000000000000e+02,-4.962160017699735470e-01,0.000000000000000000e+00
8.110000000000000000e+02,-4.713539838804071680e-01,0.000000000000000000e+00
8.120000000000000000e+02,-5.430254375827586744e-01,0.000000000000000000e+00
8.130000000000000000e+02,-2.939651428761017593e-01,0.000000000000000000e+00
8.140000000000000000e+02,-3.529671231266552911e-01,0.000000000000000000e+00
8.150000000000000000e+02,-4.154227795067076956e-01,0.000000000000000000e+00
8.160000000000000000e+02,-2.381519392744021468e-01,0.000000000000000000e+00
8.170000000000000000e+02,-2.796135564741107360e-01,0.000000000000000000e+00
8.180000000000000000e+02,-1.043406550242149677e-01,0.000000000000000000e+00
8.190000000000000000e+02,-2.055257188933627410e-01,0.000000000000000000e+00
8.200000000000000000e+02,-6.716714486924300898e-02,0.000000000000000000e+00
8.210000000000000000e+02,-1.297532850100901469e-01,0.000000000000000000e+00
8.220000000000000000e+02,-2.419860225185883895e-02,0.000000000000000000e+00
8.230000000000000000e+02,-2.130805443788252873e-01,0.000000000000000000e+00
8.240000000000000000e+02,5.362349981709899766e-03,0.000000000000000000e+00
8.250000000000000000e+02,-1.357811130456886839e-01,0.000000000000000000e+00
8.260000000000000000e+02,1.390688346500555672e-01,0.000000000000000000e+00
8.270000000000000000e+02,-1.145321112494759735e-01,0.000000000000000000e+00
8.280000000000000000e+02,6.570850024901118969e-02,0.000000000000000000e+00
8.290000000000000000e+02,-5.029332682224784117e-04,0.000000000000000000e+00
8.300000000000000000e+02,1.959640011140395266e-01,0.000000000000000000e+00
8.310000000000000000e+02,2.591651189302335290e-01,0.000000000000000000e+00
8.320000000000000000e+02,5.258917849667574806e-01,0.000000000000000000e+00
8.330000000000000000e+02,2.786209124186625474e-01,0.000000000000000000e+00
8.340000000000000000e+02,3.871870220035508736e-01,0.000000000000000000e+00
8.350000000000000000e+02,-2.340805773128981915e-01,0.000000000000000000e+00
8.360000000000000000e+02,-1.009709740725842908e-01,0.000000000000000000e+00
8.370000000000000000e+02,-2.167354611444214929e-01,0.000000000000000000e+00
8.380000000000000000e+02,-2.643164754295077024e-01,0.000000000000000000e+00
8.390000000000000000e+02,-2.965073899949678404e-01,0.000000000000000000e+00
8.400000000000000000e+02,-1.001403311537410051e-01,0.000000000000000000e+00
8.410000000000000000e+02,-2.018153024883418412e-01,0.000000000000000000e+00
8.420000000000000000e+02,-1.313672390354573283e-01,0.000000000000000000e+00
8.430000000000000000e+02,-2.237669925386186892e-02,0.000000000000000000e+00
8.440000000000000000e+02,3.529160110051571486e+00,0.000000000000000000e+00
8.450000000000000000e+02,7.743748812870274723e-01,1.000000000000000000e+00
8.460000000000000000e+02,-1.220425628381563765e+00,0.000000000000000000e+00
8.470000000000000000e+02,-5.399925952941397878e-01,0.000000000000000000e+00
8.480000000000000000e+02,-3.413215366056580602e-01,0.000000000000000000e+00
8.490000000000000000e+02,-2.000239874978451127e-01,0.000000000000000000e+00
8.500000000000000000e+02,-2.171441586585491634e-01,0.000000000000000000e+00
8.510000000000000000e+02,-6.876754253274995621e-02,0.000000000000000000e+00
8.520000000000000000e+02,-2.476657864760478320e-02,0.000000000000000000e+00
8.530000000000000000e+02,1.025293515935794958e-01,0.000000000000000000e+00
8.540000000000000000e+02,1.976688770336084977e-01,0.000000000000000000e+00
8.550000000000000000e+02,2.954329236856800822e-01,0.000000000000000000e+00
8.560000000000000000e+02,5.037892792756104576e-01,0.000000000000000000e+00
8.570000000000000000e+02,7.459554093518104834e-01,0.000000000000000000e+00
8.580000000000000000e+02,6.651683263141007219e-01,0.000000000000000000e+00
8.590000000000000000e+02,7.199005504067474970e-01,0.000000000000000000e+00
8.600000000000000000e+02,3.545498101907731958e-01,0.000000000000000000e+00
8.610000000000000000e+02,1.077186700449869888e-01,0.000000000000000000e+00
8.620000000000000000e+02,-2.000249208635736797e-01,0.000000000000000000e+00
8.630000000000000000e+02,-3.336111617829410902e-01,0.000000000000000000e+00
8.640000000000000000e+02,-5.545532406008875093e-01,0.000000000000000000e+00
8.650000000000000000e+02,-4.935073967260073524e-01,0.000000000000000000e+00
8.660000000000000000e+02,-6.085537397206985943e-01,0.000000000000000000e+00
8.670000000000000000e+02,-3.387594063218105078e-01,0.000000000000000000e+00
8.680000000000000000e+02,-3.667417552178731111e-01,0.000000000000000000e+00
8.690000000000000000e+02,-4.204853255972159642e-01,0.000000000000000000e+00
8.700000000000000000e+02,-3.199595994884499306e-01,0.000000000000000000e+00
8.710000000000000000e+02,-2.161581241844106605e-01,0.000000000000000000e+00
8.720000000000000000e+02,-2.238823336275728437e-01,0.000000000000000000e+00
8.730000000000000000e+02,-1.565415003428294871e-01,0.000000000000000000e+00
8.740000000000000000e+02,-2.005347208478621690e-01,0.000000000000000000e+00
8.750000000000000000e+02,-3.395978977033410340e-01,0.000000000000000000e+00
8.760000000000000000e+02,-9.043994344579775468e-02,0.000000000000000000e+00
8.770000000000000000e+02,-3.053530279946057857e-01,0.000000000000000000e+00
8.780000000000000000e+02,9.354272372348305248e-03,0.000000000000000000e+00
8.790000000000000000e+02,-1.707174146549728655e-01,0.000000000000000000e+00
8.800000000000000000e+02,-1.457555785519630276e-01,0.000000000000000000e+00
8.810000000000000000e+02,-3.799415674531606002e-02,0.000000000000000000e+00
8.820000000000000000e+02,-6.472136620924195949e-02,0.000000000000000000e+00
8.830000000000000000e+02,1.598680938306039911e-01,0.000000000000000000e+00
8.840000000000000000e+02,2.351243132367611954e-01,0.000000000000000000e+00
8.850000000000000000e+02,2.994766120019439204e-01,0.000000000000000000e+00
8.860000000000000000e+02,5.011139123430945475e-01,0.000000000000000000e+00
8.870000000000000000e+02,1.183926908924558680e-01,0.000000000000000000e+00
8.880000000000000000e+02,3.284382510070437550e-02,0.000000000000000000e+00
8.890000000000000000e+02,-2.264795985309360771e-01,0.000000000000000000e+00
8.900000000000000000e+02,-1.845339354179380553e-01,0.000000000000000000e+00
8.910000000000000000e+02,-2.550617739903638936e-01,0.000000000000000000e+00
8.920000000000000000e+02,-1.263997333799828371e-01,0.000000000000000000e+00
8.930000000000000000e+02,-2.387648470749931251e-01,0.000000000000000000e+00
8.940000000000000000e+02,9.773976077640402979e-03,0.000000000000000000e+00
8.950000000000000000e+02,-2.448022209057929000e-01,0.000000000000000000e+00
8.960000000000000000e+02,2.453134260929356047e-01,0.000000000000000000e+00
8.970000000000000000e+02,3.385761113402743661e+00,0.000000000000000000e+00
8.980000000000000000e+02,4.860129134506834259e-01,1.000000000000000000e+00
8.990000000000000000e+02,-1.301566085261072203e+00,0.000000000000000000e+00
9.000000000000000000e+02,-6.562861884595693196e-01,0.000000000000000000e+00
9.010000000000000000e+02,-9.565806931545590974e-02,0.000000000000000000e+00
9.020000000000000000e+02,-1.687102430847340628e-01,0.000000000000000000e+00
9.030000000000000000e+02,1.060311917949807378e-02,0.000000000000000000e+00
9.040000000000000000e+02,1.425521747042455233e-02,0.000000000000000000e+00
9.050000000000000000e+02,5.095107553945150275e-02,0.000000000000000000e+00
9.060000000000000000e+02,1.782555595962836414e-01,0.000000000000000000e+00
9.070000000000000000e+02,3.574446124125086888e-01,0.000000000000000000e+00
9.080000000000000000e+02,3.949020973097898679e-01,0.000000000000000000e+00
9.090000000000000000e+02,5.804614906531260221e-01,0.000000000000000000e+00
9.100000000000000000e+02,6.848917960102661739e-01,0.000000000000000000e+00
9.110000000000000000e+02,6.441070653661292722e-01,0.000000000000000000e+00
9.120000000000000000e+02,5.310129955153913839e-01,0.000000000000000000e+00
9.130000000000000000e+02,2.861091247915134028e-01,0.000000000000000000e+00
9.140000000000000000e+02,-1.233460599231010063e-01,0.000000000000000000e+00
9.150000000000000000e+02,-3.433505025787418619e-02,0.000000000000000000e+00
9.160000000000000000e+02,-5.265412908166654526e-01,0.000000000000000000e+00
9.170000000000000000e+02,-5.186516988548232066e-01,0.000000000000000000e+00
9.180000000000000000e+02,-5.701071153817235393e-01,0.000000000000000000e+00
9.190000000000000000e+02,-3.818561170848020492e-01,0.000000000000000000e+00
9.200000000000000000e+02,-5.255594896446953435e-01,0.000000000000000000e+00
9.210000000000000000e+02,-3.345105207025537153e-01,0.000000000000000000e+00
9.220000000000000000e+02,-3.370473126393240260e-01,0.000000000000000000e+00
9.230000000000000000e+02,-3.120459605408449355e-01,0.000000000000000000e+00
9.240000000000000000e+02,-1.499638330177218981e-01,0.000000000000000000e+00
9.250000000000000000e+02,-2.612822486157477253e-01,0.000000000000000000e+00
9.260000000000000000e+02,-1.188679656612002394e-01,0.000000000000000000e+00
9.270000000000000000e+02,-1.552820202343051792e-01,0.000000000000000000e+00
9.280000000000000000e+02,-1.088301150361790787e-01,0.000000000000000000e+00
9.290000000000000000e+02,-3.031099871876638541e-01,0.000000000000000000e+00
9.300000000000000000e+02,-7.006018490425769581e-03,0.000000000000000000e+00
9.310000000000000000e+02,-2.514526796334363712e-01,0.000000000000000000e+00
9.320000000000000000e+02,-1.715523366362501356e-01,0.000000000000000000e+00
9.330000000000000000e+02,-9.752715947751564030e-02,0.000000000000000000e+00
9.340000000000000000e+02,-9.081210937791253657e-02,0.000000000000000000e+00
9.350000000000000000e+02,-1.452150506966161103e-01,0.000000000000000000e+00
9.360000000000000000e+02,9.608595692980159697e-02,0.000000000000000000e+00
9.370000000000000000e+02,9.787803429959866797e-02,0.000000000000000000e+00
9.380000000000000000e+02,3.333251209030334561e-01,0.000000000000000000e+00
9.390000000000000000e+02,2.985895171286122030e-01,0.000000000000000000e+00
9.400000000000000000e+02,4.691684836409034665e-01,0.000000000000000000e+00
9.410000000000000000e+02,-2.668180997868039445e-02,0.000000000000000000e+00
9.420000000000000000e+02,-1.672186693884179787e-01,0.000000000000000000e+00
9.430000000000000000e+02,-8.873592187549350641e-02,0.000000000000000000e+00
9.440000000000000000e+02,-3.330304979189642745e-01,0.000000000000000000e+00
9.450000000000000000e+02,-1.834554507812225510e-01,0.000000000000000000e+00
9.460000000000000000e+02,-1.865510741210604229e-01,0.000000000000000000e+00
9.470000000000000000e+02,-1.728194344681665828e-01,0.000000000000000000e+00
9.480000000000000000e+02,-2.456817991081704580e-02,0.000000000000000000e+00
9.490000000000000000e+02,-5.273815116689289928e-01,0.000000000000000000e+00
9.500000000000000000e+02,2.308596320224994169e+00,0.000000000000000000e+00
9.510000000000000000e+02,2.541133538429251271e+00,0.000000000000000000e+00
9.520000000000000000e+02,-1.003151547583408298e+00,1.000000000000000000e+00
9.530000000000000000e+02,-8.937632523113197003e-01,0.000000000000000000e+00
9.540000000000000000e+02,-4.818042235983633348e-01,0.000000000000000000e+00
9.550000000000000000e+02,-2.204420062775909184e-01,0.000000000000000000e+00
9.560000000000000000e+02,-2.802780425349652993e-01,0.000000000000000000e+00
9.570000000000000000e+02,-1.685765534243252040e-01,0.000000000000000000e+00
9.580000000000000000e+02,-9.179272073337994831e-02,0.000000000000000000e+00
9.590000000000000000e+02,4.312468079172210311e-02,0.000000000000000000e+00
9.600000000000000000e+02,4.522351788412295320e-02,0.000000000000000000e+00
9.610000000000000000e+02,2.271913078040841139e-01,0.000000000000000000e+00
9.620000000000000000e+02,2.979712654311612585e-01,0.000000000000000000e+00
9.630000000000000000e+02,5.926373058127007987e-01,0.000000000000000000e+00
9.640000000000000000e+02,6.357452556805847088e-01,0.000000000000000000e+00
9.650000000000000000e+02,4.298937137406257936e-01,0.000000000000000000e+00
9.660000000000000000e+02,3.296915328093109609e-01,0.000000000000000000e+00
9.670000000000000000e+02,2.363145921583905962e-01,0.000000000000000000e+00
9.680000000000000000e+02,-1.350104355617028073e-01,0.000000000000000000e+00
9.690000000000000000e+02,-2.655951975650053254e-01,0.000000000000000000e+00
9.700000000000000000e+02,-5.362426820085400836e-01,0.000000000000000000e+00
9.710000000000000000e+02,-4.485469800035077892e-01,0.000000000000000000e+00
9.720000000000000000e+02,-4.299987514561992574e-01,0.000000000000000000e+00
9.730000000000000000e+02,-3.689565112454223916e-01,0.000000000000000000e+00
9.740000000000000000e+02,-4.178871345590097208e-01,0.000000000000000000e+00
9.750000000000000000e+02,-3.202422709004119628e-01,0.000000000000000000e+00
9.760000000000000000e+02,-4.195268120980324422e-01,0.000000000000000000e+00
9.770000000000000000e+02,-1.315032947248878092e-01,0.000000000000000000e+00
9.780000000000000000e+02,-1.867182043058966401e-01,0.000000000000000000e+00
9.790000000000000000e+02,-4.047047348657199263e-03,0.000000000000000000e+00
9.800000000000000000e+02,-2.351660052988359673e-01,0.000000000000000000e+00
9.810000000000000000e+02,-1.157166820929266399e-01,0.000000000000000000e+00
9.820000000000000000e+02,-1.443225030447417290e-01,0.000000000000000000e+00
9.830000000000000000e+02,1.163493861964425696e-02,0.000000000000000000e+00
9.840000000000000000e+02,-1.639153125846983250e-01,0.000000000000000000e+00
9.850000000000000000e+02,-4.702431310281497689e-02,0.000000000000000000e+00
9.860000000000000000e+02,-2.178224166600268852e-01,0.000000000000000000e+00
9.870000000000000000e+02,3.009079766600160962e-03,0.000000000000000000e+00
9.880000000000000000e+02,-1.855956702059221308e-01,0.000000000000000000e+00
9.890000000000000000e+02,7.912158541387671884e-02,0.000000000000000000e+00
9.900000000000000000e+02,6.923409701764847435e-02,0.000000000000000000e+00
9.910000000000000000e+02,2.409195602953509430e-01,0.000000000000000000e+00
9.920000000000000000e+02,3.814776364248835816e-01,0.000000000000000000e+00
9.930000000000000000e+02,2.479559660357723849e-01,0.000000000000000000e+00
9.940000000000000000e+02,2.632049284203251127e-01,0.000000000000000000e+00
9.950000000000000000e+02,-8.791372233340921660e-02,0.000000000000000000e+00
9.960000000000000000e+02,-2.693704999214445728e-01,0.000000000000000000e+00
9.970000000000000000e+02,-1.529950616895652538e-01,0.000000000000000000e+00
9.980000000000000000e+02,-2.896297646857245445e-01,0.000000000000000000e+00
9.990000000000000000e+02,-1.554888845973645406e-01,0.000000000000000000e+00
1.000000000000000000e+03,-2.152172489056394244e-01,0.000000000000000000e+00
1.001000000000000000e+03,1.086178269320662304e-01,0.000000000000000000e+00
1.002000000000000000e+03,-4.167717251195379169e-01,0.000000000000000000e+00
1.003000000000000000e+03,8.359147883127001633e-01,0.000000000000000000e+00
1.004000000000000000e+03,3.482570093826201418e+00,0.000000000000000000e+00
1.005000000000000000e+03,5.046392200393682442e-02,1.000000000000000000e+00
1.006000000000000000e+03,-8.505710418051578570e-01,0.000000000000000000e+00
1.007000000000000000e+03,-4.623004805311680676e-01,0.000000000000000000e+00
1.008000000000000000e+03,-2.708441594913947870e-01,0.000000000000000000e+00
1.009000000000000000e+03,-2.345687238090337634e-01,0.000000000000000000e+00
1.010000000000000000e+03,-2.771683509057971673e-01,0.000000000000000000e+00
1.011000000000000000e+03,-7.486047851181354407e-02,0.000000000000000000e+00
1.012000000000000000e+03,1.925567136909437120e-03,0.000000000000000000e+00
1.013000000000000000e+03,1.762134119717014558e-01,0.000000000000000000e+00
1.014000000000000000e+03,1.616684048570005694e-01,0.000000000000000000e+00
1.015000000000000000e+03,3.174813522842742097e-01,0.000000000000000000e+00
1.016000000000000000e+03,5.943314562753195807e-01,0.000000000000000000e+00
1.017000000000000000e+03,6.388552044871990132e-01,0.000000000000000000e+00
1.018000000000000000e+03,6.739777014730737870e-01,0.000000000000000000e+00
1.019000000000000000e+03,5.357956020637353323e-01,0.000000000000000000e+00
1.020000000000000000e+03,3.491882516290000238e-01,0.000000000000000000e+00
1.021000000000000000e+03,5.383605927518139711e-02,0.000000000000000000e+00
1.022000000000000000e+03,-1.193634935942976677e-01,0.000000000000000000e+00
1.023000000000000000e+03,-4.657698768623319552e-01,0.000000000000000000e+00
1.024000000000000000e+03,-4.449526279187434041e-01,0.000000000000000000e+00
1.025000000000000000e+03,-4.440104149833716263e-01,0.000000000000000000e+00
1.026000000000000000e+03,-3.238907585140449186e-01,0.000000000000000000e+00
1.027000000000000000e+03,-3.157023035252057297e-01,0.000000000000000000e+00
1.028000000000000000e+03,-2.365166652699591532e-01,0.000000000000000000e+00
1.029000000000000000e+03,-3.528340464288084455e-01,0.000000000000000000e+00
1.030000000000000000e+03,-2.257890351864262901e-01,0.000000000000000000e+00
1.031000000000000000e+03,-1.049399505744427891e-01,0.000000000000000000e+00
1.032000000000000000e+03,-2.701392123258888889e-01,0.000000000000000000e+00
1.033000000000000000e+03,-1.246542277010383171e-01,0.000000000000000000e+00
1.034000000000000000e+03,-2.269792797334755918e-01,0.000000000000000000e+00
1.035000000000000000e+03,-9.303160687859514388e-02,0.000000000000000000e+00
1.036000000000000000e+03,-1.472182867122364958e-01,0.000000000000000000e+00
1.037000000000000000e+03,-1.597582665519497458e-01,0.000000000000000000e+00
1.038000000000000000e+03,-9.289358612399542525e-02,0.000000000000000000e+00
1.039000000000000000e+03,-1.004059824416991403e-01,0.000000000000000000e+00
1.040000000000000000e+03,-9.583415116568481940e-02,0.000000000000000000e+00
1.041000000000000000e+03,-7.065654280132360743e-02,0.000000000000000000e+00
1.042000000000000000e+03,4.839885043929319230e-02,0.000000000000000000e+00
1.043000000000000000e+03,2.013570683673329420e-01,0.000000000000000000e+00
1.044000000000000000e+03,2.598329781051385567e-01,0.000000000000000000e+00
1.045000000000000000e+03,4.566730060317990558e-01,0.000000000000000000e+00
1.046000000000000000e+03,3.506438628171890115e-01,0.000000000000000000e+00
1.047000000000000000e+03,2.271358109123829128e-01,0.000000000000000000e+00
1.048000000000000000e+03,1.665328773176935270e-02,0.000000000000000000e+00
1.049000000000000000e+03,-3.059572100158188812e-01,0.000000000000000000e+00
1.050000000000000000e+03,-9.637024276031987136e-02,0.000000000000000000e+00
1.051000000000000000e+03,-2.933705488804901895e-01,0.000000000000000000e+00
1.052000000000000000e+03,-1.546892245924661735e-01,0.000000000000000000e+00
1.053000000000000000e+03,-2.038780279528369377e-01,0.000000000000000000e+00
1.054000000000000000e+03,-5.514729202739797331e-02,0.000000000000000000e+00
1.055000000000000000e+03,-4.444854122184784817e-01,0.000000000000000000e+00
1.056000000000000000e+03,6.757680783957382697e-01,0.000000000000000000e+00
1.057000000000000000e+03,3.585719438109266743e+00,0.000000000000000000e+00
1.058000000000000000e+03,7.600281155361340857e-02,1.000000000000000000e+00
1.059000000000000000e+03,-8.768961282550800096e-01,0.000000000000000000e+00
1.060000000000000000e+03,-6.053002940827897360e-01,0.000000000000000000e+00
1.061000000000000000e+03,-2.425955384278840332e-01,0.000000000000000000e+00
1.062000000000000000e+03,-4.785716406857397631e-01,0.000000000000000000e+00
1.063000000000000000e+03,-9.266646204569740919e-02,0.000000000000000000e+00
1.064000000000000000e+03,-3.087056180012566764e-01,0.000000000000000000e+00
1.065000000000000000e+03,-6.461256727425415680e-02,0.000000000000000000e+00
1.066000000000000000e+03,1.471371436433492261e-02,0.000000000000000000e+00
1.067000000000000000e+03,1.503139789918344071e-01,0.000000000000000000e+00
1.068000000000000000e+03,3.603142905997401280e-01,0.000000000000000000e+00
1.069000000000000000e+03,4.077917352729217848e-01,0.000000000000000000e+00
1.070000000000000000e+03,6.226730447449974060e-01,0.000000000000000000e+00
1.071000000000000000e+03,6.379147412063788103e-01,0.000000000000000000e+00
1.072000000000000000e+03,4.986666733139735741e-01,0.000000000000000000e+00
1.073000000000000000e+03,3.164432633102265413e-01,0.000000000000000000e+00
1.074000000000000000e+03,7.156028471977901248e-03,0.000000000000000000e+00
1.075000000000000000e+03,-2.994019215891176589e-01,0.000000000000000000e+00
1.076000000000000000e+03,-3.836929793768019126e-01,0.000000000000000000e+00
1.077000000000000000e+03,-5.982279771511779254e-01,0.000000000000000000e+00
1.078000000000000000e+03,-5.332704003795503134e-01,0.000000000000000000e+00
1.079000000000000000e+03,-4.364725208103297782e-01,0.000000000000000000e+00
1.080000000000000000e+03,-5.633014952758684801e-01,0.000000000000000000e+00
1.081000000000000000e+03,-3.490904340107944814e-01,0.000000000000000000e+00
1.082000000000000000e+03,-4.254518410381745164e-01,0.000000000000000000e+00
1.083000000000000000e+03,-2.327154478354576395e-01,0.000000000000000000e+00
1.084000000000000000e+03,-3.179497163188771403e-01,0.000000000000000000e+00
1.085000000000000000e+03,-1.795271135802455897e-01,0.000000000000000000e+00
1.086000000000000000e+03,-2.886741155077462984e-01,0.000000000000000000e+00
1.087000000000000000e+03,-6.272007323805993406e-02,0.000000000000000000e+00
1.088000000000000000e+03,-2.753174532069032066e-01,0.000000000000000000e+00
1.089000000000000000e+03,-6.466543648322313487e-02,0.000000000000000000e+00
1.090000000000000000e+03,-1.428630595718556884e-01,0.000000000000000000e+00
1.091000000000000000e+03,-1.548295946240879351e-01,0.000000000000000000e+00
1.092000000000000000e+03,-8.536144568460245219e-02,0.000000000000000000e+00
1.093000000000000000e+03,-4.409914863140256686e-02,0.000000000000000000e+00
1.094000000000000000e+03,-1.126818161455939438e-01,0.000000000000000000e+00
1.095000000000000000e+03,4.255733676809359683e-02,0.000000000000000000e+00
1.096000000000000000e+03,-1.094085044445365223e-01,0.000000000000000000e+00
1.097000000000000000e+03,2.116905172273148006e-01,0.000000000000000000e+00
1.098000000000000000e+03,2.384670299923501158e-01,0.000000000000000000e+00
1.099000000000000000e+03,3.334788595949488288e-01,0.000000000000000000e+00
1.100000000000000000e+03,4.051331449308641641e-01,0.000000000000000000e+00
1.101000000000000000e+03,3.946147565691083270e-01,0.000000000000000000e+00
1.102000000000000000e+03,5.248165944398241328e-02,0.000000000000000000e+00
1.103000000000000000e+03,-1.130085964168085766e-01,0.000000000000000000e+00
1.104000000000000000e+03,-2.358654818353158877e-01,0.000000000000000000e+00
1.105000000000000000e+03,-9.577534399531499598e-02,0.000000000000000000e+00
1.106000000000000000e+03,-3.181238936110573068e-01,0.000000000000000000e+00
1.107000000000000000e+03,-9.050228140608097827e-02,0.000000000000000000e+00
1.108000000000000000e+03,-1.367793077727156026e-01,0.000000000000000000e+00
1.109000000000000000e+03,1.146328756966513707e-01,0.000000000000000000e+00
1.110000000000000000e+03,-5.343316587565095643e-01,0.000000000000000000e+00
1.111000000000000000e+03,2.424418474106972532e+00,0.000000000000000000e+00
1.112000000000000000e+03,2.474869245562872688e+00,0.000000000000000000e+00
1.113000000000000000e+03,-1.008667538840764655e+00,1.000000000000000000e+00
1.114000000000000000e+03,-4.592904662560843287e-01,0.000000000000000000e+00
1.115000000000000000e+03,-3.798414632049922912e-01,0.000000000000000000e+00
1.116000000000000000e+03,-3.726195543773280217e-01,0.000000000000000000e+00
1.117000000000000000e+03,-2.384623328361740735e-01,0.000000000000000000e+00
1.118000000000000000e+03,-1.945419984892110821e-01,0.000000000000000000e+00
1.119000000000000000e+03,-6.895006179468957108e-02,0.000000000000000000e+00
1.120000000000000000e+03,1.288089488283071793e-01,0.000000000000000000e+00
1.121000000000000000e+03,7.602231707055260787e-03,0.000000000000000000e+00
1.122000000000000000e+03,2.577135954888479796e-01,0.000000000000000000e+00
1.123000000000000000e+03,2.850454586598493711e-01,0.000000000000000000e+00
1.124000000000000000e+03,7.189072652793911944e-01,0.000000000000000000e+00
1.125000000000000000e+03,6.033498410146049817e-01,0.000000000000000000e+00
1.126000000000000000e+03,6.777417101052009007e-01,0.000000000000000000e+00
1.127000000000000000e+03,3.393183342466173369e-01,0.000000000000000000e+00
1.128000000000000000e+03,2.313228819959398108e-01,0.000000000000000000e+00
1.129000000000000000e+03,-4.847197689211565214e-02,0.000000000000000000e+00
1.130000000000000000e+03,-2.854745176602627721e-01,0.000000000000000000e+00
1.131000000000000000e+03,-4.654826747681959365e-01,0.000000000000000000e+00
1.132000000000000000e+03,-6.390095828869595262e-01,0.000000000000000000e+00
1.133000000000000000e+03,-5.497421669655743193e-01,0.000000000000000000e+00
1.134000000000000000e+03,-4.959631239123719060e-01,0.000000000000000000e+00
1.135000000000000000e+03,-3.898095657453762297e-01,0.000000000000000000e+00
1.136000000000000000e+03,-4.198865468281228752e-01,0.000000000000000000e+00
1.137000000000000000e+03,-3.628769246502788204e-01,0.000000000000000000e+00
1.138000000000000000e+03,-2.695236388113173565e-01,0.000000000000000000e+00
1.139000000000000000e+03,-2.784100201347097792e-01,0.000000000000000000e+00
1.140000000000000000e+03,-2.204896493951812309e-01,0.000000000000000000e+00
1.141000000000000000e+03,-2.368425268654754667e-01,0.000000000000000000e+00
1.142000000000000000e+03,-1.918109302593648535e-01,0.000000000000000000e+00
1.143000000000000000e+03,-1.341516976881431400e-01,0.000000000000000000e+00
1.144000000000000000e+03,-2.645770206683351056e-01,0.000000000000000000e+00
1.145000000000000000e+03,-9.746375123233813609e-02,0.000000000000000000e+00
1.146000000000000000e+03,-1.894346804016181496e-01,0.000000000000000000e+00
1.147000000000000000e+03,-1.853225932006852261e-01,0.000000000000000000e+00
1.148000000000000000e+03,-1.299441135584900595e-04,0.000000000000000000e+00
1.149000000000000000e+03,-6.009790329186843680e-03,0.000000000000000000e+00
1.150000000000000000e+03,5.517476010191785241e-02,0.000000000000000000e+00
1.151000000000000000e+03,2.452109255053422365e-01,0.000000000000000000e+00
1.152000000000000000e+03,4.017686874382699891e-01,0.000000000000000000e+00
1.153000000000000000e+03,4.059887704394493646e-01,0.000000000000000000e+00
1.154000000000000000e+03,1.991942954133295030e-01,0.000000000000000000e+00
1.155000000000000000e+03,-8.314370363132138342e-02,0.000000000000000000e+00
1.156000000000000000e+03,-2.329482840525732568e-01,0.000000000000000000e+00
1.157000000000000000e+03,-2.808826823954709839e-01,0.000000000000000000e+00
1.158000000000000000e+03,-2.920532906437873777e-01,0.000000000000000000e+00
1.159000000000000000e+03,-2.934109879762914624e-02,0.000000000000000000e+00
1.160000000000000000e+03,-2.522999300036289916e-01,0.000000000000000000e+00
1.161000000000000000e+03,-8.895665615862877185e-02,0.000000000000000000e+00
1.162000000000000000e+03,-3.584035318582636243e-01,0.000000000000000000e+00
1.163000000000000000e+03,4.377727002707427206e-01,0.000000000000000000e+00
1.164000000000000000e+03,3.380433645922719332e+00,0.000000000000000000e+00
1.165000000000000000e+03,1.392392206725603931e-01,1.000000000000000000e+00
1.166000000000000000e+03,-1.274570775110305254e+00,0.000000000000000000e+00
1.167000000000000000e+03,-4.773138609470964910e-01,0.000000000000000000e+00
1.168000000000000000e+03,-2.513797947760071372e-01,0.000000000000000000e+00
1.169000000000000000e+03,-1.456974619082500866e-01,0.000000000000000000e+00
1.170000000000000000e+03,-1.174369745088544616e-02,0.000000000000000000e+00
1.171000000000000000e+03,1.182275679468329163e-02,0.000000000000000000e+00
1.172000000000000000e+03,6.447483974054525613e-02,0.000000000000000000e+00
1.173000000000000000e+03,2.306746213571022608e-01,0.000000000000000000e+00
1.174000000000000000e+03,2.661007738050915061e-01,0.000000000000000000e+00
1.175000000000000000e+03,4.809575670561732075e-01,0.000000000000000000e+00
1.176000000000000000e+03,6.120703299955830845e-01,0.000000000000000000e+00
1.177000000000000000e+03,7.589666455414950663e-01,0.000000000000000000e+00
1.178000000000000000e+03,8.330731403091343745e-01,0.000000000000000000e+00
1.179000000000000000e+03,5.143378158120083254e-01,0.000000000000000000e+00
1.180000000000000000e+03,4.112380833726784202e-01,0.000000000000000000e+00
1.181000000000000000e+03,1.271117127868938435e-01,0.000000000000000000e+00
1.182000000000000000e+03,-1.739465928653881610e-01,0.000000000000000000e+00
1.183000000000000000e+03,-2.998632944697670055e-01,0.000000000000000000e+00
1.184000000000000000e+03,-4.411359953602761452e-01,0.000000000000000000e+00
1.185000000000000000e+03,-5.736268691182179191e-01,0.000000000000000000e+00
1.186000000000000000e+03,-3.236884428209385045e-01,0.000000000000000000e+00
1.187000000000000000e+03,-4.725233265777522562e-01,0.000000000000000000e+00
1.188000000000000000e+03,-2.752444513458160991e-01,0.000000000000000000e+00
1.189000000000000000e+03,-2.765718630419155555e-01,0.000000000000000000e+00
1.190000000000000000e+03,-2.796655312247969261e-01,0.000000000000000000e+00
1.191000000000000000e+03,-1.698519521404826538e-01,0.000000000000000000e+00
1.192000000000000000e+03,-3.082692878959067406e-01,0.000000000000000000e+00
1.193000000000000000e+03,-7.014876032963731321e-03,0.000000000000000000e+00
1.194000000000000000e+03,-2.436784435336832033e-01,0.000000000000000000e+00
1.195000000000000000e+03,-5.073137645580179378e-02,0.000000000000000000e+00
1.196000000000000000e+03,-3.172718396157280796e-01,0.000000000000000000e+00
1.197000000000000000e+03,-1.274903371613258507e-01,0.000000000000000000e+00
1.198000000000000000e+03,-1.963115094220040657e-01,0.000000000000000000e+00
1.199000000000000000e+03,-1.934973313742080758e-01,0.000000000000000000e+00
1.200000000000000000e+03,-5.099130053993779915e-02,0.000000000000000000e+00
1.201000000000000000e+03,-1.882550355720656043e-01,0.000000000000000000e+00
1.202000000000000000e+03,-3.432089521666072118e-02,0.000000000000000000e+00
1.203000000000000000e+03,1.267603145480298843e-01,0.000000000000000000e+00
1.204000000000000000e+03,2.009211644527670801e-02,0.000000000000000000e+00
1.205000000000000000e+03,2.852923039510236181e-01,0.000000000000000000e+00
1.206000000000000000e+03,3.676374217687896073e-01,0.000000000000000000e+00
1.207000000000000000e+03,3.069564141584277817e-01,0.000000000000000000e+00
1.208000000000000000e+03,-6.103908934719573520e-02,0.000000000000000000e+00
1.209000000000000000e+03,-1.350861688403828809e-01,0.000000000000000000e+00
1.210000000000000000e+03,-2.337113192631521952e-01,0.000000000000000000e+00
1.211000000000000000e+03,-1.312735068385095794e-01,0.000000000000000000e+00
1.212000000000000000e+03,-2.311758971440861510e-01,0.000000000000000000e+00
1.213000000000000000e+03,-6.655093719526584961e-02,0.000000000000000000e+00
1.214000000000000000e+03,-9.123005470630171643e-02,0.000000000000000000e+00
1.215000000000000000e+03,5.917325216951578593e-02,0.000000000000000000e+00
1.216000000000000000e+03,-5.667337400756445875e-01,0.000000000000000000e+00
1.217000000000000000e+03,2.562449494428360453e+00,0.000000000000000000e+00
1.218000000000000000e+03,1.884041417716321387e+00,0.000000000000000000e+00
1.219000000000000000e+03,-1.172542159765591174e+00,1.000000000000000000e+00
1.220000000000000000e+03,-8.343752376534161463e-01,0.000000000000000000e+00
1.221000000000000000e+03,-3.419163172993863742e-01,0.000000000000000000e+00
1.222000000000000000e+03,1.403105825334915319e-02,0.000000000000000000e+00
1.223000000000000000e+03,-2.032906544250027425e-01,0.000000000000000000e+00
1.224000000000000000e+03,3.571366650505495687e-03,0.000000000000000000e+00
1.225000000000000000e+03,5.533615391935738093e-02,0.000000000000000000e+00
1.226000000000000000e+03,1.185910900752478597e-01,0.000000000000000000e+00
1.227000000000000000e+03,2.637821917953570017e-01,0.000000000000000000e+00
1.228000000000000000e+03,2.911728135244841531e-01,0.000000000000000000e+00
1.229000000000000000e+03,5.775228887576192571e-01,0.000000000000000000e+00
1.230000000000000000e+03,4.980915698275372727e-01,0.000000000000000000e+00
1.231000000000000000e+03,5.835431499504988295e-01,0.000000000000000000e+00
1.232000000000000000e+03,6.929605583475592079e-01,0.000000000000000000e+00
1.233000000000000000e+03,3.712122501622254211e-01,0.000000000000000000e+00
1.234000000000000000e+03,1.899113723559514300e-01,0.000000000000000000e+00
1.235000000000000000e+03,-1.267738470884342827e-01,0.000000000000000000e+00
1.236000000000000000e+03,-2.445063835737426583e-01,0.000000000000000000e+00
1.237000000000000000e+03,-5.151758916340499761e-01,0.000000000000000000e+00
1.238000000000000000e+03,-5.119040699490443602e-01,0.000000000000000000e+00
1.239000000000000000e+03,-5.053488105302966771e-01,0.000000000000000000e+00
1.240000000000000000e+03,-3.623716020028834861e-01,0.000000000000000000e+00
1.241000000000000000e+03,-4.384912398476039086e-01,0.000000000000000000e+00
1.242000000000000000e+03,-3.728536254605716582e-01,0.000000000000000000e+00
1.243000000000000000e+03,-2.462539806929775477e-01,0.000000000000000000e+00
1.244000000000000000e+03,-1.972425799657665513e-01,0.000000000000000000e+00
1.245000000000000000e+03,-2.070155884160017612e-01,0.000000000000000000e+00
1.246000000000000000e+03,-1.059512064476091642e-01,0.000000000000000000e+00
1.247000000000000000e+03,-1.947874674130199990e-01,0.000000000000000000e+00
1.248000000000000000e+03,-1.110719615538931643e-01,0.000000000000000000e+00
1.249000000000000000e+03,-2.864019688782074025e-01,0.000000000000000000e+00
1.250000000000000000e+03,-3.048811849886807687e-02,0.000000000000000000e+00
1.251000000000000000e+03,-2.774519965116725717e-01,0.000000000000000000e+00
1.252000000000000000e+03,-8.252816078089872387e-02,0.000000000000000000e+00
1.253000000000000000e+03,-2.119924379248630808e-01,0.000000000000000000e+00
1.254000000000000000e+03,-1.109261342150829194e-01,0.000000000000000000e+00
1.255000000000000000e+03,1.087893971085806405e-02,0.000000000000000000e+00
1.256000000000000000e+03,8.830223526550592950e-02,0.000000000000000000e+00
1.257000000000000000e+03,8.210753329503146791e-02,0.000000000000000000e+00
1.258000000000000000e+03,3.339841167572648595e-01,0.000000000000000000e+00
1.259000000000000000e+03,2.405279099829990552e-01,0.000000000000000000e+00
1.260000000000000000e+03,1.996473337964663197e-01,0.000000000000000000e+00
1.261000000000000000e+03,-1.761371648162992840e-02,0.000000000000000000e+00
1.262000000000000000e+03,-2.176984320157789865e-01,0.000000000000000000e+00
1.263000000000000000e+03,-2.266717667235286504e-01,0.000000000000000000e+00
1.264000000000000000e+03,-3.480375095330097146e-01,0.000000000000000000e+00
1.265000000000000000e+03,-2.678922193864197721e-01,0.000000000000000000e+00
1.266000000000000000e+03,-1.865452650305023941e-01,0.000000000000000000e+00
1.267000000000000000e+03,-1.277178896083940307e-01,0.000000000000000000e+00
1.268000000000000000e+03,-3.306524944067889549e-01,0.000000000000000000e+00
1.269000000000000000e+03,1.999389743979399781e-01,0.000000000000000000e+00
1.270000000000000000e+03,3.247753964335807098e+00,0.000000000000000000e+00
1.271000000000000000e+03,7.025802233406885922e-01,1.000000000000000000e+00
1.272000000000000000e+03,-1.043375634077629455e+00,0.000000000000000000e+00
1.273000000000000000e+03,-7.430256676035263963e-01,0.000000000000000000e+00
1.274000000000000000e+03,-2.488268995432462438e-01,0.000000000000000000e+00
1.275000000000000000e+03,-3.332603301095680148e-01,0.000000000000000000e+00
1.276000000000000000e+03,-1.297102962856719333e-01,0.000000000000000000e+00
1.277000000000000000e+03,-1.334225968062622003e-01,0.000000000000000000e+00
1.278000000000000000e+03,-5.552435292460643212e-02,0.000000000000000000e+00
1.279000000000000000e+03,1.192269333235534690e-01,0.000000000000000000e+00
1.280000000000000000e+03,1.464964599558438718e-01,0.000000000000000000e+00
1.281000000000000000e+03,2.560444509803651569e-01,0.000000000000000000e+00
1.282000000000000000e+03,4.411814384751637230e-01,0.000000000000000000e+00
1.283000000000000000e+03,5.839494082712399781e-01,0.000000000000000000e+00
1.284000000000000000e+03,6.209341018033105453e-01,0.000000000000000000e+00
1.285000000000000000e+03,5.963346182835457254e-01,0.000000000000000000e+00
1.286000000000000000e+03,3.064516959332713730e-01,0.000000000000000000e+00
1.287000000000000000e+03,-1.747365555342353730e-02,0.000000000000000000e+00
1.288000000000000000e+03,-2.288328909219629059e-01,0.000000000000000000e+00
1.289000000000000000e+03,-4.195475284822782758e-01,0.000000000000000000e+00
1.290000000000000000e+03,-4.503231372728934701e-01,0.000000000000000000e+00
1.291000000000000000e+03,-5.977008211912988589e-01,0.000000000000000000e+00
1.292000000000000000e+03,-3.858547326388356291e-01,0.000000000000000000e+00
1.293000000000000000e+03,-5.265171421732904866e-01,0.000000000000000000e+00
1.294000000000000000e+03,-2.170193039989666006e-01,0.000000000000000000e+00
1.295000000000000000e+03,-3.570534842630080918e-01,0.000000000000000000e+00
1.296000000000000000e+03,-1.868497887253201262e-01,0.000000000000000000e+00
1.297000000000000000e+03,-2.483053701702689076e-01,0.000000000000000000e+00
1.298000000000000000e+03,-1.197556060081707979e-01,0.000000000000000000e+00
1.299000000000000000e+03,-5.261615999703507518e-02,0.000000000000000000e+00
1.300000000000000000e+03,-9.039305284769830195e-03,0.000000000000000000e+00
1.301000000000000000e+03,-6.938018735603604381e-02,0.000000000000000000e+00
1.302000000000000000e+03,-6.738027614873258464e-02,0.000000000000000000e+00
1.303000000000000000e+03,-1.311237129825471581e-01,0.000000000000000000e+00
1.304000000000000000e+03,-1.029300496227850180e-03,0.000000000000000000e+00
1.305000000000000000e+03,-8.599845929272660616e-02,0.000000000000000000e+00
1.306000000000000000e+03,-1.994677099145633625e-02,0.000000000000000000e+00
1.307000000000000000e+03,1.297003800671613083e-01,0.000000000000000000e+00
1.308000000000000000e+03,1.011739389323378507e-01,0.000000000000000000e+00
1.309000000000000000e+03,3.180736075459862922e-01,0.000000000000000000e+00
1.310000000000000000e+03,3.933412962282799574e-01,0.000000000000000000e+00
1.311000000000000000e+03,4.604112676515280667e-01,0.000000000000000000e+00
1.312000000000000000e+03,3.442167423733908937e-01,0.000000000000000000e+00
1.313000000000000000e+03,1.236087679612883489e-01,0.000000000000000000e+00
1.314000000000000000e+03,-1.309075048595557261e-02,0.000000000000000000e+00
1.315000000000000000e+03,-2.402810323043998164e-01,0.000000000000000000e+00
1.316000000000000000e+03,-1.354631660207346322e-01,0.000000000000000000e+00
1.317000000000000000e+03,-3.369029141443686259e-01,0.000000000000000000e+00
1.318000000000000000e+03,-9.999390302254904106e-02,0.000000000000000000e+00
1.319000000000000000e+03,-2.053089418783262399e-01,0.000000000000000000e+00
1.320000000000000000e+03,9.275432659688069570e-02,0.000000000000000000e+00
1.321000000000000000e+03,-3.606520689799183610e-01,0.000000000000000000e+00
1.322000000000000000e+03,2.947417017643336745e+00,0.000000000000000000e+00
1.323000000000000000e+03,1.841813122150582238e+00,1.000000000000000000e+00
1.324000000000000000e+03,-1.061633862663714511e+00,0.000000000000000000e+00
1.325000000000000000e+03,-5.309500488726280887e-01,0.000000000000000000e+00
1.326000000000000000e+03,-4.477703457593707470e-01,0.000000000000000000e+00
1.327000000000000000e+03,-1.944334107317370886e-01,0.000000000000000000e+00
1.328000000000000000e+03,-2.939918317046826268e-01,0.000000000000000000e+00
1.329000000000000000e+03,-2.337024992109391075e-01,0.000000000000000000e+00
1.330000000000000000e+03,-1.873145484573440489e-01,0.000000000000000000e+00
1.331000000000000000e+03,4.528109160559375124e-02,0.000000000000000000e+00
1.332000000000000000e+03,1.833097306399992079e-03,0.000000000000000000e+00
1.333000000000000000e+03,1.850715948003174016e-01,0.000000000000000000e+00
1.334000000000000000e+03,3.632858030537469141e-01,0.000000000000000000e+00
1.335000000000000000e+03,5.049218581362662217e-01,0.000000000000000000e+00
1.336000000000000000e+03,7.004086373091801265e-01,0.000000000000000000e+00
1.337000000000000000e+03,5.647380753711219725e-01,0.000000000000000000e+00
1.338000000000000000e+03,3.735363301675510006e-01,0.000000000000000000e+00
1.339000000000000000e+03,1.825227391018369449e-01,0.000000000000000000e+00
1.340000000000000000e+03,-1.861190251116006111e-01,0.000000000000000000e+00
1.341000000000000000e+03,-2.829313963849668379e-01,0.000000000000000000e+00
1.342000000000000000e+03,-5.300083288658506975e-01,0.000000000000000000e+00
1.343000000000000000e+03,-4.444772432214200708e-01,0.000000000000000000e+00
1.344000000000000000e+03,-4.055572138928280612e-01,0.000000000000000000e+00
1.345000000000000000e+03,-5.509377899122896993e-01,0.000000000000000000e+00
1.346000000000000000e+03,-2.964596184598425888e-01,0.000000000000000000e+00
1.347000000000000000e+03,-3.623767047810593778e-01,0.000000000000000000e+00
1.348000000000000000e+03,-2.575074268478251271e-01,0.000000000000000000e+00
1.349000000000000000e+03,-2.613216772099650753e-01,0.000000000000000000e+00
1.350000000000000000e+03,-1.430171927899224482e-01,0.000000000000000000e+00
1.351000000000000000e+03,-2.868083875130789662e-01,0.000000000000000000e+00
1.352000000000000000e+03,-1.261035458752320926e-01,0.000000000000000000e+00
1.353000000000000000e+03,-1.354414801237771859e-01,0.000000000000000000e+00
1.354000000000000000e+03,-9.392146495118859628e-02,0.000000000000000000e+00
1.355000000000000000e+03,-1.486690341181492458e-01,0.000000000000000000e+00
1.356000000000000000e+03,-3.727628630513350055e-02,0.000000000000000000e+00
1.357000000000000000e+03,-2.338590498565830123e-01,0.000000000000000000e+00
1.358000000000000000e+03,-2.421128446781842941e-02,0.000000000000000000e+00
1.359000000000000000e+03,-1.320232402057746057e-01,0.000000000000000000e+00
1.360000000000000000e+03,1.426429831756623190e-01,0.000000000000000000e+00
1.361000000000000000e+03,4.087884313913044132e-02,0.000000000000000000e+00
1.362000000000000000e+03,2.826705367876961028e-01,0.000000000000000000e+00
1.363000000000000000e+03,4.389847697576412799e-01,0.000000000000000000e+00
1.364000000000000000e+03,3.233400225297705655e-01,0.000000000000000000e+00
1.365000000000000000e+03,4.209178485035582756e-02,0.000000000000000000e+00
1.366000000000000000e+03,-1.828670092447550466e-01,0.000000000000000000e+00
1.367000000000000000e+03,-2.869067014339857780e-01,0.000000000000000000e+00
1.368000000000000000e+03,-2.809198767503877647e-01,0.000000000000000000e+00
1.369000000000000000e+03,-2.093482204642586886e-01,0.000000000000000000e+00
1.370000000000000000e+03,-8.808494871411121085e-02,0.000000000000000000e+00
1.371000000000000000e+03,-2.985925009167570421e-01,0.000000000000000000e+00
1.372000000000000000e+03,2.641488340790073761e-02,0.000000000000000000e+00
1.373000000000000000e+03,-6.559732659077044392e-01,0.000000000000000000e+00
1.374000000000000000e+03,2.132954246935395926e+00,0.000000000000000000e+00
1.375000000000000000e+03,2.673674715321436857e+00,0.000000000000000000e+00
1.376000000000000000e+03,-9.349921144938292406e-01,1.000000000000000000e+00
1.377000000000000000e+03,-5.071337963760871315e-01,0.000000000000000000e+00
1.378000000000000000e+03,-5.701798493359334641e-01,0.000000000000000000e+00
1.379000000000000000e+03,-2.036955945885634833e-01,0.000000000000000000e+00
1.380000000000000000e+03,-4.956361601654699633e-01,0.000000000000000000e+00
1.381000000000000000e+03,9.247670824376710494e-03,0.000000000000000000e+00
1.382000000000000000e+03,-2.482654566414171093e-01,0.000000000000000000e+00
1.383000000000000000e+03,6.961611731837602512e-02,0.000000000000000000e+00
1.384000000000000000e+03,-1.885447418845154488e-01,0.000000000000000000e+00
1.385000000000000000e+03,2.227249881881187832e-01,0.000000000000000000e+00
1.386000000000000000e+03,3.567999107478567744e-01,0.000000000000000000e+00
1.387000000000000000e+03,6.640115520587843712e-01,0.000000000000000000e+00
1.388000000000000000e+03,5.847143012699180797e-01,0.000000000000000000e+00
1.389000000000000000e+03,6.868129854639059007e-01,0.000000000000000000e+00
1.390000000000000000e+03,4.102370615481938931e-01,0.000000000000000000e+00
1.391000000000000000e+03,2.363033384531041947e-01,0.000000000000000000e+00
1.392000000000000000e+03,-1.761813119792084159e-01,0.000000000000000000e+00
1.393000000000000000e+03,-1.783676640296860405e-01,0.000000000000000000e+00
1.394000000000000000e+03,-5.060673243222791884e-01,0.000000000000000000e+00
1.395000000000000000e+03,-4.710197674807645729e-01,0.000000000000000000e+00
1.396000000000000000e+03,-5.658629661366688657e-01,0.000000000000000000e+00
1.397000000000000000e+03,-3.308803596278114822e-01,0.000000000000000000e+00
1.398000000000000000e+03,-3.273228692806359197e-01,0.000000000000000000e+00
1.399000000000000000e+03,-2.904752631562004805e-01,0.000000000000000000e+00
1.400000000000000000e+03,-3.485149502148083833e-01,0.000000000000000000e+00
1.401000000000000000e+03,-1.943659509484790271e-01,0.000000000000000000e+00
1.402000000000000000e+03,-2.346107385049885086e-01,0.000000000000000000e+00
1.403000000000000000e+03,-2.174891420183193702e-01,0.000000000000000000e+00
1.404000000000000000e+03,-1.074804077469961316e-01,0.000000000000000000e+00
1.405000000000000000e+03,-1.979621292537953325e-01,0.000000000000000000e+00
1.406000000000000000e+03,-1.579452738707306514e-01,0.000000000000000000e+00
1.407000000000000000e+03,9.766089184057487067e-04,0.000000000000000000e+00
1.408000000000000000e+03,-1.532900736189063695e-01,0.000000000000000000e+00
1.409000000000000000e+03,-7.470856937901119987e-02,0.000000000000000000e+00
1.410000000000000000e+03,-1.278582533442267910e-01,0.000000000000000000e+00
1.411000000000000000e+03,-8.523460167624665948e-03,0.000000000000000000e+00
1.412000000000000000e+03,-5.553433783730932216e-02,0.000000000000000000e+00
1.413000000000000000e+03,2.796593356681689180e-01,0.000000000000000000e+00
1.414000000000000000e+03,2.672872061688992273e-01,0.000000000000000000e+00
1.415000000000000000e+03,3.876447729758676908e-01,0.000000000000000000e+00
1.416000000000000000e+03,3.587767681201974312e-01,0.000000000000000000e+00
1.417000000000000000e+03,3.749091896638298560e-01,0.000000000000000000e+00
1.418000000000000000e+03,-1.528714428795556746e-01,0.000000000000000000e+00
1.419000000000000000e+03,-9.324613051843680389e-02,0.000000000000000000e+00
1.420000000000000000e+03,-2.934309702701015099e-01,0.000000000000000000e+00
1.421000000000000000e+03,-1.003754740125785416e-01,0.000000000000000000e+00
1.422000000000000000e+03,-2.509703006032969475e-01,0.000000000000000000e+00
1.423000000000000000e+03,-1.012095733395878931e-03,0.000000000000000000e+00
1.424000000000000000e+03,-3.171651455354838056e-01,0.000000000000000000e+00
1.425000000000000000e+03,-6.166618410699743758e-03,0.000000000000000000e+00
1.426000000000000000e+03,-2.406656665420152386e-01,0.000000000000000000e+00
1.427000000000000000e+03,3.224041834399208550e+00,0.000000000000000000e+00
1.428000000000000000e+03,1.415535365271654245e+00,1.000000000000000000e+00
1.429000000000000000e+03,-9.537528074404161282e-01,0.000000000000000000e+00
1.430000000000000000e+03,-5.257356568363398264e-01,0.000000000000000000e+00
1.431000000000000000e+03,-3.818589629721226286e-01,0.000000000000000000e+00
1.432000000000000000e+03,-1.582850175871412524e-01,0.000000000000000000e+00
1.433000000000000000e+03,-3.203147400630311781e-01,0.000000000000000000e+00
1.434000000000000000e+03,-4.068600201054588944e-02,0.000000000000000000e+00
1.435000000000000000e+03,-1.643749524954619609e-02,0.000000000000000000e+00
1.436000000000000000e+03,8.566424656879477462e-02,0.000000000000000000e+00
1.437000000000000000e+03,6.124190331102181972e-02,0.000000000000000000e+00
1.438000000000000000e+03,3.877224812809455523e-01,0.000000000000000000e+00
1.439000000000000000e+03,4.497052822526985683e-01,0.000000000000000000e+00
1.440000000000000000e+03,6.818090058623726968e-01,0.000000000000000000e+00
1.441000000000000000e+03,7.591637520392948701e-01,0.000000000000000000e+00
1.442000000000000000e+03,5.936612034240140723e-01,0.000000000000000000e+00
1.443000000000000000e+03,5.000853918572959467e-01,0.000000000000000000e+00
1.444000000000000000e+03,5.836160878373957556e-02,0.000000000000000000e+00
1.445000000000000000e+03,-3.983636688112651009e-02,0.000000000000000000e+00
1.446000000000000000e+03,-4.384426477116128429e-01,0.000000000000000000e+00
1.447000000000000000e+03,-4.412709924066015588e-01,0.000000000000000000e+00
1.448000000000000000e+03,-5.987813358326021795e-01,0.000000000000000000e+00
1.449000000000000000e+03,-4.781406005712259821e-01,0.000000000000000000e+00
1.450000000000000000e+03,-5.357561707699696196e-01,0.000000000000000000e+00
1.451000000000000000e+03,-3.463897501934319889e-01,0.000000000000000000e+00
1.452000000000000000e+03,-3.960846888915615649e-01,0.000000000000000000e+00
1.453000000000000000e+03,-3.006514002056760448e-01,0.000000000000000000e+00
1.454000000000000000e+03,-2.514188195128956305e-01,0.000000000000000000e+00
1.455000000000000000e+03,-2.685621267546758895e-01,0.000000000000000000e+00
1.456000000000000000e+03,-2.860600710424621718e-01,0.000000000000000000e+00
1.457000000000000000e+03,-2.301159264671100435e-01,0.000000000000000000e+00
1.458000000000000000e+03,-1.688663229659242426e-01,0.000000000000000000e+00
1.459000000000000000e+03,-2.275077145612365570e-01,0.000000000000000000e+00
1.460000000000000000e+03,-1.286124700061137549e-01,0.000000000000000000e+00
1.461000000000000000e+03,-2.030088283933392246e-01,0.000000000000000000e+00
1.462000000000000000e+03,-1.195826060674934910e-01,0.000000000000000000e+00
1.463000000000000000e+03,-1.336831198525703923e-01,0.000000000000000000e+00
1.464000000000000000e+03,-1.498536456659706195e-01,0.000000000000000000e+00
1.465000000000000000e+03,-2.532214243582587773e-02,0.000000000000000000e+00
1.466000000000000000e+03,-1.113612133363258011e-01,0.000000000000000000e+00
1.467000000000000000e+03,3.344541116541405873e-02,0.000000000000000000e+00
1.468000000000000000e+03,1.347174272753483559e-01,0.000000000000000000e+00
1.469000000000000000e+03,2.427949283894579313e-01,0.000000000000000000e+00
1.470000000000000000e+03,4.689962958534996118e-01,0.000000000000000000e+00
1.471000000000000000e+03,3.179244997205398215e-01,0.000000000000000000e+00
1.472000000000000000e+03,2.585943842136360638e-01,0.000000000000000000e+00
1.473000000000000000e+03,2.195621055885714056e-03,0.000000000000000000e+00
1.474000000000000000e+03,-2.620985373960892928e-01,0.000000000000000000e+00
1.475000000000000000e+03,-2.379581240000605558e-01,0.000000000000000000e+00
1.476000000000000000e+03,-2.943453617655045762e-01,0.000000000000000000e+00
1.477000000000000000e+03,-2.300663952439316040e-01,0.000000000000000000e+00
1.478000000000000000e+03,-2.264950828827271279e-01,0.000000000000000000e+00
1.479000000000000000e+03,-9.803281456650789205e-02,0.000000000000000000e+00
1.480000000000000000e+03,-3.451564668132805491e-01,0.000000000000000000e+00
1.481000000000000000e+03,4.830378157875279688e-01,0.000000000000000000e+00
1.482000000000000000e+03,3.479650219985075399e+00,0.000000000000000000e+00
1.483000000000000000e+03,2.762619268482565532e-02,1.000000000000000000e+00
1.484000000000000000e+03,-1.175216773329295750e+00,0.000000000000000000e+00
1.485000000000000000e+03,-4.458922364460363164e-01,0.000000000000000000e+00
1.486000000000000000e+03,-1.824959086873673975e-01,0.000000000000000000e+00
1.487000000000000000e+03,-2.749986904890636130e-01,0.000000000000000000e+00
1.488000000000000000e+03,-1.282678827251763909e-01,0.000000000000000000e+00
1.489000000000000000e+03,-1.263032390412210659e-01,0.000000000000000000e+00
1.490000000000000000e+03,4.734928583357059240e-02,0.000000000000000000e+00
1.491000000000000000e+03,1.149770930808011044e-01,0.000000000000000000e+00
1.492000000000000000e+03,1.735697967229203609e-01,0.000000000000000000e+00
1.493000000000000000e+03,3.233743506997971973e-01,0.000000000000000000e+00
1.494000000000000000e+03,5.750866881464222757e-01,0.000000000000000000e+00
1.495000000000000000e+03,7.366589930344669135e-01,0.000000000000000000e+00
1.496000000000000000e+03,7.390002596262725820e-01,0.000000000000000000e+00
1.497000000000000000e+03,5.832780774712639227e-01,0.000000000000000000e+00
1.498000000000000000e+03,4.381072353393465901e-01,0.000000000000000000e+00
1.499000000000000000e+03,6.126643756524437212e-02,0.000000000000000000e+00
1.500000000000000000e+03,-5.201873426323506272e-02,0.000000000000000000e+00
1.501000000000000000e+03,-4.278834434134380915e-01,0.000000000000000000e+00
1.502000000000000000e+03,-4.252569294770261465e-01,0.000000000000000000e+00
1.503000000000000000e+03,-5.114864420896203523e-01,0.000000000000000000e+00
1.504000000000000000e+03,-4.144950379811660479e-01,0.000000000000000000e+00
1.505000000000000000e+03,-4.728063750491853789e-01,0.000000000000000000e+00
1.506000000000000000e+03,-3.165033642758302568e-01,0.000000000000000000e+00
1.507000000000000000e+03,-3.216618047615725229e-01,0.000000000000000000e+00
1.508000000000000000e+03,-3.325388997233595378e-01,0.000000000000000000e+00
1.509000000000000000e+03,-2.419387777343261492e-01,0.000000000000000000e+00
1.510000000000000000e+03,-2.334310478387149890e-01,0.000000000000000000e+00
1.511000000000000000e+03,-1.608651152138773077e-01,0.000000000000000000e+00
1.512000000000000000e+03,-2.105117650624727110e-01,0.000000000000000000e+00
1.513000000000000000e+03,-1.470223756434233808e-01,0.000000000000000000e+00
1.514000000000000000e+03,-2.247181531932894161e-01,0.000000000000000000e+00
1.515000000000000000e+03,-1.929238428551984241e-01,0.000000000000000000e+00
1.516000000000000000e+03,-7.742358444366678749e-02,0.000000000000000000e+00
1.517000000000000000e+03,-2.131001678451624470e-01,0.000000000000000000e+00
1.518000000000000000e+03,-6.437533065632815299e-02,0.000000000000000000e+00
1.519000000000000000e+03,-1.818228082317032701e-01,0.000000000000000000e+00
1.520000000000000000e+03,1.259495631100455149e-01,0.000000000000000000e+00
1.521000000000000000e+03,1.848092583333347527e-01,0.000000000000000000e+00
1.522000000000000000e+03,5.303843314927617625e-01,0.000000000000000000e+00
1.523000000000000000e+03,1.837077134977454784e-01,0.000000000000000000e+00
1.524000000000000000e+03,2.346750458152395691e-01,0.000000000000000000e+00
1.525000000000000000e+03,-7.288106498884266982e-02,0.000000000000000000e+00
1.526000000000000000e+03,-3.059852252442955556e-01,0.000000000000000000e+00
1.527000000000000000e+03,-4.428064502137154385e-02,0.000000000000000000e+00
1.528000000000000000e+03,-2.643113247160076007e-01,0.000000000000000000e+00
1.529000000000000000e+03,-1.692303519257236377e-01,0.000000000000000000e+00
1.530000000000000000e+03,-2.019389917328746342e-01,0.000000000000000000e+00
1.531000000000000000e+03,-8.356840554431600732e-02,0.000000000000000000e+00
1.532000000000000000e+03,-2.106045799985891698e-01,0.000000000000000000e+00
1.533000000000000000e+03,-1.566553615639845742e-01,0.000000000000000000e+00
1.534000000000000000e+03,3.198245293827474800e+00,0.000000000000000000e+00
1.535000000000000000e+03,1.016422753518731348e+00,1.000000000000000000e+00
1.536000000000000000e+03,-1.313676434982395058e+00,0.000000000000000000e+00
1.537000000000000000e+03,-8.601071490866939451e-01,0.000000000000000000e+00
1.538000000000000000e+03,3.906498065285872456e-02,0.000000000000000000e+00
1.539000000000000000e+03,-2.069923536899654914e-01,0.000000000000000000e+00
1.540000000000000000e+03,2.112813279451131523e-02,0.000000000000000000e+00
1.541000000000000000e+03,1.575640811447392292e-02,0.000000000000000000e+00
1.542000000000000000e+03,8.809201147239618945e-02,0.000000000000000000e+00
1.543000000000000000e+03,5.785488765988401616e-02,0.000000000000000000e+00
1.544000000000000000e+03,3.443322648770514860e-01,0.000000000000000000e+00
1.545000000000000000e+03,2.999920857250459871e-01,0.000000000000000000e+00
1.546000000000000000e+03,4.765279896191755848e-01,0.000000000000000000e+00
1.547000000000000000e+03,5.979474152103915197e-01,0.000000000000000000e+00
1.548000000000000000e+03,6.149945925579389794e-01,0.000000000000000000e+00
1.549000000000000000e+03,5.992372747623690987e-01,0.000000000000000000e+00
1.550000000000000000e+03,3.541093102687780103e-01,0.000000000000000000e+00
1.551000000000000000e+03,5.925094698419960254e-02,0.000000000000000000e+00
1.552000000000000000e+03,-2.158990671047276433e-01,0.000000000000000000e+00
1.553000000000000000e+03,-3.666179958528268390e-01,0.000000000000000000e+00
1.554000000000000000e+03,-4.072418981522110126e-01,0.000000000000000000e+00
1.555000000000000000e+03,-5.669644464885372770e-01,0.000000000000000000e+00
1.556000000000000000e+03,-4.977000641355432409e-01,0.000000000000000000e+00
1.557000000000000000e+03,-2.969640201517118050e-01,0.000000000000000000e+00
1.558000000000000000e+03,-4.466810156717919700e-01,0.000000000000000000e+00
1.559000000000000000e+03,-2.470049648111525553e-01,0.000000000000000000e+00
1.560000000000000000e+03,-2.653643597404911070e-01,0.000000000000000000e+00
1.561000000000000000e+03,-2.942080663240720373e-01,0.000000000000000000e+00
1.562000000000000000e+03,-1.412056843510438864e-01,0.000000000000000000e+00
1.563000000000000000e+03,-2.217788817169028814e-01,0.000000000000000000e+00
1.564000000000000000e+03,-1.174033836663970903e-01,0.000000000000000000e+00
1.565000000000000000e+03,-2.218898549789623253e-01,0.000000000000000000e+00
1.566000000000000000e+03,-1.570938596713917224e-01,0.000000000000000000e+00
1.567000000000000000e+03,-1.676457000523759733e-01,0.000000000000000000e+00
1.568000000000000000e+03,-1.656111373988444213e-01,0.000000000000000000e+00
1.569000000000000000e+03,-2.235713784878329835e-01,0.000000000000000000e+00
1.570000000000000000e+03,-1.311590866285996040e-02,0.000000000000000000e+00
1.571000000000000000e+03,-6.725138173848885237e-02,0.000000000000000000e+00
1.572000000000000000e+03,2.082896932044613070e-02,0.000000000000000000e+00
1.573000000000000000e+03,8.783161917410532704e-02,0.000000000000000000e+00
1.574000000000000000e+03,2.363373259440895435e-01,0.000000000000000000e+00
1.575000000000000000e+03,3.698354250341251426e-01,0.000000000000000000e+00
1.576000000000000000e+03,4.218259306301379574e-01,0.000000000000000000e+00
1.577000000000000000e+03,1.435518438471781177e-01,0.000000000000000000e+00
1.578000000000000000e+03,-8.804532626918622207e-02,0.000000000000000000e+00
1.579000000000000000e+03,-9.860611269146335456e-02,0.000000000000000000e+00
1.580000000000000000e+03,-2.651870968338188028e-01,0.000000000000000000e+00
1.581000000000000000e+03,-3.181158664003669867e-01,0.000000000000000000e+00
1.582000000000000000e+03,8.122225852852567318e-02,0.000000000000000000e+00
1.583000000000000000e+03,-2.594520513973497811e-01,0.000000000000000000e+00
1.584000000000000000e+03,1.949087321186279698e-01,0.000000000000000000e+00
1.585000000000000000e+03,-5.888209458329157764e-01,0.000000000000000000e+00
