timestamp,ecg_measurement,qrs_detected
0.000000000000000000e+00,-2.220524152196274859e-01,0.000000000000000000e+00
1.000000000000000000e+00,-1.273861041794313587e-01,0.000000000000000000e+00
2.000000000000000000e+00,2.725639556898067362e-01,0.000000000000000000e+00
3.000000000000000000e+00,1.145953093590588445e-01,0.000000000000000000e+00
4.000000000000000000e+00,3.710301049241119808e-01,0.000000000000000000e+00
5.000000000000000000e+00,7.587303173550815627e-01,0.000000000000000000e+00
6.000000000000000000e+00,9.109787923136388743e-01,0.000000000000000000e+00
7.000000000000000000e+00,8.794721506268704525e-01,0.000000000000000000e+00
8.000000000000000000e+00,1.044350725807466906e+00,0.000000000000000000e+00
9.000000000000000000e+00,5.750009070910843123e-01,0.000000000000000000e+00
1.000000000000000000e+01,-2.003136386324797791e-01,0.000000000000000000e+00
1.100000000000000000e+01,-5.972079076321500368e-01,1.000000000000000000e+00
1.200000000000000000e+01,-7.865464754887019350e-01,0.000000000000000000e+00
1.300000000000000000e+01,-6.413230638367668490e-01,0.000000000000000000e+00
1.400000000000000000e+01,-6.994113273752302629e-01,0.000000000000000000e+00
1.500000000000000000e+01,-6.728197689607865462e-01,0.000000000000000000e+00
1.600000000000000000e+01,-4.808873771938568242e-01,0.000000000000000000e+00
1.700000000000000000e+01,-4.398822472663125316e-01,0.000000000000000000e+00
1.800000000000000000e+01,-4.012417710868238507e-01,0.000000000000000000e+00
1.900000000000000000e+01,-3.910687714548349292e-01,0.000000000000000000e+00
2.000000000000000000e+01,-3.052599672288758836e-01,0.000000000000000000e+00
2.100000000000000000e+01,-2.903813400457183613e-01,0.000000000000000000e+00
2.200000000000000000e+01,-3.712808041101206546e-01,0.000000000000000000e+00
2.300000000000000000e+01,-1.838902841280874723e-01,0.000000000000000000e+00
2.400000000000000000e+01,-2.104270156859385510e-01,0.000000000000000000e+00
2.500000000000000000e+01,-1.985617771739295878e-01,0.000000000000000000e+00
2.600000000000000000e+01,-2.743715875410145943e-01,0.000000000000000000e+00
2.700000000000000000e+01,-8.478247875344605000e-02,0.000000000000000000e+00
2.800000000000000000e+01,-5.616342910271902161e-02,0.000000000000000000e+00
2.900000000000000000e+01,-1.122633212892952814e-01,0.000000000000000000e+00
3.000000000000000000e+01,-8.503141855857293541e-02,0.000000000000000000e+00
3.100000000000000000e+01,5.623987040163256484e-02,0.000000000000000000e+00
3.200000000000000000e+01,4.339222733275611976e-02,0.000000000000000000e+00
3.300000000000000000e+01,1.978004079837807905e-01,0.000000000000000000e+00
3.400000000000000000e+01,3.526692690134463071e-01,0.000000000000000000e+00
3.500000000000000000e+01,6.472490238157193598e-01,0.000000000000000000e+00
3.600000000000000000e+01,4.971060758224997156e-01,0.000000000000000000e+00
3.700000000000000000e+01,1.224673286984650500e-01,0.000000000000000000e+00
3.800000000000000000e+01,-1.708134335621784572e-01,0.000000000000000000e+00
3.900000000000000000e+01,-7.852858156306334603e-02,0.000000000000000000e+00
4.000000000000000000e+01,-2.359154546945294306e-01,0.000000000000000000e+00
4.100000000000000000e+01,-2.576059372843438056e-02,0.000000000000000000e+00
4.200000000000000000e+01,-2.522837044715718902e-01,0.000000000000000000e+00
4.300000000000000000e+01,6.205391134223500194e-01,0.000000000000000000e+00
4.400000000000000000e+01,6.360357656301870222e+00,0.000000000000000000e+00
4.500000000000000000e+01,-2.604885166700534813e-02,1.000000000000000000e+00
4.600000000000000000e+01,-1.640661724198744231e+00,0.000000000000000000e+00
4.700000000000000000e+01,-5.335535519381786607e-01,0.000000000000000000e+00
4.800000000000000000e+01,-9.479217105412297562e-01,0.000000000000000000e+00
4.900000000000000000e+01,-5.713632300266319186e-01,0.000000000000000000e+00
5.000000000000000000e+01,-6.723315155372608931e-01,0.000000000000000000e+00
5.100000000000000000e+01,-3.909173412659632807e-01,0.000000000000000000e+00
5.200000000000000000e+01,-4.520642197006055074e-01,0.000000000000000000e+00
5.300000000000000000e+01,-3.371369930843504670e-01,0.000000000000000000e+00
5.400000000000000000e+01,-3.074475218240466101e-01,0.000000000000000000e+00
5.500000000000000000e+01,-4.128849635325383682e-02,0.000000000000000000e+00
5.600000000000000000e+01,-1.424652816772914443e-01,0.000000000000000000e+00
5.700000000000000000e+01,1.882753853554089141e-01,0.000000000000000000e+00
5.800000000000000000e+01,1.283300155983219948e-01,0.000000000000000000e+00
5.900000000000000000e+01,6.569976404359824107e-01,0.000000000000000000e+00
6.000000000000000000e+01,7.521123100531215133e-01,0.000000000000000000e+00
6.100000000000000000e+01,1.022003882391587126e+00,0.000000000000000000e+00
6.200000000000000000e+01,9.330323653243042248e-01,0.000000000000000000e+00
6.300000000000000000e+01,7.892446150537867355e-01,0.000000000000000000e+00
6.400000000000000000e+01,-8.733606160662543694e-02,0.000000000000000000e+00
6.500000000000000000e+01,-5.377916858701438096e-01,0.000000000000000000e+00
6.600000000000000000e+01,-7.789764839045708600e-01,0.000000000000000000e+00
6.700000000000000000e+01,-7.329987920781627642e-01,0.000000000000000000e+00
6.800000000000000000e+01,-7.120508794460377322e-01,0.000000000000000000e+00
6.900000000000000000e+01,-6.136402700174372615e-01,0.000000000000000000e+00
7.000000000000000000e+01,-5.292293146737593323e-01,0.000000000000000000e+00
7.100000000000000000e+01,-3.903742195907972667e-01,0.000000000000000000e+00
7.200000000000000000e+01,-4.340211905844970075e-01,0.000000000000000000e+00
7.300000000000000000e+01,-3.236019420759327359e-01,0.000000000000000000e+00
7.400000000000000000e+01,-4.867077676437066569e-01,0.000000000000000000e+00
7.500000000000000000e+01,-6.288995444234900256e-02,0.000000000000000000e+00
7.600000000000000000e+01,-2.848255040362972501e-01,0.000000000000000000e+00
7.700000000000000000e+01,-1.477283923806389232e-01,0.000000000000000000e+00
7.800000000000000000e+01,-3.863090194640899644e-01,0.000000000000000000e+00
7.900000000000000000e+01,6.601715857359527484e-02,0.000000000000000000e+00
8.000000000000000000e+01,-1.701161353473947535e-01,0.000000000000000000e+00
8.100000000000000000e+01,-6.405290932879120769e-02,0.000000000000000000e+00
8.200000000000000000e+01,-2.003052808241896077e-01,0.000000000000000000e+00
8.300000000000000000e+01,1.509928733875421647e-01,0.000000000000000000e+00
8.400000000000000000e+01,-5.007517668359737217e-02,0.000000000000000000e+00
8.500000000000000000e+01,1.385107318516915487e-01,0.000000000000000000e+00
8.600000000000000000e+01,1.417804291733678335e-01,0.000000000000000000e+00
8.700000000000000000e+01,4.137425288734964957e-01,0.000000000000000000e+00
8.800000000000000000e+01,4.610652194110894664e-01,0.000000000000000000e+00
8.900000000000000000e+01,7.941323309597646540e-01,0.000000000000000000e+00
9.000000000000000000e+01,4.176387037082615050e-01,0.000000000000000000e+00
9.100000000000000000e+01,2.295709381758118395e-01,0.000000000000000000e+00
9.200000000000000000e+01,-2.291284137450914360e-01,0.000000000000000000e+00
9.300000000000000000e+01,9.428544491190996024e-02,0.000000000000000000e+00
9.400000000000000000e+01,-3.639639333932854770e-01,0.000000000000000000e+00
9.500000000000000000e+01,3.655379683081919073e-01,0.000000000000000000e+00
9.600000000000000000e+01,-7.080086903464827275e-01,0.000000000000000000e+00
9.700000000000000000e+01,2.970690901406103812e+00,0.000000000000000000e+00
9.800000000000000000e+01,5.594446431091985694e+00,0.000000000000000000e+00
9.900000000000000000e+01,-1.921672963371122478e+00,1.000000000000000000e+00
1.000000000000000000e+02,-6.352280527966083223e-01,0.000000000000000000e+00
1.010000000000000000e+02,-8.808001285038113970e-01,0.000000000000000000e+00
1.020000000000000000e+02,-6.341285530018510030e-01,0.000000000000000000e+00
1.030000000000000000e+02,-5.880901341511999281e-01,0.000000000000000000e+00
1.040000000000000000e+02,-3.919543775491003967e-01,0.000000000000000000e+00
1.050000000000000000e+02,-4.191208792570126351e-01,0.000000000000000000e+00
1.060000000000000000e+02,-1.749260441399294042e-01,0.000000000000000000e+00
1.070000000000000000e+02,-2.906100356954637864e-01,0.000000000000000000e+00
1.080000000000000000e+02,-1.413338099583251739e-01,0.000000000000000000e+00
1.090000000000000000e+02,9.686541855876980300e-03,0.000000000000000000e+00
1.100000000000000000e+02,1.541810575124936966e-01,0.000000000000000000e+00
1.110000000000000000e+02,1.727785492243022747e-01,0.000000000000000000e+00
1.120000000000000000e+02,4.214254741699147155e-01,0.000000000000000000e+00
1.130000000000000000e+02,7.365000162694763652e-01,0.000000000000000000e+00
1.140000000000000000e+02,9.512367112246313816e-01,0.000000000000000000e+00
1.150000000000000000e+02,1.208899206743476951e+00,0.000000000000000000e+00
1.160000000000000000e+02,1.041534596470663931e+00,0.000000000000000000e+00
1.170000000000000000e+02,5.585852765906986761e-01,0.000000000000000000e+00
1.180000000000000000e+02,-2.699640264595580819e-01,0.000000000000000000e+00
1.190000000000000000e+02,-6.433978739954274717e-01,0.000000000000000000e+00
1.200000000000000000e+02,-7.273107450231832694e-01,0.000000000000000000e+00
1.210000000000000000e+02,-6.462691807887135376e-01,0.000000000000000000e+00
1.220000000000000000e+02,-8.021781895435218246e-01,0.000000000000000000e+00
1.230000000000000000e+02,-6.028415463153732334e-01,0.000000000000000000e+00
1.240000000000000000e+02,-5.503702534166954319e-01,0.000000000000000000e+00
1.250000000000000000e+02,-3.537853350353130644e-01,0.000000000000000000e+00
1.260000000000000000e+02,-5.709554990953727982e-01,0.000000000000000000e+00
1.270000000000000000e+02,-3.947527975407151279e-01,0.000000000000000000e+00
1.280000000000000000e+02,-3.521702784402548358e-01,0.000000000000000000e+00
1.290000000000000000e+02,-1.292625224982862642e-01,0.000000000000000000e+00
1.300000000000000000e+02,-3.818209116534359571e-01,0.000000000000000000e+00
1.310000000000000000e+02,-2.407400630305922828e-01,0.000000000000000000e+00
1.320000000000000000e+02,-2.818914362851017708e-01,0.000000000000000000e+00
1.330000000000000000e+02,-1.203433087957272718e-01,0.000000000000000000e+00
1.340000000000000000e+02,-2.240596948040056713e-01,0.000000000000000000e+00
1.350000000000000000e+02,-1.102773599670224675e-01,0.000000000000000000e+00
1.360000000000000000e+02,-1.543960297420713113e-01,0.000000000000000000e+00
1.370000000000000000e+02,-2.536749652410767719e-02,0.000000000000000000e+00
1.380000000000000000e+02,-2.226461913817615323e-01,0.000000000000000000e+00
1.390000000000000000e+02,9.541594827508065313e-02,0.000000000000000000e+00
1.400000000000000000e+02,1.351422120721555153e-01,0.000000000000000000e+00
1.410000000000000000e+02,2.890206500110593102e-01,0.000000000000000000e+00
1.420000000000000000e+02,4.494623154276344845e-01,0.000000000000000000e+00
1.430000000000000000e+02,7.063239982387081728e-01,0.000000000000000000e+00
1.440000000000000000e+02,9.372641726992579636e-02,0.000000000000000000e+00
1.450000000000000000e+02,-2.256898836910825254e-02,0.000000000000000000e+00
1.460000000000000000e+02,-4.334287106693923142e-01,0.000000000000000000e+00
1.470000000000000000e+02,-1.091198164485049013e-02,0.000000000000000000e+00
1.480000000000000000e+02,-5.059644586641467434e-01,0.000000000000000000e+00
1.490000000000000000e+02,1.781482982366633105e-01,0.000000000000000000e+00
1.500000000000000000e+02,-7.700985128185707795e-01,0.000000000000000000e+00
1.510000000000000000e+02,5.480830225800431776e+00,0.000000000000000000e+00
1.520000000000000000e+02,2.410839881408092911e+00,1.000000000000000000e+00
1.530000000000000000e+02,-2.603841712107318074e+00,0.000000000000000000e+00
1.540000000000000000e+02,-2.944955322424707700e-01,0.000000000000000000e+00
1.550000000000000000e+02,-1.236648144022590046e+00,0.000000000000000000e+00
1.560000000000000000e+02,-5.294283292805194163e-01,0.000000000000000000e+00
1.570000000000000000e+02,-8.369582863816085183e-01,0.000000000000000000e+00
1.580000000000000000e+02,-3.907886309603599284e-01,0.000000000000000000e+00
1.590000000000000000e+02,-6.215977121455779075e-01,0.000000000000000000e+00
1.600000000000000000e+02,-1.156362454870718814e-01,0.000000000000000000e+00
1.610000000000000000e+02,-5.112652733668973104e-01,0.000000000000000000e+00
1.620000000000000000e+02,-1.441676348169037281e-01,0.000000000000000000e+00
1.630000000000000000e+02,-7.396191532249912770e-02,0.000000000000000000e+00
1.640000000000000000e+02,1.675744326187940669e-01,0.000000000000000000e+00
1.650000000000000000e+02,-1.598893692566362434e-02,0.000000000000000000e+00
1.660000000000000000e+02,5.854786501936323218e-01,0.000000000000000000e+00
1.670000000000000000e+02,6.300615023611568777e-01,0.000000000000000000e+00
1.680000000000000000e+02,1.093714565597701194e+00,0.000000000000000000e+00
1.690000000000000000e+02,8.051394084284975161e-01,0.000000000000000000e+00
1.700000000000000000e+02,9.433249467475731675e-01,0.000000000000000000e+00
1.710000000000000000e+02,1.742316053332863268e-01,0.000000000000000000e+00
1.720000000000000000e+02,-4.319861412736574202e-01,0.000000000000000000e+00
1.730000000000000000e+02,-1.034691758173883258e+00,0.000000000000000000e+00
1.740000000000000000e+02,-7.204494323204191364e-01,0.000000000000000000e+00
1.750000000000000000e+02,-7.355610656255079371e-01,0.000000000000000000e+00
1.760000000000000000e+02,-4.618241949100724275e-01,0.000000000000000000e+00
1.770000000000000000e+02,-6.895215317993881321e-01,0.000000000000000000e+00
1.780000000000000000e+02,-4.578025181120197185e-01,0.000000000000000000e+00
1.790000000000000000e+02,-4.798117259448009819e-01,0.000000000000000000e+00
1.800000000000000000e+02,-3.097485231396832628e-01,0.000000000000000000e+00
1.810000000000000000e+02,-3.665934517640592194e-01,0.000000000000000000e+00
1.820000000000000000e+02,-2.634436560376877123e-01,0.000000000000000000e+00
1.830000000000000000e+02,-3.369328920574389818e-01,0.000000000000000000e+00
1.840000000000000000e+02,-1.062158779794863256e-01,0.000000000000000000e+00
1.850000000000000000e+02,-3.494118683118770941e-01,0.000000000000000000e+00
1.860000000000000000e+02,-9.143213024303950553e-02,0.000000000000000000e+00
1.870000000000000000e+02,-1.749270529750799885e-01,0.000000000000000000e+00
1.880000000000000000e+02,-5.354401439075665708e-02,0.000000000000000000e+00
1.890000000000000000e+02,-1.348258060744741138e-01,0.000000000000000000e+00
1.900000000000000000e+02,1.051412190856268747e-01,0.000000000000000000e+00
1.910000000000000000e+02,-1.047807052297300978e-01,0.000000000000000000e+00
1.920000000000000000e+02,1.737681952763681370e-01,0.000000000000000000e+00
1.930000000000000000e+02,9.422346962800343118e-02,0.000000000000000000e+00
1.940000000000000000e+02,4.792481068692847623e-01,0.000000000000000000e+00
1.950000000000000000e+02,4.451906222811458091e-01,0.000000000000000000e+00
1.960000000000000000e+02,8.303927357156183353e-01,0.000000000000000000e+00
1.970000000000000000e+02,1.643883016598939872e-01,0.000000000000000000e+00
1.980000000000000000e+02,1.087588833295701635e-01,0.000000000000000000e+00
1.990000000000000000e+02,-3.576023424509873205e-01,0.000000000000000000e+00
2.000000000000000000e+02,1.182776660250391965e-01,0.000000000000000000e+00
2.010000000000000000e+02,-5.024494841129262257e-01,0.000000000000000000e+00
2.020000000000000000e+02,3.245658557513493858e-01,0.000000000000000000e+00
2.030000000000000000e+02,-6.777845461232381297e-01,0.000000000000000000e+00
2.040000000000000000e+02,4.811736413232608811e+00,0.000000000000000000e+00
2.050000000000000000e+02,2.716685072060537554e+00,1.000000000000000000e+00
2.060000000000000000e+02,-2.541334524263858530e+00,0.000000000000000000e+00
2.070000000000000000e+02,-2.729851197508443850e-01,0.000000000000000000e+00
2.080000000000000000e+02,-9.668398879934022583e-01,0.000000000000000000e+00
2.090000000000000000e+02,-1.533856864775258455e-01,0.000000000000000000e+00
2.100000000000000000e+02,-7.123983385283217951e-01,0.000000000000000000e+00
2.110000000000000000e+02,-2.248103579457310652e-01,0.000000000000000000e+00
2.120000000000000000e+02,-4.539790191262460528e-01,0.000000000000000000e+00
2.130000000000000000e+02,4.458687755765920052e-02,0.000000000000000000e+00
2.140000000000000000e+02,-3.237864341266063484e-01,0.000000000000000000e+00
2.150000000000000000e+02,8.381712000668836704e-02,0.000000000000000000e+00
2.160000000000000000e+02,-7.236026747380454316e-02,0.000000000000000000e+00
2.170000000000000000e+02,2.510165236445992543e-01,0.000000000000000000e+00
2.180000000000000000e+02,2.685716449610442980e-01,0.000000000000000000e+00
2.190000000000000000e+02,6.943611028083370718e-01,0.000000000000000000e+00
2.200000000000000000e+02,6.680795569021157343e-01,0.000000000000000000e+00
2.210000000000000000e+02,9.868797151055785921e-01,0.000000000000000000e+00
2.220000000000000000e+02,1.010133708412405795e+00,0.000000000000000000e+00
2.230000000000000000e+02,9.497539331857629552e-01,0.000000000000000000e+00
2.240000000000000000e+02,1.777167886176038436e-01,0.000000000000000000e+00
2.250000000000000000e+02,-3.612561149760997181e-01,0.000000000000000000e+00
2.260000000000000000e+02,-7.889672346553598947e-01,0.000000000000000000e+00
2.270000000000000000e+02,-7.756158772154617687e-01,0.000000000000000000e+00
2.280000000000000000e+02,-7.577514608185738076e-01,0.000000000000000000e+00
2.290000000000000000e+02,-6.010658233333225908e-01,0.000000000000000000e+00
2.300000000000000000e+02,-5.939845676676729358e-01,0.000000000000000000e+00
2.310000000000000000e+02,-4.383742361978377189e-01,0.000000000000000000e+00
2.320000000000000000e+02,-5.277450192851720345e-01,0.000000000000000000e+00
2.330000000000000000e+02,-3.191015682093893968e-01,0.000000000000000000e+00
2.340000000000000000e+02,-2.964007281019185314e-01,0.000000000000000000e+00
2.350000000000000000e+02,-2.018944821414818125e-01,0.000000000000000000e+00
2.360000000000000000e+02,-3.627876101705612699e-01,0.000000000000000000e+00
2.370000000000000000e+02,-1.433582827092266254e-01,0.000000000000000000e+00
2.380000000000000000e+02,-2.195717178976643591e-01,0.000000000000000000e+00
2.390000000000000000e+02,-2.057158718571265588e-01,0.000000000000000000e+00
2.400000000000000000e+02,-2.222938534121062237e-01,0.000000000000000000e+00
2.410000000000000000e+02,8.260944643975470791e-02,0.000000000000000000e+00
2.420000000000000000e+02,-2.163262646453761318e-01,0.000000000000000000e+00
2.430000000000000000e+02,-1.072164821725029027e-01,0.000000000000000000e+00
2.440000000000000000e+02,-4.999855143586240391e-02,0.000000000000000000e+00
2.450000000000000000e+02,2.791461777703281300e-01,0.000000000000000000e+00
2.460000000000000000e+02,6.199874366413808680e-02,0.000000000000000000e+00
2.470000000000000000e+02,3.114283086991856964e-01,0.000000000000000000e+00
2.480000000000000000e+02,4.823560168292554962e-01,0.000000000000000000e+00
2.490000000000000000e+02,6.752882041162290294e-01,0.000000000000000000e+00
2.500000000000000000e+02,2.110766936502145585e-01,0.000000000000000000e+00
2.510000000000000000e+02,-1.420289270505311063e-01,0.000000000000000000e+00
2.520000000000000000e+02,-3.915914359932131661e-01,0.000000000000000000e+00
2.530000000000000000e+02,3.804389067039531079e-03,0.000000000000000000e+00
2.540000000000000000e+02,-3.000155071415835373e-01,0.000000000000000000e+00
2.550000000000000000e+02,1.987002837764037244e-01,0.000000000000000000e+00
2.560000000000000000e+02,-3.541961529583195767e-01,0.000000000000000000e+00
2.570000000000000000e+02,5.588421343148555209e+00,0.000000000000000000e+00
2.580000000000000000e+02,1.394306177153400439e+00,1.000000000000000000e+00
2.590000000000000000e+02,-2.051530161465543678e+00,0.000000000000000000e+00
2.600000000000000000e+02,-3.635427453092185401e-01,0.000000000000000000e+00
2.610000000000000000e+02,-9.662427147425599605e-01,0.000000000000000000e+00
2.620000000000000000e+02,-2.090557573965259874e-01,0.000000000000000000e+00
2.630000000000000000e+02,-6.379481187464577374e-01,0.000000000000000000e+00
2.640000000000000000e+02,-4.285711707096509504e-01,0.000000000000000000e+00
2.650000000000000000e+02,-3.537274895624869520e-01,0.000000000000000000e+00
2.660000000000000000e+02,5.311885263211713754e-02,0.000000000000000000e+00
2.670000000000000000e+02,-3.670237070644338795e-01,0.000000000000000000e+00
2.680000000000000000e+02,4.858811579624088516e-03,0.000000000000000000e+00
2.690000000000000000e+02,-7.357216661484301812e-02,0.000000000000000000e+00
2.700000000000000000e+02,3.703797487134468658e-01,0.000000000000000000e+00
2.710000000000000000e+02,4.396524764554093911e-02,0.000000000000000000e+00
2.720000000000000000e+02,5.743027557864424093e-01,0.000000000000000000e+00
2.730000000000000000e+02,9.098109305210776432e-01,0.000000000000000000e+00
2.740000000000000000e+02,1.068631037248559457e+00,0.000000000000000000e+00
2.750000000000000000e+02,8.972843432862679380e-01,0.000000000000000000e+00
2.760000000000000000e+02,8.051660827671304199e-01,0.000000000000000000e+00
2.770000000000000000e+02,2.043361605934219255e-02,0.000000000000000000e+00
2.780000000000000000e+02,-3.243525407534188498e-01,0.000000000000000000e+00
2.790000000000000000e+02,-7.312034732800429815e-01,0.000000000000000000e+00
2.800000000000000000e+02,-7.601569395848937205e-01,0.000000000000000000e+00
2.810000000000000000e+02,-6.695641365141559165e-01,0.000000000000000000e+00
2.820000000000000000e+02,-5.077548749058415911e-01,0.000000000000000000e+00
2.830000000000000000e+02,-6.496105809406165221e-01,0.000000000000000000e+00
2.840000000000000000e+02,-3.541825345485464793e-01,0.000000000000000000e+00
2.850000000000000000e+02,-3.316812667449170471e-01,0.000000000000000000e+00
2.860000000000000000e+02,-3.274295029115071309e-01,0.000000000000000000e+00
2.870000000000000000e+02,-2.336233239862272326e-01,0.000000000000000000e+00
2.880000000000000000e+02,-2.238746269441936054e-01,0.000000000000000000e+00
2.890000000000000000e+02,-3.036229472632113180e-01,0.000000000000000000e+00
2.900000000000000000e+02,6.298543866697064141e-03,0.000000000000000000e+00
2.910000000000000000e+02,-1.205618236379301239e-01,0.000000000000000000e+00
2.920000000000000000e+02,-2.865748416959139067e-01,0.000000000000000000e+00
2.930000000000000000e+02,-1.451018088792888905e-01,0.000000000000000000e+00
2.940000000000000000e+02,4.936374568599241619e-02,0.000000000000000000e+00
2.950000000000000000e+02,-8.503005630087313860e-02,0.000000000000000000e+00
2.960000000000000000e+02,-7.099774071093574446e-02,0.000000000000000000e+00
2.970000000000000000e+02,7.870182199566543024e-02,0.000000000000000000e+00
2.980000000000000000e+02,1.080803624188711315e-01,0.000000000000000000e+00
2.990000000000000000e+02,5.369496603326442963e-02,0.000000000000000000e+00
3.000000000000000000e+02,2.377858581016795425e-01,0.000000000000000000e+00
3.010000000000000000e+02,5.291113362266958164e-01,0.000000000000000000e+00
3.020000000000000000e+02,6.879899540298050065e-01,0.000000000000000000e+00
3.030000000000000000e+02,5.143635281538108117e-01,0.000000000000000000e+00
3.040000000000000000e+02,1.713718715363722056e-01,0.000000000000000000e+00
3.050000000000000000e+02,-1.842957417542123721e-01,0.000000000000000000e+00
3.060000000000000000e+02,-1.153796190915394593e-01,0.000000000000000000e+00
3.070000000000000000e+02,-1.979176461510746554e-01,0.000000000000000000e+00
3.080000000000000000e+02,-1.145018957405724049e-02,0.000000000000000000e+00
3.090000000000000000e+02,-3.868689240642773641e-01,0.000000000000000000e+00
3.100000000000000000e+02,9.684046757254920479e-01,0.000000000000000000e+00
3.110000000000000000e+02,6.358682554196561476e+00,0.000000000000000000e+00
3.120000000000000000e+02,-5.751856287665060297e-01,1.000000000000000000e+00
3.130000000000000000e+02,-1.480512807223682392e+00,0.000000000000000000e+00
3.140000000000000000e+02,-7.242771760054030894e-01,0.000000000000000000e+00
3.150000000000000000e+02,-1.051575035434715089e+00,0.000000000000000000e+00
3.160000000000000000e+02,-5.023565516940655673e-01,0.000000000000000000e+00
3.170000000000000000e+02,-7.511978462605150009e-01,0.000000000000000000e+00
3.180000000000000000e+02,-6.161049357141595850e-01,0.000000000000000000e+00
3.190000000000000000e+02,-6.107402762797058404e-01,0.000000000000000000e+00
3.200000000000000000e+02,-3.674635723078402139e-01,0.000000000000000000e+00
3.210000000000000000e+02,-2.541406384888889036e-01,0.000000000000000000e+00
3.220000000000000000e+02,-3.946856813451284918e-01,0.000000000000000000e+00
3.230000000000000000e+02,-3.511297216385090847e-01,0.000000000000000000e+00
3.240000000000000000e+02,2.162764062484204622e-03,0.000000000000000000e+00
3.250000000000000000e+02,1.319487318480216387e-01,0.000000000000000000e+00
3.260000000000000000e+02,4.875112961983720794e-01,0.000000000000000000e+00
3.270000000000000000e+02,5.516449290551672657e-01,0.000000000000000000e+00
3.280000000000000000e+02,8.492571022806911785e-01,0.000000000000000000e+00
3.290000000000000000e+02,8.932964799326384986e-01,0.000000000000000000e+00
3.300000000000000000e+02,4.375774749167283262e-01,0.000000000000000000e+00
3.310000000000000000e+02,-1.948469678362299562e-01,0.000000000000000000e+00
3.320000000000000000e+02,-7.641226241675791453e-01,0.000000000000000000e+00
3.330000000000000000e+02,-9.782085613420962167e-01,0.000000000000000000e+00
3.340000000000000000e+02,-8.979895898948158095e-01,0.000000000000000000e+00
3.350000000000000000e+02,-8.046295347012178967e-01,0.000000000000000000e+00
3.360000000000000000e+02,-5.824466773407794840e-01,0.000000000000000000e+00
3.370000000000000000e+02,-7.359374961147141514e-01,0.000000000000000000e+00
3.380000000000000000e+02,-5.318632711714458283e-01,0.000000000000000000e+00
3.390000000000000000e+02,-4.588617325207608455e-01,0.000000000000000000e+00
3.400000000000000000e+02,-4.056278623870795408e-01,0.000000000000000000e+00
3.410000000000000000e+02,-3.084890054363966239e-01,0.000000000000000000e+00
3.420000000000000000e+02,-2.566145688689843718e-01,0.000000000000000000e+00
3.430000000000000000e+02,-2.801869422484225547e-01,0.000000000000000000e+00
3.440000000000000000e+02,-2.130546108056620702e-01,0.000000000000000000e+00
3.450000000000000000e+02,-1.542155218031728559e-01,0.000000000000000000e+00
3.460000000000000000e+02,-1.271426276269784807e-02,0.000000000000000000e+00
3.470000000000000000e+02,-1.404040141109889062e-01,0.000000000000000000e+00
3.480000000000000000e+02,-1.134187354606125409e-02,0.000000000000000000e+00
3.490000000000000000e+02,1.618379703289326010e-01,0.000000000000000000e+00
3.500000000000000000e+02,6.956979525114630192e-02,0.000000000000000000e+00
3.510000000000000000e+02,1.397115443983910077e-01,0.000000000000000000e+00
3.520000000000000000e+02,9.723773314374936638e-02,0.000000000000000000e+00
3.530000000000000000e+02,3.585852970152345609e-01,0.000000000000000000e+00
3.540000000000000000e+02,4.437198110769539072e-01,0.000000000000000000e+00
3.550000000000000000e+02,5.471780169565071406e-01,0.000000000000000000e+00
3.560000000000000000e+02,6.726459328619116551e-01,0.000000000000000000e+00
3.570000000000000000e+02,1.020543868321791336e+00,0.000000000000000000e+00
3.580000000000000000e+02,3.746224691619455260e-01,0.000000000000000000e+00
3.590000000000000000e+02,2.115730690998797459e-01,0.000000000000000000e+00
3.600000000000000000e+02,-9.080377429595187788e-02,0.000000000000000000e+00
3.610000000000000000e+02,2.096564723682260434e-01,0.000000000000000000e+00
3.620000000000000000e+02,-1.633408858006410169e-01,0.000000000000000000e+00
3.630000000000000000e+02,4.110979905963078607e-01,0.000000000000000000e+00
3.640000000000000000e+02,-3.873466306361183498e-01,0.000000000000000000e+00
3.650000000000000000e+02,6.061099222401645115e+00,0.000000000000000000e+00
3.660000000000000000e+02,2.117148936179094054e+00,1.000000000000000000e+00
3.670000000000000000e+02,-2.237981699481895959e+00,0.000000000000000000e+00
3.680000000000000000e+02,-5.626456719021456776e-02,0.000000000000000000e+00
3.690000000000000000e+02,-9.346028852237281415e-01,0.000000000000000000e+00
3.700000000000000000e+02,-3.705395009423830821e-01,0.000000000000000000e+00
3.710000000000000000e+02,-7.969383529883548034e-01,0.000000000000000000e+00
3.720000000000000000e+02,-1.419694658731889270e-01,0.000000000000000000e+00
3.730000000000000000e+02,-4.575677820806008378e-01,0.000000000000000000e+00
3.740000000000000000e+02,-7.746937018300920075e-02,0.000000000000000000e+00
3.750000000000000000e+02,-2.892345542546687076e-01,0.000000000000000000e+00
3.760000000000000000e+02,9.191697274393022601e-03,0.000000000000000000e+00
3.770000000000000000e+02,-9.611976645044938150e-02,0.000000000000000000e+00
3.780000000000000000e+02,2.418397683090787453e-01,0.000000000000000000e+00
3.790000000000000000e+02,1.765889854312689133e-01,0.000000000000000000e+00
3.800000000000000000e+02,6.296412420665675747e-01,0.000000000000000000e+00
3.810000000000000000e+02,6.809862282338224881e-01,0.000000000000000000e+00
3.820000000000000000e+02,1.019876062621908108e+00,0.000000000000000000e+00
3.830000000000000000e+02,9.554454620396068965e-01,0.000000000000000000e+00
3.840000000000000000e+02,9.222945300033827953e-01,0.000000000000000000e+00
3.850000000000000000e+02,-1.806788446769537482e-02,0.000000000000000000e+00
3.860000000000000000e+02,-5.465526479203104415e-01,0.000000000000000000e+00
3.870000000000000000e+02,-9.319951418090798301e-01,0.000000000000000000e+00
3.880000000000000000e+02,-7.773496889758775286e-01,0.000000000000000000e+00
3.890000000000000000e+02,-8.281221672410002954e-01,0.000000000000000000e+00
3.900000000000000000e+02,-6.095520280552755299e-01,0.000000000000000000e+00
3.910000000000000000e+02,-9.121252861992515948e-01,0.000000000000000000e+00
3.920000000000000000e+02,-5.222132952133375916e-01,0.000000000000000000e+00
3.930000000000000000e+02,-6.873684845899010742e-01,0.000000000000000000e+00
3.940000000000000000e+02,-3.018181096874714142e-01,0.000000000000000000e+00
3.950000000000000000e+02,-4.468173280678921500e-01,0.000000000000000000e+00
3.960000000000000000e+02,-4.716029033175684892e-01,0.000000000000000000e+00
3.970000000000000000e+02,-3.854060546196610426e-01,0.000000000000000000e+00
3.980000000000000000e+02,-2.381047364449546955e-01,0.000000000000000000e+00
3.990000000000000000e+02,-3.038510448836934108e-01,0.000000000000000000e+00
4.000000000000000000e+02,-3.770181641247705162e-01,0.000000000000000000e+00
4.010000000000000000e+02,-3.806398848340146190e-01,0.000000000000000000e+00
4.020000000000000000e+02,-1.798726305787233248e-01,0.000000000000000000e+00
4.030000000000000000e+02,-1.444144211415931411e-01,0.000000000000000000e+00
4.040000000000000000e+02,5.844747753974246715e-03,0.000000000000000000e+00
4.050000000000000000e+02,-2.329106715126270377e-01,0.000000000000000000e+00
4.060000000000000000e+02,-7.757500044042990595e-02,0.000000000000000000e+00
4.070000000000000000e+02,-9.814742833531016342e-02,0.000000000000000000e+00
4.080000000000000000e+02,9.762737597284554258e-02,0.000000000000000000e+00
4.090000000000000000e+02,4.267044085680848919e-02,0.000000000000000000e+00
4.100000000000000000e+02,3.589784616153190999e-01,0.000000000000000000e+00
4.110000000000000000e+02,6.673831571248878269e-01,0.000000000000000000e+00
4.120000000000000000e+02,6.702368153776290249e-01,0.000000000000000000e+00
4.130000000000000000e+02,-4.455589030461487576e-02,0.000000000000000000e+00
4.140000000000000000e+02,2.478897320241793545e-02,0.000000000000000000e+00
4.150000000000000000e+02,-4.318296587003597198e-01,0.000000000000000000e+00
4.160000000000000000e+02,1.793523054624778512e-01,0.000000000000000000e+00
4.170000000000000000e+02,-5.124838426154236792e-01,0.000000000000000000e+00
4.180000000000000000e+02,1.066178256011335590e-01,0.000000000000000000e+00
4.190000000000000000e+02,-6.133482745119516188e-01,0.000000000000000000e+00
4.200000000000000000e+02,5.790330990820275581e+00,0.000000000000000000e+00
4.210000000000000000e+02,2.056642092455746251e+00,1.000000000000000000e+00
4.220000000000000000e+02,-2.400015205621784720e+00,0.000000000000000000e+00
4.230000000000000000e+02,-3.102547439189908829e-01,0.000000000000000000e+00
4.240000000000000000e+02,-1.066711482649970177e+00,0.000000000000000000e+00
4.250000000000000000e+02,-4.142368063623494412e-01,0.000000000000000000e+00
4.260000000000000000e+02,-8.284234084605153203e-01,0.000000000000000000e+00
4.270000000000000000e+02,-3.074554468901842808e-01,0.000000000000000000e+00
4.280000000000000000e+02,-4.245701343522849114e-01,0.000000000000000000e+00
4.290000000000000000e+02,-3.654536498613374929e-01,0.000000000000000000e+00
4.300000000000000000e+02,-3.657445056636210445e-01,0.000000000000000000e+00
4.310000000000000000e+02,-5.955845375600740677e-02,0.000000000000000000e+00
4.320000000000000000e+02,-5.483681820375434224e-02,0.000000000000000000e+00
4.330000000000000000e+02,1.906565622916507330e-01,0.000000000000000000e+00
4.340000000000000000e+02,2.192033660372370296e-01,0.000000000000000000e+00
4.350000000000000000e+02,5.540248424275644457e-01,0.000000000000000000e+00
4.360000000000000000e+02,6.722817297515459867e-01,0.000000000000000000e+00
4.370000000000000000e+02,1.044553627832855325e+00,0.000000000000000000e+00
4.380000000000000000e+02,1.055657367710868266e+00,0.000000000000000000e+00
4.390000000000000000e+02,9.772184603136301329e-01,0.000000000000000000e+00
4.400000000000000000e+02,-3.936850162834119112e-04,0.000000000000000000e+00
4.410000000000000000e+02,-5.473032662512484769e-01,0.000000000000000000e+00
4.420000000000000000e+02,-7.920309475556190915e-01,0.000000000000000000e+00
4.430000000000000000e+02,-7.188277607255386670e-01,0.000000000000000000e+00
4.440000000000000000e+02,-9.409621831177784612e-01,0.000000000000000000e+00
4.450000000000000000e+02,-7.068093717021639577e-01,0.000000000000000000e+00
4.460000000000000000e+02,-6.034302192608154147e-01,0.000000000000000000e+00
4.470000000000000000e+02,-4.869813174420314361e-01,0.000000000000000000e+00
4.480000000000000000e+02,-5.221939578592433850e-01,0.000000000000000000e+00
4.490000000000000000e+02,-3.838161418153001048e-01,0.000000000000000000e+00
4.500000000000000000e+02,-3.432342465524841346e-01,0.000000000000000000e+00
4.510000000000000000e+02,-3.253139491918308202e-01,0.000000000000000000e+00
4.520000000000000000e+02,-2.112468296668897905e-01,0.000000000000000000e+00
4.530000000000000000e+02,-2.934686627349231136e-01,0.000000000000000000e+00
4.540000000000000000e+02,-9.239338781278753909e-02,0.000000000000000000e+00
4.550000000000000000e+02,-2.396925073641880122e-01,0.000000000000000000e+00
4.560000000000000000e+02,-1.207396292012780925e-01,0.000000000000000000e+00
4.570000000000000000e+02,-7.331029602079001950e-02,0.000000000000000000e+00
4.580000000000000000e+02,-1.080908435120382649e-01,0.000000000000000000e+00
4.590000000000000000e+02,-6.655867484339886330e-04,0.000000000000000000e+00
4.600000000000000000e+02,8.530884021336394840e-02,0.000000000000000000e+00
4.610000000000000000e+02,-8.149944660378789091e-03,0.000000000000000000e+00
4.620000000000000000e+02,4.817160723300716041e-02,0.000000000000000000e+00
4.630000000000000000e+02,1.737327318590307090e-01,0.000000000000000000e+00
4.640000000000000000e+02,3.147895833740305127e-01,0.000000000000000000e+00
4.650000000000000000e+02,4.549340366894695231e-01,0.000000000000000000e+00
4.660000000000000000e+02,7.872330277007323351e-01,0.000000000000000000e+00
4.670000000000000000e+02,4.888650022061561962e-01,0.000000000000000000e+00
4.680000000000000000e+02,1.558508014282472265e-01,0.000000000000000000e+00
4.690000000000000000e+02,-2.435286087562378854e-01,0.000000000000000000e+00
4.700000000000000000e+02,-8.409687399697257648e-02,0.000000000000000000e+00
4.710000000000000000e+02,-2.889344450692544752e-01,0.000000000000000000e+00
4.720000000000000000e+02,9.219713012918508144e-02,0.000000000000000000e+00
4.730000000000000000e+02,-5.460465501244246012e-01,0.000000000000000000e+00
4.740000000000000000e+02,1.823059985312213360e+00,0.000000000000000000e+00
4.750000000000000000e+02,5.764411651931127700e+00,0.000000000000000000e+00
4.760000000000000000e+02,-1.691820448632466167e+00,1.000000000000000000e+00
4.770000000000000000e+02,-1.111351569162866593e+00,0.000000000000000000e+00
4.780000000000000000e+02,-6.668627866937147930e-01,0.000000000000000000e+00
4.790000000000000000e+02,-5.176731697240206653e-01,0.000000000000000000e+00
4.800000000000000000e+02,-5.360224191817644090e-01,0.000000000000000000e+00
4.810000000000000000e+02,-3.396856211194527742e-01,0.000000000000000000e+00
4.820000000000000000e+02,-3.708333421374722105e-01,0.000000000000000000e+00
4.830000000000000000e+02,-2.543645884494348808e-01,0.000000000000000000e+00
4.840000000000000000e+02,-1.613706966138472032e-01,0.000000000000000000e+00
4.850000000000000000e+02,-1.392679153461644226e-01,0.000000000000000000e+00
4.860000000000000000e+02,-3.432618208911727281e-02,0.000000000000000000e+00
4.870000000000000000e+02,4.009725515076165321e-03,0.000000000000000000e+00
4.880000000000000000e+02,2.106118782992865979e-01,0.000000000000000000e+00
4.890000000000000000e+02,4.569277687065059768e-01,0.000000000000000000e+00
4.900000000000000000e+02,5.684837928257863160e-01,0.000000000000000000e+00
4.910000000000000000e+02,7.847560813033832572e-01,0.000000000000000000e+00
4.920000000000000000e+02,1.042433970833213541e+00,0.000000000000000000e+00
4.930000000000000000e+02,9.204069101101587380e-01,0.000000000000000000e+00
4.940000000000000000e+02,6.209244078756602780e-01,0.000000000000000000e+00
4.950000000000000000e+02,-2.943655687244553509e-01,0.000000000000000000e+00
4.960000000000000000e+02,-6.519606871305709817e-01,0.000000000000000000e+00
4.970000000000000000e+02,-8.798268638158770472e-01,0.000000000000000000e+00
4.980000000000000000e+02,-7.884080766562280296e-01,0.000000000000000000e+00
4.990000000000000000e+02,-6.195431949854429687e-01,0.000000000000000000e+00
5.000000000000000000e+02,-7.294737741645561657e-01,0.000000000000000000e+00
5.010000000000000000e+02,-6.026758516355303907e-01,0.000000000000000000e+00
5.020000000000000000e+02,-4.245683405947154321e-01,0.000000000000000000e+00
5.030000000000000000e+02,-3.932991387083928925e-01,0.000000000000000000e+00
5.040000000000000000e+02,-3.776071226665680958e-01,0.000000000000000000e+00
5.050000000000000000e+02,-4.404640156028001852e-01,0.000000000000000000e+00
5.060000000000000000e+02,-2.824524281932286329e-01,0.000000000000000000e+00
5.070000000000000000e+02,-2.891872762633363458e-01,0.000000000000000000e+00
5.080000000000000000e+02,-2.317169624145564155e-01,0.000000000000000000e+00
5.090000000000000000e+02,-2.990478727147218296e-01,0.000000000000000000e+00
5.100000000000000000e+02,-1.183506073829428407e-01,0.000000000000000000e+00
5.110000000000000000e+02,-2.763514680415875557e-01,0.000000000000000000e+00
5.120000000000000000e+02,-3.154715375821808693e-02,0.000000000000000000e+00
5.130000000000000000e+02,-1.856350896886859170e-01,0.000000000000000000e+00
5.140000000000000000e+02,-1.804539882125972064e-02,0.000000000000000000e+00
5.150000000000000000e+02,-1.311210865121583413e-01,0.000000000000000000e+00
5.160000000000000000e+02,4.484317873055850001e-02,0.000000000000000000e+00
5.170000000000000000e+02,1.537946573643016457e-01,0.000000000000000000e+00
5.180000000000000000e+02,3.433344377878389531e-01,0.000000000000000000e+00
5.190000000000000000e+02,3.869657820413105465e-01,0.000000000000000000e+00
5.200000000000000000e+02,7.744360206000707736e-01,0.000000000000000000e+00
5.210000000000000000e+02,1.076440924742785993e-01,0.000000000000000000e+00
5.220000000000000000e+02,3.675597086862952660e-03,0.000000000000000000e+00
5.230000000000000000e+02,-4.625707726512560680e-01,0.000000000000000000e+00
5.240000000000000000e+02,9.329855775760714787e-02,0.000000000000000000e+00
5.250000000000000000e+02,-4.205114483368930789e-01,0.000000000000000000e+00
5.260000000000000000e+02,4.069718550138280988e-01,0.000000000000000000e+00
5.270000000000000000e+02,-7.121860677529341377e-01,0.000000000000000000e+00
5.280000000000000000e+02,4.375184007548845067e+00,0.000000000000000000e+00
5.290000000000000000e+02,2.768450110232508088e+00,1.000000000000000000e+00
5.300000000000000000e+02,-2.538025623955628696e+00,0.000000000000000000e+00
5.310000000000000000e+02,-1.788693397416875330e-01,0.000000000000000000e+00
5.320000000000000000e+02,-1.014722481823676636e+00,0.000000000000000000e+00
5.330000000000000000e+02,-3.563561547554927600e-01,0.000000000000000000e+00
5.340000000000000000e+02,-6.258248551848792918e-01,0.000000000000000000e+00
5.350000000000000000e+02,-1.056268341493798585e-01,0.000000000000000000e+00
5.360000000000000000e+02,-4.952456379622349747e-01,0.000000000000000000e+00
5.370000000000000000e+02,-6.269584722039571283e-03,0.000000000000000000e+00
5.380000000000000000e+02,-3.011348488684058022e-01,0.000000000000000000e+00
5.390000000000000000e+02,9.790008610793937693e-02,0.000000000000000000e+00
5.400000000000000000e+02,-1.206461103364386972e-01,0.000000000000000000e+00
5.410000000000000000e+02,3.352143664638350118e-01,0.000000000000000000e+00
5.420000000000000000e+02,2.859838886181711448e-01,0.000000000000000000e+00
5.430000000000000000e+02,7.264102238975964632e-01,0.000000000000000000e+00
5.440000000000000000e+02,6.210619549811444706e-01,0.000000000000000000e+00
5.450000000000000000e+02,1.159163886842561553e+00,0.000000000000000000e+00
5.460000000000000000e+02,1.110877828252190724e+00,0.000000000000000000e+00
5.470000000000000000e+02,1.028552380238701991e+00,0.000000000000000000e+00
5.480000000000000000e+02,2.216347556678140429e-01,0.000000000000000000e+00
5.490000000000000000e+02,-1.982543908621284268e-01,0.000000000000000000e+00
5.500000000000000000e+02,-7.869674075691626136e-01,0.000000000000000000e+00
5.510000000000000000e+02,-5.357254284454722182e-01,0.000000000000000000e+00
5.520000000000000000e+02,-7.513857228241568320e-01,0.000000000000000000e+00
5.530000000000000000e+02,-4.915802081979780969e-01,0.000000000000000000e+00
5.540000000000000000e+02,-5.294558644152219662e-01,0.000000000000000000e+00
5.550000000000000000e+02,-4.295115117757644652e-01,0.000000000000000000e+00
5.560000000000000000e+02,-2.956387358933518228e-01,0.000000000000000000e+00
5.570000000000000000e+02,-3.005250748968152918e-01,0.000000000000000000e+00
5.580000000000000000e+02,-3.132771765677351272e-01,0.000000000000000000e+00
5.590000000000000000e+02,-2.712265594254190809e-02,0.000000000000000000e+00
5.600000000000000000e+02,-2.825054494191351906e-01,0.000000000000000000e+00
5.610000000000000000e+02,-9.174978481285804566e-02,0.000000000000000000e+00
5.620000000000000000e+02,-2.239220624740260179e-01,0.000000000000000000e+00
5.630000000000000000e+02,-1.715547822491881799e-02,0.000000000000000000e+00
5.640000000000000000e+02,-1.852131511983693413e-01,0.000000000000000000e+00
5.650000000000000000e+02,5.450099256478221910e-02,0.000000000000000000e+00
5.660000000000000000e+02,-1.674588874256543736e-01,0.000000000000000000e+00
5.670000000000000000e+02,7.608485463100331248e-02,0.000000000000000000e+00
5.680000000000000000e+02,-6.620956876013991965e-02,0.000000000000000000e+00
5.690000000000000000e+02,1.704922151905984007e-01,0.000000000000000000e+00
5.700000000000000000e+02,-3.753925920853085768e-02,0.000000000000000000e+00
5.710000000000000000e+02,1.525957179886357762e-01,0.000000000000000000e+00
5.720000000000000000e+02,1.734224461556603814e-01,0.000000000000000000e+00
5.730000000000000000e+02,4.045645148540563674e-01,0.000000000000000000e+00
5.740000000000000000e+02,6.201286533749247321e-01,0.000000000000000000e+00
5.750000000000000000e+02,7.819624846376700411e-01,0.000000000000000000e+00
5.760000000000000000e+02,2.622819638156546618e-01,0.000000000000000000e+00
5.770000000000000000e+02,7.144779688349223168e-02,0.000000000000000000e+00
5.780000000000000000e+02,-3.640913715752487900e-01,0.000000000000000000e+00
5.790000000000000000e+02,1.021295077347362801e-01,0.000000000000000000e+00
5.800000000000000000e+02,-1.740922158141321452e-01,0.000000000000000000e+00
5.810000000000000000e+02,6.314613475951520727e-02,0.000000000000000000e+00
5.820000000000000000e+02,-3.552885252468114263e-01,0.000000000000000000e+00
5.830000000000000000e+02,6.001905302441212342e+00,0.000000000000000000e+00
5.840000000000000000e+02,1.682341403196468965e+00,1.000000000000000000e+00
5.850000000000000000e+02,-2.167858246336842765e+00,0.000000000000000000e+00
5.860000000000000000e+02,-2.590060135684003062e-01,0.000000000000000000e+00
5.870000000000000000e+02,-1.289875370565312762e+00,0.000000000000000000e+00
5.880000000000000000e+02,-2.812234060702480942e-01,0.000000000000000000e+00
5.890000000000000000e+02,-8.928487978290692295e-01,0.000000000000000000e+00
5.900000000000000000e+02,-2.234844357904856582e-01,0.000000000000000000e+00
5.910000000000000000e+02,-5.496806528274753578e-01,0.000000000000000000e+00
5.920000000000000000e+02,-2.779432764294660352e-01,0.000000000000000000e+00
5.930000000000000000e+02,-4.087100381817526662e-01,0.000000000000000000e+00
5.940000000000000000e+02,-3.729235157522671484e-02,0.000000000000000000e+00
5.950000000000000000e+02,-5.178288206563441687e-02,0.000000000000000000e+00
5.960000000000000000e+02,-9.809563468774385939e-03,0.000000000000000000e+00
5.970000000000000000e+02,1.284483826908978388e-01,0.000000000000000000e+00
5.980000000000000000e+02,6.254029383666258601e-01,0.000000000000000000e+00
5.990000000000000000e+02,6.367653874063506914e-01,0.000000000000000000e+00
6.000000000000000000e+02,9.033408370857304304e-01,0.000000000000000000e+00
6.010000000000000000e+02,9.156109788339702460e-01,0.000000000000000000e+00
6.020000000000000000e+02,8.431599994206995241e-01,0.000000000000000000e+00
6.030000000000000000e+02,7.803996376686561653e-02,0.000000000000000000e+00
6.040000000000000000e+02,-4.462815629674443119e-01,0.000000000000000000e+00
6.050000000000000000e+02,-1.001112081422415701e+00,0.000000000000000000e+00
6.060000000000000000e+02,-7.017310320117298161e-01,0.000000000000000000e+00
6.070000000000000000e+02,-7.551378229692389255e-01,0.000000000000000000e+00
6.080000000000000000e+02,-5.260925705631838145e-01,0.000000000000000000e+00
6.090000000000000000e+02,-6.922393377237040513e-01,0.000000000000000000e+00
6.100000000000000000e+02,-6.209397162021923489e-01,0.000000000000000000e+00
6.110000000000000000e+02,-4.842084934659205975e-01,0.000000000000000000e+00
6.120000000000000000e+02,-3.503441820338855650e-01,0.000000000000000000e+00
6.130000000000000000e+02,-3.570910483022093351e-01,0.000000000000000000e+00
6.140000000000000000e+02,-2.320042975402907548e-01,0.000000000000000000e+00
6.150000000000000000e+02,-4.156165190565926926e-01,0.000000000000000000e+00
6.160000000000000000e+02,-1.604881931125877181e-01,0.000000000000000000e+00
6.170000000000000000e+02,-2.871966299730159822e-01,0.000000000000000000e+00
6.180000000000000000e+02,-1.668865890738518987e-01,0.000000000000000000e+00
6.190000000000000000e+02,-1.064404896592441446e-01,0.000000000000000000e+00
6.200000000000000000e+02,-1.174309503615234423e-01,0.000000000000000000e+00
6.210000000000000000e+02,-2.070541529795827673e-01,0.000000000000000000e+00
6.220000000000000000e+02,3.537116576667276302e-02,0.000000000000000000e+00
6.230000000000000000e+02,-1.419913993006050590e-01,0.000000000000000000e+00
6.240000000000000000e+02,-4.343864002752675230e-02,0.000000000000000000e+00
6.250000000000000000e+02,5.394822285520028959e-02,0.000000000000000000e+00
6.260000000000000000e+02,1.247926076628157743e-01,0.000000000000000000e+00
6.270000000000000000e+02,-5.234717047680424729e-02,0.000000000000000000e+00
6.280000000000000000e+02,6.040876140670968786e-01,0.000000000000000000e+00
6.290000000000000000e+02,5.136316055578508122e-01,0.000000000000000000e+00
6.300000000000000000e+02,7.313133742049134911e-01,0.000000000000000000e+00
6.310000000000000000e+02,6.487622980338358936e-02,0.000000000000000000e+00
6.320000000000000000e+02,3.556941072904077905e-01,0.000000000000000000e+00
6.330000000000000000e+02,-5.836426187598983129e-01,0.000000000000000000e+00
6.340000000000000000e+02,-1.361410991727780850e-01,0.000000000000000000e+00
6.350000000000000000e+02,-3.401683563850527725e-01,0.000000000000000000e+00
6.360000000000000000e+02,3.475765057242808931e-01,0.000000000000000000e+00
6.370000000000000000e+02,-8.366070680326913589e-01,0.000000000000000000e+00
6.380000000000000000e+02,5.731417675020525238e+00,0.000000000000000000e+00
6.390000000000000000e+02,2.256227322294673598e+00,1.000000000000000000e+00
6.400000000000000000e+02,-2.325839166538879788e+00,0.000000000000000000e+00
6.410000000000000000e+02,-4.570145223217031982e-01,0.000000000000000000e+00
6.420000000000000000e+02,-1.189521824714593778e+00,0.000000000000000000e+00
6.430000000000000000e+02,-3.969851018089911587e-01,0.000000000000000000e+00
6.440000000000000000e+02,-8.663651114623170946e-01,0.000000000000000000e+00
6.450000000000000000e+02,-4.774574274292230913e-01,0.000000000000000000e+00
6.460000000000000000e+02,-6.081206826407741239e-01,0.000000000000000000e+00
6.470000000000000000e+02,-2.080580358774034577e-01,0.000000000000000000e+00
6.480000000000000000e+02,-4.167924594468678801e-01,0.000000000000000000e+00
6.490000000000000000e+02,-2.078261108309207850e-01,0.000000000000000000e+00
6.500000000000000000e+02,-1.765644434709952859e-01,0.000000000000000000e+00
6.510000000000000000e+02,2.373839668963611538e-01,0.000000000000000000e+00
6.520000000000000000e+02,1.017354320566382642e-01,0.000000000000000000e+00
6.530000000000000000e+02,5.145672212798849676e-01,0.000000000000000000e+00
6.540000000000000000e+02,5.375165177099185954e-01,0.000000000000000000e+00
6.550000000000000000e+02,1.084113183958744120e+00,0.000000000000000000e+00
6.560000000000000000e+02,1.073835877912429071e+00,0.000000000000000000e+00
6.570000000000000000e+02,9.308608916145011403e-01,0.000000000000000000e+00
6.580000000000000000e+02,8.211586299599427097e-02,0.000000000000000000e+00
6.590000000000000000e+02,-5.124751511680800675e-01,0.000000000000000000e+00
6.600000000000000000e+02,-7.897009704629420757e-01,0.000000000000000000e+00
6.610000000000000000e+02,-7.434050465024949483e-01,0.000000000000000000e+00
6.620000000000000000e+02,-7.134082750291281805e-01,0.000000000000000000e+00
6.630000000000000000e+02,-6.696319208056058514e-01,0.000000000000000000e+00
6.640000000000000000e+02,-6.494033922043791485e-01,0.000000000000000000e+00
6.650000000000000000e+02,-4.156964377360128360e-01,0.000000000000000000e+00
6.660000000000000000e+02,-5.067039120792754536e-01,0.000000000000000000e+00
6.670000000000000000e+02,-2.749307515683340197e-01,0.000000000000000000e+00
6.680000000000000000e+02,-3.905903803405217367e-01,0.000000000000000000e+00
6.690000000000000000e+02,-3.210669304768696275e-01,0.000000000000000000e+00
6.700000000000000000e+02,-2.274414767207486587e-01,0.000000000000000000e+00
6.710000000000000000e+02,-1.842084070157598286e-01,0.000000000000000000e+00
6.720000000000000000e+02,-2.268781992305953787e-01,0.000000000000000000e+00
6.730000000000000000e+02,-1.759378682018978846e-01,0.000000000000000000e+00
6.740000000000000000e+02,-1.075567266860833759e-01,0.000000000000000000e+00
6.750000000000000000e+02,-5.941973262274464346e-02,0.000000000000000000e+00
6.760000000000000000e+02,-1.329990799213081609e-01,0.000000000000000000e+00
6.770000000000000000e+02,2.502541236614873321e-02,0.000000000000000000e+00
6.780000000000000000e+02,7.337788744401455010e-02,0.000000000000000000e+00
6.790000000000000000e+02,-5.262859904751146511e-02,0.000000000000000000e+00
6.800000000000000000e+02,6.513526178248846277e-02,0.000000000000000000e+00
6.810000000000000000e+02,1.546507127475633958e-01,0.000000000000000000e+00
6.820000000000000000e+02,2.705766766016853286e-01,0.000000000000000000e+00
6.830000000000000000e+02,5.871785078264336599e-01,0.000000000000000000e+00
6.840000000000000000e+02,8.447552537808848960e-01,0.000000000000000000e+00
6.850000000000000000e+02,4.725954435788098373e-01,0.000000000000000000e+00
6.860000000000000000e+02,2.168234947461371576e-01,0.000000000000000000e+00
6.870000000000000000e+02,-3.080896167582569678e-01,0.000000000000000000e+00
6.880000000000000000e+02,7.313423729526918882e-02,0.000000000000000000e+00
6.890000000000000000e+02,-2.406507772446702109e-01,0.000000000000000000e+00
6.900000000000000000e+02,9.683354029789145723e-02,0.000000000000000000e+00
6.910000000000000000e+02,-4.727702602627113504e-01,0.000000000000000000e+00
6.920000000000000000e+02,1.855721601953592925e+00,0.000000000000000000e+00
6.930000000000000000e+02,6.245144324152696491e+00,0.000000000000000000e+00
6.940000000000000000e+02,-1.542474571457086441e+00,1.000000000000000000e+00
6.950000000000000000e+02,-1.025544991605204403e+00,0.000000000000000000e+00
6.960000000000000000e+02,-6.639335263590560032e-01,0.000000000000000000e+00
6.970000000000000000e+02,-6.881863068209639334e-01,0.000000000000000000e+00
6.980000000000000000e+02,-6.379303869687805717e-01,0.000000000000000000e+00
6.990000000000000000e+02,-3.614930306673205251e-01,0.000000000000000000e+00
7.000000000000000000e+02,-4.381512751547650408e-01,0.000000000000000000e+00
7.010000000000000000e+02,-3.339457752752156283e-01,0.000000000000000000e+00
7.020000000000000000e+02,-2.274000494448059351e-01,0.000000000000000000e+00
7.030000000000000000e+02,-4.482387590710729119e-02,0.000000000000000000e+00
7.040000000000000000e+02,-1.045862489376810922e-01,0.000000000000000000e+00
7.050000000000000000e+02,1.174422690855032175e-02,0.000000000000000000e+00
7.060000000000000000e+02,2.905988006693736581e-01,0.000000000000000000e+00
7.070000000000000000e+02,4.659795194124951578e-01,0.000000000000000000e+00
7.080000000000000000e+02,6.250780949723813151e-01,0.000000000000000000e+00
7.090000000000000000e+02,9.640183062198571795e-01,0.000000000000000000e+00
7.100000000000000000e+02,1.137696306691148518e+00,0.000000000000000000e+00
7.110000000000000000e+02,1.095199797006410458e+00,0.000000000000000000e+00
7.120000000000000000e+02,5.414972160612585572e-01,0.000000000000000000e+00
7.130000000000000000e+02,-1.130396604157046653e-01,0.000000000000000000e+00
7.140000000000000000e+02,-7.348713203897460078e-01,0.000000000000000000e+00
7.150000000000000000e+02,-7.066909383923780652e-01,0.000000000000000000e+00
7.160000000000000000e+02,-8.019397128225528304e-01,0.000000000000000000e+00
7.170000000000000000e+02,-6.972702801321880584e-01,0.000000000000000000e+00
7.180000000000000000e+02,-6.916942506205944197e-01,0.000000000000000000e+00
7.190000000000000000e+02,-6.067806279507714784e-01,0.000000000000000000e+00
7.200000000000000000e+02,-3.925816597575472189e-01,0.000000000000000000e+00
7.210000000000000000e+02,-4.547007599096966057e-01,0.000000000000000000e+00
7.220000000000000000e+02,-3.815393021040432431e-01,0.000000000000000000e+00
7.230000000000000000e+02,-4.402226908056650068e-01,0.000000000000000000e+00
7.240000000000000000e+02,-3.083484196647128806e-01,0.000000000000000000e+00
7.250000000000000000e+02,-1.964989885346953846e-01,0.000000000000000000e+00
7.260000000000000000e+02,-3.459101762268792513e-01,0.000000000000000000e+00
7.270000000000000000e+02,-1.501180167567786328e-01,0.000000000000000000e+00
7.280000000000000000e+02,-2.505706586568677285e-01,0.000000000000000000e+00
7.290000000000000000e+02,-1.192130110078974820e-01,0.000000000000000000e+00
7.300000000000000000e+02,-9.197749247665995553e-02,0.000000000000000000e+00
7.310000000000000000e+02,-1.796114948820740354e-01,0.000000000000000000e+00
7.320000000000000000e+02,2.181231834428440462e-03,0.000000000000000000e+00
7.330000000000000000e+02,-9.067568582954585454e-02,0.000000000000000000e+00
7.340000000000000000e+02,7.991550793761753591e-02,0.000000000000000000e+00
7.350000000000000000e+02,2.348927616340077407e-01,0.000000000000000000e+00
7.360000000000000000e+02,3.653107462936207583e-01,0.000000000000000000e+00
7.370000000000000000e+02,6.214347370236661394e-01,0.000000000000000000e+00
7.380000000000000000e+02,5.433156035494383085e-01,0.000000000000000000e+00
7.390000000000000000e+02,1.398600297730914488e-01,0.000000000000000000e+00
7.400000000000000000e+02,-1.720628419170918688e-01,0.000000000000000000e+00
7.410000000000000000e+02,-2.529185703463270318e-01,0.000000000000000000e+00
7.420000000000000000e+02,-6.976718505348464272e-02,0.000000000000000000e+00
7.430000000000000000e+02,-2.127027217810135984e-01,0.000000000000000000e+00
7.440000000000000000e+02,-1.717517753225186045e-02,0.000000000000000000e+00
7.450000000000000000e+02,2.598779527587043447e-01,0.000000000000000000e+00
7.460000000000000000e+02,5.721929191857808128e+00,0.000000000000000000e+00
7.470000000000000000e+02,1.157524227325924804e-01,1.000000000000000000e+00
7.480000000000000000e+02,-1.967080532808793247e+00,0.000000000000000000e+00
7.490000000000000000e+02,-3.461309710533760908e-01,0.000000000000000000e+00
7.500000000000000000e+02,-8.627442674874438167e-01,0.000000000000000000e+00
7.510000000000000000e+02,-2.605193096217036097e-01,0.000000000000000000e+00
7.520000000000000000e+02,-6.257515980201954209e-01,0.000000000000000000e+00
7.530000000000000000e+02,-2.076493131822511051e-01,0.000000000000000000e+00
7.540000000000000000e+02,-4.167412254434380015e-01,0.000000000000000000e+00
7.550000000000000000e+02,2.497800893808344372e-02,0.000000000000000000e+00
7.560000000000000000e+02,-2.959441277588972796e-01,0.000000000000000000e+00
7.570000000000000000e+02,9.355461357163542477e-03,0.000000000000000000e+00
7.580000000000000000e+02,-6.693354462906276128e-03,0.000000000000000000e+00
7.590000000000000000e+02,2.638155296009385142e-01,0.000000000000000000e+00
7.600000000000000000e+02,2.658184116194881597e-01,0.000000000000000000e+00
7.610000000000000000e+02,6.509777550666596690e-01,0.000000000000000000e+00
7.620000000000000000e+02,6.372612592153933386e-01,0.000000000000000000e+00
7.630000000000000000e+02,1.071845769142690585e+00,0.000000000000000000e+00
7.640000000000000000e+02,8.699638586549928165e-01,0.000000000000000000e+00
7.650000000000000000e+02,7.183359151409240972e-01,0.000000000000000000e+00
7.660000000000000000e+02,-1.930710654171154117e-01,0.000000000000000000e+00
7.670000000000000000e+02,-4.395363940419646509e-01,0.000000000000000000e+00
7.680000000000000000e+02,-9.207394836011018047e-01,0.000000000000000000e+00
7.690000000000000000e+02,-7.037380419150058852e-01,0.000000000000000000e+00
7.700000000000000000e+02,-7.377006662104698131e-01,0.000000000000000000e+00
7.710000000000000000e+02,-6.565029975105163285e-01,0.000000000000000000e+00
7.720000000000000000e+02,-6.239866088317711501e-01,0.000000000000000000e+00
7.730000000000000000e+02,-3.890788591996317547e-01,0.000000000000000000e+00
7.740000000000000000e+02,-5.146240967845653325e-01,0.000000000000000000e+00
7.750000000000000000e+02,-3.229854391805738190e-01,0.000000000000000000e+00
7.760000000000000000e+02,-3.539245569565175331e-01,0.000000000000000000e+00
7.770000000000000000e+02,-2.890812021080930161e-01,0.000000000000000000e+00
7.780000000000000000e+02,-4.096591595183451395e-01,0.000000000000000000e+00
7.790000000000000000e+02,-2.239096827980093241e-01,0.000000000000000000e+00
7.800000000000000000e+02,-4.007095641018047494e-01,0.000000000000000000e+00
7.810000000000000000e+02,-1.162457673437576056e-01,0.000000000000000000e+00
7.820000000000000000e+02,-2.786919163295414337e-01,0.000000000000000000e+00
7.830000000000000000e+02,-7.223240180751253070e-02,0.000000000000000000e+00
7.840000000000000000e+02,-2.298365529406212471e-01,0.000000000000000000e+00
7.850000000000000000e+02,-4.226034267740897549e-02,0.000000000000000000e+00
7.860000000000000000e+02,-2.682344413239231007e-01,0.000000000000000000e+00
7.870000000000000000e+02,1.436510312763988051e-01,0.000000000000000000e+00
7.880000000000000000e+02,1.439071363400521233e-02,0.000000000000000000e+00
7.890000000000000000e+02,4.261562729315363507e-01,0.000000000000000000e+00
7.900000000000000000e+02,4.637830093351875682e-01,0.000000000000000000e+00
7.910000000000000000e+02,6.423604410155614453e-01,0.000000000000000000e+00
7.920000000000000000e+02,4.287601968188695795e-02,0.000000000000000000e+00
7.930000000000000000e+02,8.351913259763046882e-02,0.000000000000000000e+00
7.940000000000000000e+02,-4.802251563763912379e-01,0.000000000000000000e+00
7.950000000000000000e+02,5.749537560973394523e-02,0.000000000000000000e+00
7.960000000000000000e+02,-4.214640300959283659e-01,0.000000000000000000e+00
7.970000000000000000e+02,1.353460653890021237e-01,0.000000000000000000e+00
7.980000000000000000e+02,-3.715558807291818866e-01,0.000000000000000000e+00
7.990000000000000000e+02,5.856216489817446913e+00,0.000000000000000000e+00
8.000000000000000000e+02,1.293211932366698846e+00,1.000000000000000000e+00
8.010000000000000000e+02,-2.088045495997968182e+00,0.000000000000000000e+00
8.020000000000000000e+02,-3.902485940853406277e-01,0.000000000000000000e+00
8.030000000000000000e+02,-8.890387017339893561e-01,0.000000000000000000e+00
8.040000000000000000e+02,-5.060317732030377158e-01,0.000000000000000000e+00
8.050000000000000000e+02,-8.292914985928371285e-01,0.000000000000000000e+00
8.060000000000000000e+02,-2.622988133319630877e-01,0.000000000000000000e+00
8.070000000000000000e+02,-4.555717273932305411e-01,0.000000000000000000e+00
8.080000000000000000e+02,-1.835438225440615134e-01,0.000000000000000000e+00
8.090000000000000000e+02,-4.184836055181205272e-01,0.000000000000000000e+00
8.100000000000000000e+02,-2.680288227020788741e-02,0.000000000000000000e+00
8.110000000000000000e+02,-4.527361895992353807e-02,0.000000000000000000e+00
8.120000000000000000e+02,2.461046983213135420e-01,0.000000000000000000e+00
8.130000000000000000e+02,1.407693851604326363e-01,0.000000000000000000e+00
8.140000000000000000e+02,5.209006910501859933e-01,0.000000000000000000e+00
8.150000000000000000e+02,8.169597837547817321e-01,0.000000000000000000e+00
8.160000000000000000e+02,1.007088620037872140e+00,0.000000000000000000e+00
8.170000000000000000e+02,1.092635412007461948e+00,0.000000000000000000e+00
8.180000000000000000e+02,9.049747638608627298e-01,0.000000000000000000e+00
8.190000000000000000e+02,1.743636457590787975e-02,0.000000000000000000e+00
8.200000000000000000e+02,-4.069610486654257064e-01,0.000000000000000000e+00
8.210000000000000000e+02,-8.225086428627056412e-01,0.000000000000000000e+00
8.220000000000000000e+02,-6.036402798857884999e-01,0.000000000000000000e+00
8.230000000000000000e+02,-6.032777722246110974e-01,0.000000000000000000e+00
8.240000000000000000e+02,-5.464819092106149023e-01,0.000000000000000000e+00
8.250000000000000000e+02,-5.959776956092583955e-01,0.000000000000000000e+00
8.260000000000000000e+02,-4.023413072111208799e-01,0.000000000000000000e+00
8.270000000000000000e+02,-3.770169823549646138e-01,0.000000000000000000e+00
8.280000000000000000e+02,-4.066973411228315127e-01,0.000000000000000000e+00
8.290000000000000000e+02,-1.595157422175013662e-01,0.000000000000000000e+00
8.300000000000000000e+02,-2.544590205393825189e-01,0.000000000000000000e+00
8.310000000000000000e+02,-2.528144137793681412e-01,0.000000000000000000e+00
8.320000000000000000e+02,-8.451399039096763044e-02,0.000000000000000000e+00
8.330000000000000000e+02,-9.683347404497739952e-02,0.000000000000000000e+00
8.340000000000000000e+02,-1.101105160279641365e-01,0.000000000000000000e+00
8.350000000000000000e+02,-5.377184581654020912e-02,0.000000000000000000e+00
8.360000000000000000e+02,-2.325854982130174525e-03,0.000000000000000000e+00
8.370000000000000000e+02,-4.174886340732233969e-02,0.000000000000000000e+00
8.380000000000000000e+02,-1.004440952960421463e-01,0.000000000000000000e+00
8.390000000000000000e+02,1.152804542710697544e-01,0.000000000000000000e+00
8.400000000000000000e+02,6.063737401708618052e-02,0.000000000000000000e+00
8.410000000000000000e+02,4.668469487526960560e-02,0.000000000000000000e+00
8.420000000000000000e+02,2.804632379245141638e-01,0.000000000000000000e+00
8.430000000000000000e+02,5.880264190288058135e-01,0.000000000000000000e+00
8.440000000000000000e+02,5.165609099494281597e-01,0.000000000000000000e+00
8.450000000000000000e+02,7.758599681881340748e-01,0.000000000000000000e+00
8.460000000000000000e+02,2.897242383417942269e-01,0.000000000000000000e+00
8.470000000000000000e+02,1.281519314267189243e-02,0.000000000000000000e+00
8.480000000000000000e+02,-2.562663857272069468e-01,0.000000000000000000e+00
8.490000000000000000e+02,4.438676826235492257e-02,0.000000000000000000e+00
8.500000000000000000e+02,-2.680086489775167502e-01,0.000000000000000000e+00
8.510000000000000000e+02,1.205403054763593412e-01,0.000000000000000000e+00
8.520000000000000000e+02,-5.298784653362830221e-01,0.000000000000000000e+00
8.530000000000000000e+02,5.727287266755940465e+00,0.000000000000000000e+00
8.540000000000000000e+02,2.346497292957545167e+00,1.000000000000000000e+00
8.550000000000000000e+02,-2.429484858998105956e+00,0.000000000000000000e+00
8.560000000000000000e+02,-2.634223102414868789e-01,0.000000000000000000e+00
8.570000000000000000e+02,-1.181314004506502036e+00,0.000000000000000000e+00
8.580000000000000000e+02,-3.879204266773749188e-01,0.000000000000000000e+00
8.590000000000000000e+02,-8.442823752512159663e-01,0.000000000000000000e+00
8.600000000000000000e+02,-3.037045981608799128e-01,0.000000000000000000e+00
8.610000000000000000e+02,-6.464153020936050931e-01,0.000000000000000000e+00
8.620000000000000000e+02,-1.693150754059299101e-01,0.000000000000000000e+00
8.630000000000000000e+02,-4.636057986598475233e-01,0.000000000000000000e+00
8.640000000000000000e+02,1.135675126128310322e-03,0.000000000000000000e+00
8.650000000000000000e+02,-2.019167931835099961e-01,0.000000000000000000e+00
8.660000000000000000e+02,1.694304557006788836e-01,0.000000000000000000e+00
8.670000000000000000e+02,1.644730724212157824e-01,0.000000000000000000e+00
8.680000000000000000e+02,6.417969074806310070e-01,0.000000000000000000e+00
8.690000000000000000e+02,6.203606924988604998e-01,0.000000000000000000e+00
8.700000000000000000e+02,1.127557312093538489e+00,0.000000000000000000e+00
8.710000000000000000e+02,1.007624876144826320e+00,0.000000000000000000e+00
8.720000000000000000e+02,9.911448538120657403e-01,0.000000000000000000e+00
8.730000000000000000e+02,-1.548909361986692580e-02,0.000000000000000000e+00
8.740000000000000000e+02,-2.921543920597657329e-01,0.000000000000000000e+00
8.750000000000000000e+02,-7.977656062357153521e-01,0.000000000000000000e+00
8.760000000000000000e+02,-6.694797387601197913e-01,0.000000000000000000e+00
8.770000000000000000e+02,-8.258805043297537951e-01,0.000000000000000000e+00
8.780000000000000000e+02,-5.978143784248886039e-01,0.000000000000000000e+00
8.790000000000000000e+02,-6.918545943433077605e-01,0.000000000000000000e+00
8.800000000000000000e+02,-4.449492785242602499e-01,0.000000000000000000e+00
8.810000000000000000e+02,-4.901241110328712347e-01,0.000000000000000000e+00
8.820000000000000000e+02,-4.157609846835649270e-01,0.000000000000000000e+00
8.830000000000000000e+02,-4.190299037457934639e-01,0.000000000000000000e+00
8.840000000000000000e+02,-1.997926186828083983e-01,0.000000000000000000e+00
8.850000000000000000e+02,-4.170364801531826759e-01,0.000000000000000000e+00
8.860000000000000000e+02,-7.284080361470446352e-02,0.000000000000000000e+00
8.870000000000000000e+02,-3.807902005411109569e-01,0.000000000000000000e+00
8.880000000000000000e+02,-4.078547485480437523e-02,0.000000000000000000e+00
8.890000000000000000e+02,-4.220910257269916976e-01,0.000000000000000000e+00
8.900000000000000000e+02,1.027599489953901907e-01,0.000000000000000000e+00
8.910000000000000000e+02,-2.367685506578784405e-01,0.000000000000000000e+00
8.920000000000000000e+02,3.057723311787566983e-02,0.000000000000000000e+00
8.930000000000000000e+02,-1.152907615736004227e-01,0.000000000000000000e+00
8.940000000000000000e+02,4.797855249915762565e-02,0.000000000000000000e+00
8.950000000000000000e+02,7.916363486950837858e-02,0.000000000000000000e+00
8.960000000000000000e+02,3.818284697325344812e-01,0.000000000000000000e+00
8.970000000000000000e+02,3.531319924083120565e-01,0.000000000000000000e+00
8.980000000000000000e+02,9.432359150717183338e-01,0.000000000000000000e+00
8.990000000000000000e+02,-3.949065932751441577e-02,0.000000000000000000e+00
9.000000000000000000e+02,2.374158803731338530e-01,0.000000000000000000e+00
9.010000000000000000e+02,-4.004563371924201864e-01,0.000000000000000000e+00
9.020000000000000000e+02,-1.134531151019137346e-01,0.000000000000000000e+00
9.030000000000000000e+02,-3.807591397658341981e-01,0.000000000000000000e+00
9.040000000000000000e+02,4.285240770699200175e-01,0.000000000000000000e+00
9.050000000000000000e+02,-1.205698965774719689e+00,0.000000000000000000e+00
9.060000000000000000e+02,4.220632899605877952e+00,0.000000000000000000e+00
9.070000000000000000e+02,4.494239947634040888e+00,0.000000000000000000e+00
9.080000000000000000e+02,-2.622733209129041398e+00,1.000000000000000000e+00
9.090000000000000000e+02,-5.147764679916535524e-01,0.000000000000000000e+00
9.100000000000000000e+02,-9.435469075448718046e-01,0.000000000000000000e+00
9.110000000000000000e+02,-5.300186335082252009e-01,0.000000000000000000e+00
9.120000000000000000e+02,-8.798752425532189170e-01,0.000000000000000000e+00
9.130000000000000000e+02,-3.616437378025081362e-01,0.000000000000000000e+00
9.140000000000000000e+02,-6.381307446150807916e-01,0.000000000000000000e+00
9.150000000000000000e+02,-2.217890069049651969e-01,0.000000000000000000e+00
9.160000000000000000e+02,-3.906367344336065806e-01,0.000000000000000000e+00
9.170000000000000000e+02,-1.327507958029485180e-01,0.000000000000000000e+00
9.180000000000000000e+02,-1.427658866518674852e-01,0.000000000000000000e+00
9.190000000000000000e+02,8.177297255994592229e-02,0.000000000000000000e+00
9.200000000000000000e+02,9.162831441565955082e-02,0.000000000000000000e+00
9.210000000000000000e+02,5.576454562755286393e-01,0.000000000000000000e+00
9.220000000000000000e+02,6.677622013985035077e-01,0.000000000000000000e+00
9.230000000000000000e+02,8.989904141910367574e-01,0.000000000000000000e+00
9.240000000000000000e+02,1.120833895541072822e+00,0.000000000000000000e+00
9.250000000000000000e+02,1.001519521049338612e+00,0.000000000000000000e+00
9.260000000000000000e+02,3.101794144148052879e-01,0.000000000000000000e+00
9.270000000000000000e+02,-3.955192550151921949e-01,0.000000000000000000e+00
9.280000000000000000e+02,-8.354761271862218841e-01,0.000000000000000000e+00
9.290000000000000000e+02,-7.074201767770996740e-01,0.000000000000000000e+00
9.300000000000000000e+02,-6.987379616454025832e-01,0.000000000000000000e+00
9.310000000000000000e+02,-6.768656082565315257e-01,0.000000000000000000e+00
9.320000000000000000e+02,-5.042049548395878267e-01,0.000000000000000000e+00
9.330000000000000000e+02,-5.444441404079614077e-01,0.000000000000000000e+00
9.340000000000000000e+02,-4.612039889631233680e-01,0.000000000000000000e+00
9.350000000000000000e+02,-3.632449006127269620e-01,0.000000000000000000e+00
9.360000000000000000e+02,-3.471052578492872520e-01,0.000000000000000000e+00
9.370000000000000000e+02,-2.819718384146293055e-01,0.000000000000000000e+00
9.380000000000000000e+02,-3.308601524012869111e-01,0.000000000000000000e+00
9.390000000000000000e+02,-2.642066596181285587e-01,0.000000000000000000e+00
9.400000000000000000e+02,-1.139794167859436574e-01,0.000000000000000000e+00
9.410000000000000000e+02,-2.150187453796549297e-01,0.000000000000000000e+00
9.420000000000000000e+02,-9.115840077198034130e-02,0.000000000000000000e+00
9.430000000000000000e+02,-1.932517370439255089e-01,0.000000000000000000e+00
9.440000000000000000e+02,-7.382903580212306360e-02,0.000000000000000000e+00
9.450000000000000000e+02,-2.741438799465440584e-02,0.000000000000000000e+00
9.460000000000000000e+02,-5.406820498291337734e-02,0.000000000000000000e+00
9.470000000000000000e+02,-3.521901258634471676e-02,0.000000000000000000e+00
9.480000000000000000e+02,1.150983120710976637e-01,0.000000000000000000e+00
9.490000000000000000e+02,1.597280087289432160e-01,0.000000000000000000e+00
9.500000000000000000e+02,5.857197543793057903e-01,0.000000000000000000e+00
9.510000000000000000e+02,6.166939589103411778e-01,0.000000000000000000e+00
9.520000000000000000e+02,7.436056853699646307e-01,0.000000000000000000e+00
9.530000000000000000e+02,1.120541253870076248e-01,0.000000000000000000e+00
9.540000000000000000e+02,-3.674727307365181772e-02,0.000000000000000000e+00
9.550000000000000000e+02,-1.522272331468754736e-01,0.000000000000000000e+00
9.560000000000000000e+02,1.973273529545652855e-02,0.000000000000000000e+00
9.570000000000000000e+02,-2.635934428272656005e-01,0.000000000000000000e+00
9.580000000000000000e+02,1.731166579178786413e-01,0.000000000000000000e+00
9.590000000000000000e+02,-2.334022846662512363e-01,0.000000000000000000e+00
9.600000000000000000e+02,5.742856917924857640e+00,0.000000000000000000e+00
9.610000000000000000e+02,1.050305538395914562e+00,1.000000000000000000e+00
9.620000000000000000e+02,-2.226094991002885770e+00,0.000000000000000000e+00
9.630000000000000000e+02,-1.866663629766453225e-01,0.000000000000000000e+00
9.640000000000000000e+02,-9.818416210590921178e-01,0.000000000000000000e+00
9.650000000000000000e+02,-3.233883655973558979e-01,0.000000000000000000e+00
9.660000000000000000e+02,-6.770715303374236216e-01,0.000000000000000000e+00
9.670000000000000000e+02,-1.788415844046996328e-01,0.000000000000000000e+00
9.680000000000000000e+02,-3.678126752290821755e-01,0.000000000000000000e+00
9.690000000000000000e+02,-1.767860859991626510e-01,0.000000000000000000e+00
9.700000000000000000e+02,-9.994954675255254828e-02,0.000000000000000000e+00
9.710000000000000000e+02,-6.845681481133243651e-02,0.000000000000000000e+00
9.720000000000000000e+02,1.030676813716415730e-01,0.000000000000000000e+00
9.730000000000000000e+02,3.134660670789810033e-01,0.000000000000000000e+00
9.740000000000000000e+02,1.251421443104328013e-01,0.000000000000000000e+00
9.750000000000000000e+02,7.251525229324058408e-01,0.000000000000000000e+00
9.760000000000000000e+02,7.375866971849690534e-01,0.000000000000000000e+00
9.770000000000000000e+02,1.107848087030802287e+00,0.000000000000000000e+00
9.780000000000000000e+02,1.052737204953502426e+00,0.000000000000000000e+00
9.790000000000000000e+02,7.733832751590440369e-01,0.000000000000000000e+00
9.800000000000000000e+02,-5.654021123366560764e-02,0.000000000000000000e+00
9.810000000000000000e+02,-4.683947446848773510e-01,0.000000000000000000e+00
9.820000000000000000e+02,-7.956980227248523496e-01,0.000000000000000000e+00
9.830000000000000000e+02,-6.433658819769673132e-01,0.000000000000000000e+00
9.840000000000000000e+02,-8.677693697591249977e-01,0.000000000000000000e+00
9.850000000000000000e+02,-5.348540946668954854e-01,0.000000000000000000e+00
9.860000000000000000e+02,-5.731999363730873043e-01,0.000000000000000000e+00
9.870000000000000000e+02,-5.006153399448830532e-01,0.000000000000000000e+00
9.880000000000000000e+02,-3.432862539992954098e-01,0.000000000000000000e+00
9.890000000000000000e+02,-2.756597430019657180e-01,0.000000000000000000e+00
9.900000000000000000e+02,-4.051521785585349700e-01,0.000000000000000000e+00
9.910000000000000000e+02,-1.571008687777530888e-01,0.000000000000000000e+00
9.920000000000000000e+02,-4.109880998575914934e-01,0.000000000000000000e+00
9.930000000000000000e+02,-7.196696322949111546e-02,0.000000000000000000e+00
9.940000000000000000e+02,-2.913808645380478457e-01,0.000000000000000000e+00
9.950000000000000000e+02,-1.681035127706582699e-01,0.000000000000000000e+00
9.960000000000000000e+02,-1.239038368415321112e-01,0.000000000000000000e+00
9.970000000000000000e+02,-1.585002267125872333e-01,0.000000000000000000e+00
9.980000000000000000e+02,-1.399138463303170599e-01,0.000000000000000000e+00
9.990000000000000000e+02,1.404417294254631937e-02,0.000000000000000000e+00
1.000000000000000000e+03,-1.591710052174246381e-01,0.000000000000000000e+00
1.001000000000000000e+03,1.036329064033930519e-01,0.000000000000000000e+00
1.002000000000000000e+03,7.559423840766617275e-02,0.000000000000000000e+00
1.003000000000000000e+03,4.025450854611209994e-01,0.000000000000000000e+00
1.004000000000000000e+03,5.802412027456532728e-01,0.000000000000000000e+00
1.005000000000000000e+03,5.848508259490691197e-01,0.000000000000000000e+00
1.006000000000000000e+03,1.021700512076490902e-01,0.000000000000000000e+00
1.007000000000000000e+03,-1.362582669209783659e-01,0.000000000000000000e+00
1.008000000000000000e+03,-3.224813508848381471e-01,0.000000000000000000e+00
1.009000000000000000e+03,3.001829505126935374e-02,0.000000000000000000e+00
1.010000000000000000e+03,-2.871989635779841898e-01,0.000000000000000000e+00
1.011000000000000000e+03,9.836059810518928137e-02,0.000000000000000000e+00
1.012000000000000000e+03,-1.988885529707395683e-01,0.000000000000000000e+00
1.013000000000000000e+03,5.289303512318256573e+00,0.000000000000000000e+00
1.014000000000000000e+03,8.437807590023543858e-01,1.000000000000000000e+00
1.015000000000000000e+03,-2.174446999518690582e+00,0.000000000000000000e+00
1.016000000000000000e+03,-2.660814275796446471e-01,0.000000000000000000e+00
1.017000000000000000e+03,-9.825817971053226740e-01,0.000000000000000000e+00
1.018000000000000000e+03,-3.383757394303158472e-01,0.000000000000000000e+00
1.019000000000000000e+03,-5.570480976642884219e-01,0.000000000000000000e+00
1.020000000000000000e+03,-1.847325756066179880e-01,0.000000000000000000e+00
1.021000000000000000e+03,-5.586806894337864593e-01,0.000000000000000000e+00
1.022000000000000000e+03,-1.419295584167112045e-01,0.000000000000000000e+00
1.023000000000000000e+03,-1.474533428604362095e-01,0.000000000000000000e+00
1.024000000000000000e+03,-9.916094750675628292e-04,0.000000000000000000e+00
1.025000000000000000e+03,-7.339151734258990423e-02,0.000000000000000000e+00
1.026000000000000000e+03,2.460100279560500647e-01,0.000000000000000000e+00
1.027000000000000000e+03,2.592639894138146217e-01,0.000000000000000000e+00
1.028000000000000000e+03,5.550953680008223756e-01,0.000000000000000000e+00
1.029000000000000000e+03,7.805239420802222439e-01,0.000000000000000000e+00
1.030000000000000000e+03,9.760978227443215527e-01,0.000000000000000000e+00
1.031000000000000000e+03,9.968985628166913138e-01,0.000000000000000000e+00
1.032000000000000000e+03,7.992214914486562849e-01,0.000000000000000000e+00
1.033000000000000000e+03,-8.527440304188775577e-02,0.000000000000000000e+00
1.034000000000000000e+03,-4.897561299016293113e-01,0.000000000000000000e+00
1.035000000000000000e+03,-7.888421795093139011e-01,0.000000000000000000e+00
1.036000000000000000e+03,-7.843684243059916295e-01,0.000000000000000000e+00
1.037000000000000000e+03,-7.569768349198982005e-01,0.000000000000000000e+00
1.038000000000000000e+03,-5.471609499045314573e-01,0.000000000000000000e+00
1.039000000000000000e+03,-6.086806434399891774e-01,0.000000000000000000e+00
1.040000000000000000e+03,-4.415282004531518312e-01,0.000000000000000000e+00
1.041000000000000000e+03,-4.514205469307975283e-01,0.000000000000000000e+00
1.042000000000000000e+03,-2.978381567948115705e-01,0.000000000000000000e+00
1.043000000000000000e+03,-3.538204877045145746e-01,0.000000000000000000e+00
1.044000000000000000e+03,-1.046515503458815416e-01,0.000000000000000000e+00
1.045000000000000000e+03,-3.288221904555939656e-01,0.000000000000000000e+00
1.046000000000000000e+03,-1.581293480999742818e-01,0.000000000000000000e+00
1.047000000000000000e+03,-1.956966991703252834e-01,0.000000000000000000e+00
1.048000000000000000e+03,-1.481787340574431955e-01,0.000000000000000000e+00
1.049000000000000000e+03,-1.630662331541506971e-01,0.000000000000000000e+00
1.050000000000000000e+03,-4.678006352706008675e-02,0.000000000000000000e+00
1.051000000000000000e+03,-1.389841434093925798e-01,0.000000000000000000e+00
1.052000000000000000e+03,-1.629705664943229774e-03,0.000000000000000000e+00
1.053000000000000000e+03,-1.623229813216578443e-01,0.000000000000000000e+00
1.054000000000000000e+03,2.801718945983580067e-01,0.000000000000000000e+00
1.055000000000000000e+03,5.413212247059098585e-03,0.000000000000000000e+00
1.056000000000000000e+03,5.227190149225442450e-01,0.000000000000000000e+00
1.057000000000000000e+03,5.409666394155784319e-01,0.000000000000000000e+00
1.058000000000000000e+03,7.237235412508380428e-01,0.000000000000000000e+00
1.059000000000000000e+03,2.562680315862636560e-01,0.000000000000000000e+00
1.060000000000000000e+03,1.600339481765911676e-01,0.000000000000000000e+00
1.061000000000000000e+03,-3.191905117259905000e-01,0.000000000000000000e+00
1.062000000000000000e+03,1.983099507557948560e-01,0.000000000000000000e+00
1.063000000000000000e+03,-3.922606897001427173e-01,0.000000000000000000e+00
1.064000000000000000e+03,2.973340711855866347e-01,0.000000000000000000e+00
1.065000000000000000e+03,-7.728614083510311206e-01,0.000000000000000000e+00
1.066000000000000000e+03,5.641688964769207892e+00,0.000000000000000000e+00
1.067000000000000000e+03,2.694146785682270728e+00,1.000000000000000000e+00
1.068000000000000000e+03,-2.340428185887174717e+00,0.000000000000000000e+00
1.069000000000000000e+03,-2.223425548092312354e-01,0.000000000000000000e+00
1.070000000000000000e+03,-1.106800236114324543e+00,0.000000000000000000e+00
1.071000000000000000e+03,-3.648938831388154336e-01,0.000000000000000000e+00
1.072000000000000000e+03,-7.891848793782632043e-01,0.000000000000000000e+00
1.073000000000000000e+03,-3.333445621456752606e-01,0.000000000000000000e+00
1.074000000000000000e+03,-4.836064507817089964e-01,0.000000000000000000e+00
1.075000000000000000e+03,-1.795589832791962548e-01,0.000000000000000000e+00
1.076000000000000000e+03,-3.616576583287627877e-01,0.000000000000000000e+00
1.077000000000000000e+03,-9.680696274853552163e-02,0.000000000000000000e+00
1.078000000000000000e+03,-7.952426363250096608e-02,0.000000000000000000e+00
1.079000000000000000e+03,1.083545507823279047e-01,0.000000000000000000e+00
1.080000000000000000e+03,7.120076399685397461e-02,0.000000000000000000e+00
1.081000000000000000e+03,5.980994034339152110e-01,0.000000000000000000e+00
1.082000000000000000e+03,6.849482600029068724e-01,0.000000000000000000e+00
1.083000000000000000e+03,9.655656598703403759e-01,0.000000000000000000e+00
1.084000000000000000e+03,9.798933452519492660e-01,0.000000000000000000e+00
1.085000000000000000e+03,9.749141275145132290e-01,0.000000000000000000e+00
1.086000000000000000e+03,-4.023027376503052893e-03,0.000000000000000000e+00
1.087000000000000000e+03,-4.994996160858863887e-01,0.000000000000000000e+00
1.088000000000000000e+03,-7.820708140196038771e-01,0.000000000000000000e+00
1.089000000000000000e+03,-7.843944474565348601e-01,0.000000000000000000e+00
1.090000000000000000e+03,-7.843815876691747624e-01,0.000000000000000000e+00
1.091000000000000000e+03,-6.421967825027323773e-01,0.000000000000000000e+00
1.092000000000000000e+03,-7.458659918721020077e-01,0.000000000000000000e+00
1.093000000000000000e+03,-4.301847981460326653e-01,0.000000000000000000e+00
1.094000000000000000e+03,-6.178663517141063100e-01,0.000000000000000000e+00
1.095000000000000000e+03,-3.572884196770333420e-01,0.000000000000000000e+00
1.096000000000000000e+03,-5.293379286842803122e-01,0.000000000000000000e+00
1.097000000000000000e+03,-2.230713768453826962e-01,0.000000000000000000e+00
1.098000000000000000e+03,-3.216454853671374958e-01,0.000000000000000000e+00
1.099000000000000000e+03,-1.811255273169762037e-01,0.000000000000000000e+00
1.100000000000000000e+03,-2.485473730330741982e-01,0.000000000000000000e+00
1.101000000000000000e+03,-2.427039528272088298e-01,0.000000000000000000e+00
1.102000000000000000e+03,-8.765671157542395675e-02,0.000000000000000000e+00
1.103000000000000000e+03,-1.675031330181219469e-01,0.000000000000000000e+00
1.104000000000000000e+03,-9.059903696158093378e-02,0.000000000000000000e+00
1.105000000000000000e+03,-9.108969993833054835e-02,0.000000000000000000e+00
1.106000000000000000e+03,1.397708351279335418e-02,0.000000000000000000e+00
1.107000000000000000e+03,8.720999901441241209e-02,0.000000000000000000e+00
1.108000000000000000e+03,2.483251947209426103e-01,0.000000000000000000e+00
1.109000000000000000e+03,3.664455351099537017e-01,0.000000000000000000e+00
1.110000000000000000e+03,6.565597934728887308e-01,0.000000000000000000e+00
1.111000000000000000e+03,4.906872467741807409e-01,0.000000000000000000e+00
1.112000000000000000e+03,9.295709147510640424e-02,0.000000000000000000e+00
1.113000000000000000e+03,-2.985703260019798022e-01,0.000000000000000000e+00
1.114000000000000000e+03,-2.499182032453855506e-01,0.000000000000000000e+00
1.115000000000000000e+03,-1.494760375136367780e-01,0.000000000000000000e+00
1.116000000000000000e+03,-2.229738661519227449e-02,0.000000000000000000e+00
1.117000000000000000e+03,-4.736581160959901782e-01,0.000000000000000000e+00
1.118000000000000000e+03,1.365545633242878587e+00,0.000000000000000000e+00
1.119000000000000000e+03,6.403408088716553870e+00,0.000000000000000000e+00
1.120000000000000000e+03,-1.089284947088072553e+00,1.000000000000000000e+00
1.121000000000000000e+03,-1.248922702436449983e+00,0.000000000000000000e+00
1.122000000000000000e+03,-6.963268798546632388e-01,0.000000000000000000e+00
1.123000000000000000e+03,-7.382144401736487893e-01,0.000000000000000000e+00
1.124000000000000000e+03,-6.913102696148634152e-01,0.000000000000000000e+00
1.125000000000000000e+03,-5.921056577191496917e-01,0.000000000000000000e+00
1.126000000000000000e+03,-4.570471501520416147e-01,0.000000000000000000e+00
1.127000000000000000e+03,-4.064495070681722333e-01,0.000000000000000000e+00
1.128000000000000000e+03,-3.155034903257201706e-01,0.000000000000000000e+00
1.129000000000000000e+03,-2.295682334094852062e-01,0.000000000000000000e+00
1.130000000000000000e+03,-1.634435146236047076e-01,0.000000000000000000e+00
1.131000000000000000e+03,1.372825076349693321e-02,0.000000000000000000e+00
1.132000000000000000e+03,5.733338359726511402e-02,0.000000000000000000e+00
1.133000000000000000e+03,4.096796719385578101e-01,0.000000000000000000e+00
1.134000000000000000e+03,5.178656929390781372e-01,0.000000000000000000e+00
1.135000000000000000e+03,8.693842292654744286e-01,0.000000000000000000e+00
1.136000000000000000e+03,1.133313240533261546e+00,0.000000000000000000e+00
1.137000000000000000e+03,1.180765314860527937e+00,0.000000000000000000e+00
1.138000000000000000e+03,5.506903098881579250e-01,0.000000000000000000e+00
1.139000000000000000e+03,-2.024802540745808122e-01,0.000000000000000000e+00
1.140000000000000000e+03,-7.550161275118411064e-01,0.000000000000000000e+00
1.141000000000000000e+03,-6.522430864654090721e-01,0.000000000000000000e+00
1.142000000000000000e+03,-7.172643349587164430e-01,0.000000000000000000e+00
1.143000000000000000e+03,-5.993787745327436856e-01,0.000000000000000000e+00
1.144000000000000000e+03,-6.719476286698448098e-01,0.000000000000000000e+00
1.145000000000000000e+03,-4.462910037303375321e-01,0.000000000000000000e+00
1.146000000000000000e+03,-4.891035356716245674e-01,0.000000000000000000e+00
1.147000000000000000e+03,-3.010359848803006999e-01,0.000000000000000000e+00
1.148000000000000000e+03,-4.536766831356037755e-01,0.000000000000000000e+00
1.149000000000000000e+03,-2.292944916990728721e-01,0.000000000000000000e+00
1.150000000000000000e+03,-2.214673439880635863e-01,0.000000000000000000e+00
1.151000000000000000e+03,-1.824064210829325627e-01,0.000000000000000000e+00
1.152000000000000000e+03,-2.473593605815953000e-01,0.000000000000000000e+00
1.153000000000000000e+03,-9.365855335373940438e-02,0.000000000000000000e+00
1.154000000000000000e+03,-1.713705552167908153e-01,0.000000000000000000e+00
1.155000000000000000e+03,-6.223338048283330592e-02,0.000000000000000000e+00
1.156000000000000000e+03,-3.656857260762246681e-02,0.000000000000000000e+00
1.157000000000000000e+03,-9.697880836948141736e-02,0.000000000000000000e+00
1.158000000000000000e+03,-8.817560690780382182e-02,0.000000000000000000e+00
1.159000000000000000e+03,5.360529243660247523e-02,0.000000000000000000e+00
1.160000000000000000e+03,3.001744249596264777e-02,0.000000000000000000e+00
1.161000000000000000e+03,3.824046281664428282e-01,0.000000000000000000e+00
1.162000000000000000e+03,3.136178364074339586e-01,0.000000000000000000e+00
1.163000000000000000e+03,8.114678790092557659e-01,0.000000000000000000e+00
1.164000000000000000e+03,3.073271899378736127e-01,0.000000000000000000e+00
1.165000000000000000e+03,1.014912777240923880e-01,0.000000000000000000e+00
1.166000000000000000e+03,-2.895861350363514997e-01,0.000000000000000000e+00
1.167000000000000000e+03,-8.841799528481736337e-02,0.000000000000000000e+00
1.168000000000000000e+03,-3.390500156617859417e-01,0.000000000000000000e+00
1.169000000000000000e+03,1.062585240361732242e-01,0.000000000000000000e+00
1.170000000000000000e+03,-6.500709584670553154e-01,0.000000000000000000e+00
1.171000000000000000e+03,1.859577896224164695e+00,0.000000000000000000e+00
1.172000000000000000e+03,6.191135499713818824e+00,0.000000000000000000e+00
1.173000000000000000e+03,-1.540098709513412212e+00,1.000000000000000000e+00
1.174000000000000000e+03,-1.032288858695573852e+00,0.000000000000000000e+00
1.175000000000000000e+03,-8.134916501388554932e-01,0.000000000000000000e+00
1.176000000000000000e+03,-6.703049771771507626e-01,0.000000000000000000e+00
1.177000000000000000e+03,-7.520480909994171625e-01,0.000000000000000000e+00
1.178000000000000000e+03,-4.852678638819499790e-01,0.000000000000000000e+00
1.179000000000000000e+03,-4.528429562030011346e-01,0.000000000000000000e+00
1.180000000000000000e+03,-3.842272942419837078e-01,0.000000000000000000e+00
1.181000000000000000e+03,-2.632748056117147906e-01,0.000000000000000000e+00
1.182000000000000000e+03,-2.314075435905840472e-01,0.000000000000000000e+00
1.183000000000000000e+03,-1.600269965937893279e-01,0.000000000000000000e+00
1.184000000000000000e+03,2.183545688071172053e-01,0.000000000000000000e+00
1.185000000000000000e+03,1.445026119992131597e-01,0.000000000000000000e+00
1.186000000000000000e+03,4.160169777537299218e-01,0.000000000000000000e+00
1.187000000000000000e+03,6.910203519393618432e-01,0.000000000000000000e+00
1.188000000000000000e+03,9.042787288889467812e-01,0.000000000000000000e+00
1.189000000000000000e+03,1.168384745157572846e+00,0.000000000000000000e+00
1.190000000000000000e+03,1.108075891590080353e+00,0.000000000000000000e+00
1.191000000000000000e+03,5.737752258314143816e-01,0.000000000000000000e+00
1.192000000000000000e+03,-1.582757268250937210e-01,0.000000000000000000e+00
1.193000000000000000e+03,-6.351939976878527849e-01,0.000000000000000000e+00
1.194000000000000000e+03,-7.683459582829362811e-01,0.000000000000000000e+00
1.195000000000000000e+03,-6.488395868532651489e-01,0.000000000000000000e+00
1.196000000000000000e+03,-6.083757604332532543e-01,0.000000000000000000e+00
1.197000000000000000e+03,-6.374770186784337600e-01,0.000000000000000000e+00
1.198000000000000000e+03,-5.383420510793180958e-01,0.000000000000000000e+00
1.199000000000000000e+03,-5.162477463597264782e-01,0.000000000000000000e+00
1.200000000000000000e+03,-3.683487475344617845e-01,0.000000000000000000e+00
1.201000000000000000e+03,-3.175512760308379367e-01,0.000000000000000000e+00
1.202000000000000000e+03,-2.859431988885922094e-01,0.000000000000000000e+00
1.203000000000000000e+03,-3.016848719101922760e-01,0.000000000000000000e+00
1.204000000000000000e+03,-3.075416243696660334e-01,0.000000000000000000e+00
1.205000000000000000e+03,-2.148311101360861897e-01,0.000000000000000000e+00
1.206000000000000000e+03,-8.851314465514731333e-02,0.000000000000000000e+00
1.207000000000000000e+03,-1.936030639464895176e-01,0.000000000000000000e+00
1.208000000000000000e+03,-5.594716229409617964e-02,0.000000000000000000e+00
1.209000000000000000e+03,-1.545367946852697627e-01,0.000000000000000000e+00
1.210000000000000000e+03,-7.613671732280107018e-02,0.000000000000000000e+00
1.211000000000000000e+03,-3.591249052765359967e-02,0.000000000000000000e+00
1.212000000000000000e+03,9.912288693636524262e-02,0.000000000000000000e+00
1.213000000000000000e+03,2.420483914664890157e-01,0.000000000000000000e+00
1.214000000000000000e+03,4.324922353582684176e-01,0.000000000000000000e+00
1.215000000000000000e+03,6.373317498979413909e-01,0.000000000000000000e+00
1.216000000000000000e+03,4.988764387847429704e-01,0.000000000000000000e+00
1.217000000000000000e+03,3.037329938706478938e-02,0.000000000000000000e+00
1.218000000000000000e+03,-2.094107913237950869e-01,0.000000000000000000e+00
1.219000000000000000e+03,-1.068829864514571903e-01,0.000000000000000000e+00
1.220000000000000000e+03,-2.259411490551515300e-01,0.000000000000000000e+00
1.221000000000000000e+03,-9.145095923853122089e-02,0.000000000000000000e+00
1.222000000000000000e+03,-2.242238603943110808e-01,0.000000000000000000e+00
1.223000000000000000e+03,7.956872054761917612e-01,0.000000000000000000e+00
1.224000000000000000e+03,5.673198630008568166e+00,0.000000000000000000e+00
1.225000000000000000e+03,-6.877542479965433886e-01,1.000000000000000000e+00
1.226000000000000000e+03,-1.554407112089134513e+00,0.000000000000000000e+00
1.227000000000000000e+03,-4.412326439289149804e-01,0.000000000000000000e+00
1.228000000000000000e+03,-7.855564669699776070e-01,0.000000000000000000e+00
1.229000000000000000e+03,-3.224487133318910681e-01,0.000000000000000000e+00
1.230000000000000000e+03,-4.666001046448262080e-01,0.000000000000000000e+00
1.231000000000000000e+03,-2.630366397763534425e-01,0.000000000000000000e+00
1.232000000000000000e+03,-3.011522833588911041e-01,0.000000000000000000e+00
1.233000000000000000e+03,-1.718566179616126677e-01,0.000000000000000000e+00
1.234000000000000000e+03,-2.152904358321684752e-01,0.000000000000000000e+00
1.235000000000000000e+03,-4.994773055839610981e-02,0.000000000000000000e+00
1.236000000000000000e+03,1.176248252877750283e-01,0.000000000000000000e+00
1.237000000000000000e+03,2.204660791830334032e-01,0.000000000000000000e+00
1.238000000000000000e+03,2.498890728418025065e-01,0.000000000000000000e+00
1.239000000000000000e+03,5.784624190431026935e-01,0.000000000000000000e+00
1.240000000000000000e+03,7.973416583412474834e-01,0.000000000000000000e+00
1.241000000000000000e+03,9.577837620364019200e-01,0.000000000000000000e+00
1.242000000000000000e+03,9.813454380747964612e-01,0.000000000000000000e+00
1.243000000000000000e+03,5.467740701123035008e-01,0.000000000000000000e+00
1.244000000000000000e+03,-2.724141628165947515e-01,0.000000000000000000e+00
1.245000000000000000e+03,-5.221602502611826235e-01,0.000000000000000000e+00
1.246000000000000000e+03,-7.209461472591055520e-01,0.000000000000000000e+00
1.247000000000000000e+03,-8.478783916276311228e-01,0.000000000000000000e+00
1.248000000000000000e+03,-6.588022167340787938e-01,0.000000000000000000e+00
1.249000000000000000e+03,-5.763146349096477383e-01,0.000000000000000000e+00
1.250000000000000000e+03,-4.923917993203928423e-01,0.000000000000000000e+00
1.251000000000000000e+03,-5.015376071203873076e-01,0.000000000000000000e+00
1.252000000000000000e+03,-3.519563110102585934e-01,0.000000000000000000e+00
1.253000000000000000e+03,-3.878988923246758924e-01,0.000000000000000000e+00
1.254000000000000000e+03,-3.478535388355302183e-01,0.000000000000000000e+00
1.255000000000000000e+03,-2.403240730615386345e-01,0.000000000000000000e+00
1.256000000000000000e+03,-2.451697207136280809e-01,0.000000000000000000e+00
1.257000000000000000e+03,-2.139568336628446255e-01,0.000000000000000000e+00
1.258000000000000000e+03,-2.356222153570151356e-01,0.000000000000000000e+00
1.259000000000000000e+03,-1.062381775026829123e-01,0.000000000000000000e+00
1.260000000000000000e+03,-1.698273316920640152e-01,0.000000000000000000e+00
1.261000000000000000e+03,-1.482417682588455798e-01,0.000000000000000000e+00
1.262000000000000000e+03,-1.480186539401447815e-02,0.000000000000000000e+00
1.263000000000000000e+03,-5.289302912776957383e-02,0.000000000000000000e+00
1.264000000000000000e+03,-4.346695388662809995e-02,0.000000000000000000e+00
1.265000000000000000e+03,2.877866732101103803e-02,0.000000000000000000e+00
1.266000000000000000e+03,3.241012052923427644e-01,0.000000000000000000e+00
1.267000000000000000e+03,4.273400498095272781e-01,0.000000000000000000e+00
1.268000000000000000e+03,6.434824608732679918e-01,0.000000000000000000e+00
1.269000000000000000e+03,2.027887502216076665e-01,0.000000000000000000e+00
1.270000000000000000e+03,2.177419504638868353e-01,0.000000000000000000e+00
1.271000000000000000e+03,-3.379087062644687833e-01,0.000000000000000000e+00
1.272000000000000000e+03,1.065114387557297530e-02,0.000000000000000000e+00
1.273000000000000000e+03,-4.641435611298670993e-01,0.000000000000000000e+00
1.274000000000000000e+03,1.468472394829750671e-01,0.000000000000000000e+00
1.275000000000000000e+03,-5.918085761982841975e-01,0.000000000000000000e+00
1.276000000000000000e+03,2.372241798601778306e+00,0.000000000000000000e+00
1.277000000000000000e+03,5.164423124941356136e+00,0.000000000000000000e+00
1.278000000000000000e+03,-1.939677263906759874e+00,1.000000000000000000e+00
1.279000000000000000e+03,-7.174546790827931453e-01,0.000000000000000000e+00
1.280000000000000000e+03,-7.434746027173240179e-01,0.000000000000000000e+00
1.281000000000000000e+03,-4.883671108954785733e-01,0.000000000000000000e+00
1.282000000000000000e+03,-5.797407677258283876e-01,0.000000000000000000e+00
1.283000000000000000e+03,-3.658579276607958342e-01,0.000000000000000000e+00
1.284000000000000000e+03,-3.749244345100868347e-01,0.000000000000000000e+00
1.285000000000000000e+03,-1.431264487588822520e-01,0.000000000000000000e+00
1.286000000000000000e+03,-2.982504685321406002e-01,0.000000000000000000e+00
1.287000000000000000e+03,8.805555559640401361e-03,0.000000000000000000e+00
1.288000000000000000e+03,1.361175701614585620e-01,0.000000000000000000e+00
1.289000000000000000e+03,1.027037421864842454e-01,0.000000000000000000e+00
1.290000000000000000e+03,1.821061672370569706e-01,0.000000000000000000e+00
1.291000000000000000e+03,5.368101849337464371e-01,0.000000000000000000e+00
1.292000000000000000e+03,7.467316215792169087e-01,0.000000000000000000e+00
1.293000000000000000e+03,1.089526869126351549e+00,0.000000000000000000e+00
1.294000000000000000e+03,1.074646835322481175e+00,0.000000000000000000e+00
1.295000000000000000e+03,1.091788708498103500e+00,0.000000000000000000e+00
1.296000000000000000e+03,4.756092418511543296e-01,0.000000000000000000e+00
1.297000000000000000e+03,-1.584268355922448523e-01,0.000000000000000000e+00
1.298000000000000000e+03,-5.542775404232980208e-01,0.000000000000000000e+00
1.299000000000000000e+03,-6.445315559180097020e-01,0.000000000000000000e+00
1.300000000000000000e+03,-6.701831973526466424e-01,0.000000000000000000e+00
1.301000000000000000e+03,-3.869779933409893680e-01,0.000000000000000000e+00
1.302000000000000000e+03,-5.497970695326032109e-01,0.000000000000000000e+00
1.303000000000000000e+03,-4.566946345631180959e-01,0.000000000000000000e+00
1.304000000000000000e+03,-3.880101774375877000e-01,0.000000000000000000e+00
1.305000000000000000e+03,-1.555008815711133863e-01,0.000000000000000000e+00
1.306000000000000000e+03,-2.289726530701445828e-01,0.000000000000000000e+00
1.307000000000000000e+03,-1.923058761733024424e-01,0.000000000000000000e+00
1.308000000000000000e+03,-1.610438621353595945e-01,0.000000000000000000e+00
1.309000000000000000e+03,-1.039066012796988486e-01,0.000000000000000000e+00
1.310000000000000000e+03,-7.378652526223032637e-02,0.000000000000000000e+00
1.311000000000000000e+03,-9.711834681047379347e-02,0.000000000000000000e+00
1.312000000000000000e+03,-1.389470530688027838e-01,0.000000000000000000e+00
1.313000000000000000e+03,-4.151880708021994659e-02,0.000000000000000000e+00
1.314000000000000000e+03,2.977619591898794313e-02,0.000000000000000000e+00
1.315000000000000000e+03,-6.339765874015432234e-02,0.000000000000000000e+00
1.316000000000000000e+03,-1.641221500991488572e-02,0.000000000000000000e+00
1.317000000000000000e+03,4.793094892509999067e-02,0.000000000000000000e+00
1.318000000000000000e+03,1.169697474753792071e-01,0.000000000000000000e+00
1.319000000000000000e+03,2.691765578491327471e-01,0.000000000000000000e+00
1.320000000000000000e+03,4.106339770084337926e-01,0.000000000000000000e+00
1.321000000000000000e+03,7.044047793985372952e-01,0.000000000000000000e+00
1.322000000000000000e+03,5.162538787071514479e-01,0.000000000000000000e+00
1.323000000000000000e+03,1.135176165647403812e-01,0.000000000000000000e+00
1.324000000000000000e+03,-2.740491494646572490e-01,0.000000000000000000e+00
1.325000000000000000e+03,-8.043016734041562310e-02,0.000000000000000000e+00
1.326000000000000000e+03,-3.719777808897415383e-01,0.000000000000000000e+00
1.327000000000000000e+03,-2.582431279425799475e-02,0.000000000000000000e+00
1.328000000000000000e+03,-4.790205007957246686e-01,0.000000000000000000e+00
1.329000000000000000e+03,1.126069926680895117e+00,0.000000000000000000e+00
1.330000000000000000e+03,6.236547142523190423e+00,0.000000000000000000e+00
1.331000000000000000e+03,-8.678972717229694878e-01,1.000000000000000000e+00
1.332000000000000000e+03,-1.402876199992464601e+00,0.000000000000000000e+00
1.333000000000000000e+03,-8.408375167068643519e-01,0.000000000000000000e+00
1.334000000000000000e+03,-9.015535293886594026e-01,0.000000000000000000e+00
1.335000000000000000e+03,-7.693728538560813401e-01,0.000000000000000000e+00
1.336000000000000000e+03,-6.517781899427889103e-01,0.000000000000000000e+00
1.337000000000000000e+03,-5.751097302653657151e-01,0.000000000000000000e+00
1.338000000000000000e+03,-5.163588304488246905e-01,0.000000000000000000e+00
1.339000000000000000e+03,-3.912496090137281279e-01,0.000000000000000000e+00
1.340000000000000000e+03,-3.725453600475524540e-01,0.000000000000000000e+00
1.341000000000000000e+03,-2.575081978585460063e-01,0.000000000000000000e+00
1.342000000000000000e+03,-1.812671093742334316e-01,0.000000000000000000e+00
1.343000000000000000e+03,7.327464176525931572e-02,0.000000000000000000e+00
1.344000000000000000e+03,8.708892215434922701e-02,0.000000000000000000e+00
1.345000000000000000e+03,5.755878701058487756e-01,0.000000000000000000e+00
1.346000000000000000e+03,6.776849439107699435e-01,0.000000000000000000e+00
1.347000000000000000e+03,8.310257073841132991e-01,0.000000000000000000e+00
1.348000000000000000e+03,1.043834018753133197e+00,0.000000000000000000e+00
1.349000000000000000e+03,5.265081728244827008e-01,0.000000000000000000e+00
1.350000000000000000e+03,-3.643568028468359143e-01,0.000000000000000000e+00
1.351000000000000000e+03,-7.647205978482471966e-01,0.000000000000000000e+00
1.352000000000000000e+03,-8.267517011920528791e-01,0.000000000000000000e+00
1.353000000000000000e+03,-8.215620921667968757e-01,0.000000000000000000e+00
1.354000000000000000e+03,-7.548562602040731484e-01,0.000000000000000000e+00
1.355000000000000000e+03,-7.962699785002835817e-01,0.000000000000000000e+00
1.356000000000000000e+03,-5.082715211146885403e-01,0.000000000000000000e+00
1.357000000000000000e+03,-6.065040441887302736e-01,0.000000000000000000e+00
1.358000000000000000e+03,-5.237622797726526613e-01,0.000000000000000000e+00
1.359000000000000000e+03,-3.837919110979250426e-01,0.000000000000000000e+00
1.360000000000000000e+03,-3.704836278370000624e-01,0.000000000000000000e+00
1.361000000000000000e+03,-3.172850770817083332e-01,0.000000000000000000e+00
1.362000000000000000e+03,-1.629720443829253129e-01,0.000000000000000000e+00
1.363000000000000000e+03,-4.166400200166930357e-01,0.000000000000000000e+00
1.364000000000000000e+03,-9.441983572039541750e-02,0.000000000000000000e+00
1.365000000000000000e+03,-1.909356668102176746e-01,0.000000000000000000e+00
1.366000000000000000e+03,-7.816894056758011411e-02,0.000000000000000000e+00
1.367000000000000000e+03,-1.367918791516831156e-01,0.000000000000000000e+00
1.368000000000000000e+03,-1.254496117778767794e-01,0.000000000000000000e+00
1.369000000000000000e+03,1.042502326724342870e-01,0.000000000000000000e+00
1.370000000000000000e+03,-2.679406074033581150e-02,0.000000000000000000e+00
1.371000000000000000e+03,-5.699172571778797491e-02,0.000000000000000000e+00
1.372000000000000000e+03,4.334625390106441878e-01,0.000000000000000000e+00
1.373000000000000000e+03,3.932075466331795277e-01,0.000000000000000000e+00
1.374000000000000000e+03,6.523643376177621356e-01,0.000000000000000000e+00
1.375000000000000000e+03,3.613861455649972632e-01,0.000000000000000000e+00
1.376000000000000000e+03,1.276711663998647828e-01,0.000000000000000000e+00
1.377000000000000000e+03,-3.732677148704508507e-01,0.000000000000000000e+00
1.378000000000000000e+03,-9.478656549562668177e-02,0.000000000000000000e+00
1.379000000000000000e+03,-3.233969856241184493e-01,0.000000000000000000e+00
1.380000000000000000e+03,1.092336119251710869e-01,0.000000000000000000e+00
1.381000000000000000e+03,-7.074783094422608665e-01,0.000000000000000000e+00
1.382000000000000000e+03,2.132546100587087157e+00,0.000000000000000000e+00
1.383000000000000000e+03,5.910749148424209842e+00,0.000000000000000000e+00
1.384000000000000000e+03,-1.650506942571575930e+00,1.000000000000000000e+00
1.385000000000000000e+03,-9.235588188776071572e-01,0.000000000000000000e+00
1.386000000000000000e+03,-8.512910622982789999e-01,0.000000000000000000e+00
1.387000000000000000e+03,-6.294728673528939833e-01,0.000000000000000000e+00
1.388000000000000000e+03,-7.826924151544547570e-01,0.000000000000000000e+00
1.389000000000000000e+03,-3.466122181910044064e-01,0.000000000000000000e+00
1.390000000000000000e+03,-4.425319538021635912e-01,0.000000000000000000e+00
1.391000000000000000e+03,-3.544348083047171860e-01,0.000000000000000000e+00
1.392000000000000000e+03,-3.048272334438485998e-01,0.000000000000000000e+00
1.393000000000000000e+03,-1.241978861605431556e-01,0.000000000000000000e+00
1.394000000000000000e+03,-1.190454657036402047e-01,0.000000000000000000e+00
1.395000000000000000e+03,1.401234384509350006e-01,0.000000000000000000e+00
1.396000000000000000e+03,2.193845155358770116e-02,0.000000000000000000e+00
1.397000000000000000e+03,5.327860034384751531e-01,0.000000000000000000e+00
1.398000000000000000e+03,6.878186914777855154e-01,0.000000000000000000e+00
1.399000000000000000e+03,9.463637527378715442e-01,0.000000000000000000e+00
1.400000000000000000e+03,1.090410634360814424e+00,0.000000000000000000e+00
1.401000000000000000e+03,1.193761121617778809e+00,0.000000000000000000e+00
1.402000000000000000e+03,4.891528261682294154e-01,0.000000000000000000e+00
1.403000000000000000e+03,-3.248104776255625881e-01,0.000000000000000000e+00
1.404000000000000000e+03,-5.645346344697163010e-01,0.000000000000000000e+00
1.405000000000000000e+03,-7.314648184743657300e-01,0.000000000000000000e+00
1.406000000000000000e+03,-6.849746304182836587e-01,0.000000000000000000e+00
1.407000000000000000e+03,-7.062837698099925232e-01,0.000000000000000000e+00
1.408000000000000000e+03,-4.875160315497553132e-01,0.000000000000000000e+00
1.409000000000000000e+03,-5.702372901464314303e-01,0.000000000000000000e+00
1.410000000000000000e+03,-4.308372213919430260e-01,0.000000000000000000e+00
1.411000000000000000e+03,-3.836821344605583217e-01,0.000000000000000000e+00
1.412000000000000000e+03,-2.453330018410715130e-01,0.000000000000000000e+00
1.413000000000000000e+03,-4.025436308971328536e-01,0.000000000000000000e+00
1.414000000000000000e+03,-3.375706484589218737e-01,0.000000000000000000e+00
1.415000000000000000e+03,-4.827309679731842801e-02,0.000000000000000000e+00
1.416000000000000000e+03,-2.874046984481253286e-01,0.000000000000000000e+00
1.417000000000000000e+03,-1.459739993815646619e-01,0.000000000000000000e+00
1.418000000000000000e+03,-1.307083349034541264e-01,0.000000000000000000e+00
1.419000000000000000e+03,7.316871617223941193e-03,0.000000000000000000e+00
1.420000000000000000e+03,-7.871674553754352821e-02,0.000000000000000000e+00
1.421000000000000000e+03,3.033655571654998197e-03,0.000000000000000000e+00
1.422000000000000000e+03,-2.958927158188490170e-02,0.000000000000000000e+00
1.423000000000000000e+03,1.664695660122627319e-01,0.000000000000000000e+00
1.424000000000000000e+03,2.563121897378455305e-01,0.000000000000000000e+00
1.425000000000000000e+03,5.601706877410326246e-01,0.000000000000000000e+00
1.426000000000000000e+03,7.106372373479533655e-01,0.000000000000000000e+00
1.427000000000000000e+03,5.726892913564053389e-01,0.000000000000000000e+00
1.428000000000000000e+03,5.775061432628112584e-02,0.000000000000000000e+00
1.429000000000000000e+03,-4.710514931754157530e-02,0.000000000000000000e+00
1.430000000000000000e+03,-1.902859082955823122e-01,0.000000000000000000e+00
1.431000000000000000e+03,-1.284717758876830207e-01,0.000000000000000000e+00
1.432000000000000000e+03,-3.835382908568696347e-02,0.000000000000000000e+00
1.433000000000000000e+03,-3.122092410531401852e-01,0.000000000000000000e+00
1.434000000000000000e+03,9.481274351808747225e-01,0.000000000000000000e+00
1.435000000000000000e+03,6.036739690137861380e+00,0.000000000000000000e+00
1.436000000000000000e+03,-7.891845530320202862e-01,1.000000000000000000e+00
1.437000000000000000e+03,-1.450290274304601335e+00,0.000000000000000000e+00
1.438000000000000000e+03,-4.314487353946747095e-01,0.000000000000000000e+00
1.439000000000000000e+03,-6.646819914973444154e-01,0.000000000000000000e+00
1.440000000000000000e+03,-3.946197069689457715e-01,0.000000000000000000e+00
1.441000000000000000e+03,-3.841079082199526651e-01,0.000000000000000000e+00
1.442000000000000000e+03,-2.978793182323252187e-01,0.000000000000000000e+00
1.443000000000000000e+03,-2.214807066218503206e-01,0.000000000000000000e+00
1.444000000000000000e+03,-3.528918660956484321e-02,0.000000000000000000e+00
1.445000000000000000e+03,-1.627514868571879325e-01,0.000000000000000000e+00
1.446000000000000000e+03,5.490519353952335452e-03,0.000000000000000000e+00
1.447000000000000000e+03,1.476704201557358931e-01,0.000000000000000000e+00
1.448000000000000000e+03,1.949748022083295507e-01,0.000000000000000000e+00
1.449000000000000000e+03,4.184269093425560526e-01,0.000000000000000000e+00
1.450000000000000000e+03,7.557688408654947843e-01,0.000000000000000000e+00
1.451000000000000000e+03,8.367554926572340346e-01,0.000000000000000000e+00
1.452000000000000000e+03,1.028985375716010786e+00,0.000000000000000000e+00
1.453000000000000000e+03,1.167246595249803232e+00,0.000000000000000000e+00
1.454000000000000000e+03,5.391157673437402265e-01,0.000000000000000000e+00
1.455000000000000000e+03,-8.395378575504056085e-02,0.000000000000000000e+00
1.456000000000000000e+03,-5.449305649936189155e-01,0.000000000000000000e+00
1.457000000000000000e+03,-8.258568675872879350e-01,0.000000000000000000e+00
1.458000000000000000e+03,-6.657014297897644317e-01,0.000000000000000000e+00
1.459000000000000000e+03,-7.162131592477591902e-01,0.000000000000000000e+00
1.460000000000000000e+03,-5.854614287393703487e-01,0.000000000000000000e+00
1.461000000000000000e+03,-4.306627542872618619e-01,0.000000000000000000e+00
1.462000000000000000e+03,-5.084503293352496955e-01,0.000000000000000000e+00
1.463000000000000000e+03,-3.912658970219685117e-01,0.000000000000000000e+00
1.464000000000000000e+03,-3.835237281037475743e-01,0.000000000000000000e+00
1.465000000000000000e+03,-3.745208658497234389e-01,0.000000000000000000e+00
1.466000000000000000e+03,-3.151976631980266119e-01,0.000000000000000000e+00
1.467000000000000000e+03,-3.575673218517845253e-01,0.000000000000000000e+00
1.468000000000000000e+03,-1.939820116143443907e-01,0.000000000000000000e+00
1.469000000000000000e+03,-2.878528430191945597e-01,0.000000000000000000e+00
1.470000000000000000e+03,-2.332675225284628617e-01,0.000000000000000000e+00
1.471000000000000000e+03,-1.896933401329340685e-01,0.000000000000000000e+00
1.472000000000000000e+03,-9.799191631078711662e-02,0.000000000000000000e+00
1.473000000000000000e+03,-2.967205777597831662e-01,0.000000000000000000e+00
1.474000000000000000e+03,4.058130694419069540e-02,0.000000000000000000e+00
1.475000000000000000e+03,3.369721747889371094e-02,0.000000000000000000e+00
1.476000000000000000e+03,2.334508760942692329e-01,0.000000000000000000e+00
1.477000000000000000e+03,3.628765099965780561e-01,0.000000000000000000e+00
1.478000000000000000e+03,6.070288059953806714e-01,0.000000000000000000e+00
1.479000000000000000e+03,1.994182802753603767e-01,0.000000000000000000e+00
1.480000000000000000e+03,-8.924522743965017380e-02,0.000000000000000000e+00
1.481000000000000000e+03,-3.655792020149475352e-01,0.000000000000000000e+00
1.482000000000000000e+03,-8.680037961081699116e-02,0.000000000000000000e+00
1.483000000000000000e+03,-4.341675508709943454e-01,0.000000000000000000e+00
1.484000000000000000e+03,1.541379401478979450e-01,0.000000000000000000e+00
1.485000000000000000e+03,-8.620023522029546248e-01,0.000000000000000000e+00
1.486000000000000000e+03,2.948616258221766540e+00,0.000000000000000000e+00
1.487000000000000000e+03,4.287945234347326107e+00,0.000000000000000000e+00
1.488000000000000000e+03,-2.443546214454817012e+00,1.000000000000000000e+00
1.489000000000000000e+03,-5.135441222189521815e-01,0.000000000000000000e+00
1.490000000000000000e+03,-8.784339807406839062e-01,0.000000000000000000e+00
1.491000000000000000e+03,-4.169388956510793331e-01,0.000000000000000000e+00
1.492000000000000000e+03,-5.921770587700446731e-01,0.000000000000000000e+00
1.493000000000000000e+03,-3.021746971943928828e-01,0.000000000000000000e+00
1.494000000000000000e+03,-3.653751165511656684e-01,0.000000000000000000e+00
1.495000000000000000e+03,-9.436841321210488742e-02,0.000000000000000000e+00
1.496000000000000000e+03,-2.428135128039815571e-01,0.000000000000000000e+00
1.497000000000000000e+03,-5.574833799423778435e-03,0.000000000000000000e+00
1.498000000000000000e+03,-4.257596451017309908e-02,0.000000000000000000e+00
1.499000000000000000e+03,1.794171046422684823e-01,0.000000000000000000e+00
1.500000000000000000e+03,1.899660811119754100e-01,0.000000000000000000e+00
1.501000000000000000e+03,5.505567586233803823e-01,0.000000000000000000e+00
1.502000000000000000e+03,7.704157366244203109e-01,0.000000000000000000e+00
1.503000000000000000e+03,9.887689342539741633e-01,0.000000000000000000e+00
1.504000000000000000e+03,9.499744742348524840e-01,0.000000000000000000e+00
1.505000000000000000e+03,1.189075213990723467e+00,0.000000000000000000e+00
1.506000000000000000e+03,1.837166115645578468e-01,0.000000000000000000e+00
1.507000000000000000e+03,-2.569816193021509099e-01,0.000000000000000000e+00
1.508000000000000000e+03,-8.469376690481656977e-01,0.000000000000000000e+00
1.509000000000000000e+03,-6.423249342371153414e-01,0.000000000000000000e+00
1.510000000000000000e+03,-8.260048516138654984e-01,0.000000000000000000e+00
1.511000000000000000e+03,-5.711153681173328778e-01,0.000000000000000000e+00
1.512000000000000000e+03,-6.868132049528693495e-01,0.000000000000000000e+00
1.513000000000000000e+03,-3.822251714870235628e-01,0.000000000000000000e+00
1.514000000000000000e+03,-5.194714176716743737e-01,0.000000000000000000e+00
1.515000000000000000e+03,-2.770609072103538684e-01,0.000000000000000000e+00
1.516000000000000000e+03,-4.530506269092499649e-01,0.000000000000000000e+00
1.517000000000000000e+03,-1.674446733204929816e-01,0.000000000000000000e+00
1.518000000000000000e+03,-3.390849092894523964e-01,0.000000000000000000e+00
1.519000000000000000e+03,-1.241111138316798174e-01,0.000000000000000000e+00
1.520000000000000000e+03,-4.080517227217307918e-01,0.000000000000000000e+00
1.521000000000000000e+03,-1.123431789796680569e-01,0.000000000000000000e+00
1.522000000000000000e+03,-2.538408851642647845e-01,0.000000000000000000e+00
1.523000000000000000e+03,1.593025655961796336e-02,0.000000000000000000e+00
1.524000000000000000e+03,-1.865315940782173165e-01,0.000000000000000000e+00
1.525000000000000000e+03,-6.957220191659031772e-02,0.000000000000000000e+00
1.526000000000000000e+03,-1.142953866427368209e-01,0.000000000000000000e+00
1.527000000000000000e+03,2.745523603727181849e-02,0.000000000000000000e+00
1.528000000000000000e+03,1.342328296143782129e-01,0.000000000000000000e+00
1.529000000000000000e+03,3.490682640971940476e-01,0.000000000000000000e+00
1.530000000000000000e+03,5.481864716519949665e-01,0.000000000000000000e+00
1.531000000000000000e+03,6.411243078190360656e-01,0.000000000000000000e+00
1.532000000000000000e+03,6.334174267520628621e-02,0.000000000000000000e+00
1.533000000000000000e+03,7.909044575007020961e-02,0.000000000000000000e+00
1.534000000000000000e+03,-4.069472986674465553e-01,0.000000000000000000e+00
1.535000000000000000e+03,3.472339943436567045e-02,0.000000000000000000e+00
1.536000000000000000e+03,-3.013950780928050244e-01,0.000000000000000000e+00
1.537000000000000000e+03,1.418834864827664133e-01,0.000000000000000000e+00
1.538000000000000000e+03,-5.041233540341124586e-01,0.000000000000000000e+00
1.539000000000000000e+03,6.063054278677532771e+00,0.000000000000000000e+00
1.540000000000000000e+03,1.617019428135064496e+00,1.000000000000000000e+00
1.541000000000000000e+03,-2.165474681887747721e+00,0.000000000000000000e+00
1.542000000000000000e+03,-2.953040092574558684e-01,0.000000000000000000e+00
1.543000000000000000e+03,-1.020190135796549935e+00,0.000000000000000000e+00
1.544000000000000000e+03,-3.510862352663188801e-01,0.000000000000000000e+00
1.545000000000000000e+03,-6.682973760040900046e-01,0.000000000000000000e+00
1.546000000000000000e+03,-3.519204741524177837e-01,0.000000000000000000e+00
1.547000000000000000e+03,-4.934440009648553560e-01,0.000000000000000000e+00
1.548000000000000000e+03,-1.635813263283078522e-01,0.000000000000000000e+00
1.549000000000000000e+03,-2.388600079507125773e-01,0.000000000000000000e+00
1.550000000000000000e+03,-1.796625593023876144e-02,0.000000000000000000e+00
1.551000000000000000e+03,-1.238422100814383781e-01,0.000000000000000000e+00
1.552000000000000000e+03,2.423968418499451438e-01,0.000000000000000000e+00
1.553000000000000000e+03,1.563629552725100957e-01,0.000000000000000000e+00
1.554000000000000000e+03,6.890435086587298752e-01,0.000000000000000000e+00
1.555000000000000000e+03,7.579566181317907159e-01,0.000000000000000000e+00
1.556000000000000000e+03,1.061819795148541967e+00,0.000000000000000000e+00
1.557000000000000000e+03,1.154133434139626324e+00,0.000000000000000000e+00
1.558000000000000000e+03,7.895248013953198862e-01,0.000000000000000000e+00
1.559000000000000000e+03,-8.864168278964358605e-02,0.000000000000000000e+00
1.560000000000000000e+03,-4.542490025385033103e-01,0.000000000000000000e+00
1.561000000000000000e+03,-7.235799462411131033e-01,0.000000000000000000e+00
1.562000000000000000e+03,-6.729314777201156339e-01,0.000000000000000000e+00
1.563000000000000000e+03,-7.585326563732185390e-01,0.000000000000000000e+00
1.564000000000000000e+03,-5.896327084124466378e-01,0.000000000000000000e+00
1.565000000000000000e+03,-5.494149148039975117e-01,0.000000000000000000e+00
1.566000000000000000e+03,-4.761066963251828765e-01,0.000000000000000000e+00
1.567000000000000000e+03,-3.718529695718015282e-01,0.000000000000000000e+00
1.568000000000000000e+03,-3.785112517280630473e-01,0.000000000000000000e+00
1.569000000000000000e+03,-3.482637980708336300e-01,0.000000000000000000e+00
1.570000000000000000e+03,-2.632328713957583499e-01,0.000000000000000000e+00
1.571000000000000000e+03,-2.149652788196100561e-01,0.000000000000000000e+00
1.572000000000000000e+03,-3.311277623948395976e-01,0.000000000000000000e+00
1.573000000000000000e+03,-1.965640703225518815e-01,0.000000000000000000e+00
1.574000000000000000e+03,-1.449379178390225176e-01,0.000000000000000000e+00
1.575000000000000000e+03,-1.701296524172573599e-01,0.000000000000000000e+00
1.576000000000000000e+03,-2.417259792035687527e-01,0.000000000000000000e+00
1.577000000000000000e+03,-1.055962785010530619e-01,0.000000000000000000e+00
1.578000000000000000e+03,-9.979458101465105493e-03,0.000000000000000000e+00
1.579000000000000000e+03,-1.173676656462729062e-01,0.000000000000000000e+00
1.580000000000000000e+03,4.038983244990724392e-02,0.000000000000000000e+00
1.581000000000000000e+03,1.931670105894576495e-01,0.000000000000000000e+00
1.582000000000000000e+03,3.874538805140019249e-01,0.000000000000000000e+00
1.583000000000000000e+03,5.913130211239335798e-01,0.000000000000000000e+00
1.584000000000000000e+03,6.093496626403747118e-01,0.000000000000000000e+00
