timestamp,ecg_measurement,qrs_detected
0.000000000000000000e+00,6.715440938595569342e-01,0.000000000000000000e+00
1.000000000000000000e+00,7.522694055274651292e-01,0.000000000000000000e+00
2.000000000000000000e+00,1.208142794094785977e+00,0.000000000000000000e+00
3.000000000000000000e+00,1.337663361584739974e+00,0.000000000000000000e+00
4.000000000000000000e+00,9.765063487806637799e-01,0.000000000000000000e+00
5.000000000000000000e+00,7.737439385970635852e-01,0.000000000000000000e+00
6.000000000000000000e+00,2.251299943270481385e-01,0.000000000000000000e+00
7.000000000000000000e+00,-2.920725996996668683e-01,1.000000000000000000e+00
8.000000000000000000e+00,-9.921451129585361350e-01,0.000000000000000000e+00
9.000000000000000000e+00,-3.894094134787390304e-01,0.000000000000000000e+00
1.000000000000000000e+01,-1.192948869225379793e+00,0.000000000000000000e+00
1.100000000000000000e+01,-4.804755950413538423e-01,0.000000000000000000e+00
1.200000000000000000e+01,-1.039367267451368981e+00,0.000000000000000000e+00
1.300000000000000000e+01,-2.488734404930659505e-01,0.000000000000000000e+00
1.400000000000000000e+01,-8.397245731232447774e-01,0.000000000000000000e+00
1.500000000000000000e+01,-5.085783152631236925e-01,0.000000000000000000e+00
1.600000000000000000e+01,-2.436642785068022510e-01,0.000000000000000000e+00
1.700000000000000000e+01,-2.984776518361513808e-01,0.000000000000000000e+00
1.800000000000000000e+01,-4.726806031151662563e-02,0.000000000000000000e+00
1.900000000000000000e+01,-4.924505304188114274e-01,0.000000000000000000e+00
2.000000000000000000e+01,4.326393399463277639e-02,0.000000000000000000e+00
2.100000000000000000e+01,-1.298044380466646663e-01,0.000000000000000000e+00
2.200000000000000000e+01,-2.379306769235910723e-01,0.000000000000000000e+00
2.300000000000000000e+01,-5.741005396555256546e-01,0.000000000000000000e+00
2.400000000000000000e+01,5.592223091545742708e-01,0.000000000000000000e+00
2.500000000000000000e+01,3.579815223144541037e+00,0.000000000000000000e+00
2.600000000000000000e+01,2.497894390187432201e+00,0.000000000000000000e+00
2.700000000000000000e+01,-1.599171460690927749e+00,0.000000000000000000e+00
2.800000000000000000e+01,-1.361458094032024890e+00,0.000000000000000000e+00
2.900000000000000000e+01,-6.479523958130306571e-01,0.000000000000000000e+00
3.000000000000000000e+01,-3.557083126636074177e-01,0.000000000000000000e+00
3.100000000000000000e+01,-1.937259619176116832e-01,0.000000000000000000e+00
3.200000000000000000e+01,-6.638119585980525317e-01,0.000000000000000000e+00
3.300000000000000000e+01,-8.698133718453708585e-02,0.000000000000000000e+00
3.400000000000000000e+01,-2.575963345910780578e-01,0.000000000000000000e+00
3.500000000000000000e+01,-7.212899541277031923e-02,0.000000000000000000e+00
3.600000000000000000e+01,3.968979826855061066e-02,0.000000000000000000e+00
3.700000000000000000e+01,5.144489670367953238e-01,0.000000000000000000e+00
3.800000000000000000e+01,8.059903339038387848e-02,0.000000000000000000e+00
3.900000000000000000e+01,7.131657768916306317e-01,0.000000000000000000e+00
4.000000000000000000e+01,1.000588039506909332e+00,0.000000000000000000e+00
4.100000000000000000e+01,7.763375784307983141e-01,0.000000000000000000e+00
4.200000000000000000e+01,1.511139365133647772e+00,0.000000000000000000e+00
4.300000000000000000e+01,3.633668024982695810e-01,0.000000000000000000e+00
4.400000000000000000e+01,1.653838778446644620e-01,0.000000000000000000e+00
4.500000000000000000e+01,-6.544444882727797896e-01,1.000000000000000000e+00
4.600000000000000000e+01,-9.453314674360125958e-01,0.000000000000000000e+00
4.700000000000000000e+01,-6.690933657051555405e-01,0.000000000000000000e+00
4.800000000000000000e+01,-9.071590975276618840e-01,0.000000000000000000e+00
4.900000000000000000e+01,-7.679406453856540971e-01,0.000000000000000000e+00
5.000000000000000000e+01,-9.105259692213494294e-01,0.000000000000000000e+00
5.100000000000000000e+01,-7.706882250169443394e-01,0.000000000000000000e+00
5.200000000000000000e+01,-6.698250504754535983e-01,0.000000000000000000e+00
5.300000000000000000e+01,-7.422973699886434296e-02,0.000000000000000000e+00
5.400000000000000000e+01,-5.509770634803294875e-01,0.000000000000000000e+00
5.500000000000000000e+01,3.632522588354228366e-02,0.000000000000000000e+00
5.600000000000000000e+01,-1.960228741494205174e-01,0.000000000000000000e+00
5.700000000000000000e+01,3.067969971854048183e-02,0.000000000000000000e+00
5.800000000000000000e+01,-1.060825998527812619e-01,0.000000000000000000e+00
5.900000000000000000e+01,1.130580767933739295e-01,0.000000000000000000e+00
6.000000000000000000e+01,-4.069674597984095366e-01,0.000000000000000000e+00
6.100000000000000000e+01,-5.630755954198624069e-02,0.000000000000000000e+00
6.200000000000000000e+01,-2.891985400193936573e-01,0.000000000000000000e+00
6.300000000000000000e+01,7.396639607165493568e-02,0.000000000000000000e+00
6.400000000000000000e+01,2.462044931938788678e-02,0.000000000000000000e+00
6.500000000000000000e+01,-1.099973152206663168e-01,0.000000000000000000e+00
6.600000000000000000e+01,6.278639187173203073e-02,0.000000000000000000e+00
6.700000000000000000e+01,1.230670616515649740e-01,0.000000000000000000e+00
6.800000000000000000e+01,3.341103912904326845e-01,0.000000000000000000e+00
6.900000000000000000e+01,5.753398598069412451e-01,0.000000000000000000e+00
7.000000000000000000e+01,-4.711379562447697705e-02,0.000000000000000000e+00
7.100000000000000000e+01,1.364471414010823835e-01,0.000000000000000000e+00
7.200000000000000000e+01,6.450146689800757838e-02,0.000000000000000000e+00
7.300000000000000000e+01,2.109062863846994651e-01,0.000000000000000000e+00
7.400000000000000000e+01,1.928472563830157804e-01,0.000000000000000000e+00
7.500000000000000000e+01,2.525489225161597351e-01,0.000000000000000000e+00
7.600000000000000000e+01,4.598652267234821372e-02,0.000000000000000000e+00
7.700000000000000000e+01,2.982815016126528218e-01,0.000000000000000000e+00
7.800000000000000000e+01,3.559418217846284094e-01,0.000000000000000000e+00
7.900000000000000000e+01,3.989342389866493144e-01,0.000000000000000000e+00
8.000000000000000000e+01,-3.574043338119441415e-01,0.000000000000000000e+00
8.100000000000000000e+01,9.946550659041351050e-01,0.000000000000000000e+00
8.200000000000000000e+01,4.710272343809847939e+00,0.000000000000000000e+00
8.300000000000000000e+01,1.666391357529842132e+00,1.000000000000000000e+00
8.400000000000000000e+01,-1.592598332472228151e+00,0.000000000000000000e+00
8.500000000000000000e+01,-9.338271622709297670e-01,0.000000000000000000e+00
8.600000000000000000e+01,-7.200500130574906121e-01,0.000000000000000000e+00
8.700000000000000000e+01,-3.080297328595333894e-01,0.000000000000000000e+00
8.800000000000000000e+01,-3.204842610592434915e-01,0.000000000000000000e+00
8.900000000000000000e+01,-1.344170766699593900e-01,0.000000000000000000e+00
9.000000000000000000e+01,1.368525560863137203e-01,0.000000000000000000e+00
9.100000000000000000e+01,-6.060172303659022708e-01,0.000000000000000000e+00
9.200000000000000000e+01,1.198418419380421901e-01,0.000000000000000000e+00
9.300000000000000000e+01,-7.384549406021373441e-02,0.000000000000000000e+00
9.400000000000000000e+01,1.321524946877831730e-01,0.000000000000000000e+00
9.500000000000000000e+01,5.952543975284900757e-01,0.000000000000000000e+00
9.600000000000000000e+01,2.906830569403854869e-01,0.000000000000000000e+00
9.700000000000000000e+01,8.085869957751616877e-01,0.000000000000000000e+00
9.800000000000000000e+01,7.256099884335746042e-01,0.000000000000000000e+00
9.900000000000000000e+01,1.101650516213170894e+00,0.000000000000000000e+00
1.000000000000000000e+02,6.445669439979089255e-01,0.000000000000000000e+00
1.010000000000000000e+02,3.852904367880155001e-01,0.000000000000000000e+00
1.020000000000000000e+02,-6.565014199667268402e-01,0.000000000000000000e+00
1.030000000000000000e+02,-4.827735111193553474e-01,0.000000000000000000e+00
1.040000000000000000e+02,-1.408910655197201711e+00,0.000000000000000000e+00
1.050000000000000000e+02,-9.873174338604523426e-01,0.000000000000000000e+00
1.060000000000000000e+02,-1.234427820315864066e+00,0.000000000000000000e+00
1.070000000000000000e+02,-1.122582702316579306e+00,0.000000000000000000e+00
1.080000000000000000e+02,-5.106227447855552493e-01,0.000000000000000000e+00
1.090000000000000000e+02,-9.722924921388692576e-01,0.000000000000000000e+00
1.100000000000000000e+02,-6.161980734386449665e-01,0.000000000000000000e+00
1.110000000000000000e+02,-6.457373950210396618e-01,0.000000000000000000e+00
1.120000000000000000e+02,-2.943585859986832740e-02,0.000000000000000000e+00
1.130000000000000000e+02,-2.020631956094986470e-01,0.000000000000000000e+00
1.140000000000000000e+02,-5.554192866614137136e-01,0.000000000000000000e+00
1.150000000000000000e+02,-1.606335491286951800e-01,0.000000000000000000e+00
1.160000000000000000e+02,-4.790020820745497510e-01,0.000000000000000000e+00
1.170000000000000000e+02,-1.387453989317593561e-01,0.000000000000000000e+00
1.180000000000000000e+02,-4.320951938355183097e-01,0.000000000000000000e+00
1.190000000000000000e+02,2.089359695554191543e-01,0.000000000000000000e+00
1.200000000000000000e+02,-5.913996794963914949e-01,0.000000000000000000e+00
1.210000000000000000e+02,4.324705173012889370e-01,0.000000000000000000e+00
1.220000000000000000e+02,-5.154029180607199584e-02,0.000000000000000000e+00
1.230000000000000000e+02,-9.051852951773632638e-02,0.000000000000000000e+00
1.240000000000000000e+02,-3.414670719395445087e-01,0.000000000000000000e+00
1.250000000000000000e+02,1.926479857838207410e+00,0.000000000000000000e+00
1.260000000000000000e+02,4.154092019880276432e+00,0.000000000000000000e+00
1.270000000000000000e+02,9.531102702935100313e-01,1.000000000000000000e+00
1.280000000000000000e+02,-1.544776631948088230e+00,0.000000000000000000e+00
1.290000000000000000e+02,-1.206775556711841668e+00,0.000000000000000000e+00
1.300000000000000000e+02,-3.934767574145478508e-01,0.000000000000000000e+00
1.310000000000000000e+02,-3.494516322925584895e-01,0.000000000000000000e+00
1.320000000000000000e+02,-3.603839141936956980e-01,0.000000000000000000e+00
1.330000000000000000e+02,1.168182624725591368e-01,0.000000000000000000e+00
1.340000000000000000e+02,1.006651655827232456e-01,0.000000000000000000e+00
1.350000000000000000e+02,-9.487625953227622755e-02,0.000000000000000000e+00
1.360000000000000000e+02,-2.548440484956853921e-02,0.000000000000000000e+00
1.370000000000000000e+02,-3.954873934423512871e-01,0.000000000000000000e+00
1.380000000000000000e+02,5.896685092551641194e-01,0.000000000000000000e+00
1.390000000000000000e+02,5.771278783265912926e-01,0.000000000000000000e+00
1.400000000000000000e+02,1.030937366028163549e+00,0.000000000000000000e+00
1.410000000000000000e+02,1.086246488670958632e+00,0.000000000000000000e+00
1.420000000000000000e+02,1.465842235306792363e+00,0.000000000000000000e+00
1.430000000000000000e+02,9.965385068448268102e-01,0.000000000000000000e+00
1.440000000000000000e+02,8.459710598509772028e-01,0.000000000000000000e+00
1.450000000000000000e+02,-4.868046473123749385e-01,0.000000000000000000e+00
1.460000000000000000e+02,-7.033183128559525876e-01,0.000000000000000000e+00
1.470000000000000000e+02,-1.082515889440403445e+00,0.000000000000000000e+00
1.480000000000000000e+02,-7.983693719836717495e-01,0.000000000000000000e+00
1.490000000000000000e+02,-1.187106097727934850e+00,0.000000000000000000e+00
1.500000000000000000e+02,-4.598795255810885774e-01,0.000000000000000000e+00
1.510000000000000000e+02,-8.143383461428154169e-01,0.000000000000000000e+00
1.520000000000000000e+02,-6.563639684047277711e-01,0.000000000000000000e+00
1.530000000000000000e+02,-5.154752723020200600e-01,0.000000000000000000e+00
1.540000000000000000e+02,-6.388002326879620441e-01,0.000000000000000000e+00
1.550000000000000000e+02,4.646422056410770551e-02,0.000000000000000000e+00
1.560000000000000000e+02,-9.387513042637865013e-01,0.000000000000000000e+00
1.570000000000000000e+02,2.087861680876894679e-02,0.000000000000000000e+00
1.580000000000000000e+02,-4.467293182383299532e-01,0.000000000000000000e+00
1.590000000000000000e+02,-1.416464734571342421e-01,0.000000000000000000e+00
1.600000000000000000e+02,-1.833322923709550523e-01,0.000000000000000000e+00
1.610000000000000000e+02,-2.083786002601362153e-01,0.000000000000000000e+00
1.620000000000000000e+02,3.189071726347724733e-01,0.000000000000000000e+00
1.630000000000000000e+02,-3.832608905368323216e-01,0.000000000000000000e+00
1.640000000000000000e+02,5.482589843627936332e-01,0.000000000000000000e+00
1.650000000000000000e+02,1.070401791131166264e-01,0.000000000000000000e+00
1.660000000000000000e+02,-4.942981881382744504e-03,0.000000000000000000e+00
1.670000000000000000e+02,4.348777518653580698e-02,0.000000000000000000e+00
1.680000000000000000e+02,-2.788977350701572488e-01,0.000000000000000000e+00
1.690000000000000000e+02,1.362661424497436657e+00,0.000000000000000000e+00
1.700000000000000000e+02,4.358792934964037968e+00,0.000000000000000000e+00
1.710000000000000000e+02,1.386116677902657024e+00,1.000000000000000000e+00
1.720000000000000000e+02,-1.486258102516949453e+00,0.000000000000000000e+00
1.730000000000000000e+02,-8.709091202406606946e-01,0.000000000000000000e+00
1.740000000000000000e+02,-7.069036197179421332e-01,0.000000000000000000e+00
1.750000000000000000e+02,-4.576310575106626310e-01,0.000000000000000000e+00
1.760000000000000000e+02,2.816863565295664174e-01,0.000000000000000000e+00
1.770000000000000000e+02,-4.778350015133521755e-01,0.000000000000000000e+00
1.780000000000000000e+02,3.287464618701022630e-03,0.000000000000000000e+00
1.790000000000000000e+02,-3.473042973419924739e-01,0.000000000000000000e+00
1.800000000000000000e+02,1.048535448833121525e-01,0.000000000000000000e+00
1.810000000000000000e+02,2.115378544546556161e-01,0.000000000000000000e+00
1.820000000000000000e+02,4.662174812644985233e-01,0.000000000000000000e+00
1.830000000000000000e+02,4.241568553698412125e-01,0.000000000000000000e+00
1.840000000000000000e+02,1.248489847248433815e+00,0.000000000000000000e+00
1.850000000000000000e+02,6.363288326830961461e-01,0.000000000000000000e+00
1.860000000000000000e+02,1.115389059009211259e+00,0.000000000000000000e+00
1.870000000000000000e+02,9.932706541957612156e-01,0.000000000000000000e+00
1.880000000000000000e+02,4.018874953053528931e-01,0.000000000000000000e+00
1.890000000000000000e+02,1.177759479157896444e-01,0.000000000000000000e+00
1.900000000000000000e+02,-5.994384199212081654e-01,0.000000000000000000e+00
1.910000000000000000e+02,-6.653501924506796117e-01,0.000000000000000000e+00
1.920000000000000000e+02,-8.491548536898042565e-01,0.000000000000000000e+00
1.930000000000000000e+02,-1.037306081415166004e+00,0.000000000000000000e+00
1.940000000000000000e+02,-6.732466782310375653e-01,0.000000000000000000e+00
1.950000000000000000e+02,-8.414650188357106764e-01,0.000000000000000000e+00
1.960000000000000000e+02,-8.497298388535616809e-01,0.000000000000000000e+00
1.970000000000000000e+02,-4.667500894880927120e-01,0.000000000000000000e+00
1.980000000000000000e+02,-4.676571383055033171e-01,0.000000000000000000e+00
1.990000000000000000e+02,-1.538686379432552542e-01,0.000000000000000000e+00
2.000000000000000000e+02,-4.871806193784909977e-01,0.000000000000000000e+00
2.010000000000000000e+02,2.777239299552811125e-01,0.000000000000000000e+00
2.020000000000000000e+02,-1.482828000500658883e-01,0.000000000000000000e+00
2.030000000000000000e+02,1.206988971709790567e-02,0.000000000000000000e+00
2.040000000000000000e+02,-1.924613337461614226e-01,0.000000000000000000e+00
2.050000000000000000e+02,-5.473519657634114827e-02,0.000000000000000000e+00
2.060000000000000000e+02,9.019112163919579869e-04,0.000000000000000000e+00
2.070000000000000000e+02,-4.366643371883206504e-01,0.000000000000000000e+00
2.080000000000000000e+02,1.033729485548467650e-02,0.000000000000000000e+00
2.090000000000000000e+02,-2.039024837632446574e-01,0.000000000000000000e+00
2.100000000000000000e+02,2.089306377250371161e-01,0.000000000000000000e+00
2.110000000000000000e+02,2.126123753744226241e-01,0.000000000000000000e+00
2.120000000000000000e+02,-9.890764935038652561e-02,0.000000000000000000e+00
2.130000000000000000e+02,2.175471906242691933e+00,0.000000000000000000e+00
2.140000000000000000e+02,4.259295174229797531e+00,0.000000000000000000e+00
2.150000000000000000e+02,5.734910678357483249e-01,1.000000000000000000e+00
2.160000000000000000e+02,-1.589012876580653044e+00,0.000000000000000000e+00
2.170000000000000000e+02,-1.607420198831787772e+00,0.000000000000000000e+00
2.180000000000000000e+02,-6.219531544222841601e-01,0.000000000000000000e+00
2.190000000000000000e+02,-2.179771967770308128e-01,0.000000000000000000e+00
2.200000000000000000e+02,-3.816872709304860445e-01,0.000000000000000000e+00
2.210000000000000000e+02,1.896224855473072068e-01,0.000000000000000000e+00
2.220000000000000000e+02,-1.276588487904528058e-01,0.000000000000000000e+00
2.230000000000000000e+02,3.120776357758306765e-02,0.000000000000000000e+00
2.240000000000000000e+02,2.123276380168870325e-02,0.000000000000000000e+00
2.250000000000000000e+02,2.265765924723611713e-01,0.000000000000000000e+00
2.260000000000000000e+02,3.169943990778549270e-01,0.000000000000000000e+00
2.270000000000000000e+02,3.187919644035959177e-01,0.000000000000000000e+00
2.280000000000000000e+02,4.361241579930430490e-01,0.000000000000000000e+00
2.290000000000000000e+02,1.549098604872711338e+00,0.000000000000000000e+00
2.300000000000000000e+02,7.728581635140334694e-01,0.000000000000000000e+00
2.310000000000000000e+02,1.330949452758602769e+00,0.000000000000000000e+00
2.320000000000000000e+02,6.361300003890203447e-01,0.000000000000000000e+00
2.330000000000000000e+02,-2.552447884349252627e-01,0.000000000000000000e+00
2.340000000000000000e+02,-9.030554234111338729e-01,0.000000000000000000e+00
2.350000000000000000e+02,-5.943072880940689640e-01,0.000000000000000000e+00
2.360000000000000000e+02,-1.143294918705217933e+00,0.000000000000000000e+00
2.370000000000000000e+02,-6.924981252423146882e-01,0.000000000000000000e+00
2.380000000000000000e+02,-1.218934389197596557e+00,0.000000000000000000e+00
2.390000000000000000e+02,-5.966312750267379617e-01,0.000000000000000000e+00
2.400000000000000000e+02,-3.907298981818550510e-01,0.000000000000000000e+00
2.410000000000000000e+02,-7.469065554970280019e-01,0.000000000000000000e+00
2.420000000000000000e+02,-1.380464542235380595e-03,0.000000000000000000e+00
2.430000000000000000e+02,-7.230650848415515197e-01,0.000000000000000000e+00
2.440000000000000000e+02,-1.009278471891158629e-01,0.000000000000000000e+00
2.450000000000000000e+02,-3.726799917248520555e-01,0.000000000000000000e+00
2.460000000000000000e+02,-3.684433581608708569e-02,0.000000000000000000e+00
2.470000000000000000e+02,-3.372840717232422070e-01,0.000000000000000000e+00
2.480000000000000000e+02,1.273990897854307691e-01,0.000000000000000000e+00
2.490000000000000000e+02,-3.323801571439431446e-01,0.000000000000000000e+00
2.500000000000000000e+02,9.482891629858525295e-02,0.000000000000000000e+00
2.510000000000000000e+02,-2.443444710396496522e-01,0.000000000000000000e+00
2.520000000000000000e+02,-1.107900500877821437e-01,0.000000000000000000e+00
2.530000000000000000e+02,3.609538433851702116e-02,0.000000000000000000e+00
2.540000000000000000e+02,2.637407483958026377e-01,0.000000000000000000e+00
2.550000000000000000e+02,2.323662887425940668e-02,0.000000000000000000e+00
2.560000000000000000e+02,2.159285092376019288e-01,0.000000000000000000e+00
2.570000000000000000e+02,2.818322290407496156e-01,0.000000000000000000e+00
2.580000000000000000e+02,2.889237897358433796e-02,0.000000000000000000e+00
2.590000000000000000e+02,1.012295114945619828e-01,0.000000000000000000e+00
2.600000000000000000e+02,3.747750120083265051e-04,0.000000000000000000e+00
2.610000000000000000e+02,3.606429757514594686e-02,0.000000000000000000e+00
2.620000000000000000e+02,3.977974497581097335e+00,0.000000000000000000e+00
2.630000000000000000e+02,2.524754724104054660e+00,1.000000000000000000e+00
2.640000000000000000e+02,-8.798860702810638035e-01,0.000000000000000000e+00
2.650000000000000000e+02,-1.193122677667931342e+00,0.000000000000000000e+00
2.660000000000000000e+02,-1.070752743350093406e+00,0.000000000000000000e+00
2.670000000000000000e+02,-3.010419825947885930e-01,0.000000000000000000e+00
2.680000000000000000e+02,-8.032481122577685151e-02,0.000000000000000000e+00
2.690000000000000000e+02,-7.659960078977735842e-02,0.000000000000000000e+00
2.700000000000000000e+02,-7.020058424232218375e-01,0.000000000000000000e+00
2.710000000000000000e+02,1.740447674643988696e-01,0.000000000000000000e+00
2.720000000000000000e+02,-1.341192292001045505e-01,0.000000000000000000e+00
2.730000000000000000e+02,4.478644594418610403e-01,0.000000000000000000e+00
2.740000000000000000e+02,-1.829890481175545647e-01,0.000000000000000000e+00
2.750000000000000000e+02,5.935632992533294017e-01,0.000000000000000000e+00
2.760000000000000000e+02,2.942781021873889791e-01,0.000000000000000000e+00
2.770000000000000000e+02,8.770019556230217450e-01,0.000000000000000000e+00
2.780000000000000000e+02,1.144957363664880434e+00,0.000000000000000000e+00
2.790000000000000000e+02,8.999086202915345112e-01,0.000000000000000000e+00
2.800000000000000000e+02,1.084398955705580869e+00,0.000000000000000000e+00
2.810000000000000000e+02,4.451457538169117378e-01,0.000000000000000000e+00
2.820000000000000000e+02,-7.396035152816191616e-01,0.000000000000000000e+00
2.830000000000000000e+02,-8.184833714701854612e-01,0.000000000000000000e+00
2.840000000000000000e+02,-1.071371772512975440e+00,0.000000000000000000e+00
2.850000000000000000e+02,-7.296616539445944793e-01,0.000000000000000000e+00
2.860000000000000000e+02,-1.461340710641507279e+00,0.000000000000000000e+00
2.870000000000000000e+02,-6.298278116679224548e-01,0.000000000000000000e+00
2.880000000000000000e+02,-8.809813494128795330e-01,0.000000000000000000e+00
2.890000000000000000e+02,-6.784669720120849457e-01,0.000000000000000000e+00
2.900000000000000000e+02,-3.922646615003178572e-01,0.000000000000000000e+00
2.910000000000000000e+02,-5.024736495264463532e-01,0.000000000000000000e+00
2.920000000000000000e+02,-1.103904962818895857e-01,0.000000000000000000e+00
2.930000000000000000e+02,-4.048358134927836360e-01,0.000000000000000000e+00
2.940000000000000000e+02,-3.929972713692749808e-01,0.000000000000000000e+00
2.950000000000000000e+02,2.042019834748946133e-02,0.000000000000000000e+00
2.960000000000000000e+02,-3.599663078126378868e-01,0.000000000000000000e+00
2.970000000000000000e+02,-2.468922643055283528e-01,0.000000000000000000e+00
2.980000000000000000e+02,-3.618125599469678710e-01,0.000000000000000000e+00
2.990000000000000000e+02,7.315865212742823920e-02,0.000000000000000000e+00
3.000000000000000000e+02,-5.859151900006606684e-02,0.000000000000000000e+00
3.010000000000000000e+02,-2.699697822705140471e-01,0.000000000000000000e+00
3.020000000000000000e+02,3.233231987898066428e-01,0.000000000000000000e+00
3.030000000000000000e+02,1.066376656366875564e-01,0.000000000000000000e+00
3.040000000000000000e+02,8.652247226824026638e-02,0.000000000000000000e+00
3.050000000000000000e+02,-4.677690426070153784e-02,0.000000000000000000e+00
3.060000000000000000e+02,3.191994452848118807e-02,0.000000000000000000e+00
3.070000000000000000e+02,2.618243721113596156e-01,0.000000000000000000e+00
3.080000000000000000e+02,7.907215391972276242e-02,0.000000000000000000e+00
3.090000000000000000e+02,2.005879486877069351e-01,0.000000000000000000e+00
3.100000000000000000e+02,1.861844905748908652e-01,0.000000000000000000e+00
3.110000000000000000e+02,1.289171405415859839e-01,0.000000000000000000e+00
3.120000000000000000e+02,3.780785288933027899e-01,0.000000000000000000e+00
3.130000000000000000e+02,1.737425114615552268e-01,0.000000000000000000e+00
3.140000000000000000e+02,8.705365706700836370e-02,0.000000000000000000e+00
3.150000000000000000e+02,-1.384742070517475387e-01,0.000000000000000000e+00
3.160000000000000000e+02,-2.046999098476657286e-01,0.000000000000000000e+00
3.170000000000000000e+02,1.446687869670418181e+00,0.000000000000000000e+00
3.180000000000000000e+02,4.951772810069309472e+00,0.000000000000000000e+00
3.190000000000000000e+02,1.517994872774697468e+00,1.000000000000000000e+00
3.200000000000000000e+02,-1.491775439594333230e+00,0.000000000000000000e+00
3.210000000000000000e+02,-8.127642122200763319e-01,0.000000000000000000e+00
3.220000000000000000e+02,-5.063067830973323469e-01,0.000000000000000000e+00
3.230000000000000000e+02,-4.082880326924705483e-01,0.000000000000000000e+00
3.240000000000000000e+02,-2.334572606161081365e-01,0.000000000000000000e+00
3.250000000000000000e+02,-2.388376975350543774e-01,0.000000000000000000e+00
3.260000000000000000e+02,-4.550455036314445673e-02,0.000000000000000000e+00
3.270000000000000000e+02,2.526423386942563409e-01,0.000000000000000000e+00
3.280000000000000000e+02,5.748866324384405840e-02,0.000000000000000000e+00
3.290000000000000000e+02,7.683747930796354375e-02,0.000000000000000000e+00
3.300000000000000000e+02,5.440372440464203048e-03,0.000000000000000000e+00
3.310000000000000000e+02,6.969045871363985789e-01,0.000000000000000000e+00
3.320000000000000000e+02,1.415329371944384906e-01,0.000000000000000000e+00
3.330000000000000000e+02,8.209091574833806693e-01,0.000000000000000000e+00
3.340000000000000000e+02,8.784776144292849587e-01,0.000000000000000000e+00
3.350000000000000000e+02,9.629572426898675985e-01,0.000000000000000000e+00
3.360000000000000000e+02,8.930281716352250765e-01,0.000000000000000000e+00
3.370000000000000000e+02,4.595731960912178282e-01,0.000000000000000000e+00
3.380000000000000000e+02,-5.415006046793586769e-01,0.000000000000000000e+00
3.390000000000000000e+02,-9.743711200990363697e-01,0.000000000000000000e+00
3.400000000000000000e+02,-8.437593189372190050e-01,0.000000000000000000e+00
3.410000000000000000e+02,-1.268682851564282732e+00,0.000000000000000000e+00
3.420000000000000000e+02,-1.346972598641176910e+00,0.000000000000000000e+00
3.430000000000000000e+02,-8.024003591174962979e-01,0.000000000000000000e+00
3.440000000000000000e+02,-1.293220395982343174e+00,0.000000000000000000e+00
3.450000000000000000e+02,-5.341253177028985055e-01,0.000000000000000000e+00
3.460000000000000000e+02,-1.828603941482276896e-01,0.000000000000000000e+00
3.470000000000000000e+02,-9.106534621623466608e-01,0.000000000000000000e+00
3.480000000000000000e+02,-1.472827898755517118e-01,0.000000000000000000e+00
3.490000000000000000e+02,-4.875275630924121306e-01,0.000000000000000000e+00
3.500000000000000000e+02,-4.786301003789614206e-01,0.000000000000000000e+00
3.510000000000000000e+02,-5.418549692157669240e-01,0.000000000000000000e+00
3.520000000000000000e+02,-1.170274980569198237e-01,0.000000000000000000e+00
3.530000000000000000e+02,-3.406305994978643947e-01,0.000000000000000000e+00
3.540000000000000000e+02,-5.206400088592612052e-01,0.000000000000000000e+00
3.550000000000000000e+02,4.347548370192249600e-01,0.000000000000000000e+00
3.560000000000000000e+02,-2.727047432041436181e-01,0.000000000000000000e+00
3.570000000000000000e+02,1.176619672595597826e-01,0.000000000000000000e+00
3.580000000000000000e+02,-4.056101579524978296e-01,0.000000000000000000e+00
3.590000000000000000e+02,1.069276022838575729e-01,0.000000000000000000e+00
3.600000000000000000e+02,-4.007182516649948623e-02,0.000000000000000000e+00
3.610000000000000000e+02,9.741781703380187132e-03,0.000000000000000000e+00
3.620000000000000000e+02,-2.915019201086456180e-01,0.000000000000000000e+00
3.630000000000000000e+02,2.187745783352668560e+00,0.000000000000000000e+00
3.640000000000000000e+02,4.714757202892170262e+00,0.000000000000000000e+00
3.650000000000000000e+02,-8.321461632888599302e-02,1.000000000000000000e+00
3.660000000000000000e+02,-1.251856898118728800e+00,0.000000000000000000e+00
3.670000000000000000e+02,-1.484550696258448488e+00,0.000000000000000000e+00
3.680000000000000000e+02,-3.285175016541010962e-01,0.000000000000000000e+00
3.690000000000000000e+02,-2.485405409472651317e-01,0.000000000000000000e+00
3.700000000000000000e+02,-3.547494991356117677e-01,0.000000000000000000e+00
3.710000000000000000e+02,-1.186197264742556989e-01,0.000000000000000000e+00
3.720000000000000000e+02,-1.008683384126924792e-01,0.000000000000000000e+00
3.730000000000000000e+02,9.837490522733934040e-02,0.000000000000000000e+00
3.740000000000000000e+02,-8.641652663009372071e-02,0.000000000000000000e+00
3.750000000000000000e+02,4.737092333367814295e-02,0.000000000000000000e+00
3.760000000000000000e+02,2.019975428666647421e-01,0.000000000000000000e+00
3.770000000000000000e+02,4.032814052613065692e-01,0.000000000000000000e+00
3.780000000000000000e+02,1.010737914921210345e+00,0.000000000000000000e+00
3.790000000000000000e+02,8.346162559740164522e-01,0.000000000000000000e+00
3.800000000000000000e+02,1.512068840515040646e+00,0.000000000000000000e+00
3.810000000000000000e+02,1.010862067218742721e+00,0.000000000000000000e+00
3.820000000000000000e+02,6.626756764942861588e-01,0.000000000000000000e+00
3.830000000000000000e+02,-2.388337208696501013e-01,0.000000000000000000e+00
3.840000000000000000e+02,-6.794558960773858791e-01,0.000000000000000000e+00
3.850000000000000000e+02,-1.115830487615804945e+00,0.000000000000000000e+00
3.860000000000000000e+02,-9.480376414461686441e-01,0.000000000000000000e+00
3.870000000000000000e+02,-1.117571496726424085e+00,0.000000000000000000e+00
3.880000000000000000e+02,-8.121847415679392945e-01,0.000000000000000000e+00
3.890000000000000000e+02,-5.889810791901232134e-01,0.000000000000000000e+00
3.900000000000000000e+02,-6.745599960892527669e-01,0.000000000000000000e+00
3.910000000000000000e+02,-3.510276519341999912e-01,0.000000000000000000e+00
3.920000000000000000e+02,-3.387355788817910107e-01,0.000000000000000000e+00
3.930000000000000000e+02,-6.284799832657723684e-01,0.000000000000000000e+00
3.940000000000000000e+02,-2.299115602356168950e-02,0.000000000000000000e+00
3.950000000000000000e+02,-4.205634209865540263e-01,0.000000000000000000e+00
3.960000000000000000e+02,-5.886748834555962512e-02,0.000000000000000000e+00
3.970000000000000000e+02,-2.848181946825069644e-01,0.000000000000000000e+00
3.980000000000000000e+02,3.857300174976384666e-01,0.000000000000000000e+00
3.990000000000000000e+02,-3.327804359489259789e-01,0.000000000000000000e+00
4.000000000000000000e+02,2.658719808613453292e-02,0.000000000000000000e+00
4.010000000000000000e+02,-2.256475579167861456e-01,0.000000000000000000e+00
4.020000000000000000e+02,3.279465497242263217e-01,0.000000000000000000e+00
4.030000000000000000e+02,-1.323178027681212905e-02,0.000000000000000000e+00
4.040000000000000000e+02,4.766868370862623050e-02,0.000000000000000000e+00
4.050000000000000000e+02,1.628481879117409936e-01,0.000000000000000000e+00
4.060000000000000000e+02,6.932588915233046656e-01,0.000000000000000000e+00
4.070000000000000000e+02,-2.116773147383978204e-02,0.000000000000000000e+00
4.080000000000000000e+02,5.590063866679259030e-01,0.000000000000000000e+00
4.090000000000000000e+02,8.239876440797246071e-03,0.000000000000000000e+00
4.100000000000000000e+02,5.613732055142223176e-01,0.000000000000000000e+00
4.110000000000000000e+02,4.309726211395160760e-03,0.000000000000000000e+00
4.120000000000000000e+02,2.390865362853013543e-01,0.000000000000000000e+00
4.130000000000000000e+02,-3.613082802159410523e-02,0.000000000000000000e+00
4.140000000000000000e+02,3.513360337054608484e-01,0.000000000000000000e+00
4.150000000000000000e+02,3.954719565626657829e+00,0.000000000000000000e+00
4.160000000000000000e+02,3.028860528177593103e+00,0.000000000000000000e+00
4.170000000000000000e+02,-6.711827291732839207e-01,1.000000000000000000e+00
4.180000000000000000e+02,-1.254768508423473206e+00,0.000000000000000000e+00
4.190000000000000000e+02,-6.824086591774520816e-01,0.000000000000000000e+00
4.200000000000000000e+02,-2.580290331651629576e-01,0.000000000000000000e+00
4.210000000000000000e+02,-2.551060100814700471e-01,0.000000000000000000e+00
4.220000000000000000e+02,-2.107586256838827332e-01,0.000000000000000000e+00
4.230000000000000000e+02,-2.879217334670152936e-02,0.000000000000000000e+00
4.240000000000000000e+02,1.934282527384606140e-02,0.000000000000000000e+00
4.250000000000000000e+02,4.916863336112805433e-02,0.000000000000000000e+00
4.260000000000000000e+02,-1.135116044392718154e-01,0.000000000000000000e+00
4.270000000000000000e+02,9.101358395461847661e-02,0.000000000000000000e+00
4.280000000000000000e+02,4.967822184839383870e-01,0.000000000000000000e+00
4.290000000000000000e+02,2.975832722206001590e-01,0.000000000000000000e+00
4.300000000000000000e+02,6.893053078047076676e-01,0.000000000000000000e+00
4.310000000000000000e+02,9.869224953216442220e-01,0.000000000000000000e+00
4.320000000000000000e+02,8.140147242776067937e-01,0.000000000000000000e+00
4.330000000000000000e+02,1.199347916641298584e+00,0.000000000000000000e+00
4.340000000000000000e+02,4.153849984154118213e-01,0.000000000000000000e+00
4.350000000000000000e+02,-2.069950818485765121e-01,0.000000000000000000e+00
4.360000000000000000e+02,-4.953369631966560438e-01,0.000000000000000000e+00
4.370000000000000000e+02,-1.097650961905445977e+00,0.000000000000000000e+00
4.380000000000000000e+02,-9.435960403798667739e-01,0.000000000000000000e+00
4.390000000000000000e+02,-9.650307116556764431e-01,0.000000000000000000e+00
4.400000000000000000e+02,-1.358874253967418566e+00,0.000000000000000000e+00
4.410000000000000000e+02,-5.445746974098988336e-01,0.000000000000000000e+00
4.420000000000000000e+02,-5.621530752440438983e-01,0.000000000000000000e+00
4.430000000000000000e+02,-5.363706768662128699e-01,0.000000000000000000e+00
4.440000000000000000e+02,-4.189258219612229106e-01,0.000000000000000000e+00
4.450000000000000000e+02,-6.685891787304669709e-01,0.000000000000000000e+00
4.460000000000000000e+02,-3.925537108147972298e-02,0.000000000000000000e+00
4.470000000000000000e+02,-1.466757751768799078e-01,0.000000000000000000e+00
4.480000000000000000e+02,-3.237196095824512176e-01,0.000000000000000000e+00
4.490000000000000000e+02,-4.237293611414299499e-01,0.000000000000000000e+00
4.500000000000000000e+02,-3.740155428219598122e-01,0.000000000000000000e+00
4.510000000000000000e+02,-1.941529797316187411e-01,0.000000000000000000e+00
4.520000000000000000e+02,-3.654733241705060975e-01,0.000000000000000000e+00
4.530000000000000000e+02,1.453182035769359448e+00,0.000000000000000000e+00
4.540000000000000000e+02,3.797604367659961344e+00,0.000000000000000000e+00
4.550000000000000000e+02,3.117848344640393177e-01,1.000000000000000000e+00
4.560000000000000000e+02,-1.555674566437221351e+00,0.000000000000000000e+00
4.570000000000000000e+02,-9.972508915205088309e-01,0.000000000000000000e+00
4.580000000000000000e+02,-8.163295959333105589e-01,0.000000000000000000e+00
4.590000000000000000e+02,-2.473274905010490812e-02,0.000000000000000000e+00
4.600000000000000000e+02,-8.352512702001646527e-01,0.000000000000000000e+00
4.610000000000000000e+02,-2.323883476018165362e-01,0.000000000000000000e+00
4.620000000000000000e+02,-3.880113452131916385e-01,0.000000000000000000e+00
4.630000000000000000e+02,3.208806478271051810e-01,0.000000000000000000e+00
4.640000000000000000e+02,-3.136024210184828465e-01,0.000000000000000000e+00
4.650000000000000000e+02,3.270004363770513400e-01,0.000000000000000000e+00
4.660000000000000000e+02,4.699328272381706612e-02,0.000000000000000000e+00
4.670000000000000000e+02,7.721502082864939442e-01,0.000000000000000000e+00
4.680000000000000000e+02,3.398595614879461047e-01,0.000000000000000000e+00
4.690000000000000000e+02,1.163988156480279645e+00,0.000000000000000000e+00
4.700000000000000000e+02,5.447163329277874277e-01,0.000000000000000000e+00
4.710000000000000000e+02,9.330099477848945444e-01,0.000000000000000000e+00
4.720000000000000000e+02,4.268128026195044389e-01,0.000000000000000000e+00
4.730000000000000000e+02,-3.161239896066248001e-01,0.000000000000000000e+00
4.740000000000000000e+02,-2.980475758572356249e-01,0.000000000000000000e+00
4.750000000000000000e+02,-8.017013215611830113e-01,0.000000000000000000e+00
4.760000000000000000e+02,-8.798810324130341698e-01,0.000000000000000000e+00
4.770000000000000000e+02,-7.032464715998888449e-01,0.000000000000000000e+00
4.780000000000000000e+02,-8.401446888052344075e-01,0.000000000000000000e+00
4.790000000000000000e+02,-7.040542535476207453e-01,0.000000000000000000e+00
4.800000000000000000e+02,-7.355630276938844858e-01,0.000000000000000000e+00
4.810000000000000000e+02,-5.308536078550328829e-01,0.000000000000000000e+00
4.820000000000000000e+02,-3.538612778659380731e-01,0.000000000000000000e+00
4.830000000000000000e+02,-1.594610295495689223e-01,0.000000000000000000e+00
4.840000000000000000e+02,-2.281186327557183924e-01,0.000000000000000000e+00
4.850000000000000000e+02,-1.831229895862251655e-01,0.000000000000000000e+00
4.860000000000000000e+02,-1.369239084055234867e-01,0.000000000000000000e+00
4.870000000000000000e+02,-2.210030119121657866e-01,0.000000000000000000e+00
4.880000000000000000e+02,-1.886337893430343471e-01,0.000000000000000000e+00
4.890000000000000000e+02,-1.878736381095545416e-01,0.000000000000000000e+00
4.900000000000000000e+02,2.712046038525265934e-01,0.000000000000000000e+00
4.910000000000000000e+02,3.025590525432386713e-01,0.000000000000000000e+00
4.920000000000000000e+02,2.739747241920063026e-01,0.000000000000000000e+00
4.930000000000000000e+02,1.004758113176718037e-01,0.000000000000000000e+00
4.940000000000000000e+02,2.580018848636880802e-01,0.000000000000000000e+00
4.950000000000000000e+02,2.271417765436159475e-01,0.000000000000000000e+00
4.960000000000000000e+02,4.480905070878968277e-01,0.000000000000000000e+00
4.970000000000000000e+02,1.240213308071455023e-01,0.000000000000000000e+00
4.980000000000000000e+02,2.828384531470500285e-01,0.000000000000000000e+00
4.990000000000000000e+02,2.827149369364090337e-01,0.000000000000000000e+00
5.000000000000000000e+02,4.165600102071972954e-01,0.000000000000000000e+00
5.010000000000000000e+02,4.378006189553230731e-01,0.000000000000000000e+00
5.020000000000000000e+02,2.379738349703618416e-01,0.000000000000000000e+00
5.030000000000000000e+02,2.983170741102778578e-01,0.000000000000000000e+00
5.040000000000000000e+02,1.006437857123955587e-01,0.000000000000000000e+00
5.050000000000000000e+02,5.165759256620032769e-01,0.000000000000000000e+00
5.060000000000000000e+02,3.626223014808049316e-01,0.000000000000000000e+00
5.070000000000000000e+02,1.910800348489788136e-01,0.000000000000000000e+00
5.080000000000000000e+02,2.501525892952020103e-01,0.000000000000000000e+00
5.090000000000000000e+02,1.452888476010097685e-01,0.000000000000000000e+00
5.100000000000000000e+02,3.594297945105984216e-01,0.000000000000000000e+00
5.110000000000000000e+02,3.754904229599511645e-01,0.000000000000000000e+00
5.120000000000000000e+02,2.805475532821062323e-01,0.000000000000000000e+00
5.130000000000000000e+02,3.995730207730677913e-02,0.000000000000000000e+00
5.140000000000000000e+02,2.009354436108030106e-01,0.000000000000000000e+00
5.150000000000000000e+02,4.056726772409620096e+00,0.000000000000000000e+00
5.160000000000000000e+02,2.800279357089099364e+00,0.000000000000000000e+00
5.170000000000000000e+02,-8.476741263680573901e-01,1.000000000000000000e+00
5.180000000000000000e+02,-1.519770555750470820e+00,0.000000000000000000e+00
5.190000000000000000e+02,-4.054260945812344641e-01,0.000000000000000000e+00
5.200000000000000000e+02,-5.075536737767635254e-01,0.000000000000000000e+00
5.210000000000000000e+02,-5.795293464388735494e-01,0.000000000000000000e+00
5.220000000000000000e+02,-7.528582480684346823e-02,0.000000000000000000e+00
5.230000000000000000e+02,-2.412745656459086285e-01,0.000000000000000000e+00
5.240000000000000000e+02,1.933472849735030641e-01,0.000000000000000000e+00
5.250000000000000000e+02,-1.259771895591841606e-01,0.000000000000000000e+00
5.260000000000000000e+02,-3.067168686996579741e-01,0.000000000000000000e+00
5.270000000000000000e+02,-2.277892830373106081e-01,0.000000000000000000e+00
5.280000000000000000e+02,2.485727594684206399e-01,0.000000000000000000e+00
5.290000000000000000e+02,2.200557082868186964e-01,0.000000000000000000e+00
5.300000000000000000e+02,4.066778074579978086e-01,0.000000000000000000e+00
5.310000000000000000e+02,7.109936752166005069e-01,0.000000000000000000e+00
5.320000000000000000e+02,6.836403851574361923e-01,0.000000000000000000e+00
5.330000000000000000e+02,6.507363234187704126e-01,0.000000000000000000e+00
5.340000000000000000e+02,2.734049274646192518e-01,0.000000000000000000e+00
5.350000000000000000e+02,-5.595916803258839910e-03,0.000000000000000000e+00
5.360000000000000000e+02,-9.533431296518559694e-01,0.000000000000000000e+00
5.370000000000000000e+02,-8.896978084520977825e-01,0.000000000000000000e+00
5.380000000000000000e+02,-1.448889041275993161e+00,0.000000000000000000e+00
5.390000000000000000e+02,-7.341266395606045325e-01,0.000000000000000000e+00
5.400000000000000000e+02,-1.250711312859336566e+00,0.000000000000000000e+00
5.410000000000000000e+02,-6.278849202456388001e-01,0.000000000000000000e+00
5.420000000000000000e+02,-1.152088954326782266e+00,0.000000000000000000e+00
5.430000000000000000e+02,-6.503754121360532103e-01,0.000000000000000000e+00
5.440000000000000000e+02,-2.164059791199759997e-01,0.000000000000000000e+00
5.450000000000000000e+02,-9.525533029535256935e-01,0.000000000000000000e+00
5.460000000000000000e+02,-2.230604162252798270e-02,0.000000000000000000e+00
5.470000000000000000e+02,-7.020605682684096793e-01,0.000000000000000000e+00
5.480000000000000000e+02,-3.724621315392809828e-01,0.000000000000000000e+00
5.490000000000000000e+02,-2.412547696417622067e-01,0.000000000000000000e+00
5.500000000000000000e+02,-5.387525150502352478e-01,0.000000000000000000e+00
5.510000000000000000e+02,-2.501817119249416521e-02,0.000000000000000000e+00
5.520000000000000000e+02,-9.260638396636355907e-01,0.000000000000000000e+00
5.530000000000000000e+02,3.906925084951065053e-01,0.000000000000000000e+00
5.540000000000000000e+02,-4.793430966153028883e-01,0.000000000000000000e+00
5.550000000000000000e+02,5.910089752289131478e-03,0.000000000000000000e+00
5.560000000000000000e+02,-1.222061405902410136e-01,0.000000000000000000e+00
5.570000000000000000e+02,-3.258420263193967936e-01,0.000000000000000000e+00
5.580000000000000000e+02,2.467115258742653416e-01,0.000000000000000000e+00
5.590000000000000000e+02,-3.135298515540930753e-01,0.000000000000000000e+00
5.600000000000000000e+02,2.527040598100684377e-01,0.000000000000000000e+00
5.610000000000000000e+02,-1.259001676446457885e-01,0.000000000000000000e+00
5.620000000000000000e+02,-1.510326731248335941e-01,0.000000000000000000e+00
5.630000000000000000e+02,-4.642568475008833351e-02,0.000000000000000000e+00
5.640000000000000000e+02,3.970023615450615662e+00,0.000000000000000000e+00
5.650000000000000000e+02,2.812341488379723753e+00,1.000000000000000000e+00
5.660000000000000000e+02,-1.029307356218671421e+00,0.000000000000000000e+00
5.670000000000000000e+02,-1.106351758288426579e+00,0.000000000000000000e+00
5.680000000000000000e+02,-9.747125970802804629e-01,0.000000000000000000e+00
5.690000000000000000e+02,-4.233921307506541276e-01,0.000000000000000000e+00
5.700000000000000000e+02,-4.631216661220715625e-01,0.000000000000000000e+00
5.710000000000000000e+02,-4.713942423867736875e-02,0.000000000000000000e+00
5.720000000000000000e+02,-3.137058577148802985e-01,0.000000000000000000e+00
5.730000000000000000e+02,1.280757290949865734e-01,0.000000000000000000e+00
5.740000000000000000e+02,6.359149384276062411e-02,0.000000000000000000e+00
5.750000000000000000e+02,3.751875109159366062e-01,0.000000000000000000e+00
5.760000000000000000e+02,2.892375672911724482e-01,0.000000000000000000e+00
5.770000000000000000e+02,2.905964550031628346e-01,0.000000000000000000e+00
5.780000000000000000e+02,1.079668594317041652e+00,0.000000000000000000e+00
5.790000000000000000e+02,4.085883972210995196e-01,0.000000000000000000e+00
5.800000000000000000e+02,1.548632243567422240e+00,0.000000000000000000e+00
5.810000000000000000e+02,9.113105678839746870e-01,0.000000000000000000e+00
5.820000000000000000e+02,1.090525243905555275e+00,0.000000000000000000e+00
5.830000000000000000e+02,5.344344579406397067e-01,0.000000000000000000e+00
5.840000000000000000e+02,-3.312338694615532542e-01,0.000000000000000000e+00
5.850000000000000000e+02,-5.500950180887419494e-01,0.000000000000000000e+00
5.860000000000000000e+02,-1.347468189461350940e+00,0.000000000000000000e+00
5.870000000000000000e+02,-6.035495772015730953e-01,0.000000000000000000e+00
5.880000000000000000e+02,-1.436663173975650132e+00,0.000000000000000000e+00
5.890000000000000000e+02,-6.809684700751371667e-01,0.000000000000000000e+00
5.900000000000000000e+02,-5.793954464080481870e-01,0.000000000000000000e+00
5.910000000000000000e+02,-6.659965305852407758e-01,0.000000000000000000e+00
5.920000000000000000e+02,-4.002789697647214928e-01,0.000000000000000000e+00
5.930000000000000000e+02,-3.927681204660032344e-01,0.000000000000000000e+00
5.940000000000000000e+02,-2.727634225344056640e-01,0.000000000000000000e+00
5.950000000000000000e+02,-4.312787423855045654e-01,0.000000000000000000e+00
5.960000000000000000e+02,-1.353290096981551449e-01,0.000000000000000000e+00
5.970000000000000000e+02,-4.469761626723184333e-01,0.000000000000000000e+00
5.980000000000000000e+02,-7.208436352172364892e-02,0.000000000000000000e+00
5.990000000000000000e+02,-1.519554547301322778e-01,0.000000000000000000e+00
6.000000000000000000e+02,-6.266938744637327863e-02,0.000000000000000000e+00
6.010000000000000000e+02,2.998724148695538008e-02,0.000000000000000000e+00
6.020000000000000000e+02,1.996829105754206052e-02,0.000000000000000000e+00
6.030000000000000000e+02,1.627202804675705050e-01,0.000000000000000000e+00
6.040000000000000000e+02,1.726567776362857576e-01,0.000000000000000000e+00
6.050000000000000000e+02,1.051309780670627303e-01,0.000000000000000000e+00
6.060000000000000000e+02,-5.795137790453697146e-01,0.000000000000000000e+00
6.070000000000000000e+02,9.898235310915263208e-01,0.000000000000000000e+00
6.080000000000000000e+02,4.191499708339732955e+00,0.000000000000000000e+00
6.090000000000000000e+02,2.126101231471148711e+00,1.000000000000000000e+00
6.100000000000000000e+02,-1.329663316784869265e+00,0.000000000000000000e+00
6.110000000000000000e+02,-7.869180548717762402e-01,0.000000000000000000e+00
6.120000000000000000e+02,-1.031379426202136962e+00,0.000000000000000000e+00
6.130000000000000000e+02,1.395555688630158997e-01,0.000000000000000000e+00
6.140000000000000000e+02,-1.886624862824612392e-01,0.000000000000000000e+00
6.150000000000000000e+02,-3.530964997841716801e-01,0.000000000000000000e+00
6.160000000000000000e+02,-8.310872751263526093e-02,0.000000000000000000e+00
6.170000000000000000e+02,-3.843017674115599691e-01,0.000000000000000000e+00
6.180000000000000000e+02,3.618581515288566419e-01,0.000000000000000000e+00
6.190000000000000000e+02,1.415605026764568675e-01,0.000000000000000000e+00
6.200000000000000000e+02,4.400462556789173085e-01,0.000000000000000000e+00
6.210000000000000000e+02,2.062489819611001973e-01,0.000000000000000000e+00
6.220000000000000000e+02,1.159316036811295136e+00,0.000000000000000000e+00
6.230000000000000000e+02,8.293125220389278018e-01,0.000000000000000000e+00
6.240000000000000000e+02,1.002376202567467622e+00,0.000000000000000000e+00
6.250000000000000000e+02,1.315316626085256679e+00,0.000000000000000000e+00
6.260000000000000000e+02,5.072937942615296514e-01,0.000000000000000000e+00
6.270000000000000000e+02,5.355947684902515604e-01,0.000000000000000000e+00
6.280000000000000000e+02,-7.995850319831908637e-01,0.000000000000000000e+00
6.290000000000000000e+02,-5.683364392168921420e-01,0.000000000000000000e+00
6.300000000000000000e+02,-8.183344572373220105e-01,0.000000000000000000e+00
6.310000000000000000e+02,-1.243722365106398220e+00,0.000000000000000000e+00
6.320000000000000000e+02,-4.976731381894716200e-01,0.000000000000000000e+00
6.330000000000000000e+02,-1.126486588478774475e+00,0.000000000000000000e+00
6.340000000000000000e+02,-1.031291324208229554e+00,0.000000000000000000e+00
6.350000000000000000e+02,-4.774028549226436158e-01,0.000000000000000000e+00
6.360000000000000000e+02,-7.276352994602727220e-01,0.000000000000000000e+00
6.370000000000000000e+02,-4.117013078076827703e-01,0.000000000000000000e+00
6.380000000000000000e+02,-1.206870749697943473e-01,0.000000000000000000e+00
6.390000000000000000e+02,-4.516858915646203565e-01,0.000000000000000000e+00
6.400000000000000000e+02,-3.761897876658455014e-02,0.000000000000000000e+00
6.410000000000000000e+02,-3.868184028065189684e-01,0.000000000000000000e+00
6.420000000000000000e+02,-1.571627368936829305e-01,0.000000000000000000e+00
6.430000000000000000e+02,5.810140191644044133e-02,0.000000000000000000e+00
6.440000000000000000e+02,-6.770909521246908369e-01,0.000000000000000000e+00
6.450000000000000000e+02,2.973314584412786732e-01,0.000000000000000000e+00
6.460000000000000000e+02,-6.497380152979003176e-01,0.000000000000000000e+00
6.470000000000000000e+02,7.425160421320832205e-01,0.000000000000000000e+00
6.480000000000000000e+02,-8.256351397003570680e-01,0.000000000000000000e+00
6.490000000000000000e+02,1.423467661612400237e+00,0.000000000000000000e+00
6.500000000000000000e+02,4.345770982512032532e+00,0.000000000000000000e+00
6.510000000000000000e+02,1.294273855995967226e+00,1.000000000000000000e+00
6.520000000000000000e+02,-1.617947747557288318e+00,0.000000000000000000e+00
6.530000000000000000e+02,-1.170548669110818230e+00,0.000000000000000000e+00
6.540000000000000000e+02,-2.052488773046874104e-01,0.000000000000000000e+00
6.550000000000000000e+02,-9.485401328349936101e-01,0.000000000000000000e+00
6.560000000000000000e+02,2.348132761243903466e-01,0.000000000000000000e+00
6.570000000000000000e+02,1.978954803154140685e-01,0.000000000000000000e+00
6.580000000000000000e+02,-4.950882285548490191e-01,0.000000000000000000e+00
6.590000000000000000e+02,5.275991612850464141e-02,0.000000000000000000e+00
6.600000000000000000e+02,5.149238956298151093e-01,0.000000000000000000e+00
6.610000000000000000e+02,-3.043809012213878340e-01,0.000000000000000000e+00
6.620000000000000000e+02,8.740554250440046857e-01,0.000000000000000000e+00
6.630000000000000000e+02,3.249967926450771927e-01,0.000000000000000000e+00
6.640000000000000000e+02,1.106207111128909792e+00,0.000000000000000000e+00
6.650000000000000000e+02,1.250834146289821147e+00,0.000000000000000000e+00
6.660000000000000000e+02,1.206081200646366591e+00,0.000000000000000000e+00
6.670000000000000000e+02,1.501930250164381864e+00,0.000000000000000000e+00
6.680000000000000000e+02,8.298300676285167432e-01,0.000000000000000000e+00
6.690000000000000000e+02,-2.149567008894956166e-01,0.000000000000000000e+00
6.700000000000000000e+02,-5.530248632386027818e-01,0.000000000000000000e+00
6.710000000000000000e+02,-1.132350763047751618e+00,0.000000000000000000e+00
6.720000000000000000e+02,-8.833307123720692822e-01,0.000000000000000000e+00
6.730000000000000000e+02,-7.557121914622481063e-01,0.000000000000000000e+00
6.740000000000000000e+02,-8.737099572328962394e-01,0.000000000000000000e+00
6.750000000000000000e+02,-8.240856024959177795e-01,0.000000000000000000e+00
6.760000000000000000e+02,-8.701983465291854847e-01,0.000000000000000000e+00
6.770000000000000000e+02,-2.449198256882136604e-01,0.000000000000000000e+00
6.780000000000000000e+02,-5.989111963918022363e-01,0.000000000000000000e+00
6.790000000000000000e+02,-1.996722994618398694e-01,0.000000000000000000e+00
6.800000000000000000e+02,-3.936071189194637610e-01,0.000000000000000000e+00
6.810000000000000000e+02,-5.120151808787418712e-01,0.000000000000000000e+00
6.820000000000000000e+02,2.334788519752188998e-02,0.000000000000000000e+00
6.830000000000000000e+02,-8.418822392779144737e-02,0.000000000000000000e+00
6.840000000000000000e+02,-1.110348883883945370e-01,0.000000000000000000e+00
6.850000000000000000e+02,3.971252812509313834e-01,0.000000000000000000e+00
6.860000000000000000e+02,-3.588391679609373996e-01,0.000000000000000000e+00
6.870000000000000000e+02,-6.381027228706567800e-02,0.000000000000000000e+00
6.880000000000000000e+02,-2.715238872130842571e-02,0.000000000000000000e+00
6.890000000000000000e+02,-5.298183798116810200e-02,0.000000000000000000e+00
6.900000000000000000e+02,-4.082486894760217755e-01,0.000000000000000000e+00
6.910000000000000000e+02,5.687937221373930985e-01,0.000000000000000000e+00
6.920000000000000000e+02,4.572921516983349810e-02,0.000000000000000000e+00
6.930000000000000000e+02,6.345447214417445636e-01,0.000000000000000000e+00
6.940000000000000000e+02,-2.090163200649861330e-01,0.000000000000000000e+00
6.950000000000000000e+02,4.219633201655473287e-01,0.000000000000000000e+00
6.960000000000000000e+02,-6.744732655958528278e-02,0.000000000000000000e+00
6.970000000000000000e+02,4.648400322159791931e-01,0.000000000000000000e+00
6.980000000000000000e+02,8.407974269998603686e-03,0.000000000000000000e+00
6.990000000000000000e+02,3.387912343850479902e-02,0.000000000000000000e+00
7.000000000000000000e+02,7.365267802280430764e-01,0.000000000000000000e+00
7.010000000000000000e+02,1.184046846990244317e-01,0.000000000000000000e+00
7.020000000000000000e+02,5.294611090186837066e-01,0.000000000000000000e+00
7.030000000000000000e+02,-1.583980659864142604e-01,0.000000000000000000e+00
7.040000000000000000e+02,2.190220516759302516e-01,0.000000000000000000e+00
7.050000000000000000e+02,1.161767831545373053e-01,0.000000000000000000e+00
7.060000000000000000e+02,-2.063354691208643156e-03,0.000000000000000000e+00
7.070000000000000000e+02,1.414800130447733117e-01,0.000000000000000000e+00
7.080000000000000000e+02,3.195036816241859645e-01,0.000000000000000000e+00
7.090000000000000000e+02,1.321208649772964705e-01,0.000000000000000000e+00
7.100000000000000000e+02,2.802980418919866490e-01,0.000000000000000000e+00
7.110000000000000000e+02,6.451894103061159291e-02,0.000000000000000000e+00
7.120000000000000000e+02,1.542671084209926158e-01,0.000000000000000000e+00
7.130000000000000000e+02,1.394410232080466883e-01,0.000000000000000000e+00
7.140000000000000000e+02,1.256499817000868435e-01,0.000000000000000000e+00
7.150000000000000000e+02,4.590363206945989594e-02,0.000000000000000000e+00
7.160000000000000000e+02,4.130564573937207662e-01,0.000000000000000000e+00
7.170000000000000000e+02,1.237938392488369538e-01,0.000000000000000000e+00
7.180000000000000000e+02,1.633253229653215122e-01,0.000000000000000000e+00
7.190000000000000000e+02,3.183779258833721038e-01,0.000000000000000000e+00
7.200000000000000000e+02,-1.786868286680982909e-01,0.000000000000000000e+00
7.210000000000000000e+02,3.142462448334927827e-01,0.000000000000000000e+00
7.220000000000000000e+02,-4.145286588601507227e-02,0.000000000000000000e+00
7.230000000000000000e+02,-8.930116792686920713e-02,0.000000000000000000e+00
7.240000000000000000e+02,-1.871110452518040188e-02,0.000000000000000000e+00
7.250000000000000000e+02,-2.653536634488797182e-03,0.000000000000000000e+00
7.260000000000000000e+02,1.221639062478630938e-01,0.000000000000000000e+00
7.270000000000000000e+02,-2.249928877778993308e-01,0.000000000000000000e+00
7.280000000000000000e+02,1.675759968982258596e-01,0.000000000000000000e+00
7.290000000000000000e+02,-8.939257731593079626e-02,0.000000000000000000e+00
7.300000000000000000e+02,1.485196921524827851e-01,0.000000000000000000e+00
7.310000000000000000e+02,-1.403786620053608380e-01,0.000000000000000000e+00
7.320000000000000000e+02,-2.537537946392701138e-01,0.000000000000000000e+00
7.330000000000000000e+02,9.533858533618769227e-02,0.000000000000000000e+00
7.340000000000000000e+02,-6.941832537457044705e-02,0.000000000000000000e+00
7.350000000000000000e+02,2.002412061330112805e-02,0.000000000000000000e+00
7.360000000000000000e+02,-5.389112443193202484e-01,0.000000000000000000e+00
7.370000000000000000e+02,-1.560411362600317917e-02,0.000000000000000000e+00
7.380000000000000000e+02,3.177110784004073984e+00,0.000000000000000000e+00
7.390000000000000000e+02,3.085623207769520260e+00,0.000000000000000000e+00
7.400000000000000000e+02,-1.090842322336614156e+00,1.000000000000000000e+00
7.410000000000000000e+02,-1.710017938308753038e+00,0.000000000000000000e+00
7.420000000000000000e+02,-1.102736670298854138e+00,0.000000000000000000e+00
7.430000000000000000e+02,-8.818433343276985692e-01,0.000000000000000000e+00
7.440000000000000000e+02,-5.632371583991051534e-01,0.000000000000000000e+00
7.450000000000000000e+02,-9.076591063586693098e-01,0.000000000000000000e+00
7.460000000000000000e+02,-1.462816696544166628e-01,0.000000000000000000e+00
7.470000000000000000e+02,-4.238814146514765513e-01,0.000000000000000000e+00
7.480000000000000000e+02,-1.356403246529868656e-01,0.000000000000000000e+00
7.490000000000000000e+02,-2.262613291879033983e-01,0.000000000000000000e+00
7.500000000000000000e+02,-5.315238221620296466e-01,0.000000000000000000e+00
7.510000000000000000e+02,8.427853887138452016e-02,0.000000000000000000e+00
7.520000000000000000e+02,1.976349508695870224e-03,0.000000000000000000e+00
7.530000000000000000e+02,-4.913913240459130694e-02,0.000000000000000000e+00
7.540000000000000000e+02,7.607305900236583929e-01,0.000000000000000000e+00
7.550000000000000000e+02,4.875459012288875793e-01,0.000000000000000000e+00
7.560000000000000000e+02,4.606692513209044715e-01,0.000000000000000000e+00
7.570000000000000000e+02,6.586398618220127288e-01,0.000000000000000000e+00
7.580000000000000000e+02,1.901943124859528933e-01,0.000000000000000000e+00
7.590000000000000000e+02,-6.865692651557380177e-01,0.000000000000000000e+00
7.600000000000000000e+02,-1.026419174123194944e+00,0.000000000000000000e+00
7.610000000000000000e+02,-1.003211621779496632e+00,0.000000000000000000e+00
7.620000000000000000e+02,-9.602098053385076382e-01,0.000000000000000000e+00
7.630000000000000000e+02,-1.060223741498712346e+00,0.000000000000000000e+00
7.640000000000000000e+02,-1.201564214006593856e+00,0.000000000000000000e+00
7.650000000000000000e+02,-6.748743825846726940e-01,0.000000000000000000e+00
7.660000000000000000e+02,-3.559551957450728943e-01,0.000000000000000000e+00
7.670000000000000000e+02,-3.461429823089925417e-01,0.000000000000000000e+00
7.680000000000000000e+02,-6.676458531341170621e-01,0.000000000000000000e+00
7.690000000000000000e+02,-3.573004248431436713e-01,0.000000000000000000e+00
7.700000000000000000e+02,-4.597837001594737294e-01,0.000000000000000000e+00
7.710000000000000000e+02,-2.668027905830284152e-01,0.000000000000000000e+00
7.720000000000000000e+02,-4.800482548309125130e-01,0.000000000000000000e+00
7.730000000000000000e+02,-4.285458931174719877e-01,0.000000000000000000e+00
7.740000000000000000e+02,-1.157341153159182345e-01,0.000000000000000000e+00
7.750000000000000000e+02,-2.789740140354537989e-01,0.000000000000000000e+00
7.760000000000000000e+02,-1.180914585004862322e-01,0.000000000000000000e+00
7.770000000000000000e+02,-2.237089692323388779e-01,0.000000000000000000e+00
7.780000000000000000e+02,1.548259460421267109e-01,0.000000000000000000e+00
7.790000000000000000e+02,2.919985444895488724e-01,0.000000000000000000e+00
7.800000000000000000e+02,-6.269335555164802232e-01,0.000000000000000000e+00
7.810000000000000000e+02,6.541146252097451708e-01,0.000000000000000000e+00
7.820000000000000000e+02,3.817418615772153689e+00,0.000000000000000000e+00
7.830000000000000000e+02,2.176805082218336906e+00,1.000000000000000000e+00
7.840000000000000000e+02,-1.024372505133624767e+00,0.000000000000000000e+00
7.850000000000000000e+02,-8.703823565773293192e-01,0.000000000000000000e+00
7.860000000000000000e+02,-8.650590067577842435e-01,0.000000000000000000e+00
7.870000000000000000e+02,-1.986118595087261324e-02,0.000000000000000000e+00
7.880000000000000000e+02,-6.818546968085531512e-02,0.000000000000000000e+00
7.890000000000000000e+02,2.820095455837665251e-03,0.000000000000000000e+00
7.900000000000000000e+02,1.167946796885639162e-02,0.000000000000000000e+00
7.910000000000000000e+02,3.926658742749342818e-02,0.000000000000000000e+00
7.920000000000000000e+02,5.014908712224339093e-02,0.000000000000000000e+00
7.930000000000000000e+02,4.169495419387566626e-01,0.000000000000000000e+00
7.940000000000000000e+02,2.926269645040578959e-01,0.000000000000000000e+00
7.950000000000000000e+02,8.609425678953580574e-01,0.000000000000000000e+00
7.960000000000000000e+02,6.774456006641410566e-01,0.000000000000000000e+00
7.970000000000000000e+02,1.348179860612004122e+00,0.000000000000000000e+00
7.980000000000000000e+02,1.481893244042346458e+00,0.000000000000000000e+00
7.990000000000000000e+02,1.330544616917282541e+00,0.000000000000000000e+00
8.000000000000000000e+02,1.244758394330563567e+00,0.000000000000000000e+00
8.010000000000000000e+02,-1.064566208046063833e-02,0.000000000000000000e+00
8.020000000000000000e+02,-4.589143741182649498e-03,0.000000000000000000e+00
8.030000000000000000e+02,-6.905216655715313845e-01,0.000000000000000000e+00
8.040000000000000000e+02,-1.253033696771721717e+00,0.000000000000000000e+00
8.050000000000000000e+02,-9.042771618962519575e-01,0.000000000000000000e+00
8.060000000000000000e+02,-9.191025495693752045e-01,0.000000000000000000e+00
8.070000000000000000e+02,-5.049458876043801947e-01,0.000000000000000000e+00
8.080000000000000000e+02,-7.956330716160672223e-01,0.000000000000000000e+00
8.090000000000000000e+02,-7.097301957154205088e-01,0.000000000000000000e+00
8.100000000000000000e+02,-4.155669492244725705e-01,0.000000000000000000e+00
8.110000000000000000e+02,-7.342158592887443325e-02,0.000000000000000000e+00
8.120000000000000000e+02,-7.140815222568033249e-01,0.000000000000000000e+00
8.130000000000000000e+02,-2.635531061367973882e-01,0.000000000000000000e+00
8.140000000000000000e+02,4.499474750820139368e-01,0.000000000000000000e+00
8.150000000000000000e+02,-5.477496834479725907e-01,0.000000000000000000e+00
8.160000000000000000e+02,-2.891843194279677606e-02,0.000000000000000000e+00
8.170000000000000000e+02,2.287559459255028294e-01,0.000000000000000000e+00
8.180000000000000000e+02,-1.176859998570527477e-01,0.000000000000000000e+00
8.190000000000000000e+02,-1.768293744542195067e-01,0.000000000000000000e+00
8.200000000000000000e+02,1.338368576154061809e-02,0.000000000000000000e+00
8.210000000000000000e+02,2.439658914064047335e-01,0.000000000000000000e+00
8.220000000000000000e+02,-2.799062123720287842e-01,0.000000000000000000e+00
8.230000000000000000e+02,2.261011375294744719e-01,0.000000000000000000e+00
8.240000000000000000e+02,4.426773942811383367e-01,0.000000000000000000e+00
8.250000000000000000e+02,2.296341826645114381e-01,0.000000000000000000e+00
8.260000000000000000e+02,2.730409313443583064e-01,0.000000000000000000e+00
8.270000000000000000e+02,1.935913240467675711e-01,0.000000000000000000e+00
8.280000000000000000e+02,3.404813641140484459e-01,0.000000000000000000e+00
8.290000000000000000e+02,-2.691335751598470521e-02,0.000000000000000000e+00
8.300000000000000000e+02,2.272328316251671920e-01,0.000000000000000000e+00
8.310000000000000000e+02,6.356679085383523109e-01,0.000000000000000000e+00
8.320000000000000000e+02,1.075714335711363129e-01,0.000000000000000000e+00
8.330000000000000000e+02,3.793595534945991554e-01,0.000000000000000000e+00
8.340000000000000000e+02,2.529444483436856794e-01,0.000000000000000000e+00
8.350000000000000000e+02,1.099979269557763151e-01,0.000000000000000000e+00
8.360000000000000000e+02,3.186610317365863310e-01,0.000000000000000000e+00
8.370000000000000000e+02,3.544072691187836188e+00,0.000000000000000000e+00
8.380000000000000000e+02,3.094723811819927839e+00,0.000000000000000000e+00
8.390000000000000000e+02,-5.358130251903404639e-01,1.000000000000000000e+00
8.400000000000000000e+02,-9.659900611123204417e-01,0.000000000000000000e+00
8.410000000000000000e+02,-9.974438433643866286e-01,0.000000000000000000e+00
8.420000000000000000e+02,-1.001650733492657208e-01,0.000000000000000000e+00
8.430000000000000000e+02,-1.175332709564457234e-01,0.000000000000000000e+00
8.440000000000000000e+02,-3.776126826691361682e-01,0.000000000000000000e+00
8.450000000000000000e+02,1.531406479303124846e-01,0.000000000000000000e+00
8.460000000000000000e+02,3.935870882478793853e-02,0.000000000000000000e+00
8.470000000000000000e+02,-5.480357993625933205e-02,0.000000000000000000e+00
8.480000000000000000e+02,-1.430486453931112956e-01,0.000000000000000000e+00
8.490000000000000000e+02,2.655209165988659525e-01,0.000000000000000000e+00
8.500000000000000000e+02,4.181553914718309506e-01,0.000000000000000000e+00
8.510000000000000000e+02,1.465670851644045591e-01,0.000000000000000000e+00
8.520000000000000000e+02,6.358491235674590403e-01,0.000000000000000000e+00
8.530000000000000000e+02,1.076942187871317458e+00,0.000000000000000000e+00
8.540000000000000000e+02,9.938808890679325936e-01,0.000000000000000000e+00
8.550000000000000000e+02,9.895265231750914880e-01,0.000000000000000000e+00
8.560000000000000000e+02,4.513036850289963708e-01,0.000000000000000000e+00
8.570000000000000000e+02,-2.249875490285121460e-01,0.000000000000000000e+00
8.580000000000000000e+02,-8.548507634925097687e-01,0.000000000000000000e+00
8.590000000000000000e+02,-8.289898630863431483e-01,0.000000000000000000e+00
8.600000000000000000e+02,-1.349789938469696748e+00,0.000000000000000000e+00
8.610000000000000000e+02,-9.832810098163021761e-01,0.000000000000000000e+00
8.620000000000000000e+02,-1.366799814286058012e+00,0.000000000000000000e+00
8.630000000000000000e+02,-4.326035322162509189e-01,0.000000000000000000e+00
8.640000000000000000e+02,-1.158522454334064200e+00,0.000000000000000000e+00
8.650000000000000000e+02,-6.558557124013786321e-01,0.000000000000000000e+00
8.660000000000000000e+02,-7.676984830257185255e-01,0.000000000000000000e+00
8.670000000000000000e+02,-5.542799783669056790e-01,0.000000000000000000e+00
8.680000000000000000e+02,-6.806418353883535444e-01,0.000000000000000000e+00
8.690000000000000000e+02,-4.220487302199331103e-01,0.000000000000000000e+00
8.700000000000000000e+02,-4.683375281483881380e-01,0.000000000000000000e+00
8.710000000000000000e+02,-8.715469641170680015e-01,0.000000000000000000e+00
8.720000000000000000e+02,1.276675293756526663e+00,0.000000000000000000e+00
8.730000000000000000e+02,4.000482611363231911e+00,0.000000000000000000e+00
8.740000000000000000e+02,3.986396255153185769e-02,1.000000000000000000e+00
8.750000000000000000e+02,-1.730043146616059069e+00,0.000000000000000000e+00
8.760000000000000000e+02,-1.383292369341872163e+00,0.000000000000000000e+00
8.770000000000000000e+02,-7.761977870375715849e-01,0.000000000000000000e+00
8.780000000000000000e+02,-7.236951440367754840e-01,0.000000000000000000e+00
8.790000000000000000e+02,-3.511591361616609452e-01,0.000000000000000000e+00
8.800000000000000000e+02,-3.294440969623553261e-01,0.000000000000000000e+00
8.810000000000000000e+02,-5.216970020745614195e-02,0.000000000000000000e+00
8.820000000000000000e+02,1.726388704848232925e-01,0.000000000000000000e+00
8.830000000000000000e+02,-1.605391472791700413e-01,0.000000000000000000e+00
8.840000000000000000e+02,1.028478544708502501e-01,0.000000000000000000e+00
8.850000000000000000e+02,1.718466435689277871e-01,0.000000000000000000e+00
8.860000000000000000e+02,9.411188341396965473e-01,0.000000000000000000e+00
8.870000000000000000e+02,6.445460403150311546e-01,0.000000000000000000e+00
8.880000000000000000e+02,1.180422096191473535e+00,0.000000000000000000e+00
8.890000000000000000e+02,1.471765085533490947e+00,0.000000000000000000e+00
8.900000000000000000e+02,1.191474559500033337e+00,0.000000000000000000e+00
8.910000000000000000e+02,8.172355918196746449e-01,0.000000000000000000e+00
8.920000000000000000e+02,-3.220224107166697602e-01,0.000000000000000000e+00
8.930000000000000000e+02,-9.593775444470493685e-01,0.000000000000000000e+00
8.940000000000000000e+02,-9.746779208180692544e-01,0.000000000000000000e+00
8.950000000000000000e+02,-1.024686278489019831e+00,0.000000000000000000e+00
8.960000000000000000e+02,-1.096191746273427636e+00,0.000000000000000000e+00
8.970000000000000000e+02,-8.754284211494396395e-01,0.000000000000000000e+00
8.980000000000000000e+02,-9.535964890918415815e-01,0.000000000000000000e+00
8.990000000000000000e+02,-5.213163241335392328e-01,0.000000000000000000e+00
9.000000000000000000e+02,-2.306316884394070954e-01,0.000000000000000000e+00
9.010000000000000000e+02,-4.875263133387712777e-01,0.000000000000000000e+00
9.020000000000000000e+02,-1.210006426731899259e-01,0.000000000000000000e+00
9.030000000000000000e+02,-1.264308689600340541e-01,0.000000000000000000e+00
9.040000000000000000e+02,-1.579568426802153147e-01,0.000000000000000000e+00
9.050000000000000000e+02,-1.769609725975952452e-01,0.000000000000000000e+00
9.060000000000000000e+02,-4.733240913012216932e-04,0.000000000000000000e+00
9.070000000000000000e+02,-8.075533985320984542e-02,0.000000000000000000e+00
9.080000000000000000e+02,-3.980286906669172620e-01,0.000000000000000000e+00
9.090000000000000000e+02,2.080889883633150680e-02,0.000000000000000000e+00
9.100000000000000000e+02,-2.263740487088407652e-02,0.000000000000000000e+00
9.110000000000000000e+02,1.912725501436380038e-01,0.000000000000000000e+00
9.120000000000000000e+02,1.356006807969085681e-01,0.000000000000000000e+00
9.130000000000000000e+02,-4.688712878889888212e-03,0.000000000000000000e+00
9.140000000000000000e+02,1.760079462404081863e+00,0.000000000000000000e+00
9.150000000000000000e+02,5.078841027357279714e+00,0.000000000000000000e+00
9.160000000000000000e+02,6.087237138045424878e-01,1.000000000000000000e+00
9.170000000000000000e+02,-1.313211913868500114e+00,0.000000000000000000e+00
9.180000000000000000e+02,-7.963376460080791031e-01,0.000000000000000000e+00
9.190000000000000000e+02,-4.982077766984432943e-01,0.000000000000000000e+00
9.200000000000000000e+02,2.088098783367626499e-01,0.000000000000000000e+00
9.210000000000000000e+02,-1.711485533132418163e-02,0.000000000000000000e+00
9.220000000000000000e+02,5.838664201771692763e-01,0.000000000000000000e+00
9.230000000000000000e+02,1.497032768835581340e+00,0.000000000000000000e+00
9.240000000000000000e+02,1.651539352790671211e+00,0.000000000000000000e+00
9.250000000000000000e+02,2.169946201470518865e+00,0.000000000000000000e+00
9.260000000000000000e+02,2.200743210514475745e+00,0.000000000000000000e+00
9.270000000000000000e+02,2.007763680052351063e+00,0.000000000000000000e+00
9.280000000000000000e+02,2.285238310469526635e+00,0.000000000000000000e+00
9.290000000000000000e+02,2.265773228055940614e+00,0.000000000000000000e+00
9.300000000000000000e+02,2.074293250262197574e+00,0.000000000000000000e+00
9.310000000000000000e+02,2.335391734992831481e+00,0.000000000000000000e+00
9.320000000000000000e+02,1.604078058307472965e+00,0.000000000000000000e+00
9.330000000000000000e+02,9.121857663510397618e-01,0.000000000000000000e+00
9.340000000000000000e+02,-3.108937891711383017e-02,0.000000000000000000e+00
9.350000000000000000e+02,-7.907278172796806670e-01,0.000000000000000000e+00
9.360000000000000000e+02,-1.757976623962563378e+00,0.000000000000000000e+00
9.370000000000000000e+02,-1.241667521329182566e+00,0.000000000000000000e+00
9.380000000000000000e+02,-1.568410619711175569e+00,0.000000000000000000e+00
9.390000000000000000e+02,-2.129585412177220416e+00,0.000000000000000000e+00
9.400000000000000000e+02,-1.493631191601236141e+00,0.000000000000000000e+00
9.410000000000000000e+02,-2.139067643817817110e+00,0.000000000000000000e+00
9.420000000000000000e+02,-1.776481754603741026e+00,0.000000000000000000e+00
9.430000000000000000e+02,-1.863149469192221019e+00,0.000000000000000000e+00
9.440000000000000000e+02,-1.885422697527032065e+00,0.000000000000000000e+00
9.450000000000000000e+02,-1.774987997870219880e+00,0.000000000000000000e+00
9.460000000000000000e+02,-1.782546399258275294e+00,0.000000000000000000e+00
9.470000000000000000e+02,-1.735018241074782752e+00,0.000000000000000000e+00
9.480000000000000000e+02,-1.504333214386016859e+00,0.000000000000000000e+00
9.490000000000000000e+02,-1.534421728360654935e+00,0.000000000000000000e+00
9.500000000000000000e+02,-1.639146394770359061e+00,0.000000000000000000e+00
9.510000000000000000e+02,-1.749533453687314832e+00,0.000000000000000000e+00
9.520000000000000000e+02,-1.462027887275991755e+00,0.000000000000000000e+00
9.530000000000000000e+02,-1.303336890512064583e+00,0.000000000000000000e+00
9.540000000000000000e+02,-1.475568830111008367e+00,0.000000000000000000e+00
9.550000000000000000e+02,-1.107914579431728441e+00,0.000000000000000000e+00
9.560000000000000000e+02,-1.194312062788693840e+00,0.000000000000000000e+00
9.570000000000000000e+02,-8.934969717690700586e-01,0.000000000000000000e+00
9.580000000000000000e+02,-1.155109833140370634e+00,0.000000000000000000e+00
9.590000000000000000e+02,-6.404205967021545653e-01,0.000000000000000000e+00
9.600000000000000000e+02,-1.094336663510965701e+00,0.000000000000000000e+00
9.610000000000000000e+02,-4.418576780499396395e-01,0.000000000000000000e+00
9.620000000000000000e+02,-7.684131765002509828e-01,0.000000000000000000e+00
9.630000000000000000e+02,-6.382930835475143783e-02,0.000000000000000000e+00
9.640000000000000000e+02,-3.362766444499018514e-01,0.000000000000000000e+00
9.650000000000000000e+02,-3.650581666783783152e-01,0.000000000000000000e+00
9.660000000000000000e+02,-1.943297716213910620e-01,0.000000000000000000e+00
9.670000000000000000e+02,-4.051018752674648837e-01,0.000000000000000000e+00
9.680000000000000000e+02,4.317165105509149226e-01,0.000000000000000000e+00
9.690000000000000000e+02,-8.761728537917667925e-02,0.000000000000000000e+00
9.700000000000000000e+02,1.106124498449050364e-01,0.000000000000000000e+00
9.710000000000000000e+02,1.686271139800464280e-01,0.000000000000000000e+00
9.720000000000000000e+02,1.856522684567587511e-01,0.000000000000000000e+00
9.730000000000000000e+02,4.795213812755667604e-01,0.000000000000000000e+00
9.740000000000000000e+02,1.637736315214995131e-01,0.000000000000000000e+00
9.750000000000000000e+02,7.416298664740302859e-01,0.000000000000000000e+00
9.760000000000000000e+02,4.862066206487645204e+00,0.000000000000000000e+00
9.770000000000000000e+02,2.810720292499056860e+00,1.000000000000000000e+00
9.780000000000000000e+02,-1.063483143080446558e+00,0.000000000000000000e+00
9.790000000000000000e+02,-5.847172872025943047e-01,0.000000000000000000e+00
9.800000000000000000e+02,-3.648404458567747755e-01,0.000000000000000000e+00
9.810000000000000000e+02,6.724365646007300912e-01,0.000000000000000000e+00
9.820000000000000000e+02,2.295903029204197643e-01,0.000000000000000000e+00
9.830000000000000000e+02,2.481241595045233506e-01,0.000000000000000000e+00
9.840000000000000000e+02,1.345371187316835027e-01,0.000000000000000000e+00
9.850000000000000000e+02,4.220417615461043992e-01,0.000000000000000000e+00
9.860000000000000000e+02,2.906061281772366889e-01,0.000000000000000000e+00
9.870000000000000000e+02,8.233637046171746743e-01,0.000000000000000000e+00
9.880000000000000000e+02,5.601093620335056977e-01,0.000000000000000000e+00
9.890000000000000000e+02,1.257699682092712656e+00,0.000000000000000000e+00
9.900000000000000000e+02,7.508893706917794120e-01,0.000000000000000000e+00
9.910000000000000000e+02,1.979975688209132612e+00,0.000000000000000000e+00
9.920000000000000000e+02,1.666966986828355646e+00,0.000000000000000000e+00
9.930000000000000000e+02,1.967013860641833700e+00,0.000000000000000000e+00
9.940000000000000000e+02,1.255933588527516465e+00,0.000000000000000000e+00
9.950000000000000000e+02,1.058134185422967111e+00,0.000000000000000000e+00
9.960000000000000000e+02,8.496708321611434744e-01,0.000000000000000000e+00
9.970000000000000000e+02,-1.455444203990360341e-01,0.000000000000000000e+00
9.980000000000000000e+02,-2.541268824382584279e-01,0.000000000000000000e+00
9.990000000000000000e+02,-4.524336238481167505e-01,0.000000000000000000e+00
1.000000000000000000e+03,-3.782663282842690378e-01,0.000000000000000000e+00
1.001000000000000000e+03,-5.802833320191612687e-01,0.000000000000000000e+00
1.002000000000000000e+03,5.955729761522965404e-02,0.000000000000000000e+00
1.003000000000000000e+03,-5.834900614784910289e-01,0.000000000000000000e+00
1.004000000000000000e+03,-5.219513419773946783e-02,0.000000000000000000e+00
1.005000000000000000e+03,-4.426484564028296265e-02,0.000000000000000000e+00
1.006000000000000000e+03,6.673531277600641687e-01,0.000000000000000000e+00
1.007000000000000000e+03,4.818419606795574378e-02,0.000000000000000000e+00
1.008000000000000000e+03,5.654760313402516780e-02,0.000000000000000000e+00
1.009000000000000000e+03,3.432952442014376992e-01,0.000000000000000000e+00
1.010000000000000000e+03,2.280366176184966676e-01,0.000000000000000000e+00
1.011000000000000000e+03,2.584056557564899936e-01,0.000000000000000000e+00
1.012000000000000000e+03,2.116776384620257245e-01,0.000000000000000000e+00
1.013000000000000000e+03,-4.108640147543976377e-03,0.000000000000000000e+00
1.014000000000000000e+03,4.811776669833481290e-01,0.000000000000000000e+00
1.015000000000000000e+03,2.289537155067155605e-01,0.000000000000000000e+00
1.016000000000000000e+03,-4.279020543099325974e-02,0.000000000000000000e+00
1.017000000000000000e+03,6.044116616413479637e-01,0.000000000000000000e+00
1.018000000000000000e+03,3.697441207786151263e-01,0.000000000000000000e+00
1.019000000000000000e+03,3.088729517691568560e-01,0.000000000000000000e+00
1.020000000000000000e+03,2.004405134232547236e-01,0.000000000000000000e+00
1.021000000000000000e+03,4.324107799836011123e-01,0.000000000000000000e+00
1.022000000000000000e+03,3.769352330961093789e-01,0.000000000000000000e+00
1.023000000000000000e+03,8.574247889924078991e-02,0.000000000000000000e+00
1.024000000000000000e+03,4.027444111986121511e-01,0.000000000000000000e+00
1.025000000000000000e+03,1.970433478477250089e-01,0.000000000000000000e+00
1.026000000000000000e+03,2.174599017545231772e-01,0.000000000000000000e+00
1.027000000000000000e+03,4.815052354511213384e-01,0.000000000000000000e+00
1.028000000000000000e+03,-4.098854050055399934e-01,0.000000000000000000e+00
1.029000000000000000e+03,2.066651340164197048e+00,0.000000000000000000e+00
1.030000000000000000e+03,4.888039907512553128e+00,0.000000000000000000e+00
1.031000000000000000e+03,6.201972750303971216e-01,1.000000000000000000e+00
1.032000000000000000e+03,-1.755885137986920030e+00,0.000000000000000000e+00
1.033000000000000000e+03,-9.537643012193786074e-01,0.000000000000000000e+00
1.034000000000000000e+03,-9.380109797457184539e-01,0.000000000000000000e+00
1.035000000000000000e+03,-3.524536791542162706e-01,0.000000000000000000e+00
1.036000000000000000e+03,-8.915485895126702698e-02,0.000000000000000000e+00
1.037000000000000000e+03,-3.193346493379740636e-01,0.000000000000000000e+00
1.038000000000000000e+03,-2.733079224677298913e-01,0.000000000000000000e+00
1.039000000000000000e+03,-4.225578665185626970e-01,0.000000000000000000e+00
1.040000000000000000e+03,1.379388649135993850e-01,0.000000000000000000e+00
1.041000000000000000e+03,-1.276237951617831268e-01,0.000000000000000000e+00
1.042000000000000000e+03,1.550644417506282235e-01,0.000000000000000000e+00
1.043000000000000000e+03,3.008720311460584274e-01,0.000000000000000000e+00
1.044000000000000000e+03,6.083106144693793960e-01,0.000000000000000000e+00
1.045000000000000000e+03,5.374430440238159301e-01,0.000000000000000000e+00
1.046000000000000000e+03,9.184599443178970146e-01,0.000000000000000000e+00
1.047000000000000000e+03,9.068793258670179158e-01,0.000000000000000000e+00
1.048000000000000000e+03,6.535103850274635029e-01,0.000000000000000000e+00
1.049000000000000000e+03,-3.083880249048629452e-01,0.000000000000000000e+00
1.050000000000000000e+03,-9.672910705055407510e-01,0.000000000000000000e+00
1.051000000000000000e+03,-9.948185232521576937e-01,0.000000000000000000e+00
1.052000000000000000e+03,-1.423681434007149971e+00,0.000000000000000000e+00
1.053000000000000000e+03,-1.674356957516148547e+00,0.000000000000000000e+00
1.054000000000000000e+03,-1.329431940194805373e+00,0.000000000000000000e+00
1.055000000000000000e+03,-1.213247858750466701e+00,0.000000000000000000e+00
1.056000000000000000e+03,-7.545190126038742173e-01,0.000000000000000000e+00
1.057000000000000000e+03,-1.240463623282622718e+00,0.000000000000000000e+00
1.058000000000000000e+03,-5.853822419353302831e-01,0.000000000000000000e+00
1.059000000000000000e+03,-9.595063071548859401e-01,0.000000000000000000e+00
1.060000000000000000e+03,-4.652699358172459609e-01,0.000000000000000000e+00
1.061000000000000000e+03,-5.682732728087006580e-01,0.000000000000000000e+00
1.062000000000000000e+03,-6.509663058574578498e-01,0.000000000000000000e+00
1.063000000000000000e+03,-5.788181907828326977e-01,0.000000000000000000e+00
1.064000000000000000e+03,-2.570094841514126704e-01,0.000000000000000000e+00
1.065000000000000000e+03,-5.243209653801005343e-01,0.000000000000000000e+00
1.066000000000000000e+03,-1.386975618855152692e-01,0.000000000000000000e+00
1.067000000000000000e+03,-3.082759921366619582e-01,0.000000000000000000e+00
1.068000000000000000e+03,-4.197117980896214462e-01,0.000000000000000000e+00
1.069000000000000000e+03,-2.336845540422931022e-01,0.000000000000000000e+00
1.070000000000000000e+03,-3.523562132760768018e-01,0.000000000000000000e+00
1.071000000000000000e+03,-2.299890991915538030e-01,0.000000000000000000e+00
1.072000000000000000e+03,-5.602735529394768932e-01,0.000000000000000000e+00
1.073000000000000000e+03,1.920428497653364319e+00,0.000000000000000000e+00
1.074000000000000000e+03,4.042226314455500180e+00,0.000000000000000000e+00
1.075000000000000000e+03,-2.253603880218998656e-01,1.000000000000000000e+00
1.076000000000000000e+03,-1.570844600442517613e+00,0.000000000000000000e+00
1.077000000000000000e+03,-1.094589269862538572e+00,0.000000000000000000e+00
1.078000000000000000e+03,-9.375984168337521130e-01,0.000000000000000000e+00
1.079000000000000000e+03,-3.892936044214129199e-01,0.000000000000000000e+00
1.080000000000000000e+03,-1.571739145144633309e-01,0.000000000000000000e+00
1.081000000000000000e+03,-3.996986541841626717e-01,0.000000000000000000e+00
1.082000000000000000e+03,-5.776311090235213275e-01,0.000000000000000000e+00
1.083000000000000000e+03,3.934295675490735028e-02,0.000000000000000000e+00
1.084000000000000000e+03,-9.152712229281438627e-02,0.000000000000000000e+00
1.085000000000000000e+03,1.454554893786585978e-01,0.000000000000000000e+00
1.086000000000000000e+03,3.199012727913506937e-02,0.000000000000000000e+00
1.087000000000000000e+03,6.956543789096968355e-01,0.000000000000000000e+00
1.088000000000000000e+03,3.568250269753257542e-01,0.000000000000000000e+00
1.089000000000000000e+03,1.003389886692332311e+00,0.000000000000000000e+00
1.090000000000000000e+03,6.398649073800593001e-01,0.000000000000000000e+00
1.091000000000000000e+03,1.185503950621132230e+00,0.000000000000000000e+00
1.092000000000000000e+03,3.005751451786853878e-01,0.000000000000000000e+00
1.093000000000000000e+03,-2.487656805822048844e-01,0.000000000000000000e+00
1.094000000000000000e+03,-6.438963469331900891e-01,0.000000000000000000e+00
1.095000000000000000e+03,-1.249808106515304607e+00,0.000000000000000000e+00
1.096000000000000000e+03,-1.197374252381286919e+00,0.000000000000000000e+00
1.097000000000000000e+03,-7.299888091882481556e-01,0.000000000000000000e+00
1.098000000000000000e+03,-1.106139702256357493e+00,0.000000000000000000e+00
1.099000000000000000e+03,-6.755852053227558995e-01,0.000000000000000000e+00
1.100000000000000000e+03,-8.227224084198798693e-01,0.000000000000000000e+00
1.101000000000000000e+03,-3.543171610455207454e-01,0.000000000000000000e+00
1.102000000000000000e+03,-4.200243468139521763e-01,0.000000000000000000e+00
1.103000000000000000e+03,-2.146110299527379528e-01,0.000000000000000000e+00
1.104000000000000000e+03,-3.003459228823133764e-01,0.000000000000000000e+00
1.105000000000000000e+03,-3.442451296772135461e-01,0.000000000000000000e+00
1.106000000000000000e+03,8.119124489389248356e-02,0.000000000000000000e+00
1.107000000000000000e+03,2.721304252460336401e-02,0.000000000000000000e+00
1.108000000000000000e+03,-3.057804546750790275e-01,0.000000000000000000e+00
1.109000000000000000e+03,4.493417605887442545e-01,0.000000000000000000e+00
1.110000000000000000e+03,-2.041400202074118431e-01,0.000000000000000000e+00
1.111000000000000000e+03,4.769902044629079629e-01,0.000000000000000000e+00
1.112000000000000000e+03,4.050757413312751964e+00,0.000000000000000000e+00
1.113000000000000000e+03,2.300002152989520265e+00,1.000000000000000000e+00
1.114000000000000000e+03,-1.398695838867922925e+00,0.000000000000000000e+00
1.115000000000000000e+03,-1.054738329466543778e+00,0.000000000000000000e+00
1.116000000000000000e+03,-7.910633461581034753e-01,0.000000000000000000e+00
1.117000000000000000e+03,1.013787758387458047e-04,0.000000000000000000e+00
1.118000000000000000e+03,-1.573322510645517869e-01,0.000000000000000000e+00
1.119000000000000000e+03,-1.696177346512673864e-02,0.000000000000000000e+00
1.120000000000000000e+03,5.378271735656166008e-01,0.000000000000000000e+00
1.121000000000000000e+03,-1.441928682461897926e-01,0.000000000000000000e+00
1.122000000000000000e+03,5.943837185420925984e-01,0.000000000000000000e+00
1.123000000000000000e+03,4.515231479017471905e-01,0.000000000000000000e+00
1.124000000000000000e+03,5.189594196746872834e-01,0.000000000000000000e+00
1.125000000000000000e+03,6.623981328547298153e-01,0.000000000000000000e+00
1.126000000000000000e+03,8.772933077264239987e-01,0.000000000000000000e+00
1.127000000000000000e+03,1.404848809658802544e+00,0.000000000000000000e+00
1.128000000000000000e+03,1.252614379795966570e+00,0.000000000000000000e+00
1.129000000000000000e+03,1.750759224398060088e+00,0.000000000000000000e+00
1.130000000000000000e+03,1.141472994698550014e+00,0.000000000000000000e+00
1.131000000000000000e+03,1.647991164380908091e-01,0.000000000000000000e+00
1.132000000000000000e+03,5.615970097880601530e-02,0.000000000000000000e+00
1.133000000000000000e+03,-7.207937638944085235e-01,0.000000000000000000e+00
1.134000000000000000e+03,-6.668875816123968070e-01,0.000000000000000000e+00
1.135000000000000000e+03,-7.902078140683855834e-01,0.000000000000000000e+00
1.136000000000000000e+03,-2.852685774158071341e-01,0.000000000000000000e+00
1.137000000000000000e+03,-8.122561504767922269e-01,0.000000000000000000e+00
1.138000000000000000e+03,-1.758414373525022667e-01,0.000000000000000000e+00
1.139000000000000000e+03,-3.830982162316197703e-01,0.000000000000000000e+00
1.140000000000000000e+03,-7.459336732574406957e-03,0.000000000000000000e+00
1.141000000000000000e+03,-3.890676677537115435e-01,0.000000000000000000e+00
1.142000000000000000e+03,1.041824368033214820e-01,0.000000000000000000e+00
1.143000000000000000e+03,-1.741808000352298158e-01,0.000000000000000000e+00
1.144000000000000000e+03,2.814236757821262369e-01,0.000000000000000000e+00
1.145000000000000000e+03,9.994341531646412646e-02,0.000000000000000000e+00
1.146000000000000000e+03,-6.373105311794291516e-02,0.000000000000000000e+00
1.147000000000000000e+03,-1.986284950247766204e-02,0.000000000000000000e+00
1.148000000000000000e+03,9.345489809874631126e-02,0.000000000000000000e+00
1.149000000000000000e+03,2.451159050956633056e-01,0.000000000000000000e+00
1.150000000000000000e+03,-7.801867686882210662e-02,0.000000000000000000e+00
1.151000000000000000e+03,4.223594502220205937e-01,0.000000000000000000e+00
1.152000000000000000e+03,-2.269614818988088811e-01,0.000000000000000000e+00
1.153000000000000000e+03,1.877065233954842705e-01,0.000000000000000000e+00
1.154000000000000000e+03,2.497848968169615047e-01,0.000000000000000000e+00
1.155000000000000000e+03,2.092434267989722319e-01,0.000000000000000000e+00
1.156000000000000000e+03,3.495022221981524124e-01,0.000000000000000000e+00
1.157000000000000000e+03,2.124679097418410989e-01,0.000000000000000000e+00
1.158000000000000000e+03,2.788331800130066165e-02,0.000000000000000000e+00
1.159000000000000000e+03,1.091993781073258146e-01,0.000000000000000000e+00
1.160000000000000000e+03,-1.105682313349386908e-01,0.000000000000000000e+00
1.161000000000000000e+03,3.194395396034029333e-01,0.000000000000000000e+00
1.162000000000000000e+03,3.985549081463482857e+00,0.000000000000000000e+00
1.163000000000000000e+03,2.567250277089397681e+00,1.000000000000000000e+00
1.164000000000000000e+03,-1.028909180072140384e+00,0.000000000000000000e+00
1.165000000000000000e+03,-1.256426101001054230e+00,0.000000000000000000e+00
1.166000000000000000e+03,-1.468561870738162023e+00,0.000000000000000000e+00
1.167000000000000000e+03,-2.815000614369355669e-01,0.000000000000000000e+00
1.168000000000000000e+03,-6.786234855751898110e-01,0.000000000000000000e+00
1.169000000000000000e+03,-2.371214245694283629e-01,0.000000000000000000e+00
1.170000000000000000e+03,-6.868714465577504535e-01,0.000000000000000000e+00
1.171000000000000000e+03,-2.493653450112061631e-01,0.000000000000000000e+00
1.172000000000000000e+03,-2.298418094706806136e-01,0.000000000000000000e+00
1.173000000000000000e+03,2.716153267719642606e-02,0.000000000000000000e+00
1.174000000000000000e+03,-3.903894949468826314e-01,0.000000000000000000e+00
1.175000000000000000e+03,4.404538327071111370e-01,0.000000000000000000e+00
1.176000000000000000e+03,-1.283819332579106409e-01,0.000000000000000000e+00
1.177000000000000000e+03,5.203675091894128801e-01,0.000000000000000000e+00
1.178000000000000000e+03,6.909352135557298435e-01,0.000000000000000000e+00
1.179000000000000000e+03,8.152794698016483377e-01,0.000000000000000000e+00
1.180000000000000000e+03,7.725954951158536810e-01,0.000000000000000000e+00
1.181000000000000000e+03,-1.428091862372248555e-01,0.000000000000000000e+00
1.182000000000000000e+03,-2.415828384888455971e-01,0.000000000000000000e+00
1.183000000000000000e+03,-1.328499248312025038e+00,0.000000000000000000e+00
1.184000000000000000e+03,-1.057977567407329289e+00,0.000000000000000000e+00
1.185000000000000000e+03,-1.504780806416003980e+00,0.000000000000000000e+00
1.186000000000000000e+03,-1.284821949826418619e+00,0.000000000000000000e+00
1.187000000000000000e+03,-9.141921563163803999e-01,0.000000000000000000e+00
1.188000000000000000e+03,-1.089569661690192648e+00,0.000000000000000000e+00
1.189000000000000000e+03,-8.651071264699820018e-01,0.000000000000000000e+00
1.190000000000000000e+03,-1.188646212129705004e+00,0.000000000000000000e+00
1.191000000000000000e+03,-4.292080533797952291e-01,0.000000000000000000e+00
1.192000000000000000e+03,-7.427739757003725130e-01,0.000000000000000000e+00
1.193000000000000000e+03,-3.788355809894055071e-01,0.000000000000000000e+00
1.194000000000000000e+03,-3.366277035506972659e-01,0.000000000000000000e+00
1.195000000000000000e+03,-7.489155080659221086e-01,0.000000000000000000e+00
1.196000000000000000e+03,8.419005889685350630e-02,0.000000000000000000e+00
1.197000000000000000e+03,-4.375664913603422579e-01,0.000000000000000000e+00
1.198000000000000000e+03,-4.355592874861202168e-01,0.000000000000000000e+00
1.199000000000000000e+03,-6.023416519709604566e-01,0.000000000000000000e+00
1.200000000000000000e+03,2.149277274392180637e-02,0.000000000000000000e+00
1.201000000000000000e+03,-2.933199772932083005e-01,0.000000000000000000e+00
1.202000000000000000e+03,-3.262587703835376218e-01,0.000000000000000000e+00
1.203000000000000000e+03,-1.233021255627585328e-01,0.000000000000000000e+00
1.204000000000000000e+03,3.134080452414871876e-01,0.000000000000000000e+00
1.205000000000000000e+03,5.138168131240881259e-02,0.000000000000000000e+00
1.206000000000000000e+03,6.265898603949350554e-02,0.000000000000000000e+00
1.207000000000000000e+03,1.129199593283690961e-01,0.000000000000000000e+00
1.208000000000000000e+03,-4.420659806132514608e-02,0.000000000000000000e+00
1.209000000000000000e+03,-3.848688945615846846e-01,0.000000000000000000e+00
1.210000000000000000e+03,3.985683005288355840e+00,0.000000000000000000e+00
1.211000000000000000e+03,3.603089737158469585e+00,0.000000000000000000e+00
1.212000000000000000e+03,-8.632412766081545286e-01,1.000000000000000000e+00
1.213000000000000000e+03,-1.230225353852419268e+00,0.000000000000000000e+00
1.214000000000000000e+03,-6.673647425567094116e-01,0.000000000000000000e+00
1.215000000000000000e+03,-2.151899015011403959e-01,0.000000000000000000e+00
1.216000000000000000e+03,-3.105650801359295388e-01,0.000000000000000000e+00
1.217000000000000000e+03,2.279306479402161412e-01,0.000000000000000000e+00
1.218000000000000000e+03,-1.851680657811570763e-01,0.000000000000000000e+00
1.219000000000000000e+03,3.791574586490850107e-01,0.000000000000000000e+00
1.220000000000000000e+03,-5.470156224269767664e-02,0.000000000000000000e+00
1.221000000000000000e+03,4.405217220350257090e-01,0.000000000000000000e+00
1.222000000000000000e+03,6.241485992526749627e-01,0.000000000000000000e+00
1.223000000000000000e+03,3.888136312950628004e-01,0.000000000000000000e+00
1.224000000000000000e+03,1.235517349237170270e+00,0.000000000000000000e+00
1.225000000000000000e+03,1.087473785899351952e+00,0.000000000000000000e+00
1.226000000000000000e+03,1.681859555389018324e+00,0.000000000000000000e+00
1.227000000000000000e+03,2.019767764170273594e+00,0.000000000000000000e+00
1.228000000000000000e+03,1.087445012291891056e+00,0.000000000000000000e+00
1.229000000000000000e+03,1.067763054763283037e+00,0.000000000000000000e+00
1.230000000000000000e+03,-2.685065968794999036e-01,0.000000000000000000e+00
1.231000000000000000e+03,-1.367252660705903788e-01,0.000000000000000000e+00
1.232000000000000000e+03,-4.687921543703388316e-01,0.000000000000000000e+00
1.233000000000000000e+03,-8.716230894173480070e-01,0.000000000000000000e+00
1.234000000000000000e+03,-6.053625611659783079e-01,0.000000000000000000e+00
1.235000000000000000e+03,-8.207428449482053745e-01,0.000000000000000000e+00
1.236000000000000000e+03,-8.332020287692561977e-01,0.000000000000000000e+00
1.237000000000000000e+03,-4.838057060432099377e-01,0.000000000000000000e+00
1.238000000000000000e+03,-1.061635138191620475e+00,0.000000000000000000e+00
1.239000000000000000e+03,-1.964705796215324707e-01,0.000000000000000000e+00
1.240000000000000000e+03,-4.092495731969164607e-01,0.000000000000000000e+00
1.241000000000000000e+03,-5.642572841758282109e-01,0.000000000000000000e+00
1.242000000000000000e+03,-2.747853797688098454e-01,0.000000000000000000e+00
1.243000000000000000e+03,-3.494153064176208079e-01,0.000000000000000000e+00
1.244000000000000000e+03,-2.710713279283396004e-01,0.000000000000000000e+00
1.245000000000000000e+03,-2.274862071475330649e-01,0.000000000000000000e+00
1.246000000000000000e+03,-4.001500368775642302e-01,0.000000000000000000e+00
1.247000000000000000e+03,-2.908220352445337054e-01,0.000000000000000000e+00
1.248000000000000000e+03,-4.645552460346995538e-01,0.000000000000000000e+00
1.249000000000000000e+03,-3.401227616111778818e-01,0.000000000000000000e+00
1.250000000000000000e+03,-2.227264248886028086e-01,0.000000000000000000e+00
1.251000000000000000e+03,-1.699392142084993340e-01,0.000000000000000000e+00
1.252000000000000000e+03,3.246973094744539517e-02,0.000000000000000000e+00
1.253000000000000000e+03,4.014441198193633917e-03,0.000000000000000000e+00
1.254000000000000000e+03,-2.170679398313614117e-01,0.000000000000000000e+00
1.255000000000000000e+03,6.672607899047240387e-01,0.000000000000000000e+00
1.256000000000000000e+03,-4.374409911090306191e-01,0.000000000000000000e+00
1.257000000000000000e+03,-1.983596535231455515e-01,0.000000000000000000e+00
1.258000000000000000e+03,3.859990097916170537e-01,0.000000000000000000e+00
1.259000000000000000e+03,-2.065012867317669587e-01,0.000000000000000000e+00
1.260000000000000000e+03,2.165805524703535434e-01,0.000000000000000000e+00
1.261000000000000000e+03,1.787687799373833542e-01,0.000000000000000000e+00
1.262000000000000000e+03,-7.575776818187504591e-02,0.000000000000000000e+00
1.263000000000000000e+03,-2.290925756424882359e-02,0.000000000000000000e+00
1.264000000000000000e+03,-2.981678419678532865e-01,0.000000000000000000e+00
1.265000000000000000e+03,3.439218236146044383e-01,0.000000000000000000e+00
1.266000000000000000e+03,-1.280661370921408748e-01,0.000000000000000000e+00
1.267000000000000000e+03,-1.021240439277305498e-02,0.000000000000000000e+00
1.268000000000000000e+03,1.996518681408516321e-02,0.000000000000000000e+00
1.269000000000000000e+03,-1.249752469329151183e-01,0.000000000000000000e+00
1.270000000000000000e+03,3.698652676043300058e+00,0.000000000000000000e+00
1.271000000000000000e+03,3.744778905889079024e+00,0.000000000000000000e+00
1.272000000000000000e+03,-1.113140039131754078e+00,1.000000000000000000e+00
1.273000000000000000e+03,-1.397478316806279652e+00,0.000000000000000000e+00
1.274000000000000000e+03,-1.206331255942361125e+00,0.000000000000000000e+00
1.275000000000000000e+03,-2.936061028181750632e-01,0.000000000000000000e+00
1.276000000000000000e+03,-9.437220535061509041e-01,0.000000000000000000e+00
1.277000000000000000e+03,-2.038006985291997419e-01,0.000000000000000000e+00
1.278000000000000000e+03,-3.575959473436060021e-01,0.000000000000000000e+00
1.279000000000000000e+03,-6.027441490624059484e-02,0.000000000000000000e+00
1.280000000000000000e+03,-1.816538560080977471e-01,0.000000000000000000e+00
1.281000000000000000e+03,-2.761403948120003671e-01,0.000000000000000000e+00
1.282000000000000000e+03,-2.252752318064143305e-02,0.000000000000000000e+00
1.283000000000000000e+03,4.222086474255647981e-01,0.000000000000000000e+00
1.284000000000000000e+03,2.926505868376990116e-01,0.000000000000000000e+00
1.285000000000000000e+03,5.895176569118506515e-01,0.000000000000000000e+00
1.286000000000000000e+03,8.081296118830231245e-01,0.000000000000000000e+00
1.287000000000000000e+03,1.431425256918568367e+00,0.000000000000000000e+00
1.288000000000000000e+03,8.119813152605407369e-01,0.000000000000000000e+00
1.289000000000000000e+03,6.251536609109664688e-01,0.000000000000000000e+00
1.290000000000000000e+03,1.634293023623674124e-01,0.000000000000000000e+00
1.291000000000000000e+03,-8.883535336609645894e-01,0.000000000000000000e+00
1.292000000000000000e+03,-1.254803402061332562e+00,0.000000000000000000e+00
1.293000000000000000e+03,-8.141591251512116933e-01,0.000000000000000000e+00
1.294000000000000000e+03,-9.911777850090967013e-01,0.000000000000000000e+00
1.295000000000000000e+03,-1.276776132053660584e+00,0.000000000000000000e+00
1.296000000000000000e+03,-7.930392120223249686e-01,0.000000000000000000e+00
1.297000000000000000e+03,-8.058552861936583156e-01,0.000000000000000000e+00
1.298000000000000000e+03,-5.505673855545347717e-01,0.000000000000000000e+00
1.299000000000000000e+03,-3.349139518086468592e-01,0.000000000000000000e+00
1.300000000000000000e+03,-5.386590269633136918e-01,0.000000000000000000e+00
1.301000000000000000e+03,-5.006050211324764021e-01,0.000000000000000000e+00
1.302000000000000000e+03,-1.181754506425580636e-01,0.000000000000000000e+00
1.303000000000000000e+03,6.458743716523684952e-02,0.000000000000000000e+00
1.304000000000000000e+03,-3.018955454167430719e-01,0.000000000000000000e+00
1.305000000000000000e+03,-2.203886065946941350e-02,0.000000000000000000e+00
1.306000000000000000e+03,-5.068084818637679234e-01,0.000000000000000000e+00
1.307000000000000000e+03,5.715799943389607840e-01,0.000000000000000000e+00
1.308000000000000000e+03,-3.931708122451725296e-01,0.000000000000000000e+00
1.309000000000000000e+03,2.546944634919871553e-01,0.000000000000000000e+00
1.310000000000000000e+03,4.103494497062114554e-01,0.000000000000000000e+00
1.311000000000000000e+03,1.746694509713603016e-01,0.000000000000000000e+00
1.312000000000000000e+03,2.004620725717564944e-01,0.000000000000000000e+00
1.313000000000000000e+03,-7.604017588169111053e-02,0.000000000000000000e+00
1.314000000000000000e+03,3.496230783873942038e-01,0.000000000000000000e+00
1.315000000000000000e+03,3.197046168926131471e-01,0.000000000000000000e+00
1.316000000000000000e+03,1.061473447199536568e-01,0.000000000000000000e+00
1.317000000000000000e+03,7.436196603917005765e-01,0.000000000000000000e+00
1.318000000000000000e+03,1.419726732818212267e-01,0.000000000000000000e+00
1.319000000000000000e+03,4.674669085791507417e-01,0.000000000000000000e+00
1.320000000000000000e+03,6.889801529143004810e-01,0.000000000000000000e+00
1.321000000000000000e+03,2.150132854446551445e-01,0.000000000000000000e+00
1.322000000000000000e+03,7.845539172620052959e-02,0.000000000000000000e+00
1.323000000000000000e+03,6.452209080201048996e-01,0.000000000000000000e+00
1.324000000000000000e+03,1.413982912511896062e-01,0.000000000000000000e+00
1.325000000000000000e+03,7.041369893427132931e-01,0.000000000000000000e+00
1.326000000000000000e+03,1.241805281208517575e-02,0.000000000000000000e+00
1.327000000000000000e+03,4.862417902720761465e-01,0.000000000000000000e+00
1.328000000000000000e+03,8.256041274352483583e-01,0.000000000000000000e+00
1.329000000000000000e+03,1.525985185704982761e-01,0.000000000000000000e+00
1.330000000000000000e+03,4.952414031336325739e-01,0.000000000000000000e+00
1.331000000000000000e+03,1.786085757121897433e-01,0.000000000000000000e+00
1.332000000000000000e+03,5.497831874401289953e-01,0.000000000000000000e+00
1.333000000000000000e+03,-4.480619574558027951e-01,0.000000000000000000e+00
1.334000000000000000e+03,1.239657009317113312e+00,0.000000000000000000e+00
1.335000000000000000e+03,3.845309647014838461e+00,0.000000000000000000e+00
1.336000000000000000e+03,2.420116525914714600e+00,1.000000000000000000e+00
1.337000000000000000e+03,-6.346318039808777067e-01,0.000000000000000000e+00
1.338000000000000000e+03,-1.312550506551098506e+00,0.000000000000000000e+00
1.339000000000000000e+03,-1.173051351867036018e+00,0.000000000000000000e+00
1.340000000000000000e+03,4.098587468100985953e-01,0.000000000000000000e+00
1.341000000000000000e+03,-1.361861160722959985e-01,0.000000000000000000e+00
1.342000000000000000e+03,-7.998251573212415977e-01,0.000000000000000000e+00
1.343000000000000000e+03,3.480306002463884330e-02,0.000000000000000000e+00
1.344000000000000000e+03,2.334030814822815603e-01,0.000000000000000000e+00
1.345000000000000000e+03,-3.080771894116455245e-01,0.000000000000000000e+00
1.346000000000000000e+03,-3.039456754977963304e-01,0.000000000000000000e+00
1.347000000000000000e+03,2.707514375237065063e-01,0.000000000000000000e+00
1.348000000000000000e+03,9.708935126296712459e-02,0.000000000000000000e+00
1.349000000000000000e+03,3.896416369579317474e-01,0.000000000000000000e+00
1.350000000000000000e+03,6.573560088117196276e-01,0.000000000000000000e+00
1.351000000000000000e+03,3.995390207265946403e-01,0.000000000000000000e+00
1.352000000000000000e+03,1.185281998723147767e+00,0.000000000000000000e+00
1.353000000000000000e+03,3.755875285114136930e-01,0.000000000000000000e+00
1.354000000000000000e+03,4.548304212785119760e-01,0.000000000000000000e+00
1.355000000000000000e+03,5.045555090864389108e-02,0.000000000000000000e+00
1.356000000000000000e+03,-1.094236162702768356e+00,0.000000000000000000e+00
1.357000000000000000e+03,-1.193457883295101052e+00,0.000000000000000000e+00
1.358000000000000000e+03,-1.109808213958396239e+00,0.000000000000000000e+00
1.359000000000000000e+03,-1.184151892979177667e+00,0.000000000000000000e+00
1.360000000000000000e+03,-1.498649703175060299e+00,0.000000000000000000e+00
1.361000000000000000e+03,-8.357339348209539276e-01,0.000000000000000000e+00
1.362000000000000000e+03,-8.283696350864275804e-01,0.000000000000000000e+00
1.363000000000000000e+03,-1.053384166820047874e+00,0.000000000000000000e+00
1.364000000000000000e+03,-7.007408052556267641e-01,0.000000000000000000e+00
1.365000000000000000e+03,-1.642819565966768119e-02,0.000000000000000000e+00
1.366000000000000000e+03,-4.032360885170703790e-01,0.000000000000000000e+00
1.367000000000000000e+03,-6.725363842432288131e-01,0.000000000000000000e+00
1.368000000000000000e+03,-6.170580192475494385e-01,0.000000000000000000e+00
1.369000000000000000e+03,-1.964842446868038939e-01,0.000000000000000000e+00
1.370000000000000000e+03,-7.221206498293951670e-01,0.000000000000000000e+00
1.371000000000000000e+03,-1.010416074694879401e-01,0.000000000000000000e+00
1.372000000000000000e+03,-2.097667726558710422e-01,0.000000000000000000e+00
1.373000000000000000e+03,-6.687565167675006972e-01,0.000000000000000000e+00
1.374000000000000000e+03,8.304594461629313806e-02,0.000000000000000000e+00
1.375000000000000000e+03,-5.370159633647497710e-01,0.000000000000000000e+00
1.376000000000000000e+03,2.534625802272092443e-01,0.000000000000000000e+00
1.377000000000000000e+03,-3.385448155295082695e-01,0.000000000000000000e+00
1.378000000000000000e+03,4.149209308323439371e-01,0.000000000000000000e+00
1.379000000000000000e+03,-2.100594067434832235e-01,0.000000000000000000e+00
1.380000000000000000e+03,-1.229585570844927561e-01,0.000000000000000000e+00
1.381000000000000000e+03,1.875993376739412410e-01,0.000000000000000000e+00
1.382000000000000000e+03,-1.910050232430219597e-01,0.000000000000000000e+00
1.383000000000000000e+03,2.768870339866019714e-01,0.000000000000000000e+00
1.384000000000000000e+03,3.904664217805254300e-01,0.000000000000000000e+00
1.385000000000000000e+03,1.660581072592736407e-01,0.000000000000000000e+00
1.386000000000000000e+03,1.878086884195114548e-01,0.000000000000000000e+00
1.387000000000000000e+03,5.008324333131613376e-02,0.000000000000000000e+00
1.388000000000000000e+03,4.960053487318792920e-01,0.000000000000000000e+00
1.389000000000000000e+03,1.927253562876520276e-01,0.000000000000000000e+00
1.390000000000000000e+03,4.279340479443973777e-01,0.000000000000000000e+00
1.391000000000000000e+03,2.873541610298779303e-01,0.000000000000000000e+00
1.392000000000000000e+03,1.703749439206784233e-01,0.000000000000000000e+00
1.393000000000000000e+03,2.175146526420206894e-01,0.000000000000000000e+00
1.394000000000000000e+03,1.762936014952116714e-01,0.000000000000000000e+00
1.395000000000000000e+03,2.385861598922230375e-01,0.000000000000000000e+00
1.396000000000000000e+03,4.021906464031328454e-01,0.000000000000000000e+00
1.397000000000000000e+03,3.879510254432701366e+00,0.000000000000000000e+00
1.398000000000000000e+03,2.376716870056358122e+00,1.000000000000000000e+00
1.399000000000000000e+03,-7.256821863951602447e-01,0.000000000000000000e+00
1.400000000000000000e+03,-1.013892780222519718e+00,0.000000000000000000e+00
1.401000000000000000e+03,-8.506557408728596670e-01,0.000000000000000000e+00
1.402000000000000000e+03,-4.975922495661040945e-01,0.000000000000000000e+00
1.403000000000000000e+03,-2.771466127277882330e-01,0.000000000000000000e+00
1.404000000000000000e+03,-3.928001021194722497e-01,0.000000000000000000e+00
1.405000000000000000e+03,-1.027196469642565752e-01,0.000000000000000000e+00
1.406000000000000000e+03,-3.684111378091864397e-01,0.000000000000000000e+00
1.407000000000000000e+03,-2.788322924441015774e-02,0.000000000000000000e+00
1.408000000000000000e+03,1.049230892657360137e-01,0.000000000000000000e+00
1.409000000000000000e+03,1.593362235268729332e-01,0.000000000000000000e+00
1.410000000000000000e+03,5.415426950641377690e-01,0.000000000000000000e+00
1.411000000000000000e+03,-3.004359984597932964e-01,0.000000000000000000e+00
1.412000000000000000e+03,1.153432495109850464e+00,0.000000000000000000e+00
1.413000000000000000e+03,3.875506149276796708e-01,0.000000000000000000e+00
1.414000000000000000e+03,1.277645727600210890e+00,0.000000000000000000e+00
1.415000000000000000e+03,9.073396919112853842e-01,0.000000000000000000e+00
1.416000000000000000e+03,3.119357423951604202e-01,0.000000000000000000e+00
1.417000000000000000e+03,3.688476389609085526e-01,0.000000000000000000e+00
1.418000000000000000e+03,-1.388602555342660860e+00,0.000000000000000000e+00
1.419000000000000000e+03,-7.619078554372162859e-01,0.000000000000000000e+00
1.420000000000000000e+03,-1.293992368132837578e+00,0.000000000000000000e+00
1.421000000000000000e+03,-9.445480527752568856e-01,0.000000000000000000e+00
1.422000000000000000e+03,-1.353913852215719915e+00,0.000000000000000000e+00
1.423000000000000000e+03,-8.761961431874312201e-01,0.000000000000000000e+00
1.424000000000000000e+03,-4.779901813749603545e-01,0.000000000000000000e+00
1.425000000000000000e+03,-1.013007808929918818e+00,0.000000000000000000e+00
1.426000000000000000e+03,-1.332631093899157015e-01,0.000000000000000000e+00
1.427000000000000000e+03,-6.807610101172958394e-01,0.000000000000000000e+00
1.428000000000000000e+03,2.288884462643818105e-02,0.000000000000000000e+00
1.429000000000000000e+03,-5.741759304505064110e-01,0.000000000000000000e+00
1.430000000000000000e+03,-5.314446154830693159e-01,0.000000000000000000e+00
1.431000000000000000e+03,-1.500736057825415026e-01,0.000000000000000000e+00
1.432000000000000000e+03,-3.737585275241166460e-01,0.000000000000000000e+00
1.433000000000000000e+03,-1.670190646667810142e-01,0.000000000000000000e+00
1.434000000000000000e+03,-1.041393896263160673e-01,0.000000000000000000e+00
1.435000000000000000e+03,-2.473739540359020939e-01,0.000000000000000000e+00
1.436000000000000000e+03,1.328631632353070580e-01,0.000000000000000000e+00
1.437000000000000000e+03,-1.192505044051824989e-02,0.000000000000000000e+00
1.438000000000000000e+03,2.722925531633401883e-02,0.000000000000000000e+00
1.439000000000000000e+03,-5.735902354918611529e-02,0.000000000000000000e+00
1.440000000000000000e+03,1.932352346063801740e-01,0.000000000000000000e+00
1.441000000000000000e+03,-8.492384761148958705e-04,0.000000000000000000e+00
1.442000000000000000e+03,2.153696709436911383e-01,0.000000000000000000e+00
1.443000000000000000e+03,-3.216611431925665010e-01,0.000000000000000000e+00
1.444000000000000000e+03,7.002648532108632917e-01,0.000000000000000000e+00
1.445000000000000000e+03,3.635981570828731857e-01,0.000000000000000000e+00
1.446000000000000000e+03,9.907750784981238235e-02,0.000000000000000000e+00
1.447000000000000000e+03,4.337739153893934718e-01,0.000000000000000000e+00
1.448000000000000000e+03,2.490540661165072944e-01,0.000000000000000000e+00
1.449000000000000000e+03,5.878602400884501700e-01,0.000000000000000000e+00
1.450000000000000000e+03,-2.309634373653597084e-01,0.000000000000000000e+00
1.451000000000000000e+03,3.889359453630155450e+00,0.000000000000000000e+00
1.452000000000000000e+03,3.712438245254736646e+00,0.000000000000000000e+00
1.453000000000000000e+03,-5.956026646321314066e-01,1.000000000000000000e+00
1.454000000000000000e+03,-1.044165689285324605e+00,0.000000000000000000e+00
1.455000000000000000e+03,-5.865705358422632631e-01,0.000000000000000000e+00
1.456000000000000000e+03,-3.483045840495540557e-01,0.000000000000000000e+00
1.457000000000000000e+03,-2.193020038509286007e-01,0.000000000000000000e+00
1.458000000000000000e+03,-1.983621026323530434e-01,0.000000000000000000e+00
1.459000000000000000e+03,-4.881120705362286816e-01,0.000000000000000000e+00
1.460000000000000000e+03,2.535710908402814545e-01,0.000000000000000000e+00
1.461000000000000000e+03,-1.497776815105804349e-01,0.000000000000000000e+00
1.462000000000000000e+03,3.148458803650381888e-01,0.000000000000000000e+00
1.463000000000000000e+03,8.929797552102530789e-02,0.000000000000000000e+00
1.464000000000000000e+03,3.235395629164271036e-01,0.000000000000000000e+00
1.465000000000000000e+03,3.586432014037669314e-01,0.000000000000000000e+00
1.466000000000000000e+03,1.105370839778767156e+00,0.000000000000000000e+00
1.467000000000000000e+03,1.039344403269972572e+00,0.000000000000000000e+00
1.468000000000000000e+03,1.546638556303540746e+00,0.000000000000000000e+00
1.469000000000000000e+03,9.591399648962941615e-01,0.000000000000000000e+00
1.470000000000000000e+03,1.036946384215674088e+00,0.000000000000000000e+00
1.471000000000000000e+03,-1.858415583847584374e-01,0.000000000000000000e+00
1.472000000000000000e+03,-8.067657153332693509e-01,0.000000000000000000e+00
1.473000000000000000e+03,-1.042025458232073154e+00,0.000000000000000000e+00
1.474000000000000000e+03,-1.012249341888703302e+00,0.000000000000000000e+00
1.475000000000000000e+03,-1.214068556059862303e+00,0.000000000000000000e+00
1.476000000000000000e+03,-1.042930554601884108e+00,0.000000000000000000e+00
1.477000000000000000e+03,-1.536194973834261956e+00,0.000000000000000000e+00
1.478000000000000000e+03,-6.437724053029206805e-01,0.000000000000000000e+00
1.479000000000000000e+03,-1.024892881918513465e+00,0.000000000000000000e+00
1.480000000000000000e+03,-6.027865380401682405e-01,0.000000000000000000e+00
1.481000000000000000e+03,-5.138372636271059113e-01,0.000000000000000000e+00
1.482000000000000000e+03,-6.086136837842313074e-01,0.000000000000000000e+00
1.483000000000000000e+03,1.368417217527953256e-01,0.000000000000000000e+00
1.484000000000000000e+03,-7.174906461727211804e-01,0.000000000000000000e+00
1.485000000000000000e+03,8.953452425309630161e-03,0.000000000000000000e+00
1.486000000000000000e+03,-6.536209791330105379e-01,0.000000000000000000e+00
1.487000000000000000e+03,3.874909599833685547e+00,0.000000000000000000e+00
1.488000000000000000e+03,2.666464141913075458e+00,0.000000000000000000e+00
1.489000000000000000e+03,-1.753550641435913215e+00,1.000000000000000000e+00
1.490000000000000000e+03,-1.544433458962740646e+00,0.000000000000000000e+00
1.491000000000000000e+03,-1.240565796967914025e+00,0.000000000000000000e+00
1.492000000000000000e+03,-5.859022359229669741e-01,0.000000000000000000e+00
1.493000000000000000e+03,-2.849433168177306075e-01,0.000000000000000000e+00
1.494000000000000000e+03,-3.534629798854697080e-01,0.000000000000000000e+00
1.495000000000000000e+03,-2.661649465282970861e-01,0.000000000000000000e+00
1.496000000000000000e+03,-1.452204865830057368e-01,0.000000000000000000e+00
1.497000000000000000e+03,-7.410644166261227961e-02,0.000000000000000000e+00
1.498000000000000000e+03,2.895153417478792957e-01,0.000000000000000000e+00
1.499000000000000000e+03,-8.789519243577890995e-02,0.000000000000000000e+00
1.500000000000000000e+03,3.319403825343340553e-01,0.000000000000000000e+00
1.501000000000000000e+03,6.733273540684997505e-01,0.000000000000000000e+00
1.502000000000000000e+03,7.316777173270923029e-01,0.000000000000000000e+00
1.503000000000000000e+03,1.451370548472913802e+00,0.000000000000000000e+00
1.504000000000000000e+03,7.445749965331920350e-01,0.000000000000000000e+00
1.505000000000000000e+03,1.153765512173923202e+00,0.000000000000000000e+00
1.506000000000000000e+03,-1.398864256305558107e-01,0.000000000000000000e+00
1.507000000000000000e+03,-7.870605780625702375e-01,0.000000000000000000e+00
1.508000000000000000e+03,-5.758678679946472867e-01,0.000000000000000000e+00
1.509000000000000000e+03,-9.667910339776009110e-01,0.000000000000000000e+00
1.510000000000000000e+03,-1.347931549765035264e+00,0.000000000000000000e+00
1.511000000000000000e+03,-1.237094521184747720e+00,0.000000000000000000e+00
1.512000000000000000e+03,-3.503784168200738680e-01,0.000000000000000000e+00
1.513000000000000000e+03,-1.091924851462650281e+00,0.000000000000000000e+00
1.514000000000000000e+03,-4.292137056009532325e-01,0.000000000000000000e+00
1.515000000000000000e+03,-1.213587988279376750e+00,0.000000000000000000e+00
1.516000000000000000e+03,2.045893532874279996e-01,0.000000000000000000e+00
1.517000000000000000e+03,-5.193830775338006411e-01,0.000000000000000000e+00
1.518000000000000000e+03,-2.799166120786582002e-01,0.000000000000000000e+00
1.519000000000000000e+03,-7.034654648212300687e-01,0.000000000000000000e+00
1.520000000000000000e+03,-9.840531332744005544e-03,0.000000000000000000e+00
1.521000000000000000e+03,-2.269323963220896273e-02,0.000000000000000000e+00
1.522000000000000000e+03,-1.758001666950457786e-01,0.000000000000000000e+00
1.523000000000000000e+03,-6.544337147474776906e-02,0.000000000000000000e+00
1.524000000000000000e+03,3.371865340877856776e-02,0.000000000000000000e+00
1.525000000000000000e+03,-2.426196591428658456e-01,0.000000000000000000e+00
1.526000000000000000e+03,3.586983563672785813e+00,0.000000000000000000e+00
1.527000000000000000e+03,3.724184653470376194e+00,0.000000000000000000e+00
1.528000000000000000e+03,-8.386504583025415904e-01,1.000000000000000000e+00
1.529000000000000000e+03,-1.253455587483524258e+00,0.000000000000000000e+00
1.530000000000000000e+03,-1.513157639024339085e+00,0.000000000000000000e+00
1.531000000000000000e+03,-1.441870999542975706e-01,0.000000000000000000e+00
1.532000000000000000e+03,-6.563439378659210455e-01,0.000000000000000000e+00
1.533000000000000000e+03,3.429466592954416027e-01,0.000000000000000000e+00
1.534000000000000000e+03,1.350777162072385185e-01,0.000000000000000000e+00
1.535000000000000000e+03,-1.656104140989362317e-01,0.000000000000000000e+00
1.536000000000000000e+03,2.565742914737830227e-01,0.000000000000000000e+00
1.537000000000000000e+03,-2.661071834793758972e-01,0.000000000000000000e+00
1.538000000000000000e+03,4.519230927877652126e-01,0.000000000000000000e+00
1.539000000000000000e+03,6.757254503426091130e-01,0.000000000000000000e+00
1.540000000000000000e+03,3.735367733483146990e-01,0.000000000000000000e+00
1.541000000000000000e+03,1.096456583978003829e+00,0.000000000000000000e+00
1.542000000000000000e+03,1.330987532508052240e+00,0.000000000000000000e+00
1.543000000000000000e+03,1.283254429741778058e+00,0.000000000000000000e+00
1.544000000000000000e+03,1.207637419836443460e+00,0.000000000000000000e+00
1.545000000000000000e+03,-1.836284303182209310e-01,0.000000000000000000e+00
1.546000000000000000e+03,-2.375029922553081596e-01,0.000000000000000000e+00
1.547000000000000000e+03,-4.685937706800501479e-01,0.000000000000000000e+00
1.548000000000000000e+03,-1.184588386489849654e+00,0.000000000000000000e+00
1.549000000000000000e+03,-7.860112422357167228e-01,0.000000000000000000e+00
1.550000000000000000e+03,-6.512370348560081457e-01,0.000000000000000000e+00
1.551000000000000000e+03,-4.152483803599241186e-01,0.000000000000000000e+00
1.552000000000000000e+03,-6.409913225823973271e-01,0.000000000000000000e+00
1.553000000000000000e+03,-3.625077919315176644e-01,0.000000000000000000e+00
1.554000000000000000e+03,-4.977373234430877980e-01,0.000000000000000000e+00
1.555000000000000000e+03,-7.801215119709850598e-02,0.000000000000000000e+00
1.556000000000000000e+03,-7.522174164589778833e-01,0.000000000000000000e+00
1.557000000000000000e+03,-8.637828509119974130e-02,0.000000000000000000e+00
1.558000000000000000e+03,-7.153134461983287617e-02,0.000000000000000000e+00
1.559000000000000000e+03,-5.246070302400043239e-01,0.000000000000000000e+00
1.560000000000000000e+03,2.157698192324196684e-01,0.000000000000000000e+00
1.561000000000000000e+03,2.465737782644454312e-01,0.000000000000000000e+00
1.562000000000000000e+03,-2.198478906425093138e-01,0.000000000000000000e+00
1.563000000000000000e+03,2.320682575377902845e-01,0.000000000000000000e+00
1.564000000000000000e+03,2.474970025376788119e-01,0.000000000000000000e+00
1.565000000000000000e+03,-3.366209576989339092e-01,0.000000000000000000e+00
1.566000000000000000e+03,8.782939881789607328e-02,0.000000000000000000e+00
1.567000000000000000e+03,4.187317861756361670e-01,0.000000000000000000e+00
1.568000000000000000e+03,1.291402822483914484e-02,0.000000000000000000e+00
1.569000000000000000e+03,5.097124980484327716e-01,0.000000000000000000e+00
1.570000000000000000e+03,1.058513024435231015e-01,0.000000000000000000e+00
1.571000000000000000e+03,4.558102954125413664e-01,0.000000000000000000e+00
1.572000000000000000e+03,4.213692549360129602e-01,0.000000000000000000e+00
1.573000000000000000e+03,7.381564580751330540e-02,0.000000000000000000e+00
1.574000000000000000e+03,2.405903931728293199e-01,0.000000000000000000e+00
1.575000000000000000e+03,6.660634187237255289e-05,0.000000000000000000e+00
1.576000000000000000e+03,2.473958278879850037e-01,0.000000000000000000e+00
1.577000000000000000e+03,2.538231602342029825e-01,0.000000000000000000e+00
1.578000000000000000e+03,1.026685552248405020e-01,0.000000000000000000e+00
1.579000000000000000e+03,-2.720039783801799123e-03,0.000000000000000000e+00
1.580000000000000000e+03,6.513203986212549035e-01,0.000000000000000000e+00
1.581000000000000000e+03,1.120257126579338042e-01,0.000000000000000000e+00
1.582000000000000000e+03,-6.293984484948050850e-02,0.000000000000000000e+00
1.583000000000000000e+03,2.176583834960233332e+00,0.000000000000000000e+00
1.584000000000000000e+03,4.949761666915788005e+00,0.000000000000000000e+00
1.585000000000000000e+03,1.362437752400962765e+00,1.000000000000000000e+00
1.586000000000000000e+03,-1.596256693830629736e+00,0.000000000000000000e+00
