timestamp,ecg_measurement,qrs_detected
0.000000000000000000e+00,4.298069234472506883e-01,0.000000000000000000e+00
1.000000000000000000e+00,-5.218381084445461449e-01,0.000000000000000000e+00
2.000000000000000000e+00,-6.269868083993189734e-01,0.000000000000000000e+00
3.000000000000000000e+00,-5.909279162196113822e-01,0.000000000000000000e+00
4.000000000000000000e+00,-6.016065942113919540e-01,0.000000000000000000e+00
5.000000000000000000e+00,-4.122321558336869418e-01,0.000000000000000000e+00
6.000000000000000000e+00,-3.671180376855153193e-01,0.000000000000000000e+00
7.000000000000000000e+00,-3.320901131900372838e-01,0.000000000000000000e+00
8.000000000000000000e+00,-3.352079019934173232e-01,0.000000000000000000e+00
9.000000000000000000e+00,-1.294608134968868729e-01,0.000000000000000000e+00
1.000000000000000000e+01,-9.233525363141112385e-02,0.000000000000000000e+00
1.100000000000000000e+01,-7.306652514799118203e-02,0.000000000000000000e+00
1.200000000000000000e+01,6.584827474252837043e-02,0.000000000000000000e+00
1.300000000000000000e+01,1.518256162664613773e-01,0.000000000000000000e+00
1.400000000000000000e+01,3.136804057847492055e-01,0.000000000000000000e+00
1.500000000000000000e+01,2.411379158402145451e-01,0.000000000000000000e+00
1.600000000000000000e+01,2.694176717811760935e-01,0.000000000000000000e+00
1.700000000000000000e+01,1.330953819906036673e-01,0.000000000000000000e+00
1.800000000000000000e+01,4.160686978124659291e-02,0.000000000000000000e+00
1.900000000000000000e+01,7.905407373288493578e-03,0.000000000000000000e+00
2.000000000000000000e+01,-1.020789259911061980e-01,0.000000000000000000e+00
2.100000000000000000e+01,-5.196949401691476622e-02,0.000000000000000000e+00
2.200000000000000000e+01,-3.778219437722236257e-02,0.000000000000000000e+00
2.300000000000000000e+01,-8.355594835565348377e-02,0.000000000000000000e+00
2.400000000000000000e+01,-6.768805955816618869e-02,0.000000000000000000e+00
2.500000000000000000e+01,-1.085421754424551327e-01,0.000000000000000000e+00
2.600000000000000000e+01,7.502955284722892526e-02,0.000000000000000000e+00
2.700000000000000000e+01,1.390152616328281694e-02,0.000000000000000000e+00
2.800000000000000000e+01,1.220136308523245006e-01,0.000000000000000000e+00
2.900000000000000000e+01,4.530809386878519723e-02,0.000000000000000000e+00
3.000000000000000000e+01,1.391134843099653927e-02,0.000000000000000000e+00
3.100000000000000000e+01,5.646358354551796188e-02,0.000000000000000000e+00
3.200000000000000000e+01,-5.245972748840756900e-02,0.000000000000000000e+00
3.300000000000000000e+01,6.495467054078415958e-02,0.000000000000000000e+00
3.400000000000000000e+01,-2.927119822223971449e-02,0.000000000000000000e+00
3.500000000000000000e+01,1.441873852066108685e-01,0.000000000000000000e+00
3.600000000000000000e+01,1.060974178296873460e-01,0.000000000000000000e+00
3.700000000000000000e+01,8.905057253945303231e-02,0.000000000000000000e+00
3.800000000000000000e+01,2.765812118623114935e-02,0.000000000000000000e+00
3.900000000000000000e+01,1.272076318861647959e-01,0.000000000000000000e+00
4.000000000000000000e+01,-1.355075571254085454e-01,0.000000000000000000e+00
4.100000000000000000e+01,-5.715058241339850131e-02,0.000000000000000000e+00
4.200000000000000000e+01,-1.300482566860980405e-01,0.000000000000000000e+00
4.300000000000000000e+01,6.508133570817371538e-01,0.000000000000000000e+00
4.400000000000000000e+01,2.153801808006398311e+00,0.000000000000000000e+00
4.500000000000000000e+01,4.043094337413459249e-01,1.000000000000000000e+00
4.600000000000000000e+01,-5.853075220444484694e-01,0.000000000000000000e+00
4.700000000000000000e+01,-6.024677458397220686e-01,0.000000000000000000e+00
4.800000000000000000e+01,-6.451256019338726944e-01,0.000000000000000000e+00
4.900000000000000000e+01,-5.617774377476335568e-01,0.000000000000000000e+00
5.000000000000000000e+01,-5.576824230302284136e-01,0.000000000000000000e+00
5.100000000000000000e+01,-3.998312636807069276e-01,0.000000000000000000e+00
5.200000000000000000e+01,-3.539092888062445041e-01,0.000000000000000000e+00
5.300000000000000000e+01,-3.015063578683332968e-01,0.000000000000000000e+00
5.400000000000000000e+01,-2.797815996545116035e-01,0.000000000000000000e+00
5.500000000000000000e+01,-2.107370946199615402e-01,0.000000000000000000e+00
5.600000000000000000e+01,-1.639439121311958569e-01,0.000000000000000000e+00
5.700000000000000000e+01,7.320405935316086354e-02,0.000000000000000000e+00
5.800000000000000000e+01,8.078417228359062452e-02,0.000000000000000000e+00
5.900000000000000000e+01,3.065025507652588965e-01,0.000000000000000000e+00
6.000000000000000000e+01,2.545989156119929930e-01,0.000000000000000000e+00
6.100000000000000000e+01,1.759498507661869660e-01,0.000000000000000000e+00
6.200000000000000000e+01,7.553705025022496022e-02,0.000000000000000000e+00
6.300000000000000000e+01,-6.717240456832559992e-02,0.000000000000000000e+00
6.400000000000000000e+01,-6.478406554379202709e-02,0.000000000000000000e+00
6.500000000000000000e+01,-7.461456965315430012e-02,0.000000000000000000e+00
6.600000000000000000e+01,-2.499049275732414532e-01,0.000000000000000000e+00
6.700000000000000000e+01,-1.427887572586382658e-01,0.000000000000000000e+00
6.800000000000000000e+01,-1.790286392134865789e-01,0.000000000000000000e+00
6.900000000000000000e+01,-1.491879400962833613e-01,0.000000000000000000e+00
7.000000000000000000e+01,-1.814644756911931445e-01,0.000000000000000000e+00
7.100000000000000000e+01,-1.023121488834853460e-01,0.000000000000000000e+00
7.200000000000000000e+01,4.430776630169630526e-02,0.000000000000000000e+00
7.300000000000000000e+01,-2.574865133005442563e-02,0.000000000000000000e+00
7.400000000000000000e+01,-4.446125956539945939e-02,0.000000000000000000e+00
7.500000000000000000e+01,-3.358549670987534541e-02,0.000000000000000000e+00
7.600000000000000000e+01,-2.962086020068969983e-02,0.000000000000000000e+00
7.700000000000000000e+01,-7.806196765462661280e-02,0.000000000000000000e+00
7.800000000000000000e+01,-4.147605958802150217e-02,0.000000000000000000e+00
7.900000000000000000e+01,-1.161222731507407374e-02,0.000000000000000000e+00
8.000000000000000000e+01,3.351986135676294359e-02,0.000000000000000000e+00
8.100000000000000000e+01,3.993102907219387571e-02,0.000000000000000000e+00
8.200000000000000000e+01,1.729672378406351199e-02,0.000000000000000000e+00
8.300000000000000000e+01,1.046037659598733072e-01,0.000000000000000000e+00
8.400000000000000000e+01,1.398039222747191057e-01,0.000000000000000000e+00
8.500000000000000000e+01,1.846442013942421190e-01,0.000000000000000000e+00
8.600000000000000000e+01,-1.925160668241411299e-01,0.000000000000000000e+00
8.700000000000000000e+01,1.312481313147178252e-01,0.000000000000000000e+00
8.800000000000000000e+01,3.688714188683381301e-02,0.000000000000000000e+00
8.900000000000000000e+01,1.635787416407132433e+00,0.000000000000000000e+00
9.000000000000000000e+01,1.753758355470356189e+00,0.000000000000000000e+00
9.100000000000000000e+01,-1.645069925744907791e-01,1.000000000000000000e+00
9.200000000000000000e+01,-4.676517676537687018e-01,0.000000000000000000e+00
9.300000000000000000e+01,-7.311660601327939490e-01,0.000000000000000000e+00
9.400000000000000000e+01,-4.199546992458668138e-01,0.000000000000000000e+00
9.500000000000000000e+01,-5.137370836040152655e-01,0.000000000000000000e+00
9.600000000000000000e+01,-3.070896471481057155e-01,0.000000000000000000e+00
9.700000000000000000e+01,-3.787628247260735881e-01,0.000000000000000000e+00
9.800000000000000000e+01,-3.034448719487210511e-01,0.000000000000000000e+00
9.900000000000000000e+01,-2.852164961754284356e-01,0.000000000000000000e+00
1.000000000000000000e+02,-1.537649968436248515e-01,0.000000000000000000e+00
1.010000000000000000e+02,-1.514050080178909741e-01,0.000000000000000000e+00
1.020000000000000000e+02,2.070705958727012130e-02,0.000000000000000000e+00
1.030000000000000000e+02,5.440011331481989926e-02,0.000000000000000000e+00
1.040000000000000000e+02,2.304836833782232530e-01,0.000000000000000000e+00
1.050000000000000000e+02,1.812629542188852749e-01,0.000000000000000000e+00
1.060000000000000000e+02,2.085895383948344617e-01,0.000000000000000000e+00
1.070000000000000000e+02,1.123755631250750592e-01,0.000000000000000000e+00
1.080000000000000000e+02,-3.085413691150092411e-02,0.000000000000000000e+00
1.090000000000000000e+02,2.938063583284448999e-02,0.000000000000000000e+00
1.100000000000000000e+02,-1.080049383575422822e-01,0.000000000000000000e+00
1.110000000000000000e+02,-1.753074126623912210e-01,0.000000000000000000e+00
1.120000000000000000e+02,-1.836670908339713137e-01,0.000000000000000000e+00
1.130000000000000000e+02,-1.384510724936748038e-01,0.000000000000000000e+00
1.140000000000000000e+02,-2.015396491709253446e-01,0.000000000000000000e+00
1.150000000000000000e+02,-1.430844980508118869e-01,0.000000000000000000e+00
1.160000000000000000e+02,-1.299517717965088803e-01,0.000000000000000000e+00
1.170000000000000000e+02,1.306703929932044941e-02,0.000000000000000000e+00
1.180000000000000000e+02,1.925534511510246238e-02,0.000000000000000000e+00
1.190000000000000000e+02,3.696201167360014389e-02,0.000000000000000000e+00
1.200000000000000000e+02,4.260576636260004352e-02,0.000000000000000000e+00
1.210000000000000000e+02,5.622952434276197453e-02,0.000000000000000000e+00
1.220000000000000000e+02,-5.819901506957634446e-02,0.000000000000000000e+00
1.230000000000000000e+02,9.049374614895309976e-02,0.000000000000000000e+00
1.240000000000000000e+02,7.398349977920536114e-02,0.000000000000000000e+00
1.250000000000000000e+02,5.279487669049935661e-02,0.000000000000000000e+00
1.260000000000000000e+02,1.110456371157169664e-01,0.000000000000000000e+00
1.270000000000000000e+02,9.219957743434270547e-02,0.000000000000000000e+00
1.280000000000000000e+02,1.570438883281039255e-01,0.000000000000000000e+00
1.290000000000000000e+02,3.144671125747291462e-01,0.000000000000000000e+00
1.300000000000000000e+02,2.021152081932984235e-01,0.000000000000000000e+00
1.310000000000000000e+02,2.111534163937308084e-01,0.000000000000000000e+00
1.320000000000000000e+02,-1.365698879383380748e-01,0.000000000000000000e+00
1.330000000000000000e+02,1.679741906258112871e-01,0.000000000000000000e+00
1.340000000000000000e+02,3.920698638502501804e-02,0.000000000000000000e+00
1.350000000000000000e+02,1.614365359291418445e+00,0.000000000000000000e+00
1.360000000000000000e+02,1.967956660017335935e+00,0.000000000000000000e+00
1.370000000000000000e+02,-1.777719810572797876e-01,1.000000000000000000e+00
1.380000000000000000e+02,-5.685544191604338105e-01,0.000000000000000000e+00
1.390000000000000000e+02,-7.182030608485867607e-01,0.000000000000000000e+00
1.400000000000000000e+02,-5.525595222376520343e-01,0.000000000000000000e+00
1.410000000000000000e+02,-6.330946009339344371e-01,0.000000000000000000e+00
1.420000000000000000e+02,-4.332452149875778979e-01,0.000000000000000000e+00
1.430000000000000000e+02,-5.368609868484056635e-01,0.000000000000000000e+00
1.440000000000000000e+02,-3.684112165042439102e-01,0.000000000000000000e+00
1.450000000000000000e+02,-4.093762569853355848e-01,0.000000000000000000e+00
1.460000000000000000e+02,-2.512024050750548687e-01,0.000000000000000000e+00
1.470000000000000000e+02,-1.914174032684003712e-01,0.000000000000000000e+00
1.480000000000000000e+02,-8.021252945953256941e-02,0.000000000000000000e+00
1.490000000000000000e+02,8.866269335231205181e-03,0.000000000000000000e+00
1.500000000000000000e+02,2.271592113540054358e-01,0.000000000000000000e+00
1.510000000000000000e+02,2.907888659277571564e-01,0.000000000000000000e+00
1.520000000000000000e+02,2.487702812241346928e-01,0.000000000000000000e+00
1.530000000000000000e+02,2.229498414584963617e-01,0.000000000000000000e+00
1.540000000000000000e+02,1.658612075093230109e-01,0.000000000000000000e+00
1.550000000000000000e+02,1.016413261155421216e-01,0.000000000000000000e+00
1.560000000000000000e+02,9.308808144483932123e-02,0.000000000000000000e+00
1.570000000000000000e+02,-5.873153362235284530e-02,0.000000000000000000e+00
1.580000000000000000e+02,-2.954937502494238769e-02,0.000000000000000000e+00
1.590000000000000000e+02,-7.840683303150688954e-02,0.000000000000000000e+00
1.600000000000000000e+02,-9.647930476240351716e-03,0.000000000000000000e+00
1.610000000000000000e+02,7.910798022463916279e-02,0.000000000000000000e+00
1.620000000000000000e+02,-5.391491795332047782e-02,0.000000000000000000e+00
1.630000000000000000e+02,8.973545229495484554e-02,0.000000000000000000e+00
1.640000000000000000e+02,1.897774662634798548e-01,0.000000000000000000e+00
1.650000000000000000e+02,1.603413750200199384e-01,0.000000000000000000e+00
1.660000000000000000e+02,8.602059746335016799e-02,0.000000000000000000e+00
1.670000000000000000e+02,6.597690089916893874e-02,0.000000000000000000e+00
1.680000000000000000e+02,1.441339448530515044e-01,0.000000000000000000e+00
1.690000000000000000e+02,6.082571381980181324e-02,0.000000000000000000e+00
1.700000000000000000e+02,1.011691752575074321e-01,0.000000000000000000e+00
1.710000000000000000e+02,1.215369569175625275e-01,0.000000000000000000e+00
1.720000000000000000e+02,1.103825035102555183e-02,0.000000000000000000e+00
1.730000000000000000e+02,9.033507397104793141e-03,0.000000000000000000e+00
1.740000000000000000e+02,5.528584158987093211e-02,0.000000000000000000e+00
1.750000000000000000e+02,2.069247722500292819e-01,0.000000000000000000e+00
1.760000000000000000e+02,1.592049337732315828e-01,0.000000000000000000e+00
1.770000000000000000e+02,8.932547579987337727e-02,0.000000000000000000e+00
1.780000000000000000e+02,-1.538297847557017206e-01,0.000000000000000000e+00
1.790000000000000000e+02,1.242242342894629356e-02,0.000000000000000000e+00
1.800000000000000000e+02,-4.528866968484869526e-02,0.000000000000000000e+00
1.810000000000000000e+02,9.610968347300424819e-01,0.000000000000000000e+00
1.820000000000000000e+02,2.154659594601273209e+00,0.000000000000000000e+00
1.830000000000000000e+02,2.728084660723980037e-01,1.000000000000000000e+00
1.840000000000000000e+02,-4.761218425598605086e-01,0.000000000000000000e+00
1.850000000000000000e+02,-8.545191932382051325e-01,0.000000000000000000e+00
1.860000000000000000e+02,-5.891375226923399877e-01,0.000000000000000000e+00
1.870000000000000000e+02,-6.997463754763086907e-01,0.000000000000000000e+00
1.880000000000000000e+02,-5.268798447391143114e-01,0.000000000000000000e+00
1.890000000000000000e+02,-5.522264518747521667e-01,0.000000000000000000e+00
1.900000000000000000e+02,-4.837845314712562739e-01,0.000000000000000000e+00
1.910000000000000000e+02,-4.021659474519319044e-01,0.000000000000000000e+00
1.920000000000000000e+02,-3.265941567034360005e-01,0.000000000000000000e+00
1.930000000000000000e+02,-2.941931944169644542e-01,0.000000000000000000e+00
1.940000000000000000e+02,-1.180746294903737142e-01,0.000000000000000000e+00
1.950000000000000000e+02,-1.235976433803175345e-01,0.000000000000000000e+00
1.960000000000000000e+02,1.980153154414654448e-02,0.000000000000000000e+00
1.970000000000000000e+02,7.406037687793089186e-02,0.000000000000000000e+00
1.980000000000000000e+02,2.528013850270487972e-01,0.000000000000000000e+00
1.990000000000000000e+02,1.299767298689859796e-01,0.000000000000000000e+00
2.000000000000000000e+02,1.067384193959464711e-01,0.000000000000000000e+00
2.010000000000000000e+02,6.911004935635488289e-02,0.000000000000000000e+00
2.020000000000000000e+02,5.649247387020906591e-02,0.000000000000000000e+00
2.030000000000000000e+02,-3.568616639121554440e-02,0.000000000000000000e+00
2.040000000000000000e+02,-4.039546947562926149e-02,0.000000000000000000e+00
2.050000000000000000e+02,-1.358547046022725024e-01,0.000000000000000000e+00
2.060000000000000000e+02,-1.611140722815676274e-01,0.000000000000000000e+00
2.070000000000000000e+02,-1.132567249731478015e-01,0.000000000000000000e+00
2.080000000000000000e+02,6.948998570708647075e-04,0.000000000000000000e+00
2.090000000000000000e+02,-4.762820717381071461e-02,0.000000000000000000e+00
2.100000000000000000e+02,1.350870661628956471e-01,0.000000000000000000e+00
2.110000000000000000e+02,5.981795980116575567e-02,0.000000000000000000e+00
2.120000000000000000e+02,5.838272369280549101e-02,0.000000000000000000e+00
2.130000000000000000e+02,9.131300734772537786e-02,0.000000000000000000e+00
2.140000000000000000e+02,8.661426322845389159e-02,0.000000000000000000e+00
2.150000000000000000e+02,-6.077241184410621042e-03,0.000000000000000000e+00
2.160000000000000000e+02,3.675318803760911635e-02,0.000000000000000000e+00
2.170000000000000000e+02,4.049247771415539349e-02,0.000000000000000000e+00
2.180000000000000000e+02,4.606252975620695606e-02,0.000000000000000000e+00
2.190000000000000000e+02,5.999338471060535610e-02,0.000000000000000000e+00
2.200000000000000000e+02,8.269609685137728483e-02,0.000000000000000000e+00
2.210000000000000000e+02,8.515036769269369865e-02,0.000000000000000000e+00
2.220000000000000000e+02,1.623081216611508282e-01,0.000000000000000000e+00
2.230000000000000000e+02,2.853859074968167486e-01,0.000000000000000000e+00
2.240000000000000000e+02,1.650613808622213019e-01,0.000000000000000000e+00
2.250000000000000000e+02,-1.911615100085263252e-01,0.000000000000000000e+00
2.260000000000000000e+02,8.470755293818370280e-02,0.000000000000000000e+00
2.270000000000000000e+02,3.532158954846709858e-02,0.000000000000000000e+00
2.280000000000000000e+02,1.783140400157080752e+00,0.000000000000000000e+00
2.290000000000000000e+02,2.110849830812364658e+00,0.000000000000000000e+00
2.300000000000000000e+02,-7.439872935626183625e-02,1.000000000000000000e+00
2.310000000000000000e+02,-5.835371963165518761e-01,0.000000000000000000e+00
2.320000000000000000e+02,-8.833035824177661866e-01,0.000000000000000000e+00
2.330000000000000000e+02,-6.223200453089892115e-01,0.000000000000000000e+00
2.340000000000000000e+02,-7.312634495121921319e-01,0.000000000000000000e+00
2.350000000000000000e+02,-5.405521047778807375e-01,0.000000000000000000e+00
2.360000000000000000e+02,-5.835213356562801712e-01,0.000000000000000000e+00
2.370000000000000000e+02,-4.429427288692270315e-01,0.000000000000000000e+00
2.380000000000000000e+02,-4.454426199516705043e-01,0.000000000000000000e+00
2.390000000000000000e+02,-3.657042245067907427e-01,0.000000000000000000e+00
2.400000000000000000e+02,-2.933384227243399089e-01,0.000000000000000000e+00
2.410000000000000000e+02,-2.065965568250057449e-01,0.000000000000000000e+00
2.420000000000000000e+02,-6.746916887229684190e-02,0.000000000000000000e+00
2.430000000000000000e+02,5.620785392535181807e-02,0.000000000000000000e+00
2.440000000000000000e+02,1.518779455346592755e-01,0.000000000000000000e+00
2.450000000000000000e+02,1.789200199171553651e-01,0.000000000000000000e+00
2.460000000000000000e+02,1.110741474204488127e-01,0.000000000000000000e+00
2.470000000000000000e+02,1.222597977399442343e-01,0.000000000000000000e+00
2.480000000000000000e+02,-4.299250332186038692e-02,0.000000000000000000e+00
2.490000000000000000e+02,-1.138888423253747589e-01,0.000000000000000000e+00
2.500000000000000000e+02,-9.092840603684262946e-02,0.000000000000000000e+00
2.510000000000000000e+02,-1.173243309581006449e-01,0.000000000000000000e+00
2.520000000000000000e+02,-1.316919576404433079e-01,0.000000000000000000e+00
2.530000000000000000e+02,-1.213806784712626596e-01,0.000000000000000000e+00
2.540000000000000000e+02,-5.050769787563559599e-02,0.000000000000000000e+00
2.550000000000000000e+02,6.571908856332826787e-02,0.000000000000000000e+00
2.560000000000000000e+02,1.021653201729585264e-01,0.000000000000000000e+00
2.570000000000000000e+02,1.247834472637226882e-01,0.000000000000000000e+00
2.580000000000000000e+02,1.812089560165114077e-01,0.000000000000000000e+00
2.590000000000000000e+02,1.441865016729104998e-01,0.000000000000000000e+00
2.600000000000000000e+02,6.845584642654195529e-02,0.000000000000000000e+00
2.610000000000000000e+02,9.289197540615687365e-02,0.000000000000000000e+00
2.620000000000000000e+02,-4.289868719855714080e-02,0.000000000000000000e+00
2.630000000000000000e+02,1.002272284300884386e-01,0.000000000000000000e+00
2.640000000000000000e+02,-3.596629898967988043e-02,0.000000000000000000e+00
2.650000000000000000e+02,8.413105011174204506e-02,0.000000000000000000e+00
2.660000000000000000e+02,4.096980428437026894e-02,0.000000000000000000e+00
2.670000000000000000e+02,5.900334161374620051e-02,0.000000000000000000e+00
2.680000000000000000e+02,6.118557385154178158e-02,0.000000000000000000e+00
2.690000000000000000e+02,2.244401683644992596e-01,0.000000000000000000e+00
2.700000000000000000e+02,1.944250750220747059e-01,0.000000000000000000e+00
2.710000000000000000e+02,1.417736556420970129e-01,0.000000000000000000e+00
2.720000000000000000e+02,-2.493251738215669089e-01,0.000000000000000000e+00
2.730000000000000000e+02,7.642271143363339736e-02,0.000000000000000000e+00
2.740000000000000000e+02,-6.637932869892414212e-02,0.000000000000000000e+00
2.750000000000000000e+02,1.961740037816026572e+00,0.000000000000000000e+00
2.760000000000000000e+02,2.146518599450224496e+00,0.000000000000000000e+00
2.770000000000000000e+02,-9.172317172927593742e-02,1.000000000000000000e+00
2.780000000000000000e+02,-7.979437438526347792e-01,0.000000000000000000e+00
2.790000000000000000e+02,-8.446685637049835549e-01,0.000000000000000000e+00
2.800000000000000000e+02,-6.948913828311438223e-01,0.000000000000000000e+00
2.810000000000000000e+02,-7.289260908423466079e-01,0.000000000000000000e+00
2.820000000000000000e+02,-6.265367691731261734e-01,0.000000000000000000e+00
2.830000000000000000e+02,-5.324406273788461208e-01,0.000000000000000000e+00
2.840000000000000000e+02,-5.082862952171574022e-01,0.000000000000000000e+00
2.850000000000000000e+02,-4.147323549183259961e-01,0.000000000000000000e+00
2.860000000000000000e+02,-2.734511477211935548e-01,0.000000000000000000e+00
2.870000000000000000e+02,-2.293333768810185136e-01,0.000000000000000000e+00
2.880000000000000000e+02,-8.547034648786415445e-02,0.000000000000000000e+00
2.890000000000000000e+02,4.183992617427283005e-03,0.000000000000000000e+00
2.900000000000000000e+02,1.455087740096450699e-01,0.000000000000000000e+00
2.910000000000000000e+02,3.413375623361612488e-01,0.000000000000000000e+00
2.920000000000000000e+02,3.464635375379641613e-01,0.000000000000000000e+00
2.930000000000000000e+02,2.416212136988144243e-01,0.000000000000000000e+00
2.940000000000000000e+02,1.593806574329714731e-01,0.000000000000000000e+00
2.950000000000000000e+02,1.599992100844033760e-01,0.000000000000000000e+00
2.960000000000000000e+02,6.934631578528352436e-02,0.000000000000000000e+00
2.970000000000000000e+02,2.185854190343913817e-02,0.000000000000000000e+00
2.980000000000000000e+02,1.192242816476018347e-02,0.000000000000000000e+00
2.990000000000000000e+02,-1.861909135101943308e-02,0.000000000000000000e+00
3.000000000000000000e+02,5.188343568387009802e-02,0.000000000000000000e+00
3.010000000000000000e+02,5.424817442631310258e-03,0.000000000000000000e+00
3.020000000000000000e+02,1.686957527210874996e-01,0.000000000000000000e+00
3.030000000000000000e+02,1.793008729917266175e-01,0.000000000000000000e+00
3.040000000000000000e+02,1.782223232848586525e-01,0.000000000000000000e+00
3.050000000000000000e+02,1.777751571821772902e-01,0.000000000000000000e+00
3.060000000000000000e+02,8.350861040489429565e-02,0.000000000000000000e+00
3.070000000000000000e+02,1.647952478569421342e-01,0.000000000000000000e+00
3.080000000000000000e+02,1.314135278120187322e-01,0.000000000000000000e+00
3.090000000000000000e+02,7.873654067234718557e-02,0.000000000000000000e+00
3.100000000000000000e+02,8.554448024779702509e-02,0.000000000000000000e+00
3.110000000000000000e+02,1.292475761586298899e-01,0.000000000000000000e+00
3.120000000000000000e+02,5.129730925094379973e-02,0.000000000000000000e+00
3.130000000000000000e+02,9.897441665068959851e-03,0.000000000000000000e+00
3.140000000000000000e+02,8.385108432262879108e-02,0.000000000000000000e+00
3.150000000000000000e+02,1.687499311651531053e-01,0.000000000000000000e+00
3.160000000000000000e+02,2.054293602390099283e-01,0.000000000000000000e+00
3.170000000000000000e+02,2.412875130959182546e-01,0.000000000000000000e+00
3.180000000000000000e+02,-2.491632974879338588e-02,0.000000000000000000e+00
3.190000000000000000e+02,5.661350733003180612e-03,0.000000000000000000e+00
3.200000000000000000e+02,2.878466974469420792e-01,0.000000000000000000e+00
3.210000000000000000e+02,2.528638029361983008e+00,0.000000000000000000e+00
3.220000000000000000e+02,1.558768402560114286e+00,1.000000000000000000e+00
3.230000000000000000e+02,-4.416861005490405612e-01,0.000000000000000000e+00
3.240000000000000000e+02,-8.866631202853567650e-01,0.000000000000000000e+00
3.250000000000000000e+02,-9.913596482184998671e-01,0.000000000000000000e+00
3.260000000000000000e+02,-8.042951231954071911e-01,0.000000000000000000e+00
3.270000000000000000e+02,-8.529599761023530791e-01,0.000000000000000000e+00
3.280000000000000000e+02,-6.931721250495168629e-01,0.000000000000000000e+00
3.290000000000000000e+02,-6.480607821510050437e-01,0.000000000000000000e+00
3.300000000000000000e+02,-5.900656470518942376e-01,0.000000000000000000e+00
3.310000000000000000e+02,-5.520589528809037860e-01,0.000000000000000000e+00
3.320000000000000000e+02,-3.816333438000027445e-01,0.000000000000000000e+00
3.330000000000000000e+02,-3.726422818385906610e-01,0.000000000000000000e+00
3.340000000000000000e+02,-1.750339587086016391e-01,0.000000000000000000e+00
3.350000000000000000e+02,-1.496568700207356051e-01,0.000000000000000000e+00
3.360000000000000000e+02,4.278011145571825741e-02,0.000000000000000000e+00
3.370000000000000000e+02,1.080739743223051441e-01,0.000000000000000000e+00
3.380000000000000000e+02,1.188218338367486443e-01,0.000000000000000000e+00
3.390000000000000000e+02,6.907966868128324889e-02,0.000000000000000000e+00
3.400000000000000000e+02,1.482021063730746269e-01,0.000000000000000000e+00
3.410000000000000000e+02,7.579027930764533488e-03,0.000000000000000000e+00
3.420000000000000000e+02,-8.773999869837263710e-02,0.000000000000000000e+00
3.430000000000000000e+02,-2.399641415773179701e-02,0.000000000000000000e+00
3.440000000000000000e+02,-3.749808188115759389e-02,0.000000000000000000e+00
3.450000000000000000e+02,4.340448932146798861e-02,0.000000000000000000e+00
3.460000000000000000e+02,4.581885053450575340e-02,0.000000000000000000e+00
3.470000000000000000e+02,9.857922022330189993e-02,0.000000000000000000e+00
3.480000000000000000e+02,8.208813748479321104e-02,0.000000000000000000e+00
3.490000000000000000e+02,1.035288551824714853e-01,0.000000000000000000e+00
3.500000000000000000e+02,8.709862239821511420e-02,0.000000000000000000e+00
3.510000000000000000e+02,6.911548443577740508e-02,0.000000000000000000e+00
3.520000000000000000e+02,8.952184310180810733e-02,0.000000000000000000e+00
3.530000000000000000e+02,2.897461361302577920e-02,0.000000000000000000e+00
3.540000000000000000e+02,7.946788621031591893e-02,0.000000000000000000e+00
3.550000000000000000e+02,-6.729999778148937351e-02,0.000000000000000000e+00
3.560000000000000000e+02,2.612940920403081582e-02,0.000000000000000000e+00
3.570000000000000000e+02,5.077792876061744398e-02,0.000000000000000000e+00
3.580000000000000000e+02,5.908598672182416994e-02,0.000000000000000000e+00
3.590000000000000000e+02,1.364596818148738344e-01,0.000000000000000000e+00
3.600000000000000000e+02,-2.816034914690222074e-02,0.000000000000000000e+00
3.610000000000000000e+02,1.140271105404213059e-01,0.000000000000000000e+00
3.620000000000000000e+02,1.072145493892721901e-01,0.000000000000000000e+00
3.630000000000000000e+02,2.231703090438746651e-01,0.000000000000000000e+00
3.640000000000000000e+02,2.091410733360611340e-01,0.000000000000000000e+00
3.650000000000000000e+02,-1.863825492763728289e-02,0.000000000000000000e+00
3.660000000000000000e+02,-1.834279731346800668e-01,0.000000000000000000e+00
3.670000000000000000e+02,-2.365597623772773897e-02,0.000000000000000000e+00
3.680000000000000000e+02,9.031162585803223508e-02,0.000000000000000000e+00
3.690000000000000000e+02,2.500653344791770039e+00,0.000000000000000000e+00
3.700000000000000000e+02,1.566305319292055520e+00,0.000000000000000000e+00
3.710000000000000000e+02,-4.999204638128688649e-01,1.000000000000000000e+00
3.720000000000000000e+02,-9.799361401021325912e-01,0.000000000000000000e+00
3.730000000000000000e+02,-1.041557751769964790e+00,0.000000000000000000e+00
3.740000000000000000e+02,-8.605520051579522711e-01,0.000000000000000000e+00
3.750000000000000000e+02,-8.389006907292048121e-01,0.000000000000000000e+00
3.760000000000000000e+02,-7.228406872014889739e-01,0.000000000000000000e+00
3.770000000000000000e+02,-6.371998888293117780e-01,0.000000000000000000e+00
3.780000000000000000e+02,-5.399188211953854788e-01,0.000000000000000000e+00
3.790000000000000000e+02,-4.459352948216319668e-01,0.000000000000000000e+00
3.800000000000000000e+02,-3.121245325720607977e-01,0.000000000000000000e+00
3.810000000000000000e+02,-2.429570654927716011e-01,0.000000000000000000e+00
3.820000000000000000e+02,-9.112260495450089093e-02,0.000000000000000000e+00
3.830000000000000000e+02,-3.283575219286624658e-02,0.000000000000000000e+00
3.840000000000000000e+02,1.720961276827732700e-01,0.000000000000000000e+00
3.850000000000000000e+02,2.075968311862817217e-01,0.000000000000000000e+00
3.860000000000000000e+02,1.917149625972881244e-01,0.000000000000000000e+00
3.870000000000000000e+02,5.782735294248202151e-02,0.000000000000000000e+00
3.880000000000000000e+02,2.378625761779550041e-01,0.000000000000000000e+00
3.890000000000000000e+02,1.964026120821461829e-02,0.000000000000000000e+00
3.900000000000000000e+02,5.740325892455138551e-03,0.000000000000000000e+00
3.910000000000000000e+02,-1.153713834930335247e-02,0.000000000000000000e+00
3.920000000000000000e+02,-6.578928932927573248e-02,0.000000000000000000e+00
3.930000000000000000e+02,-3.552256385148322426e-02,0.000000000000000000e+00
3.940000000000000000e+02,1.287364050077463573e-01,0.000000000000000000e+00
3.950000000000000000e+02,1.616947251404346475e-01,0.000000000000000000e+00
3.960000000000000000e+02,1.909906117625216060e-01,0.000000000000000000e+00
3.970000000000000000e+02,2.244144900879455340e-01,0.000000000000000000e+00
3.980000000000000000e+02,2.168787017255915106e-01,0.000000000000000000e+00
3.990000000000000000e+02,1.580472200108807013e-01,0.000000000000000000e+00
4.000000000000000000e+02,1.731754392284216293e-01,0.000000000000000000e+00
4.010000000000000000e+02,5.065879570508844548e-02,0.000000000000000000e+00
4.020000000000000000e+02,1.888118140949879564e-01,0.000000000000000000e+00
4.030000000000000000e+02,1.263503883900661817e-01,0.000000000000000000e+00
4.040000000000000000e+02,1.415524340615940402e-01,0.000000000000000000e+00
4.050000000000000000e+02,1.049572509338402154e-01,0.000000000000000000e+00
4.060000000000000000e+02,1.638203519781036843e-01,0.000000000000000000e+00
4.070000000000000000e+02,-1.365315097569418275e-02,0.000000000000000000e+00
4.080000000000000000e+02,2.076718475223509608e-01,0.000000000000000000e+00
4.090000000000000000e+02,1.815388848398823973e-01,0.000000000000000000e+00
4.100000000000000000e+02,3.554039243443523066e-01,0.000000000000000000e+00
4.110000000000000000e+02,1.767948058946726964e-01,0.000000000000000000e+00
4.120000000000000000e+02,1.671363931158004745e-01,0.000000000000000000e+00
4.130000000000000000e+02,7.472608196959053609e-03,0.000000000000000000e+00
4.140000000000000000e+02,1.975673463048842615e+00,0.000000000000000000e+00
4.150000000000000000e+02,2.204870504138860099e+00,0.000000000000000000e+00
4.160000000000000000e+02,-1.309308289883072962e-01,1.000000000000000000e+00
4.170000000000000000e+02,-6.980577711412949693e-01,0.000000000000000000e+00
4.180000000000000000e+02,-9.141004845032105752e-01,0.000000000000000000e+00
4.190000000000000000e+02,-5.781005279661303176e-01,0.000000000000000000e+00
4.200000000000000000e+02,-7.755168168552053487e-01,0.000000000000000000e+00
4.210000000000000000e+02,-6.331356169949023949e-01,0.000000000000000000e+00
4.220000000000000000e+02,-6.062844438358339083e-01,0.000000000000000000e+00
4.230000000000000000e+02,-5.000358447187850386e-01,0.000000000000000000e+00
4.240000000000000000e+02,-4.778235912918677442e-01,0.000000000000000000e+00
4.250000000000000000e+02,-3.381661651749730546e-01,0.000000000000000000e+00
4.260000000000000000e+02,-3.275748752780625050e-01,0.000000000000000000e+00
4.270000000000000000e+02,-1.129398875624192805e-01,0.000000000000000000e+00
4.280000000000000000e+02,-6.884243894562136479e-02,0.000000000000000000e+00
4.290000000000000000e+02,7.809803801475459495e-02,0.000000000000000000e+00
4.300000000000000000e+02,1.946412651956113959e-01,0.000000000000000000e+00
4.310000000000000000e+02,2.760269341977767410e-01,0.000000000000000000e+00
4.320000000000000000e+02,8.176931188596414657e-02,0.000000000000000000e+00
4.330000000000000000e+02,1.444507285869926216e-01,0.000000000000000000e+00
4.340000000000000000e+02,-1.093618918767232384e-01,0.000000000000000000e+00
4.350000000000000000e+02,-4.192540163150587466e-03,0.000000000000000000e+00
4.360000000000000000e+02,-1.550643746131268874e-01,0.000000000000000000e+00
4.370000000000000000e+02,-2.376454833925909296e-02,0.000000000000000000e+00
4.380000000000000000e+02,-7.083469110228476917e-02,0.000000000000000000e+00
4.390000000000000000e+02,7.350928333444153862e-02,0.000000000000000000e+00
4.400000000000000000e+02,4.828127287975304133e-02,0.000000000000000000e+00
4.410000000000000000e+02,2.006164700508203669e-01,0.000000000000000000e+00
4.420000000000000000e+02,1.607209793807152787e-01,0.000000000000000000e+00
4.430000000000000000e+02,9.588416987827429183e-02,0.000000000000000000e+00
4.440000000000000000e+02,8.693321978211202006e-02,0.000000000000000000e+00
4.450000000000000000e+02,1.613960102532400742e-01,0.000000000000000000e+00
4.460000000000000000e+02,9.605939044983076436e-02,0.000000000000000000e+00
4.470000000000000000e+02,-3.555284768169376768e-03,0.000000000000000000e+00
4.480000000000000000e+02,3.257768416817731494e-02,0.000000000000000000e+00
4.490000000000000000e+02,6.122210940455864031e-02,0.000000000000000000e+00
4.500000000000000000e+02,4.384793302425885053e-02,0.000000000000000000e+00
4.510000000000000000e+02,3.303484469186794559e-02,0.000000000000000000e+00
4.520000000000000000e+02,-1.038314630111542534e-02,0.000000000000000000e+00
4.530000000000000000e+02,4.567659126883695520e-02,0.000000000000000000e+00
4.540000000000000000e+02,1.671352315210262451e-01,0.000000000000000000e+00
4.550000000000000000e+02,1.792542187438831702e-01,0.000000000000000000e+00
4.560000000000000000e+02,1.146610352717158526e-01,0.000000000000000000e+00
4.570000000000000000e+02,2.959128229897094956e-03,0.000000000000000000e+00
4.580000000000000000e+02,-9.653949371048732575e-02,0.000000000000000000e+00
4.590000000000000000e+02,-1.618815284808530763e-02,0.000000000000000000e+00
4.600000000000000000e+02,3.863747489017577696e-01,0.000000000000000000e+00
4.610000000000000000e+02,2.582716436523306847e+00,0.000000000000000000e+00
4.620000000000000000e+02,6.874750009250487626e-01,1.000000000000000000e+00
4.630000000000000000e+02,-6.156403001104637784e-01,0.000000000000000000e+00
4.640000000000000000e+02,-8.232861247140976779e-01,0.000000000000000000e+00
4.650000000000000000e+02,-8.383409922233699962e-01,0.000000000000000000e+00
4.660000000000000000e+02,-6.793287606921610822e-01,0.000000000000000000e+00
4.670000000000000000e+02,-6.004213642692245445e-01,0.000000000000000000e+00
4.680000000000000000e+02,-6.119499213966791418e-01,0.000000000000000000e+00
4.690000000000000000e+02,-6.483888053351244407e-01,0.000000000000000000e+00
4.700000000000000000e+02,-5.019610113418384589e-01,0.000000000000000000e+00
4.710000000000000000e+02,-3.286624134323847812e-01,0.000000000000000000e+00
4.720000000000000000e+02,-3.017679001668576166e-01,0.000000000000000000e+00
4.730000000000000000e+02,-2.332638730614240707e-01,0.000000000000000000e+00
4.740000000000000000e+02,-1.602180786250604339e-01,0.000000000000000000e+00
4.750000000000000000e+02,4.314321932676304372e-02,0.000000000000000000e+00
4.760000000000000000e+02,2.249436613521792472e-01,0.000000000000000000e+00
4.770000000000000000e+02,2.025103348301258710e-01,0.000000000000000000e+00
4.780000000000000000e+02,4.365186984460483338e-02,0.000000000000000000e+00
4.790000000000000000e+02,5.469501090743685706e-02,0.000000000000000000e+00
4.800000000000000000e+02,-1.021000759126775431e-01,0.000000000000000000e+00
4.810000000000000000e+02,-2.738999329482944001e-01,0.000000000000000000e+00
4.820000000000000000e+02,-2.197213635656635744e-01,0.000000000000000000e+00
4.830000000000000000e+02,-2.706468623092396220e-01,0.000000000000000000e+00
4.840000000000000000e+02,-2.853146137252067227e-01,0.000000000000000000e+00
4.850000000000000000e+02,-2.236442743072826200e-01,0.000000000000000000e+00
4.860000000000000000e+02,-1.841112954126463697e-01,0.000000000000000000e+00
4.870000000000000000e+02,4.074398947351175193e-02,0.000000000000000000e+00
4.880000000000000000e+02,1.741106741633596453e-02,0.000000000000000000e+00
4.890000000000000000e+02,1.473755523725685593e-02,0.000000000000000000e+00
4.900000000000000000e+02,1.490090147279155008e-01,0.000000000000000000e+00
4.910000000000000000e+02,7.278778680591710404e-02,0.000000000000000000e+00
4.920000000000000000e+02,6.550604691918458788e-02,0.000000000000000000e+00
4.930000000000000000e+02,-6.518484642029895131e-03,0.000000000000000000e+00
4.940000000000000000e+02,1.620045681227017670e-02,0.000000000000000000e+00
4.950000000000000000e+02,1.261119467025560714e-01,0.000000000000000000e+00
4.960000000000000000e+02,8.758724688421973270e-02,0.000000000000000000e+00
4.970000000000000000e+02,-2.667329988776202115e-02,0.000000000000000000e+00
4.980000000000000000e+02,8.973513924695111776e-02,0.000000000000000000e+00
4.990000000000000000e+02,1.767032612269152092e-01,0.000000000000000000e+00
5.000000000000000000e+02,2.535186294200498236e-01,0.000000000000000000e+00
5.010000000000000000e+02,2.235877681115194249e-01,0.000000000000000000e+00
5.020000000000000000e+02,-1.240057237959816677e-01,0.000000000000000000e+00
5.030000000000000000e+02,5.505961586649636003e-02,0.000000000000000000e+00
5.040000000000000000e+02,2.860238903324010748e-02,0.000000000000000000e+00
5.050000000000000000e+02,1.013617455399841383e+00,0.000000000000000000e+00
5.060000000000000000e+02,2.441548110226861912e+00,0.000000000000000000e+00
5.070000000000000000e+02,4.012740421694855897e-01,1.000000000000000000e+00
5.080000000000000000e+02,-4.463969292787621779e-01,0.000000000000000000e+00
5.090000000000000000e+02,-5.567196790810020612e-01,0.000000000000000000e+00
5.100000000000000000e+02,-5.212297860626855517e-01,0.000000000000000000e+00
5.110000000000000000e+02,-4.636438489698810339e-01,0.000000000000000000e+00
5.120000000000000000e+02,-3.626790955974166786e-01,0.000000000000000000e+00
5.130000000000000000e+02,-3.353730709647825270e-01,0.000000000000000000e+00
5.140000000000000000e+02,-2.822135739702353874e-01,0.000000000000000000e+00
5.150000000000000000e+02,-2.623911146712857301e-01,0.000000000000000000e+00
5.160000000000000000e+02,-1.719964699322000523e-01,0.000000000000000000e+00
5.170000000000000000e+02,-1.035005464174669071e-01,0.000000000000000000e+00
5.180000000000000000e+02,-3.998618040225677267e-02,0.000000000000000000e+00
5.190000000000000000e+02,1.884384836464631230e-01,0.000000000000000000e+00
5.200000000000000000e+02,2.140382444712380094e-01,0.000000000000000000e+00
5.210000000000000000e+02,3.272640251155815028e-01,0.000000000000000000e+00
5.220000000000000000e+02,4.356263267171849862e-01,0.000000000000000000e+00
5.230000000000000000e+02,3.702113029466314043e-01,0.000000000000000000e+00
5.240000000000000000e+02,1.668041871410604893e-01,0.000000000000000000e+00
5.250000000000000000e+02,6.376318688434361170e-02,0.000000000000000000e+00
5.260000000000000000e+02,-2.153937516865542939e-02,0.000000000000000000e+00
5.270000000000000000e+02,-3.912207830542660698e-03,0.000000000000000000e+00
5.280000000000000000e+02,-1.048420016075950478e-01,0.000000000000000000e+00
5.290000000000000000e+02,-7.936697894684661969e-02,0.000000000000000000e+00
5.300000000000000000e+02,-1.183574337984402147e-01,0.000000000000000000e+00
5.310000000000000000e+02,-7.370665185775750194e-02,0.000000000000000000e+00
5.320000000000000000e+02,4.797585580980894687e-02,0.000000000000000000e+00
5.330000000000000000e+02,1.084263458913017897e-01,0.000000000000000000e+00
5.340000000000000000e+02,1.108866025809828598e-01,0.000000000000000000e+00
5.350000000000000000e+02,4.203990923052019352e-02,0.000000000000000000e+00
5.360000000000000000e+02,7.028552833770357333e-02,0.000000000000000000e+00
5.370000000000000000e+02,4.170789802064876067e-02,0.000000000000000000e+00
5.380000000000000000e+02,6.581524938431866645e-02,0.000000000000000000e+00
5.390000000000000000e+02,-8.269231714661011423e-02,0.000000000000000000e+00
5.400000000000000000e+02,6.045231943592572349e-02,0.000000000000000000e+00
5.410000000000000000e+02,6.057374777178829890e-03,0.000000000000000000e+00
5.420000000000000000e+02,-7.503014539070462785e-02,0.000000000000000000e+00
5.430000000000000000e+02,1.961412526276812979e-02,0.000000000000000000e+00
5.440000000000000000e+02,4.559928659478505036e-02,0.000000000000000000e+00
5.450000000000000000e+02,2.286206273923940546e-01,0.000000000000000000e+00
5.460000000000000000e+02,8.445910220271990454e-02,0.000000000000000000e+00
5.470000000000000000e+02,-1.185588455818717829e-01,0.000000000000000000e+00
5.480000000000000000e+02,-4.899343542844764726e-02,0.000000000000000000e+00
5.490000000000000000e+02,-8.938140697594808282e-02,0.000000000000000000e+00
5.500000000000000000e+02,6.353451301960655329e-01,0.000000000000000000e+00
5.510000000000000000e+02,2.346260778417546877e+00,0.000000000000000000e+00
5.520000000000000000e+02,3.546350682840162527e-01,1.000000000000000000e+00
5.530000000000000000e+02,-5.981051888450159559e-01,0.000000000000000000e+00
5.540000000000000000e+02,-7.814216908671408612e-01,0.000000000000000000e+00
5.550000000000000000e+02,-5.367655969907449975e-01,0.000000000000000000e+00
5.560000000000000000e+02,-5.527068923330061834e-01,0.000000000000000000e+00
5.570000000000000000e+02,-4.930779962663915383e-01,0.000000000000000000e+00
5.580000000000000000e+02,-4.412643465918625330e-01,0.000000000000000000e+00
5.590000000000000000e+02,-4.013692083883314554e-01,0.000000000000000000e+00
5.600000000000000000e+02,-2.151464726862502563e-01,0.000000000000000000e+00
5.610000000000000000e+02,-2.742698749724026830e-01,0.000000000000000000e+00
5.620000000000000000e+02,-1.674544800543324719e-01,0.000000000000000000e+00
5.630000000000000000e+02,-5.236382547912949575e-02,0.000000000000000000e+00
5.640000000000000000e+02,2.234306540963609811e-02,0.000000000000000000e+00
5.650000000000000000e+02,2.061535745990392965e-01,0.000000000000000000e+00
5.660000000000000000e+02,1.985033737472294280e-01,0.000000000000000000e+00
5.670000000000000000e+02,3.029177251847033903e-01,0.000000000000000000e+00
5.680000000000000000e+02,1.459317218102548497e-01,0.000000000000000000e+00
5.690000000000000000e+02,1.720197916441891239e-01,0.000000000000000000e+00
5.700000000000000000e+02,-7.387849305672175571e-02,0.000000000000000000e+00
5.710000000000000000e+02,-5.162255572774207546e-02,0.000000000000000000e+00
5.720000000000000000e+02,-1.136625204532391714e-01,0.000000000000000000e+00
5.730000000000000000e+02,-1.135908560712787785e-01,0.000000000000000000e+00
5.740000000000000000e+02,-1.588402343942637851e-01,0.000000000000000000e+00
5.750000000000000000e+02,-9.938911577637157824e-02,0.000000000000000000e+00
5.760000000000000000e+02,-1.360509464592479512e-01,0.000000000000000000e+00
5.770000000000000000e+02,3.200106415779211538e-02,0.000000000000000000e+00
5.780000000000000000e+02,-9.536195068106097933e-03,0.000000000000000000e+00
5.790000000000000000e+02,5.024432631380740949e-02,0.000000000000000000e+00
5.800000000000000000e+02,2.244235044055642794e-02,0.000000000000000000e+00
5.810000000000000000e+02,1.235776898902320453e-01,0.000000000000000000e+00
5.820000000000000000e+02,3.932075672969454622e-03,0.000000000000000000e+00
5.830000000000000000e+02,3.484811352298534948e-02,0.000000000000000000e+00
5.840000000000000000e+02,4.833276111217897630e-02,0.000000000000000000e+00
5.850000000000000000e+02,1.537479645684151075e-01,0.000000000000000000e+00
5.860000000000000000e+02,-8.740591325264783495e-02,0.000000000000000000e+00
5.870000000000000000e+02,1.099415367320338149e-01,0.000000000000000000e+00
5.880000000000000000e+02,-7.116824432350031104e-04,0.000000000000000000e+00
5.890000000000000000e+02,2.432302937404821896e-01,0.000000000000000000e+00
5.900000000000000000e+02,1.849179498449170234e-01,0.000000000000000000e+00
5.910000000000000000e+02,2.150798205790780682e-01,0.000000000000000000e+00
5.920000000000000000e+02,-1.804381741258763716e-01,0.000000000000000000e+00
5.930000000000000000e+02,1.336272120841477395e-01,0.000000000000000000e+00
5.940000000000000000e+02,-4.511564501251110609e-02,0.000000000000000000e+00
5.950000000000000000e+02,1.221112705987269953e+00,0.000000000000000000e+00
5.960000000000000000e+02,2.159753121810966903e+00,0.000000000000000000e+00
5.970000000000000000e+02,2.590904466022530758e-02,1.000000000000000000e+00
5.980000000000000000e+02,-6.424386921744099643e-01,0.000000000000000000e+00
5.990000000000000000e+02,-5.894504566156837377e-01,0.000000000000000000e+00
6.000000000000000000e+02,-4.741714203169259401e-01,0.000000000000000000e+00
6.010000000000000000e+02,-5.428322259241132874e-01,0.000000000000000000e+00
6.020000000000000000e+02,-4.316462598025203601e-01,0.000000000000000000e+00
6.030000000000000000e+02,-4.507754809832572596e-01,0.000000000000000000e+00
6.040000000000000000e+02,-2.274535408724805419e-01,0.000000000000000000e+00
6.050000000000000000e+02,-3.268422800403114059e-01,0.000000000000000000e+00
6.060000000000000000e+02,-2.278788192555602776e-01,0.000000000000000000e+00
6.070000000000000000e+02,-1.859281187871378027e-01,0.000000000000000000e+00
6.080000000000000000e+02,-6.487645723049688395e-02,0.000000000000000000e+00
6.090000000000000000e+02,3.084013288890804713e-02,0.000000000000000000e+00
6.100000000000000000e+02,1.496763341082926191e-01,0.000000000000000000e+00
6.110000000000000000e+02,1.232370999205328471e-01,0.000000000000000000e+00
6.120000000000000000e+02,1.800151224158966223e-01,0.000000000000000000e+00
6.130000000000000000e+02,1.599249566198619188e-01,0.000000000000000000e+00
6.140000000000000000e+02,-1.127393076871263666e-02,0.000000000000000000e+00
6.150000000000000000e+02,-5.618102771030501763e-02,0.000000000000000000e+00
6.160000000000000000e+02,-1.878504168828320220e-01,0.000000000000000000e+00
6.170000000000000000e+02,-8.017239925011200585e-02,0.000000000000000000e+00
6.180000000000000000e+02,-9.621679826288750959e-02,0.000000000000000000e+00
6.190000000000000000e+02,-1.895113520181634370e-01,0.000000000000000000e+00
6.200000000000000000e+02,-1.274300902062010521e-01,0.000000000000000000e+00
6.210000000000000000e+02,-7.194524091989787373e-02,0.000000000000000000e+00
6.220000000000000000e+02,-4.325598159394048597e-02,0.000000000000000000e+00
6.230000000000000000e+02,4.723500933766501542e-02,0.000000000000000000e+00
6.240000000000000000e+02,-2.621703707350126270e-02,0.000000000000000000e+00
6.250000000000000000e+02,-2.079962877395769363e-02,0.000000000000000000e+00
6.260000000000000000e+02,-4.965008637105066541e-03,0.000000000000000000e+00
6.270000000000000000e+02,-4.405940770359471209e-02,0.000000000000000000e+00
6.280000000000000000e+02,-1.497460322027130974e-01,0.000000000000000000e+00
6.290000000000000000e+02,-3.166922112821762142e-02,0.000000000000000000e+00
6.300000000000000000e+02,-8.227252782705868350e-02,0.000000000000000000e+00
6.310000000000000000e+02,-6.337803124525510923e-02,0.000000000000000000e+00
6.320000000000000000e+02,-1.341904142619689544e-01,0.000000000000000000e+00
6.330000000000000000e+02,1.245572317278731411e-01,0.000000000000000000e+00
6.340000000000000000e+02,6.956277218055458011e-02,0.000000000000000000e+00
6.350000000000000000e+02,3.517486813408350621e-02,0.000000000000000000e+00
6.360000000000000000e+02,-2.788528868264266158e-01,0.000000000000000000e+00
6.370000000000000000e+02,-3.121231465646179606e-02,0.000000000000000000e+00
6.380000000000000000e+02,-1.171866193404134671e-01,0.000000000000000000e+00
6.390000000000000000e+02,1.570722687513606219e+00,0.000000000000000000e+00
6.400000000000000000e+02,1.905655188154732782e+00,0.000000000000000000e+00
6.410000000000000000e+02,-1.315131187235315524e-01,1.000000000000000000e+00
6.420000000000000000e+02,-6.236205655592506059e-01,0.000000000000000000e+00
6.430000000000000000e+02,-7.705720874089450056e-01,0.000000000000000000e+00
6.440000000000000000e+02,-5.847390854182979991e-01,0.000000000000000000e+00
6.450000000000000000e+02,-5.668793402073680765e-01,0.000000000000000000e+00
6.460000000000000000e+02,-3.438112941019770830e-01,0.000000000000000000e+00
6.470000000000000000e+02,-4.643329112273634762e-01,0.000000000000000000e+00
6.480000000000000000e+02,-3.465163417917986877e-01,0.000000000000000000e+00
6.490000000000000000e+02,-2.627216071854015511e-01,0.000000000000000000e+00
6.500000000000000000e+02,-2.518937921183145301e-01,0.000000000000000000e+00
6.510000000000000000e+02,-1.625317259200494413e-01,0.000000000000000000e+00
6.520000000000000000e+02,2.854698219898491734e-02,0.000000000000000000e+00
6.530000000000000000e+02,8.476309162002333003e-03,0.000000000000000000e+00
6.540000000000000000e+02,1.770610870729218966e-01,0.000000000000000000e+00
6.550000000000000000e+02,2.351103811566339075e-01,0.000000000000000000e+00
6.560000000000000000e+02,2.511608170776303828e-01,0.000000000000000000e+00
6.570000000000000000e+02,1.325327938703310671e-01,0.000000000000000000e+00
6.580000000000000000e+02,6.519726364016568965e-02,0.000000000000000000e+00
6.590000000000000000e+02,4.322704518430393363e-03,0.000000000000000000e+00
6.600000000000000000e+02,3.267281004148801099e-02,0.000000000000000000e+00
6.610000000000000000e+02,-7.715201338510238593e-02,0.000000000000000000e+00
6.620000000000000000e+02,-1.188121313085330893e-01,0.000000000000000000e+00
6.630000000000000000e+02,-4.445728113767390827e-02,0.000000000000000000e+00
6.640000000000000000e+02,7.159030176298831691e-03,0.000000000000000000e+00
6.650000000000000000e+02,-1.349130686517516775e-01,0.000000000000000000e+00
6.660000000000000000e+02,5.911668768521605860e-02,0.000000000000000000e+00
6.670000000000000000e+02,4.980573580632963876e-02,0.000000000000000000e+00
6.680000000000000000e+02,7.783521077621351203e-02,0.000000000000000000e+00
6.690000000000000000e+02,7.648021113494787859e-02,0.000000000000000000e+00
6.700000000000000000e+02,2.299353180852390169e-02,0.000000000000000000e+00
6.710000000000000000e+02,7.639365348672254308e-02,0.000000000000000000e+00
6.720000000000000000e+02,3.237238424169028295e-02,0.000000000000000000e+00
6.730000000000000000e+02,4.928367713443743137e-02,0.000000000000000000e+00
6.740000000000000000e+02,-9.754169291664084585e-02,0.000000000000000000e+00
6.750000000000000000e+02,-3.289141830301048341e-02,0.000000000000000000e+00
6.760000000000000000e+02,7.894799733534176023e-02,0.000000000000000000e+00
6.770000000000000000e+02,1.733356721584030924e-01,0.000000000000000000e+00
6.780000000000000000e+02,1.891420927623456427e-01,0.000000000000000000e+00
6.790000000000000000e+02,4.478272227867478167e-02,0.000000000000000000e+00
6.800000000000000000e+02,-2.177740754524988276e-01,0.000000000000000000e+00
6.810000000000000000e+02,8.945006099852280401e-02,0.000000000000000000e+00
6.820000000000000000e+02,-6.970053508637687190e-02,0.000000000000000000e+00
6.830000000000000000e+02,1.607128326985622691e+00,0.000000000000000000e+00
6.840000000000000000e+02,1.899546865717970823e+00,0.000000000000000000e+00
6.850000000000000000e+02,-1.893262285277596546e-01,1.000000000000000000e+00
6.860000000000000000e+02,-5.284805757810414617e-01,0.000000000000000000e+00
6.870000000000000000e+02,-8.106145742786246000e-01,0.000000000000000000e+00
6.880000000000000000e+02,-5.846626658868615545e-01,0.000000000000000000e+00
6.890000000000000000e+02,-6.254526599225654904e-01,0.000000000000000000e+00
6.900000000000000000e+02,-4.062328607814715831e-01,0.000000000000000000e+00
6.910000000000000000e+02,-5.321335667920316093e-01,0.000000000000000000e+00
6.920000000000000000e+02,-3.126946950517014434e-01,0.000000000000000000e+00
6.930000000000000000e+02,-3.547650190675604720e-01,0.000000000000000000e+00
6.940000000000000000e+02,-2.094805300989557861e-01,0.000000000000000000e+00
6.950000000000000000e+02,-2.921936368305180221e-01,0.000000000000000000e+00
6.960000000000000000e+02,2.984176706601731829e-02,0.000000000000000000e+00
6.970000000000000000e+02,-1.153488927822016522e-03,0.000000000000000000e+00
6.980000000000000000e+02,2.295986345871083023e-01,0.000000000000000000e+00
6.990000000000000000e+02,2.212497486110990563e-01,0.000000000000000000e+00
7.000000000000000000e+02,2.167147888272390188e-01,0.000000000000000000e+00
7.010000000000000000e+02,2.166003659027228301e-01,0.000000000000000000e+00
7.020000000000000000e+02,2.453295595719254540e-01,0.000000000000000000e+00
7.030000000000000000e+02,1.537228730317947989e-01,0.000000000000000000e+00
7.040000000000000000e+02,6.064407026577500054e-02,0.000000000000000000e+00
7.050000000000000000e+02,2.707836927854814432e-02,0.000000000000000000e+00
7.060000000000000000e+02,6.443690105525680389e-02,0.000000000000000000e+00
7.070000000000000000e+02,-3.137137455299713468e-02,0.000000000000000000e+00
7.080000000000000000e+02,5.584481800337118967e-02,0.000000000000000000e+00
7.090000000000000000e+02,-4.066323122552481517e-02,0.000000000000000000e+00
7.100000000000000000e+02,1.695739208749362167e-02,0.000000000000000000e+00
7.110000000000000000e+02,1.356121764612479297e-01,0.000000000000000000e+00
7.120000000000000000e+02,2.116072659817554991e-01,0.000000000000000000e+00
7.130000000000000000e+02,1.757264582928445840e-01,0.000000000000000000e+00
7.140000000000000000e+02,1.092512451230797932e-01,0.000000000000000000e+00
7.150000000000000000e+02,1.010366614564906923e-01,0.000000000000000000e+00
7.160000000000000000e+02,9.563065572723547514e-02,0.000000000000000000e+00
7.170000000000000000e+02,3.406044124482014712e-02,0.000000000000000000e+00
7.180000000000000000e+02,2.843625663983935514e-02,0.000000000000000000e+00
7.190000000000000000e+02,5.720565645921861508e-03,0.000000000000000000e+00
7.200000000000000000e+02,1.399115325837023138e-01,0.000000000000000000e+00
7.210000000000000000e+02,1.314534444044599404e-01,0.000000000000000000e+00
7.220000000000000000e+02,2.307424986178978066e-01,0.000000000000000000e+00
7.230000000000000000e+02,1.004512736293017433e-01,0.000000000000000000e+00
7.240000000000000000e+02,2.838486674914861285e-02,0.000000000000000000e+00
7.250000000000000000e+02,-1.262953144685869389e-01,0.000000000000000000e+00
7.260000000000000000e+02,2.720589398106232348e-02,0.000000000000000000e+00
7.270000000000000000e+02,3.478721272938591347e-01,0.000000000000000000e+00
7.280000000000000000e+02,2.267208604944136230e+00,0.000000000000000000e+00
7.290000000000000000e+02,1.049843484978466357e+00,1.000000000000000000e+00
7.300000000000000000e+02,-4.399639928701752356e-01,0.000000000000000000e+00
7.310000000000000000e+02,-7.793844405417257315e-01,0.000000000000000000e+00
7.320000000000000000e+02,-8.199804603877172138e-01,0.000000000000000000e+00
7.330000000000000000e+02,-6.513996992157883303e-01,0.000000000000000000e+00
7.340000000000000000e+02,-6.114952140508120859e-01,0.000000000000000000e+00
7.350000000000000000e+02,-5.565993182618399482e-01,0.000000000000000000e+00
7.360000000000000000e+02,-5.510920463180494222e-01,0.000000000000000000e+00
7.370000000000000000e+02,-4.979775614260901762e-01,0.000000000000000000e+00
7.380000000000000000e+02,-3.886244639611829976e-01,0.000000000000000000e+00
7.390000000000000000e+02,-2.701484451090809258e-01,0.000000000000000000e+00
7.400000000000000000e+02,-2.179556925343734131e-01,0.000000000000000000e+00
7.410000000000000000e+02,-1.018222983766069872e-01,0.000000000000000000e+00
7.420000000000000000e+02,2.629376247898613031e-02,0.000000000000000000e+00
7.430000000000000000e+02,1.381691282224333794e-01,0.000000000000000000e+00
7.440000000000000000e+02,1.743304649946166851e-01,0.000000000000000000e+00
7.450000000000000000e+02,1.915517971565149358e-01,0.000000000000000000e+00
7.460000000000000000e+02,1.459650701405056650e-01,0.000000000000000000e+00
7.470000000000000000e+02,8.479426411886505088e-02,0.000000000000000000e+00
7.480000000000000000e+02,8.198742095803987495e-02,0.000000000000000000e+00
7.490000000000000000e+02,1.343113523500293581e-02,0.000000000000000000e+00
7.500000000000000000e+02,-2.531298895543082281e-02,0.000000000000000000e+00
7.510000000000000000e+02,-1.178357727460342397e-01,0.000000000000000000e+00
7.520000000000000000e+02,-7.273492587304859758e-02,0.000000000000000000e+00
7.530000000000000000e+02,-6.870080303167711011e-02,0.000000000000000000e+00
7.540000000000000000e+02,3.326637945462292828e-02,0.000000000000000000e+00
7.550000000000000000e+02,1.041890141500561306e-01,0.000000000000000000e+00
7.560000000000000000e+02,1.571859447743672311e-01,0.000000000000000000e+00
7.570000000000000000e+02,1.051415491227581517e-01,0.000000000000000000e+00
7.580000000000000000e+02,1.181743440178914945e-01,0.000000000000000000e+00
7.590000000000000000e+02,4.061274919543844675e-02,0.000000000000000000e+00
7.600000000000000000e+02,3.617771004173687271e-02,0.000000000000000000e+00
7.610000000000000000e+02,4.501573449321045334e-02,0.000000000000000000e+00
7.620000000000000000e+02,6.511401692685642173e-02,0.000000000000000000e+00
7.630000000000000000e+02,7.522933602647854934e-02,0.000000000000000000e+00
7.640000000000000000e+02,1.052312489556181535e-01,0.000000000000000000e+00
7.650000000000000000e+02,3.135725961863660566e-02,0.000000000000000000e+00
7.660000000000000000e+02,-4.156414473955755140e-02,0.000000000000000000e+00
7.670000000000000000e+02,4.584557782365858425e-02,0.000000000000000000e+00
7.680000000000000000e+02,1.910930752181288772e-01,0.000000000000000000e+00
7.690000000000000000e+02,3.639825247606244818e-01,0.000000000000000000e+00
7.700000000000000000e+02,1.822441772486498579e-01,0.000000000000000000e+00
7.710000000000000000e+02,-2.793500357679977453e-02,0.000000000000000000e+00
7.720000000000000000e+02,3.829608508865701283e-03,0.000000000000000000e+00
7.730000000000000000e+02,-1.060030431820200431e-02,0.000000000000000000e+00
7.740000000000000000e+02,8.558539694212446980e-01,0.000000000000000000e+00
7.750000000000000000e+02,2.554914564378742536e+00,0.000000000000000000e+00
7.760000000000000000e+02,6.397761055106510053e-01,1.000000000000000000e+00
7.770000000000000000e+02,-5.484521726662012764e-01,0.000000000000000000e+00
7.780000000000000000e+02,-8.240469936502374804e-01,0.000000000000000000e+00
7.790000000000000000e+02,-7.282671528746158529e-01,0.000000000000000000e+00
7.800000000000000000e+02,-6.940227688515793192e-01,0.000000000000000000e+00
7.810000000000000000e+02,-5.966152448536333752e-01,0.000000000000000000e+00
7.820000000000000000e+02,-5.925334781718266663e-01,0.000000000000000000e+00
7.830000000000000000e+02,-4.817960240727141574e-01,0.000000000000000000e+00
7.840000000000000000e+02,-4.038228582938147571e-01,0.000000000000000000e+00
7.850000000000000000e+02,-3.722151473820385914e-01,0.000000000000000000e+00
7.860000000000000000e+02,-2.650278592356741236e-01,0.000000000000000000e+00
7.870000000000000000e+02,-1.688357749634138150e-01,0.000000000000000000e+00
7.880000000000000000e+02,-6.094285172463912575e-02,0.000000000000000000e+00
7.890000000000000000e+02,7.422917514894179780e-02,0.000000000000000000e+00
7.900000000000000000e+02,7.878041354639918337e-02,0.000000000000000000e+00
7.910000000000000000e+02,1.016632713765209667e-01,0.000000000000000000e+00
7.920000000000000000e+02,1.313526387727949052e-01,0.000000000000000000e+00
7.930000000000000000e+02,1.459466992827570531e-01,0.000000000000000000e+00
7.940000000000000000e+02,3.234804615282062951e-02,0.000000000000000000e+00
7.950000000000000000e+02,8.219187125091589885e-02,0.000000000000000000e+00
7.960000000000000000e+02,-1.194360796724630303e-01,0.000000000000000000e+00
7.970000000000000000e+02,-7.605944044833574946e-02,0.000000000000000000e+00
7.980000000000000000e+02,-6.181757447528858640e-02,0.000000000000000000e+00
7.990000000000000000e+02,-7.693676689619079190e-02,0.000000000000000000e+00
8.000000000000000000e+02,5.981895498495162083e-02,0.000000000000000000e+00
8.010000000000000000e+02,8.128741912516396217e-02,0.000000000000000000e+00
8.020000000000000000e+02,7.105389231081706003e-02,0.000000000000000000e+00
8.030000000000000000e+02,1.491508538097313097e-01,0.000000000000000000e+00
8.040000000000000000e+02,1.259833373056884753e-01,0.000000000000000000e+00
8.050000000000000000e+02,1.900641653572708936e-02,0.000000000000000000e+00
8.060000000000000000e+02,7.322582423557857934e-02,0.000000000000000000e+00
8.070000000000000000e+02,2.559004109848810049e-02,0.000000000000000000e+00
8.080000000000000000e+02,-1.930979385351539943e-02,0.000000000000000000e+00
8.090000000000000000e+02,-4.132341002865953794e-02,0.000000000000000000e+00
8.100000000000000000e+02,-5.635659353392119542e-02,0.000000000000000000e+00
8.110000000000000000e+02,-1.518402856808857837e-02,0.000000000000000000e+00
8.120000000000000000e+02,9.311546173925436265e-02,0.000000000000000000e+00
8.130000000000000000e+02,3.773739521561406823e-02,0.000000000000000000e+00
8.140000000000000000e+02,1.805080406453983821e-01,0.000000000000000000e+00
8.150000000000000000e+02,9.201184757033561978e-02,0.000000000000000000e+00
8.160000000000000000e+02,1.464636585230241483e-01,0.000000000000000000e+00
8.170000000000000000e+02,1.242946118025452518e-01,0.000000000000000000e+00
8.180000000000000000e+02,-1.610677104736964460e-01,0.000000000000000000e+00
8.190000000000000000e+02,-9.747951157694746682e-02,0.000000000000000000e+00
8.200000000000000000e+02,-1.578528497565653832e-01,0.000000000000000000e+00
8.210000000000000000e+02,5.687956318645941423e-01,0.000000000000000000e+00
8.220000000000000000e+02,2.592236449049394320e+00,0.000000000000000000e+00
8.230000000000000000e+02,9.076598024892149619e-01,1.000000000000000000e+00
8.240000000000000000e+02,-5.523862349905306335e-01,0.000000000000000000e+00
8.250000000000000000e+02,-8.392159758988048113e-01,0.000000000000000000e+00
8.260000000000000000e+02,-8.207796536189256864e-01,0.000000000000000000e+00
8.270000000000000000e+02,-7.918543642445771136e-01,0.000000000000000000e+00
8.280000000000000000e+02,-6.216365241061150293e-01,0.000000000000000000e+00
8.290000000000000000e+02,-5.541743528735694202e-01,0.000000000000000000e+00
8.300000000000000000e+02,-5.174489676559365092e-01,0.000000000000000000e+00
8.310000000000000000e+02,-4.546272666322619949e-01,0.000000000000000000e+00
8.320000000000000000e+02,-3.820764296685300598e-01,0.000000000000000000e+00
8.330000000000000000e+02,-2.945119993613022347e-01,0.000000000000000000e+00
8.340000000000000000e+02,-1.727355191472694507e-01,0.000000000000000000e+00
8.350000000000000000e+02,2.685885305096786732e-02,0.000000000000000000e+00
8.360000000000000000e+02,2.511449268241155303e-02,0.000000000000000000e+00
8.370000000000000000e+02,2.210374580335540962e-01,0.000000000000000000e+00
8.380000000000000000e+02,2.023090722884645365e-01,0.000000000000000000e+00
8.390000000000000000e+02,2.624199312450140043e-01,0.000000000000000000e+00
8.400000000000000000e+02,1.834250358745286302e-01,0.000000000000000000e+00
8.410000000000000000e+02,1.426300365222666067e-01,0.000000000000000000e+00
8.420000000000000000e+02,1.166848427104841268e-01,0.000000000000000000e+00
8.430000000000000000e+02,2.239271862577760230e-02,0.000000000000000000e+00
8.440000000000000000e+02,-3.483321619476096448e-02,0.000000000000000000e+00
8.450000000000000000e+02,-2.198834844191991517e-02,0.000000000000000000e+00
8.460000000000000000e+02,-3.886341171366377439e-02,0.000000000000000000e+00
8.470000000000000000e+02,6.784572146135106618e-02,0.000000000000000000e+00
8.480000000000000000e+02,1.153866003443455024e-01,0.000000000000000000e+00
8.490000000000000000e+02,1.099909126366685197e-01,0.000000000000000000e+00
8.500000000000000000e+02,1.517961679161411725e-01,0.000000000000000000e+00
8.510000000000000000e+02,1.437268391794323252e-01,0.000000000000000000e+00
8.520000000000000000e+02,4.045324136703141310e-02,0.000000000000000000e+00
8.530000000000000000e+02,1.173640326116325155e-01,0.000000000000000000e+00
8.540000000000000000e+02,7.595496174672236069e-03,0.000000000000000000e+00
8.550000000000000000e+02,3.236384440734991347e-02,0.000000000000000000e+00
8.560000000000000000e+02,2.059242938931834729e-02,0.000000000000000000e+00
8.570000000000000000e+02,4.473038888629482512e-02,0.000000000000000000e+00
8.580000000000000000e+02,6.294009844137121029e-03,0.000000000000000000e+00
8.590000000000000000e+02,9.446447758187102861e-02,0.000000000000000000e+00
8.600000000000000000e+02,4.255938185551116915e-02,0.000000000000000000e+00
8.610000000000000000e+02,5.178923885025633195e-02,0.000000000000000000e+00
8.620000000000000000e+02,3.221008585181080186e-02,0.000000000000000000e+00
8.630000000000000000e+02,9.013855022248251636e-02,0.000000000000000000e+00
8.640000000000000000e+02,2.527405356310527540e-01,0.000000000000000000e+00
8.650000000000000000e+02,1.807293691486011045e-01,0.000000000000000000e+00
8.660000000000000000e+02,-1.990729932516465406e-01,0.000000000000000000e+00
8.670000000000000000e+02,-3.363169557336071619e-02,0.000000000000000000e+00
8.680000000000000000e+02,-1.646268681853605698e-01,0.000000000000000000e+00
8.690000000000000000e+02,9.989936800164490593e-01,0.000000000000000000e+00
8.700000000000000000e+02,2.699695610552882652e+00,0.000000000000000000e+00
8.710000000000000000e+02,4.289300155368172551e-01,1.000000000000000000e+00
8.720000000000000000e+02,-5.901495780277985492e-01,0.000000000000000000e+00
8.730000000000000000e+02,-8.693765286683490245e-01,0.000000000000000000e+00
8.740000000000000000e+02,-7.271593904058072377e-01,0.000000000000000000e+00
8.750000000000000000e+02,-7.577966329733741846e-01,0.000000000000000000e+00
8.760000000000000000e+02,-6.354023888650429663e-01,0.000000000000000000e+00
8.770000000000000000e+02,-6.201931129764253203e-01,0.000000000000000000e+00
8.780000000000000000e+02,-3.960112366826677999e-01,0.000000000000000000e+00
8.790000000000000000e+02,-4.518502646841455750e-01,0.000000000000000000e+00
8.800000000000000000e+02,-3.045849736101191585e-01,0.000000000000000000e+00
8.810000000000000000e+02,-3.009968540776465917e-01,0.000000000000000000e+00
8.820000000000000000e+02,-7.600387680115801292e-02,0.000000000000000000e+00
8.830000000000000000e+02,-1.678512864620090167e-02,0.000000000000000000e+00
8.840000000000000000e+02,1.445926592014140921e-01,0.000000000000000000e+00
8.850000000000000000e+02,1.496420998970870997e-01,0.000000000000000000e+00
8.860000000000000000e+02,2.155824172398366212e-01,0.000000000000000000e+00
8.870000000000000000e+02,1.419071159123369841e-01,0.000000000000000000e+00
8.880000000000000000e+02,1.805015107663264784e-01,0.000000000000000000e+00
8.890000000000000000e+02,4.497039872819819095e-02,0.000000000000000000e+00
8.900000000000000000e+02,5.105157839117221985e-02,0.000000000000000000e+00
8.910000000000000000e+02,-5.836902587508178974e-02,0.000000000000000000e+00
8.920000000000000000e+02,-3.394214507287547644e-02,0.000000000000000000e+00
8.930000000000000000e+02,-6.077545788752269917e-02,0.000000000000000000e+00
8.940000000000000000e+02,-5.763683037141408699e-02,0.000000000000000000e+00
8.950000000000000000e+02,1.228358065033932911e-01,0.000000000000000000e+00
8.960000000000000000e+02,1.570426385542084691e-01,0.000000000000000000e+00
8.970000000000000000e+02,1.661101989737350515e-01,0.000000000000000000e+00
8.980000000000000000e+02,1.342869778382786428e-01,0.000000000000000000e+00
8.990000000000000000e+02,2.151505140479738620e-01,0.000000000000000000e+00
9.000000000000000000e+02,1.000920519562777111e-01,0.000000000000000000e+00
9.010000000000000000e+02,1.093422962594790965e-01,0.000000000000000000e+00
9.020000000000000000e+02,1.303927156921073222e-02,0.000000000000000000e+00
9.030000000000000000e+02,5.527044702850850838e-02,0.000000000000000000e+00
9.040000000000000000e+02,-5.634061580856795058e-03,0.000000000000000000e+00
9.050000000000000000e+02,-3.104590444052160447e-02,0.000000000000000000e+00
9.060000000000000000e+02,-3.622919272910102295e-02,0.000000000000000000e+00
9.070000000000000000e+02,-8.531176490924351208e-02,0.000000000000000000e+00
9.080000000000000000e+02,-2.918535168115499526e-02,0.000000000000000000e+00
9.090000000000000000e+02,-8.757183053321283828e-02,0.000000000000000000e+00
9.100000000000000000e+02,6.334220221741126977e-02,0.000000000000000000e+00
9.110000000000000000e+02,2.201933853954678166e-01,0.000000000000000000e+00
9.120000000000000000e+02,2.242941928407296281e-01,0.000000000000000000e+00
9.130000000000000000e+02,-5.469859925883426705e-02,0.000000000000000000e+00
9.140000000000000000e+02,-1.423155917184561470e-01,0.000000000000000000e+00
9.150000000000000000e+02,-8.552003348043470121e-02,0.000000000000000000e+00
9.160000000000000000e+02,3.545558259445124594e-01,0.000000000000000000e+00
9.170000000000000000e+02,2.575362557753494208e+00,0.000000000000000000e+00
9.180000000000000000e+02,1.246805061332866504e+00,1.000000000000000000e+00
9.190000000000000000e+02,-4.562443727451535591e-01,0.000000000000000000e+00
9.200000000000000000e+02,-7.546557715604896854e-01,0.000000000000000000e+00
9.210000000000000000e+02,-8.736890243387621657e-01,0.000000000000000000e+00
9.220000000000000000e+02,-6.667810168701948648e-01,0.000000000000000000e+00
9.230000000000000000e+02,-6.908120988954546959e-01,0.000000000000000000e+00
9.240000000000000000e+02,-5.737548321668274331e-01,0.000000000000000000e+00
9.250000000000000000e+02,-6.190529404939522085e-01,0.000000000000000000e+00
9.260000000000000000e+02,-4.415287597076195669e-01,0.000000000000000000e+00
9.270000000000000000e+02,-3.433536197342721419e-01,0.000000000000000000e+00
9.280000000000000000e+02,-2.546099797198062564e-01,0.000000000000000000e+00
9.290000000000000000e+02,-1.992892202993825357e-01,0.000000000000000000e+00
9.300000000000000000e+02,-3.593391377847339474e-02,0.000000000000000000e+00
9.310000000000000000e+02,2.369325751753248097e-02,0.000000000000000000e+00
9.320000000000000000e+02,2.217413643534185685e-01,0.000000000000000000e+00
9.330000000000000000e+02,1.697254380911196181e-01,0.000000000000000000e+00
9.340000000000000000e+02,1.869032920012179966e-01,0.000000000000000000e+00
9.350000000000000000e+02,9.303623399263077909e-02,0.000000000000000000e+00
9.360000000000000000e+02,7.735530768299882232e-02,0.000000000000000000e+00
9.370000000000000000e+02,-4.193277780808109603e-03,0.000000000000000000e+00
9.380000000000000000e+02,-1.435067653965267642e-01,0.000000000000000000e+00
9.390000000000000000e+02,-1.851501071826847644e-01,0.000000000000000000e+00
9.400000000000000000e+02,-1.335140055528186986e-01,0.000000000000000000e+00
9.410000000000000000e+02,-1.428315255860019006e-01,0.000000000000000000e+00
9.420000000000000000e+02,-2.162324174826758295e-04,0.000000000000000000e+00
9.430000000000000000e+02,4.261189046497740850e-03,0.000000000000000000e+00
9.440000000000000000e+02,8.011705312427926107e-02,0.000000000000000000e+00
9.450000000000000000e+02,1.086832822351886246e-01,0.000000000000000000e+00
9.460000000000000000e+02,1.617106446818301901e-01,0.000000000000000000e+00
9.470000000000000000e+02,-4.078822494394530873e-02,0.000000000000000000e+00
9.480000000000000000e+02,9.571798123481217724e-02,0.000000000000000000e+00
9.490000000000000000e+02,-5.212495109092063657e-03,0.000000000000000000e+00
9.500000000000000000e+02,6.285026915030633710e-02,0.000000000000000000e+00
9.510000000000000000e+02,-4.491311214762941373e-02,0.000000000000000000e+00
9.520000000000000000e+02,3.161946268082493905e-02,0.000000000000000000e+00
9.530000000000000000e+02,-2.874236485840082900e-02,0.000000000000000000e+00
9.540000000000000000e+02,5.472869044715483744e-02,0.000000000000000000e+00
9.550000000000000000e+02,6.933798419334366581e-02,0.000000000000000000e+00
9.560000000000000000e+02,2.617468769128039260e-02,0.000000000000000000e+00
9.570000000000000000e+02,8.428218638152179228e-04,0.000000000000000000e+00
9.580000000000000000e+02,1.519571031097229630e-01,0.000000000000000000e+00
9.590000000000000000e+02,2.429004733655475701e-01,0.000000000000000000e+00
9.600000000000000000e+02,2.411905038923516931e-01,0.000000000000000000e+00
9.610000000000000000e+02,-1.989567355297456597e-01,0.000000000000000000e+00
9.620000000000000000e+02,1.059264691185384383e-01,0.000000000000000000e+00
9.630000000000000000e+02,1.162429800566270113e-02,0.000000000000000000e+00
9.640000000000000000e+02,2.170412447142122225e+00,0.000000000000000000e+00
9.650000000000000000e+02,1.701440636274237139e+00,0.000000000000000000e+00
9.660000000000000000e+02,-4.087314087634327797e-01,1.000000000000000000e+00
9.670000000000000000e+02,-6.426117709293447389e-01,0.000000000000000000e+00
9.680000000000000000e+02,-7.521318322746219920e-01,0.000000000000000000e+00
9.690000000000000000e+02,-6.630259094845052381e-01,0.000000000000000000e+00
9.700000000000000000e+02,-5.940701270287479518e-01,0.000000000000000000e+00
9.710000000000000000e+02,-5.144826244073107402e-01,0.000000000000000000e+00
9.720000000000000000e+02,-4.535403539163808118e-01,0.000000000000000000e+00
9.730000000000000000e+02,-4.704227478769929527e-01,0.000000000000000000e+00
9.740000000000000000e+02,-3.012479337560552972e-01,0.000000000000000000e+00
9.750000000000000000e+02,-2.313739478447404685e-01,0.000000000000000000e+00
9.760000000000000000e+02,-2.007514524460729810e-01,0.000000000000000000e+00
9.770000000000000000e+02,4.527719511327399360e-02,0.000000000000000000e+00
9.780000000000000000e+02,8.091040681220884601e-02,0.000000000000000000e+00
9.790000000000000000e+02,3.147648937974635297e-01,0.000000000000000000e+00
9.800000000000000000e+02,2.421625307594026111e-01,0.000000000000000000e+00
9.810000000000000000e+02,2.403677432292559979e-01,0.000000000000000000e+00
9.820000000000000000e+02,1.116638326336996667e-01,0.000000000000000000e+00
9.830000000000000000e+02,-5.891906224735098813e-02,0.000000000000000000e+00
9.840000000000000000e+02,-1.810498488294507158e-01,0.000000000000000000e+00
9.850000000000000000e+02,-1.644637855971604057e-01,0.000000000000000000e+00
9.860000000000000000e+02,-3.994548631500444702e-01,0.000000000000000000e+00
9.870000000000000000e+02,-3.039679355448801079e-01,0.000000000000000000e+00
9.880000000000000000e+02,-2.185774178000903234e-01,0.000000000000000000e+00
9.890000000000000000e+02,-7.385844334972060943e-02,0.000000000000000000e+00
9.900000000000000000e+02,-7.298091398902915861e-02,0.000000000000000000e+00
9.910000000000000000e+02,-4.725554560356674816e-02,0.000000000000000000e+00
9.920000000000000000e+02,1.579904654655594001e-02,0.000000000000000000e+00
9.930000000000000000e+02,5.915025409735197130e-03,0.000000000000000000e+00
9.940000000000000000e+02,1.234399316130172473e-02,0.000000000000000000e+00
9.950000000000000000e+02,-8.362540556570967343e-02,0.000000000000000000e+00
9.960000000000000000e+02,-6.914819181547153526e-02,0.000000000000000000e+00
9.970000000000000000e+02,-1.692068835887081818e-02,0.000000000000000000e+00
9.980000000000000000e+02,4.247273393745319703e-02,0.000000000000000000e+00
9.990000000000000000e+02,6.384527803882709962e-02,0.000000000000000000e+00
1.000000000000000000e+03,6.631604818883513053e-02,0.000000000000000000e+00
1.001000000000000000e+03,1.223162697749031191e-01,0.000000000000000000e+00
1.002000000000000000e+03,8.504939353231377730e-02,0.000000000000000000e+00
1.003000000000000000e+03,1.898319097435427483e-01,0.000000000000000000e+00
1.004000000000000000e+03,2.181220440307426178e-01,0.000000000000000000e+00
1.005000000000000000e+03,3.003402244368756913e-01,0.000000000000000000e+00
1.006000000000000000e+03,1.186813136474731689e-01,0.000000000000000000e+00
1.007000000000000000e+03,-1.159698830153630816e-01,0.000000000000000000e+00
1.008000000000000000e+03,1.221994792419711234e-01,0.000000000000000000e+00
1.009000000000000000e+03,1.719313642564638256e-01,0.000000000000000000e+00
1.010000000000000000e+03,2.404892690271839939e+00,0.000000000000000000e+00
1.011000000000000000e+03,1.356369635540578766e+00,1.000000000000000000e+00
1.012000000000000000e+03,-4.185615079186096876e-01,0.000000000000000000e+00
1.013000000000000000e+03,-6.378797894072072427e-01,0.000000000000000000e+00
1.014000000000000000e+03,-6.353884676070332693e-01,0.000000000000000000e+00
1.015000000000000000e+03,-5.305148613825564352e-01,0.000000000000000000e+00
1.016000000000000000e+03,-5.601995746910334306e-01,0.000000000000000000e+00
1.017000000000000000e+03,-4.473410169723583962e-01,0.000000000000000000e+00
1.018000000000000000e+03,-4.218479878919477732e-01,0.000000000000000000e+00
1.019000000000000000e+03,-3.274594542722047419e-01,0.000000000000000000e+00
1.020000000000000000e+03,-3.326648377908959509e-01,0.000000000000000000e+00
1.021000000000000000e+03,-1.648544290388601619e-01,0.000000000000000000e+00
1.022000000000000000e+03,-1.887553844875186349e-01,0.000000000000000000e+00
1.023000000000000000e+03,9.047953117796692091e-02,0.000000000000000000e+00
1.024000000000000000e+03,2.938991129095440691e-01,0.000000000000000000e+00
1.025000000000000000e+03,3.098450839729671724e-01,0.000000000000000000e+00
1.026000000000000000e+03,3.331263892566280749e-01,0.000000000000000000e+00
1.027000000000000000e+03,4.124978173172154650e-01,0.000000000000000000e+00
1.028000000000000000e+03,1.881773204341677386e-01,0.000000000000000000e+00
1.029000000000000000e+03,5.425019142918061782e-02,0.000000000000000000e+00
1.030000000000000000e+03,-1.307686185034990234e-01,0.000000000000000000e+00
1.031000000000000000e+03,-1.349340585991617714e-01,0.000000000000000000e+00
1.032000000000000000e+03,-1.719501330507447190e-01,0.000000000000000000e+00
1.033000000000000000e+03,-2.212776648562949366e-01,0.000000000000000000e+00
1.034000000000000000e+03,-1.598040125697145764e-01,0.000000000000000000e+00
1.035000000000000000e+03,-1.141767763665298661e-02,0.000000000000000000e+00
1.036000000000000000e+03,5.016395854466416948e-02,0.000000000000000000e+00
1.037000000000000000e+03,9.154592141249215387e-02,0.000000000000000000e+00
1.038000000000000000e+03,4.369964718492035799e-02,0.000000000000000000e+00
1.039000000000000000e+03,5.996715122783345675e-02,0.000000000000000000e+00
1.040000000000000000e+03,9.755863807762431630e-03,0.000000000000000000e+00
1.041000000000000000e+03,1.367479577822934278e-01,0.000000000000000000e+00
1.042000000000000000e+03,3.080900999214334496e-02,0.000000000000000000e+00
1.043000000000000000e+03,8.163495356149494397e-02,0.000000000000000000e+00
1.044000000000000000e+03,5.964699593180336490e-02,0.000000000000000000e+00
1.045000000000000000e+03,1.206506423097420712e-02,0.000000000000000000e+00
1.046000000000000000e+03,1.147706690696233545e-01,0.000000000000000000e+00
1.047000000000000000e+03,8.985603563186453369e-02,0.000000000000000000e+00
1.048000000000000000e+03,1.030180927439809102e-01,0.000000000000000000e+00
1.049000000000000000e+03,2.729316148086691762e-01,0.000000000000000000e+00
1.050000000000000000e+03,1.325678768958221954e-01,0.000000000000000000e+00
1.051000000000000000e+03,3.647446853995934407e-02,0.000000000000000000e+00
1.052000000000000000e+03,-6.143427266763882427e-02,0.000000000000000000e+00
1.053000000000000000e+03,4.289877515841036826e-02,0.000000000000000000e+00
1.054000000000000000e+03,4.545862970123192848e-01,0.000000000000000000e+00
1.055000000000000000e+03,2.304375365417548949e+00,0.000000000000000000e+00
1.056000000000000000e+03,8.571362123471113481e-01,1.000000000000000000e+00
1.057000000000000000e+03,-6.250836530449116468e-01,0.000000000000000000e+00
1.058000000000000000e+03,-6.702244130276222567e-01,0.000000000000000000e+00
1.059000000000000000e+03,-6.958108400856350961e-01,0.000000000000000000e+00
1.060000000000000000e+03,-4.870851767995474368e-01,0.000000000000000000e+00
1.061000000000000000e+03,-6.153023249617050050e-01,0.000000000000000000e+00
1.062000000000000000e+03,-4.188675625754567089e-01,0.000000000000000000e+00
1.063000000000000000e+03,-4.639000341140752104e-01,0.000000000000000000e+00
1.064000000000000000e+03,-3.361383214905196981e-01,0.000000000000000000e+00
1.065000000000000000e+03,-2.495709409048359750e-01,0.000000000000000000e+00
1.066000000000000000e+03,-1.623364125156018245e-01,0.000000000000000000e+00
1.067000000000000000e+03,-6.744893192432434292e-02,0.000000000000000000e+00
1.068000000000000000e+03,5.279489562228336513e-02,0.000000000000000000e+00
1.069000000000000000e+03,2.037709101741347895e-01,0.000000000000000000e+00
1.070000000000000000e+03,2.544135455849015348e-01,0.000000000000000000e+00
1.071000000000000000e+03,3.738791323440326386e-01,0.000000000000000000e+00
1.072000000000000000e+03,1.994755428879834980e-01,0.000000000000000000e+00
1.073000000000000000e+03,1.278618918605910759e-01,0.000000000000000000e+00
1.074000000000000000e+03,5.323029455631281964e-02,0.000000000000000000e+00
1.075000000000000000e+03,-1.590535931244579093e-01,0.000000000000000000e+00
1.076000000000000000e+03,-1.525831324853750282e-01,0.000000000000000000e+00
1.077000000000000000e+03,-1.279507010698466840e-01,0.000000000000000000e+00
1.078000000000000000e+03,-1.377406921410966323e-01,0.000000000000000000e+00
1.079000000000000000e+03,-1.994427252537337714e-01,0.000000000000000000e+00
1.080000000000000000e+03,-6.868230818791207226e-02,0.000000000000000000e+00
1.081000000000000000e+03,-4.679649257094832537e-02,0.000000000000000000e+00
1.082000000000000000e+03,8.294327903767484411e-02,0.000000000000000000e+00
1.083000000000000000e+03,-2.634497508074813352e-02,0.000000000000000000e+00
1.084000000000000000e+03,2.675664762302279454e-02,0.000000000000000000e+00
1.085000000000000000e+03,1.613703852472041927e-02,0.000000000000000000e+00
1.086000000000000000e+03,6.150495107025710784e-02,0.000000000000000000e+00
1.087000000000000000e+03,-3.527094973921193061e-02,0.000000000000000000e+00
1.088000000000000000e+03,-4.617187286225752502e-02,0.000000000000000000e+00
1.089000000000000000e+03,-3.471413439027247472e-02,0.000000000000000000e+00
1.090000000000000000e+03,-3.956797562625397752e-02,0.000000000000000000e+00
1.091000000000000000e+03,1.705805729320782060e-02,0.000000000000000000e+00
1.092000000000000000e+03,-6.560371317499937016e-02,0.000000000000000000e+00
1.093000000000000000e+03,5.162386386567845153e-02,0.000000000000000000e+00
1.094000000000000000e+03,4.235798660391597130e-03,0.000000000000000000e+00
1.095000000000000000e+03,7.656288162148647269e-02,0.000000000000000000e+00
1.096000000000000000e+03,-4.936210418496082830e-02,0.000000000000000000e+00
1.097000000000000000e+03,-2.251819113632813063e-01,0.000000000000000000e+00
1.098000000000000000e+03,-2.829542311126500773e-02,0.000000000000000000e+00
1.099000000000000000e+03,1.936213015162608075e-01,0.000000000000000000e+00
1.100000000000000000e+03,2.175826919701659090e+00,0.000000000000000000e+00
1.101000000000000000e+03,8.919846679923705279e-01,1.000000000000000000e+00
1.102000000000000000e+03,-6.027516700289817786e-01,0.000000000000000000e+00
1.103000000000000000e+03,-6.228731438476461379e-01,0.000000000000000000e+00
1.104000000000000000e+03,-7.353996303694385617e-01,0.000000000000000000e+00
1.105000000000000000e+03,-5.882000435141082617e-01,0.000000000000000000e+00
1.106000000000000000e+03,-5.255755105596875421e-01,0.000000000000000000e+00
1.107000000000000000e+03,-3.756175828387500193e-01,0.000000000000000000e+00
1.108000000000000000e+03,-4.265034106723476492e-01,0.000000000000000000e+00
1.109000000000000000e+03,-2.022702112824418530e-01,0.000000000000000000e+00
1.110000000000000000e+03,-2.197385029352429131e-01,0.000000000000000000e+00
1.111000000000000000e+03,-1.318061772702079915e-01,0.000000000000000000e+00
1.112000000000000000e+03,-5.893604516506028429e-02,0.000000000000000000e+00
1.113000000000000000e+03,7.838685844091897170e-02,0.000000000000000000e+00
1.114000000000000000e+03,1.933187733770344585e-01,0.000000000000000000e+00
1.115000000000000000e+03,2.920475571344235965e-01,0.000000000000000000e+00
1.116000000000000000e+03,3.269667634536666534e-01,0.000000000000000000e+00
1.117000000000000000e+03,2.549122751615581772e-01,0.000000000000000000e+00
1.118000000000000000e+03,1.309055229578574842e-01,0.000000000000000000e+00
1.119000000000000000e+03,1.201013258966206615e-01,0.000000000000000000e+00
1.120000000000000000e+03,-8.770188145736870777e-02,0.000000000000000000e+00
1.121000000000000000e+03,-3.977171002175879100e-02,0.000000000000000000e+00
1.122000000000000000e+03,-6.885861692304656723e-02,0.000000000000000000e+00
1.123000000000000000e+03,-2.120337830393066447e-01,0.000000000000000000e+00
1.124000000000000000e+03,-1.127793391886141305e-01,0.000000000000000000e+00
1.125000000000000000e+03,-7.114135338120528007e-02,0.000000000000000000e+00
1.126000000000000000e+03,-2.322951218346373109e-02,0.000000000000000000e+00
1.127000000000000000e+03,9.774161686732155130e-02,0.000000000000000000e+00
1.128000000000000000e+03,6.608578166480956473e-02,0.000000000000000000e+00
1.129000000000000000e+03,1.472851999157410163e-01,0.000000000000000000e+00
1.130000000000000000e+03,1.692520668756165581e-01,0.000000000000000000e+00
1.131000000000000000e+03,1.049278563192949237e-01,0.000000000000000000e+00
1.132000000000000000e+03,1.438762773452822996e-01,0.000000000000000000e+00
1.133000000000000000e+03,7.308915886315706101e-02,0.000000000000000000e+00
1.134000000000000000e+03,1.207905942843408298e-02,0.000000000000000000e+00
1.135000000000000000e+03,1.253855016603470929e-01,0.000000000000000000e+00
1.136000000000000000e+03,-1.546786573159324336e-02,0.000000000000000000e+00
1.137000000000000000e+03,1.437991690092561836e-01,0.000000000000000000e+00
1.138000000000000000e+03,6.825354344853341859e-02,0.000000000000000000e+00
1.139000000000000000e+03,9.205583276902908063e-02,0.000000000000000000e+00
1.140000000000000000e+03,2.010546148529124832e-01,0.000000000000000000e+00
1.141000000000000000e+03,1.085230251436874738e-01,0.000000000000000000e+00
1.142000000000000000e+03,-2.055940859350283978e-01,0.000000000000000000e+00
1.143000000000000000e+03,2.164205229245834416e-02,0.000000000000000000e+00
1.144000000000000000e+03,1.905551989175418778e-02,0.000000000000000000e+00
1.145000000000000000e+03,1.012892898008395548e+00,0.000000000000000000e+00
1.146000000000000000e+03,2.173888857752170445e+00,0.000000000000000000e+00
1.147000000000000000e+03,1.621878739788645551e-01,1.000000000000000000e+00
1.148000000000000000e+03,-5.466742568256590662e-01,0.000000000000000000e+00
1.149000000000000000e+03,-6.778134405222443482e-01,0.000000000000000000e+00
1.150000000000000000e+03,-6.328334965213671115e-01,0.000000000000000000e+00
1.151000000000000000e+03,-5.538155280314135398e-01,0.000000000000000000e+00
1.152000000000000000e+03,-4.756877849026832084e-01,0.000000000000000000e+00
1.153000000000000000e+03,-4.416876281024986750e-01,0.000000000000000000e+00
1.154000000000000000e+03,-3.904562263920978715e-01,0.000000000000000000e+00
1.155000000000000000e+03,-2.774203247097636327e-01,0.000000000000000000e+00
1.156000000000000000e+03,-3.008413920015599596e-01,0.000000000000000000e+00
1.157000000000000000e+03,-1.741808743768929746e-01,0.000000000000000000e+00
1.158000000000000000e+03,-6.786756300112826990e-02,0.000000000000000000e+00
1.159000000000000000e+03,1.435598736476438875e-01,0.000000000000000000e+00
1.160000000000000000e+03,1.420565587809454466e-01,0.000000000000000000e+00
1.161000000000000000e+03,2.619908554255114819e-01,0.000000000000000000e+00
1.162000000000000000e+03,3.207492915407270662e-01,0.000000000000000000e+00
1.163000000000000000e+03,1.169743174525187113e-01,0.000000000000000000e+00
1.164000000000000000e+03,1.693717570075635726e-01,0.000000000000000000e+00
1.165000000000000000e+03,-8.999510992582447633e-02,0.000000000000000000e+00
1.166000000000000000e+03,-5.534429594815500758e-02,0.000000000000000000e+00
1.167000000000000000e+03,-6.077641198415299068e-02,0.000000000000000000e+00
1.168000000000000000e+03,-1.460832298370702276e-01,0.000000000000000000e+00
1.169000000000000000e+03,-2.165209854414363311e-01,0.000000000000000000e+00
1.170000000000000000e+03,-7.576260728607388251e-02,0.000000000000000000e+00
1.171000000000000000e+03,-1.230232375278899754e-01,0.000000000000000000e+00
1.172000000000000000e+03,3.711032715701277629e-02,0.000000000000000000e+00
1.173000000000000000e+03,6.332261728795306188e-02,0.000000000000000000e+00
1.174000000000000000e+03,1.153253508786818496e-02,0.000000000000000000e+00
1.175000000000000000e+03,9.039803780246906395e-02,0.000000000000000000e+00
1.176000000000000000e+03,4.969059190589531633e-02,0.000000000000000000e+00
1.177000000000000000e+03,5.378272871694626811e-02,0.000000000000000000e+00
1.178000000000000000e+03,4.953736302267254879e-03,0.000000000000000000e+00
1.179000000000000000e+03,-1.637416895325050081e-02,0.000000000000000000e+00
1.180000000000000000e+03,-5.602782892668511927e-02,0.000000000000000000e+00
1.181000000000000000e+03,-6.938765782046781017e-02,0.000000000000000000e+00
1.182000000000000000e+03,7.516075260832999483e-02,0.000000000000000000e+00
1.183000000000000000e+03,-1.267045519290994349e-01,0.000000000000000000e+00
1.184000000000000000e+03,-5.450113323139906679e-03,0.000000000000000000e+00
1.185000000000000000e+03,-4.453178657176679045e-02,0.000000000000000000e+00
1.186000000000000000e+03,1.214221427276990506e-01,0.000000000000000000e+00
1.187000000000000000e+03,1.597523180885950800e-01,0.000000000000000000e+00
1.188000000000000000e+03,-7.175529469415045658e-02,0.000000000000000000e+00
1.189000000000000000e+03,-2.008933648683998152e-01,0.000000000000000000e+00
1.190000000000000000e+03,-1.713282554046553080e-02,0.000000000000000000e+00
1.191000000000000000e+03,1.530319240489722565e-01,0.000000000000000000e+00
1.192000000000000000e+03,1.961030100191225589e+00,0.000000000000000000e+00
1.193000000000000000e+03,1.397828672406178807e+00,0.000000000000000000e+00
1.194000000000000000e+03,-4.698593115797022324e-01,1.000000000000000000e+00
1.195000000000000000e+03,-6.230661409405784390e-01,0.000000000000000000e+00
1.196000000000000000e+03,-7.233545814109350047e-01,0.000000000000000000e+00
1.197000000000000000e+03,-5.628412745455312338e-01,0.000000000000000000e+00
1.198000000000000000e+03,-5.811151421752445145e-01,0.000000000000000000e+00
1.199000000000000000e+03,-4.033533753109669884e-01,0.000000000000000000e+00
1.200000000000000000e+03,-4.612531318939701586e-01,0.000000000000000000e+00
1.201000000000000000e+03,-2.648658984902264590e-01,0.000000000000000000e+00
1.202000000000000000e+03,-2.990968795625488230e-01,0.000000000000000000e+00
1.203000000000000000e+03,-1.703169201866305549e-01,0.000000000000000000e+00
1.204000000000000000e+03,-1.022662431521825926e-01,0.000000000000000000e+00
1.205000000000000000e+03,3.038359461322100163e-02,0.000000000000000000e+00
1.206000000000000000e+03,1.474550770461478810e-01,0.000000000000000000e+00
1.207000000000000000e+03,1.962611995420683875e-01,0.000000000000000000e+00
1.208000000000000000e+03,2.750708625590103651e-01,0.000000000000000000e+00
1.209000000000000000e+03,2.315292752499961970e-01,0.000000000000000000e+00
1.210000000000000000e+03,1.888052653908809109e-01,0.000000000000000000e+00
1.211000000000000000e+03,1.644599122926925228e-01,0.000000000000000000e+00
1.212000000000000000e+03,-1.515198775815098688e-02,0.000000000000000000e+00
1.213000000000000000e+03,-6.745939363364464314e-02,0.000000000000000000e+00
1.214000000000000000e+03,-2.529314425860813842e-02,0.000000000000000000e+00
1.215000000000000000e+03,-4.329393245311536666e-03,0.000000000000000000e+00
1.216000000000000000e+03,-1.474932999653887911e-01,0.000000000000000000e+00
1.217000000000000000e+03,-7.793859886104141654e-02,0.000000000000000000e+00
1.218000000000000000e+03,-4.100298080226540132e-02,0.000000000000000000e+00
1.219000000000000000e+03,6.876358988383893256e-02,0.000000000000000000e+00
1.220000000000000000e+03,5.542523011631678848e-02,0.000000000000000000e+00
1.221000000000000000e+03,1.319538297717190722e-01,0.000000000000000000e+00
1.222000000000000000e+03,5.441826341352606206e-02,0.000000000000000000e+00
1.223000000000000000e+03,8.843061363801156538e-02,0.000000000000000000e+00
1.224000000000000000e+03,6.267616626018865378e-02,0.000000000000000000e+00
1.225000000000000000e+03,3.436921036272664459e-02,0.000000000000000000e+00
1.226000000000000000e+03,-2.104783996084757386e-02,0.000000000000000000e+00
1.227000000000000000e+03,-3.245546648291125491e-02,0.000000000000000000e+00
1.228000000000000000e+03,-6.232548684164489899e-02,0.000000000000000000e+00
1.229000000000000000e+03,-4.056216208835495413e-02,0.000000000000000000e+00
1.230000000000000000e+03,-3.817142098147902063e-02,0.000000000000000000e+00
1.231000000000000000e+03,-2.300380370699452517e-02,0.000000000000000000e+00
1.232000000000000000e+03,-1.553289998729187778e-02,0.000000000000000000e+00
1.233000000000000000e+03,6.662725014927312062e-02,0.000000000000000000e+00
1.234000000000000000e+03,1.127942727258998551e-01,0.000000000000000000e+00
1.235000000000000000e+03,9.281316308960164962e-02,0.000000000000000000e+00
1.236000000000000000e+03,-2.987118490016433814e-01,0.000000000000000000e+00
1.237000000000000000e+03,-2.819688484759987415e-02,0.000000000000000000e+00
1.238000000000000000e+03,-2.944580525333737736e-02,0.000000000000000000e+00
1.239000000000000000e+03,9.884891651186608064e-01,0.000000000000000000e+00
1.240000000000000000e+03,2.156658933960892810e+00,0.000000000000000000e+00
1.241000000000000000e+03,2.807308102509809555e-01,1.000000000000000000e+00
1.242000000000000000e+03,-5.499160189744640714e-01,0.000000000000000000e+00
1.243000000000000000e+03,-7.425624273294572086e-01,0.000000000000000000e+00
1.244000000000000000e+03,-6.705850217329278884e-01,0.000000000000000000e+00
1.245000000000000000e+03,-5.772239405819385993e-01,0.000000000000000000e+00
1.246000000000000000e+03,-5.050147720485482772e-01,0.000000000000000000e+00
1.247000000000000000e+03,-4.426104499925189728e-01,0.000000000000000000e+00
1.248000000000000000e+03,-4.262515161243750073e-01,0.000000000000000000e+00
1.249000000000000000e+03,-3.454454092913973873e-01,0.000000000000000000e+00
1.250000000000000000e+03,-2.559683989283629835e-01,0.000000000000000000e+00
1.251000000000000000e+03,-2.167925972779580768e-01,0.000000000000000000e+00
1.252000000000000000e+03,-9.778671129699126330e-02,0.000000000000000000e+00
1.253000000000000000e+03,-7.310658643033551840e-02,0.000000000000000000e+00
1.254000000000000000e+03,1.526906718183630995e-01,0.000000000000000000e+00
1.255000000000000000e+03,1.702657021815588700e-01,0.000000000000000000e+00
1.256000000000000000e+03,1.894692882725483862e-01,0.000000000000000000e+00
1.257000000000000000e+03,1.350984709247399218e-01,0.000000000000000000e+00
1.258000000000000000e+03,1.206525141217915931e-01,0.000000000000000000e+00
1.259000000000000000e+03,1.039639372250596022e-01,0.000000000000000000e+00
1.260000000000000000e+03,-4.371692024722775155e-02,0.000000000000000000e+00
1.261000000000000000e+03,-1.271415339101522775e-02,0.000000000000000000e+00
1.262000000000000000e+03,-9.347758701404741688e-02,0.000000000000000000e+00
1.263000000000000000e+03,-1.032665552730126640e-01,0.000000000000000000e+00
1.264000000000000000e+03,-9.777814749809062012e-02,0.000000000000000000e+00
1.265000000000000000e+03,-7.416327141221203123e-02,0.000000000000000000e+00
1.266000000000000000e+03,4.473062112166589083e-02,0.000000000000000000e+00
1.267000000000000000e+03,6.456135137645577227e-02,0.000000000000000000e+00
1.268000000000000000e+03,5.399216947938580147e-02,0.000000000000000000e+00
1.269000000000000000e+03,1.090954602175468885e-01,0.000000000000000000e+00
1.270000000000000000e+03,1.109409179266783174e-01,0.000000000000000000e+00
1.271000000000000000e+03,-4.166314050877596015e-02,0.000000000000000000e+00
1.272000000000000000e+03,3.210472139468507902e-02,0.000000000000000000e+00
1.273000000000000000e+03,3.269394757934006995e-02,0.000000000000000000e+00
1.274000000000000000e+03,1.624600062501890124e-02,0.000000000000000000e+00
1.275000000000000000e+03,2.370294186943315562e-02,0.000000000000000000e+00
1.276000000000000000e+03,8.183313764840859095e-02,0.000000000000000000e+00
1.277000000000000000e+03,1.044643507771035179e-01,0.000000000000000000e+00
1.278000000000000000e+03,4.679257863633839998e-02,0.000000000000000000e+00
1.279000000000000000e+03,8.284339454373024214e-02,0.000000000000000000e+00
1.280000000000000000e+03,1.528594259569297231e-01,0.000000000000000000e+00
1.281000000000000000e+03,2.937134462660541678e-01,0.000000000000000000e+00
1.282000000000000000e+03,3.343261230240303084e-01,0.000000000000000000e+00
1.283000000000000000e+03,6.713600946582627682e-02,0.000000000000000000e+00
1.284000000000000000e+03,-1.153619333773192729e-01,0.000000000000000000e+00
1.285000000000000000e+03,1.856238902119551892e-01,0.000000000000000000e+00
1.286000000000000000e+03,1.054391661707565903e-01,0.000000000000000000e+00
1.287000000000000000e+03,2.139393621949324586e+00,0.000000000000000000e+00
1.288000000000000000e+03,1.792924568113934303e+00,0.000000000000000000e+00
1.289000000000000000e+03,-2.124761368742283385e-01,1.000000000000000000e+00
1.290000000000000000e+03,-7.182131516644733038e-01,0.000000000000000000e+00
1.291000000000000000e+03,-7.416788608126994031e-01,0.000000000000000000e+00
1.292000000000000000e+03,-6.680712805562850631e-01,0.000000000000000000e+00
1.293000000000000000e+03,-6.216334026865258933e-01,0.000000000000000000e+00
1.294000000000000000e+03,-5.545657873012291850e-01,0.000000000000000000e+00
1.295000000000000000e+03,-4.846326952692143197e-01,0.000000000000000000e+00
1.296000000000000000e+03,-4.019897077152393972e-01,0.000000000000000000e+00
1.297000000000000000e+03,-3.851860247712307062e-01,0.000000000000000000e+00
1.298000000000000000e+03,-3.402241972475555931e-01,0.000000000000000000e+00
1.299000000000000000e+03,-3.217666627615138886e-01,0.000000000000000000e+00
1.300000000000000000e+03,-1.573119317180174670e-01,0.000000000000000000e+00
1.301000000000000000e+03,-4.500800818017240690e-02,0.000000000000000000e+00
1.302000000000000000e+03,1.277732816917096503e-01,0.000000000000000000e+00
1.303000000000000000e+03,1.400102594944451495e-01,0.000000000000000000e+00
1.304000000000000000e+03,1.465834079444760796e-01,0.000000000000000000e+00
1.305000000000000000e+03,5.255269520797382216e-02,0.000000000000000000e+00
1.306000000000000000e+03,1.205817097926694809e-01,0.000000000000000000e+00
1.307000000000000000e+03,-1.625834846207067225e-02,0.000000000000000000e+00
1.308000000000000000e+03,-5.356387279420375680e-02,0.000000000000000000e+00
1.309000000000000000e+03,-6.131974684539065468e-02,0.000000000000000000e+00
1.310000000000000000e+03,-5.470872321309313419e-02,0.000000000000000000e+00
1.311000000000000000e+03,-1.055054654401785530e-01,0.000000000000000000e+00
1.312000000000000000e+03,6.835719360722479487e-02,0.000000000000000000e+00
1.313000000000000000e+03,-4.352612892535782929e-02,0.000000000000000000e+00
1.314000000000000000e+03,1.382203805171482447e-01,0.000000000000000000e+00
1.315000000000000000e+03,9.765688715793049979e-02,0.000000000000000000e+00
1.316000000000000000e+03,1.620699542750234923e-01,0.000000000000000000e+00
1.317000000000000000e+03,1.405633414248316226e-01,0.000000000000000000e+00
1.318000000000000000e+03,8.694964757849185655e-02,0.000000000000000000e+00
1.319000000000000000e+03,8.379335321085630561e-02,0.000000000000000000e+00
1.320000000000000000e+03,1.004537312258716869e-01,0.000000000000000000e+00
1.321000000000000000e+03,7.492315624495764215e-02,0.000000000000000000e+00
1.322000000000000000e+03,4.843226672782198830e-03,0.000000000000000000e+00
1.323000000000000000e+03,-5.245214184907407741e-03,0.000000000000000000e+00
1.324000000000000000e+03,6.264469664342203759e-02,0.000000000000000000e+00
1.325000000000000000e+03,9.847532762582229815e-02,0.000000000000000000e+00
1.326000000000000000e+03,4.215002173289334603e-02,0.000000000000000000e+00
1.327000000000000000e+03,1.230437068783585275e-01,0.000000000000000000e+00
1.328000000000000000e+03,1.164994886983989342e-01,0.000000000000000000e+00
1.329000000000000000e+03,2.616417595189672873e-01,0.000000000000000000e+00
1.330000000000000000e+03,2.868815439175477766e-01,0.000000000000000000e+00
1.331000000000000000e+03,9.559897853376438451e-03,0.000000000000000000e+00
1.332000000000000000e+03,2.233493984816733308e-02,0.000000000000000000e+00
1.333000000000000000e+03,1.849103238568999483e-02,0.000000000000000000e+00
1.334000000000000000e+03,5.862117324426894260e-01,0.000000000000000000e+00
1.335000000000000000e+03,2.659967058183990041e+00,0.000000000000000000e+00
1.336000000000000000e+03,1.128306780696971545e+00,1.000000000000000000e+00
1.337000000000000000e+03,-4.497006845599027525e-01,0.000000000000000000e+00
1.338000000000000000e+03,-8.354852007601171193e-01,0.000000000000000000e+00
1.339000000000000000e+03,-7.485529335319616173e-01,0.000000000000000000e+00
1.340000000000000000e+03,-7.445931919076986816e-01,0.000000000000000000e+00
1.341000000000000000e+03,-6.728098680797315323e-01,0.000000000000000000e+00
1.342000000000000000e+03,-6.219382175911521982e-01,0.000000000000000000e+00
1.343000000000000000e+03,-4.609043576439391665e-01,0.000000000000000000e+00
1.344000000000000000e+03,-4.135858938497170567e-01,0.000000000000000000e+00
1.345000000000000000e+03,-3.544525581523174651e-01,0.000000000000000000e+00
1.346000000000000000e+03,-3.480312842179818511e-01,0.000000000000000000e+00
1.347000000000000000e+03,-1.157430122290633717e-01,0.000000000000000000e+00
1.348000000000000000e+03,-1.320031219739673245e-01,0.000000000000000000e+00
1.349000000000000000e+03,1.556209055525579754e-01,0.000000000000000000e+00
1.350000000000000000e+03,9.368760505444310993e-02,0.000000000000000000e+00
1.351000000000000000e+03,1.732076336079786394e-01,0.000000000000000000e+00
1.352000000000000000e+03,3.943187889723647616e-02,0.000000000000000000e+00
1.353000000000000000e+03,9.550322055115732789e-02,0.000000000000000000e+00
1.354000000000000000e+03,3.722992005286304001e-02,0.000000000000000000e+00
1.355000000000000000e+03,-2.609389656236536445e-02,0.000000000000000000e+00
1.356000000000000000e+03,-2.009103821293947711e-01,0.000000000000000000e+00
1.357000000000000000e+03,-2.243337085312538393e-01,0.000000000000000000e+00
1.358000000000000000e+03,-1.373781585946730055e-01,0.000000000000000000e+00
1.359000000000000000e+03,-1.192145235787714780e-01,0.000000000000000000e+00
1.360000000000000000e+03,-4.771553797773620681e-02,0.000000000000000000e+00
1.361000000000000000e+03,3.899482906331968451e-02,0.000000000000000000e+00
1.362000000000000000e+03,3.227150802165072024e-02,0.000000000000000000e+00
1.363000000000000000e+03,5.125709978696397356e-02,0.000000000000000000e+00
1.364000000000000000e+03,6.983352584682063491e-02,0.000000000000000000e+00
1.365000000000000000e+03,1.191450135552147849e-01,0.000000000000000000e+00
1.366000000000000000e+03,9.621732701386886315e-04,0.000000000000000000e+00
1.367000000000000000e+03,1.404353690879422446e-02,0.000000000000000000e+00
1.368000000000000000e+03,-4.562197660536324723e-02,0.000000000000000000e+00
1.369000000000000000e+03,9.538960347358876879e-03,0.000000000000000000e+00
1.370000000000000000e+03,3.439009670101231958e-02,0.000000000000000000e+00
1.371000000000000000e+03,-2.089211962881323478e-02,0.000000000000000000e+00
1.372000000000000000e+03,6.672605046241850135e-02,0.000000000000000000e+00
1.373000000000000000e+03,7.171525014622157079e-02,0.000000000000000000e+00
1.374000000000000000e+03,9.353933102321071794e-03,0.000000000000000000e+00
1.375000000000000000e+03,9.984944121272605611e-02,0.000000000000000000e+00
1.376000000000000000e+03,-4.642088200044379442e-02,0.000000000000000000e+00
1.377000000000000000e+03,3.032303318103145018e-01,0.000000000000000000e+00
1.378000000000000000e+03,3.302706416366655851e-01,0.000000000000000000e+00
1.379000000000000000e+03,2.087692405565628184e-01,0.000000000000000000e+00
1.380000000000000000e+03,-1.557966874911335675e-01,0.000000000000000000e+00
1.381000000000000000e+03,7.856348727021709999e-02,0.000000000000000000e+00
1.382000000000000000e+03,-1.009577138442707273e-01,0.000000000000000000e+00
1.383000000000000000e+03,1.606865965849729294e+00,0.000000000000000000e+00
1.384000000000000000e+03,2.587617769982477611e+00,0.000000000000000000e+00
1.385000000000000000e+03,2.627503951953653605e-01,1.000000000000000000e+00
1.386000000000000000e+03,-6.073153027231539269e-01,0.000000000000000000e+00
1.387000000000000000e+03,-8.717676179077593623e-01,0.000000000000000000e+00
1.388000000000000000e+03,-6.710893064859271284e-01,0.000000000000000000e+00
1.389000000000000000e+03,-6.874005031566808865e-01,0.000000000000000000e+00
1.390000000000000000e+03,-5.249594059669538959e-01,0.000000000000000000e+00
1.391000000000000000e+03,-5.838398066815422283e-01,0.000000000000000000e+00
1.392000000000000000e+03,-4.369760221781906484e-01,0.000000000000000000e+00
1.393000000000000000e+03,-4.210927646449650341e-01,0.000000000000000000e+00
1.394000000000000000e+03,-2.910009485319487443e-01,0.000000000000000000e+00
1.395000000000000000e+03,-2.183234944077429296e-01,0.000000000000000000e+00
1.396000000000000000e+03,-1.462741159763663590e-01,0.000000000000000000e+00
1.397000000000000000e+03,3.056066806413997375e-02,0.000000000000000000e+00
1.398000000000000000e+03,1.521255951394314687e-01,0.000000000000000000e+00
1.399000000000000000e+03,1.642094472974392205e-01,0.000000000000000000e+00
1.400000000000000000e+03,1.498748313991030146e-01,0.000000000000000000e+00
1.401000000000000000e+03,1.486983935840187065e-01,0.000000000000000000e+00
1.402000000000000000e+03,1.340373130255784473e-01,0.000000000000000000e+00
1.403000000000000000e+03,3.852271001896197949e-02,0.000000000000000000e+00
1.404000000000000000e+03,-2.484786670105995632e-02,0.000000000000000000e+00
1.405000000000000000e+03,-1.424712208711897687e-01,0.000000000000000000e+00
1.406000000000000000e+03,-9.201479951107234545e-02,0.000000000000000000e+00
1.407000000000000000e+03,-6.260518008454696304e-02,0.000000000000000000e+00
1.408000000000000000e+03,4.886309346006815352e-02,0.000000000000000000e+00
1.409000000000000000e+03,3.482800323373776846e-02,0.000000000000000000e+00
1.410000000000000000e+03,1.159698675116324074e-01,0.000000000000000000e+00
1.411000000000000000e+03,4.972081647286989703e-02,0.000000000000000000e+00
1.412000000000000000e+03,8.586080708330273703e-02,0.000000000000000000e+00
1.413000000000000000e+03,5.436890284843600742e-03,0.000000000000000000e+00
1.414000000000000000e+03,-2.426952624683798021e-02,0.000000000000000000e+00
1.415000000000000000e+03,2.151342423579854016e-02,0.000000000000000000e+00
1.416000000000000000e+03,-7.492484798852998285e-02,0.000000000000000000e+00
1.417000000000000000e+03,-9.297022650942041166e-02,0.000000000000000000e+00
1.418000000000000000e+03,-1.433260160065847055e-01,0.000000000000000000e+00
1.419000000000000000e+03,2.693240860361664768e-02,0.000000000000000000e+00
1.420000000000000000e+03,-6.005084072822209490e-02,0.000000000000000000e+00
1.421000000000000000e+03,-2.305136647429498892e-02,0.000000000000000000e+00
1.422000000000000000e+03,-8.739222039290470145e-02,0.000000000000000000e+00
1.423000000000000000e+03,5.669479929062969104e-02,0.000000000000000000e+00
1.424000000000000000e+03,8.294097532829740327e-02,0.000000000000000000e+00
1.425000000000000000e+03,1.990897411866927313e-01,0.000000000000000000e+00
1.426000000000000000e+03,2.415075329745537958e-01,0.000000000000000000e+00
1.427000000000000000e+03,8.294529916048407059e-02,0.000000000000000000e+00
1.428000000000000000e+03,-2.592923765861119278e-01,0.000000000000000000e+00
1.429000000000000000e+03,3.297801559023263301e-02,0.000000000000000000e+00
1.430000000000000000e+03,-3.290912047256639578e-02,0.000000000000000000e+00
1.431000000000000000e+03,2.280570395245901327e+00,0.000000000000000000e+00
1.432000000000000000e+03,2.059096297280311738e+00,0.000000000000000000e+00
1.433000000000000000e+03,-3.145379827700178210e-01,1.000000000000000000e+00
1.434000000000000000e+03,-7.954867053057212978e-01,0.000000000000000000e+00
1.435000000000000000e+03,-9.002201184107397891e-01,0.000000000000000000e+00
1.436000000000000000e+03,-7.836556938759168256e-01,0.000000000000000000e+00
1.437000000000000000e+03,-8.432935143277133783e-01,0.000000000000000000e+00
1.438000000000000000e+03,-5.863762313772775681e-01,0.000000000000000000e+00
1.439000000000000000e+03,-6.638780025629658077e-01,0.000000000000000000e+00
1.440000000000000000e+03,-4.724353705664671166e-01,0.000000000000000000e+00
1.441000000000000000e+03,-4.654608130914082986e-01,0.000000000000000000e+00
1.442000000000000000e+03,-3.128304909528087929e-01,0.000000000000000000e+00
1.443000000000000000e+03,-2.354275864561026776e-01,0.000000000000000000e+00
1.444000000000000000e+03,-1.295718537153404959e-01,0.000000000000000000e+00
1.445000000000000000e+03,-2.647810039228786286e-02,0.000000000000000000e+00
1.446000000000000000e+03,2.267476264183155843e-01,0.000000000000000000e+00
1.447000000000000000e+03,1.715994715321026987e-01,0.000000000000000000e+00
1.448000000000000000e+03,2.909396593052233637e-01,0.000000000000000000e+00
1.449000000000000000e+03,-3.837696341055043397e-02,0.000000000000000000e+00
1.450000000000000000e+03,8.581530178152262101e-02,0.000000000000000000e+00
1.451000000000000000e+03,1.792569010426483742e-02,0.000000000000000000e+00
1.452000000000000000e+03,-1.046170074619888340e-01,0.000000000000000000e+00
1.453000000000000000e+03,-2.353363341646291518e-01,0.000000000000000000e+00
1.454000000000000000e+03,-7.414264738592091231e-02,0.000000000000000000e+00
1.455000000000000000e+03,-7.091057134244974081e-02,0.000000000000000000e+00
1.456000000000000000e+03,8.287168826737351113e-02,0.000000000000000000e+00
1.457000000000000000e+03,2.950741502379118641e-02,0.000000000000000000e+00
1.458000000000000000e+03,2.071908752792827046e-01,0.000000000000000000e+00
1.459000000000000000e+03,1.330314504172485646e-01,0.000000000000000000e+00
1.460000000000000000e+03,1.633266318583405374e-01,0.000000000000000000e+00
1.461000000000000000e+03,6.515469512294956578e-02,0.000000000000000000e+00
1.462000000000000000e+03,1.108519555918022481e-01,0.000000000000000000e+00
1.463000000000000000e+03,5.450301865502240467e-02,0.000000000000000000e+00
1.464000000000000000e+03,1.088878302526922609e-01,0.000000000000000000e+00
1.465000000000000000e+03,-1.100635632324030964e-02,0.000000000000000000e+00
1.466000000000000000e+03,2.399753661292108875e-02,0.000000000000000000e+00
1.467000000000000000e+03,8.525980722164031023e-02,0.000000000000000000e+00
1.468000000000000000e+03,3.715078625948708274e-02,0.000000000000000000e+00
1.469000000000000000e+03,1.892713949730913947e-01,0.000000000000000000e+00
1.470000000000000000e+03,1.532448031237630404e-01,0.000000000000000000e+00
1.471000000000000000e+03,1.708349369524305439e-01,0.000000000000000000e+00
1.472000000000000000e+03,1.471946588904742281e-01,0.000000000000000000e+00
1.473000000000000000e+03,1.520360314703068927e-01,0.000000000000000000e+00
1.474000000000000000e+03,1.865389451993437198e-01,0.000000000000000000e+00
1.475000000000000000e+03,-2.965762166628141960e-01,0.000000000000000000e+00
1.476000000000000000e+03,-1.581109566085710585e-02,0.000000000000000000e+00
1.477000000000000000e+03,-2.181685179017518184e-01,0.000000000000000000e+00
1.478000000000000000e+03,1.749315589259044623e+00,0.000000000000000000e+00
1.479000000000000000e+03,2.293203796282215823e+00,0.000000000000000000e+00
1.480000000000000000e+03,-1.455733677764499967e-01,1.000000000000000000e+00
1.481000000000000000e+03,-6.755578642356122598e-01,0.000000000000000000e+00
1.482000000000000000e+03,-8.299601928061682843e-01,0.000000000000000000e+00
1.483000000000000000e+03,-6.349026888662053780e-01,0.000000000000000000e+00
1.484000000000000000e+03,-7.099252855757721692e-01,0.000000000000000000e+00
1.485000000000000000e+03,-4.571750846273519020e-01,0.000000000000000000e+00
1.486000000000000000e+03,-5.126095576953725308e-01,0.000000000000000000e+00
1.487000000000000000e+03,-3.500752704283188743e-01,0.000000000000000000e+00
1.488000000000000000e+03,-3.953645273041316854e-01,0.000000000000000000e+00
1.489000000000000000e+03,-1.654468104252652116e-01,0.000000000000000000e+00
1.490000000000000000e+03,-9.167465275613492781e-02,0.000000000000000000e+00
1.491000000000000000e+03,2.984065937899109053e-02,0.000000000000000000e+00
1.492000000000000000e+03,1.883868160857004037e-01,0.000000000000000000e+00
1.493000000000000000e+03,2.575014252899374134e-01,0.000000000000000000e+00
1.494000000000000000e+03,4.086837338197431557e-01,0.000000000000000000e+00
1.495000000000000000e+03,3.295545631031331912e-01,0.000000000000000000e+00
1.496000000000000000e+03,1.938443619598682888e-01,0.000000000000000000e+00
1.497000000000000000e+03,1.350185373839511149e-01,0.000000000000000000e+00
1.498000000000000000e+03,-8.892041166808799246e-02,0.000000000000000000e+00
1.499000000000000000e+03,-1.479044521999407502e-01,0.000000000000000000e+00
1.500000000000000000e+03,-1.950969732063940754e-01,0.000000000000000000e+00
1.501000000000000000e+03,-2.308561367421898824e-01,0.000000000000000000e+00
1.502000000000000000e+03,-2.866491313498183979e-01,0.000000000000000000e+00
1.503000000000000000e+03,-2.015955522737562441e-02,0.000000000000000000e+00
1.504000000000000000e+03,3.430990087939753651e-03,0.000000000000000000e+00
1.505000000000000000e+03,-1.688471557992307507e-03,0.000000000000000000e+00
1.506000000000000000e+03,6.588122119201665107e-03,0.000000000000000000e+00
1.507000000000000000e+03,-1.987639733022506655e-02,0.000000000000000000e+00
1.508000000000000000e+03,6.688030849326402627e-02,0.000000000000000000e+00
1.509000000000000000e+03,5.633901562257066092e-02,0.000000000000000000e+00
1.510000000000000000e+03,-7.909757067044530243e-02,0.000000000000000000e+00
1.511000000000000000e+03,-3.132797061723082560e-02,0.000000000000000000e+00
1.512000000000000000e+03,1.110432011519046566e-02,0.000000000000000000e+00
1.513000000000000000e+03,7.191584407255252089e-03,0.000000000000000000e+00
1.514000000000000000e+03,-4.073178815834489069e-02,0.000000000000000000e+00
1.515000000000000000e+03,3.560224591898818181e-02,0.000000000000000000e+00
1.516000000000000000e+03,1.113857128900286597e-01,0.000000000000000000e+00
1.517000000000000000e+03,1.755434082043441091e-01,0.000000000000000000e+00
1.518000000000000000e+03,1.191115628556426026e-01,0.000000000000000000e+00
1.519000000000000000e+03,1.919374961535573743e-01,0.000000000000000000e+00
1.520000000000000000e+03,8.563806380899499637e-02,0.000000000000000000e+00
1.521000000000000000e+03,-1.993475340345090066e-02,0.000000000000000000e+00
1.522000000000000000e+03,-1.965405233595567680e-01,0.000000000000000000e+00
1.523000000000000000e+03,-1.490704908636731815e-02,0.000000000000000000e+00
1.524000000000000000e+03,1.347698359887453956e-01,0.000000000000000000e+00
1.525000000000000000e+03,2.216353934913205759e+00,0.000000000000000000e+00
1.526000000000000000e+03,1.321370039598460000e+00,1.000000000000000000e+00
1.527000000000000000e+03,-5.091163046253408542e-01,0.000000000000000000e+00
1.528000000000000000e+03,-6.145336339468094877e-01,0.000000000000000000e+00
1.529000000000000000e+03,-7.063593112078583314e-01,0.000000000000000000e+00
1.530000000000000000e+03,-5.083702802224726591e-01,0.000000000000000000e+00
1.531000000000000000e+03,-6.033458007802896539e-01,0.000000000000000000e+00
1.532000000000000000e+03,-3.934122744114700310e-01,0.000000000000000000e+00
1.533000000000000000e+03,-3.672788178250857571e-01,0.000000000000000000e+00
1.534000000000000000e+03,-2.664095599002504478e-01,0.000000000000000000e+00
1.535000000000000000e+03,-2.505133761164418105e-01,0.000000000000000000e+00
1.536000000000000000e+03,-1.031349964648861084e-01,0.000000000000000000e+00
1.537000000000000000e+03,-4.838097801802891673e-02,0.000000000000000000e+00
1.538000000000000000e+03,1.013795941546139640e-01,0.000000000000000000e+00
1.539000000000000000e+03,3.161995064187319571e-01,0.000000000000000000e+00
1.540000000000000000e+03,3.556882464131347343e-01,0.000000000000000000e+00
1.541000000000000000e+03,3.232095816031542168e-01,0.000000000000000000e+00
1.542000000000000000e+03,3.907331755413782637e-01,0.000000000000000000e+00
1.543000000000000000e+03,1.685587711301421432e-01,0.000000000000000000e+00
1.544000000000000000e+03,3.522018138515437685e-02,0.000000000000000000e+00
1.545000000000000000e+03,-1.587698059248392468e-01,0.000000000000000000e+00
1.546000000000000000e+03,-1.874079203620578338e-01,0.000000000000000000e+00
1.547000000000000000e+03,-2.879427683656120562e-01,0.000000000000000000e+00
1.548000000000000000e+03,-2.401677526925362349e-01,0.000000000000000000e+00
1.549000000000000000e+03,-1.487370896902090733e-01,0.000000000000000000e+00
1.550000000000000000e+03,-7.894168115985202017e-02,0.000000000000000000e+00
1.551000000000000000e+03,-1.164207288128285209e-02,0.000000000000000000e+00
1.552000000000000000e+03,6.339440750501360022e-02,0.000000000000000000e+00
1.553000000000000000e+03,7.538211627632647460e-02,0.000000000000000000e+00
1.554000000000000000e+03,6.236735720263180023e-03,0.000000000000000000e+00
1.555000000000000000e+03,2.710600153809511123e-02,0.000000000000000000e+00
1.556000000000000000e+03,-2.990482480756482403e-02,0.000000000000000000e+00
1.557000000000000000e+03,-1.829007583977149479e-02,0.000000000000000000e+00
1.558000000000000000e+03,2.857364909490784158e-02,0.000000000000000000e+00
1.559000000000000000e+03,-1.099687091468461858e-01,0.000000000000000000e+00
1.560000000000000000e+03,-1.744866727530940131e-02,0.000000000000000000e+00
1.561000000000000000e+03,1.166392823842869221e-02,0.000000000000000000e+00
1.562000000000000000e+03,4.271994072778723811e-02,0.000000000000000000e+00
1.563000000000000000e+03,1.051210834372858088e-01,0.000000000000000000e+00
1.564000000000000000e+03,1.253806641641515007e-01,0.000000000000000000e+00
1.565000000000000000e+03,8.935486317056365313e-02,0.000000000000000000e+00
1.566000000000000000e+03,1.566081582410062123e-01,0.000000000000000000e+00
1.567000000000000000e+03,-2.122257704118325761e-01,0.000000000000000000e+00
1.568000000000000000e+03,-3.270113687581055473e-02,0.000000000000000000e+00
1.569000000000000000e+03,-2.362877666120782871e-02,0.000000000000000000e+00
1.570000000000000000e+03,8.669956780090702919e-01,0.000000000000000000e+00
1.571000000000000000e+03,2.316360337280486625e+00,0.000000000000000000e+00
1.572000000000000000e+03,3.125739734017364824e-01,1.000000000000000000e+00
1.573000000000000000e+03,-5.820477549776235104e-01,0.000000000000000000e+00
1.574000000000000000e+03,-8.092408224212576107e-01,0.000000000000000000e+00
1.575000000000000000e+03,-5.715128487977523264e-01,0.000000000000000000e+00
1.576000000000000000e+03,-5.507186477420726867e-01,0.000000000000000000e+00
1.577000000000000000e+03,-3.923893306051027818e-01,0.000000000000000000e+00
1.578000000000000000e+03,-4.602045093049541569e-01,0.000000000000000000e+00
1.579000000000000000e+03,-2.993555287566781464e-01,0.000000000000000000e+00
1.580000000000000000e+03,-3.000546497640239063e-01,0.000000000000000000e+00
1.581000000000000000e+03,-2.331601365893418154e-01,0.000000000000000000e+00
1.582000000000000000e+03,-9.345360060007498748e-02,0.000000000000000000e+00
1.583000000000000000e+03,1.139718489360795339e-01,0.000000000000000000e+00
1.584000000000000000e+03,1.003611960287261462e-01,0.000000000000000000e+00
1.585000000000000000e+03,3.057301602217470937e-01,0.000000000000000000e+00
1.586000000000000000e+03,3.578051509641532735e-01,0.000000000000000000e+00
1.587000000000000000e+03,3.853152989267759621e-01,0.000000000000000000e+00
1.588000000000000000e+03,2.037877638556086501e-01,0.000000000000000000e+00
