timestamp,ecg_measurement,qrs_detected
0.000000000000000000e+00,4.438018087986824178e-01,0.000000000000000000e+00
1.000000000000000000e+00,4.684691751371782287e-01,0.000000000000000000e+00
2.000000000000000000e+00,7.258792439873661129e-02,0.000000000000000000e+00
3.000000000000000000e+00,4.232014562974183158e-02,0.000000000000000000e+00
4.000000000000000000e+00,-5.382957764327338246e-02,0.000000000000000000e+00
5.000000000000000000e+00,-2.389548858250858249e-02,0.000000000000000000e+00
6.000000000000000000e+00,-1.036699230378671927e-01,0.000000000000000000e+00
7.000000000000000000e+00,-1.245852338827818789e-01,0.000000000000000000e+00
8.000000000000000000e+00,-5.963428106114802146e-02,0.000000000000000000e+00
9.000000000000000000e+00,-3.232142971823877969e-02,0.000000000000000000e+00
1.000000000000000000e+01,-1.076322613970368824e-01,0.000000000000000000e+00
1.100000000000000000e+01,-5.316378271115206056e-02,0.000000000000000000e+00
1.200000000000000000e+01,8.118112476685650225e-02,0.000000000000000000e+00
1.300000000000000000e+01,-7.491897268327230019e-02,0.000000000000000000e+00
1.400000000000000000e+01,6.647886157807500127e-03,0.000000000000000000e+00
1.500000000000000000e+01,-8.530841083262656610e-02,0.000000000000000000e+00
1.600000000000000000e+01,-7.759989581244894352e-02,0.000000000000000000e+00
1.700000000000000000e+01,-1.167202719919978177e-01,0.000000000000000000e+00
1.800000000000000000e+01,-1.678321187924174465e-02,0.000000000000000000e+00
1.900000000000000000e+01,-1.395011746243517703e-01,0.000000000000000000e+00
2.000000000000000000e+01,-1.564042038293118886e-01,0.000000000000000000e+00
2.100000000000000000e+01,-1.878964443793592620e-01,0.000000000000000000e+00
2.200000000000000000e+01,-2.385713165966078797e-01,0.000000000000000000e+00
2.300000000000000000e+01,-2.172995737328279053e-01,0.000000000000000000e+00
2.400000000000000000e+01,-1.526754399583805377e-01,0.000000000000000000e+00
2.500000000000000000e+01,-1.193649883344108376e-01,0.000000000000000000e+00
2.600000000000000000e+01,-7.718760516864917043e-02,0.000000000000000000e+00
2.700000000000000000e+01,-2.823630759253302203e-01,0.000000000000000000e+00
2.800000000000000000e+01,-3.416226322485491074e-01,0.000000000000000000e+00
2.900000000000000000e+01,-2.416072168012476928e-01,0.000000000000000000e+00
3.000000000000000000e+01,3.506790775893931650e-02,0.000000000000000000e+00
3.100000000000000000e+01,1.791027436592937061e+00,0.000000000000000000e+00
3.200000000000000000e+01,9.722694040628394596e-01,1.000000000000000000e+00
3.300000000000000000e+01,-7.548356174505608251e-01,0.000000000000000000e+00
3.400000000000000000e+01,-6.916890538901564467e-01,0.000000000000000000e+00
3.500000000000000000e+01,-7.150425482567803748e-01,0.000000000000000000e+00
3.600000000000000000e+01,-6.134644397875157473e-01,0.000000000000000000e+00
3.700000000000000000e+01,-6.457968178576503071e-01,0.000000000000000000e+00
3.800000000000000000e+01,-5.286333714099270553e-01,0.000000000000000000e+00
3.900000000000000000e+01,-4.648373146917896270e-01,0.000000000000000000e+00
4.000000000000000000e+01,-3.077118165570720265e-01,0.000000000000000000e+00
4.100000000000000000e+01,-3.087380637410537254e-01,0.000000000000000000e+00
4.200000000000000000e+01,-1.364849192277880485e-01,0.000000000000000000e+00
4.300000000000000000e+01,-1.226259133015841357e-01,0.000000000000000000e+00
4.400000000000000000e+01,1.711336388115471466e-02,0.000000000000000000e+00
4.500000000000000000e+01,2.461209179402197300e-01,0.000000000000000000e+00
4.600000000000000000e+01,3.727235563502296900e-01,0.000000000000000000e+00
4.700000000000000000e+01,3.746047300104635158e-01,0.000000000000000000e+00
4.800000000000000000e+01,4.472291673738776341e-01,0.000000000000000000e+00
4.900000000000000000e+01,2.474537136599646303e-01,0.000000000000000000e+00
5.000000000000000000e+01,1.569703108505290379e-01,0.000000000000000000e+00
5.100000000000000000e+01,1.316421291624043366e-01,0.000000000000000000e+00
5.200000000000000000e+01,-1.202515171820492668e-01,0.000000000000000000e+00
5.300000000000000000e+01,-3.152608388493031988e-02,0.000000000000000000e+00
5.400000000000000000e+01,-2.199913499416764409e-02,0.000000000000000000e+00
5.500000000000000000e+01,5.772456501250521066e-02,0.000000000000000000e+00
5.600000000000000000e+01,-1.897831215492835899e-01,0.000000000000000000e+00
5.700000000000000000e+01,-3.762923422689178066e-02,0.000000000000000000e+00
5.800000000000000000e+01,-4.508614868768134193e-02,0.000000000000000000e+00
5.900000000000000000e+01,-5.479801369624929391e-02,0.000000000000000000e+00
6.000000000000000000e+01,1.182367564098829177e-01,0.000000000000000000e+00
6.100000000000000000e+01,-5.534986553020865979e-02,0.000000000000000000e+00
6.200000000000000000e+01,1.417873043274192335e-01,0.000000000000000000e+00
6.300000000000000000e+01,-4.704228388635955938e-02,0.000000000000000000e+00
6.400000000000000000e+01,8.721709207451498747e-02,0.000000000000000000e+00
6.500000000000000000e+01,-8.238432486099594998e-02,0.000000000000000000e+00
6.600000000000000000e+01,5.005491567870826164e-02,0.000000000000000000e+00
6.700000000000000000e+01,2.691296469632074861e-02,0.000000000000000000e+00
6.800000000000000000e+01,1.616555963851838695e-01,0.000000000000000000e+00
6.900000000000000000e+01,2.682643809836780524e-01,0.000000000000000000e+00
7.000000000000000000e+01,6.638646666526414331e-01,0.000000000000000000e+00
7.100000000000000000e+01,2.340409330706223923e+00,0.000000000000000000e+00
7.200000000000000000e+01,8.634365874373884919e-01,1.000000000000000000e+00
7.300000000000000000e+01,-3.887569366626641987e-01,0.000000000000000000e+00
7.400000000000000000e+01,-5.899818540506927000e-01,0.000000000000000000e+00
7.500000000000000000e+01,-7.414318553033496517e-01,0.000000000000000000e+00
7.600000000000000000e+01,-4.356477131847578677e-01,0.000000000000000000e+00
7.700000000000000000e+01,-3.985909438102437363e-01,0.000000000000000000e+00
7.800000000000000000e+01,-4.744895608927295338e-01,0.000000000000000000e+00
7.900000000000000000e+01,-4.178251666928763375e-01,0.000000000000000000e+00
8.000000000000000000e+01,-3.690425178038393428e-01,0.000000000000000000e+00
8.100000000000000000e+01,-2.062242976470722855e-01,0.000000000000000000e+00
8.200000000000000000e+01,-3.031599418279595781e-01,0.000000000000000000e+00
8.300000000000000000e+01,-2.835118300406486158e-01,0.000000000000000000e+00
8.400000000000000000e+01,-1.237146611869663348e-01,0.000000000000000000e+00
8.500000000000000000e+01,6.733255570220073039e-02,0.000000000000000000e+00
8.600000000000000000e+01,1.284526364356221861e-01,0.000000000000000000e+00
8.700000000000000000e+01,1.726870398755076808e-01,0.000000000000000000e+00
8.800000000000000000e+01,1.495922043480353292e-01,0.000000000000000000e+00
8.900000000000000000e+01,1.140903009274351204e-01,0.000000000000000000e+00
9.000000000000000000e+01,3.693123898940116334e-02,0.000000000000000000e+00
9.100000000000000000e+01,-5.505091943501923268e-02,0.000000000000000000e+00
9.200000000000000000e+01,-8.276156089122353732e-02,0.000000000000000000e+00
9.300000000000000000e+01,-1.209329533200948215e-01,0.000000000000000000e+00
9.400000000000000000e+01,-1.796234185593447719e-01,0.000000000000000000e+00
9.500000000000000000e+01,-6.606837999768132297e-02,0.000000000000000000e+00
9.600000000000000000e+01,-6.680805952063985365e-02,0.000000000000000000e+00
9.700000000000000000e+01,-5.917169420227275795e-02,0.000000000000000000e+00
9.800000000000000000e+01,-6.258401546618950866e-03,0.000000000000000000e+00
9.900000000000000000e+01,5.761856754276617476e-02,0.000000000000000000e+00
1.000000000000000000e+02,1.739760859082797595e-01,0.000000000000000000e+00
1.010000000000000000e+02,7.423491746432994698e-02,0.000000000000000000e+00
1.020000000000000000e+02,2.311926897755043897e-01,0.000000000000000000e+00
1.030000000000000000e+02,1.570861630488908922e-01,0.000000000000000000e+00
1.040000000000000000e+02,7.172324517222625206e-02,0.000000000000000000e+00
1.050000000000000000e+02,5.580323447777726237e-02,0.000000000000000000e+00
1.060000000000000000e+02,8.884592754447247220e-02,0.000000000000000000e+00
1.070000000000000000e+02,5.645431712545190966e-02,0.000000000000000000e+00
1.080000000000000000e+02,-1.100762470417774863e-01,0.000000000000000000e+00
1.090000000000000000e+02,-1.497319171082251398e-02,0.000000000000000000e+00
1.100000000000000000e+02,-1.009684404539250568e-01,0.000000000000000000e+00
1.110000000000000000e+02,-4.007192557060329854e-03,0.000000000000000000e+00
1.120000000000000000e+02,5.551497189646577811e-03,0.000000000000000000e+00
1.130000000000000000e+02,-1.417818663837037141e-01,0.000000000000000000e+00
1.140000000000000000e+02,-9.315164646392759540e-02,0.000000000000000000e+00
1.150000000000000000e+02,1.351410745054199003e-01,0.000000000000000000e+00
1.160000000000000000e+02,9.222614859642168372e-02,0.000000000000000000e+00
1.170000000000000000e+02,5.222101408338154782e-02,0.000000000000000000e+00
1.180000000000000000e+02,-2.118179159355811358e-01,0.000000000000000000e+00
1.190000000000000000e+02,-2.605311576194941359e-01,0.000000000000000000e+00
1.200000000000000000e+02,-1.857736675801870685e-01,0.000000000000000000e+00
1.210000000000000000e+02,9.800113201006405150e-01,0.000000000000000000e+00
1.220000000000000000e+02,2.034473427019266367e+00,0.000000000000000000e+00
1.230000000000000000e+02,2.198553587632601225e-01,1.000000000000000000e+00
1.240000000000000000e+02,-7.152889489434964831e-01,0.000000000000000000e+00
1.250000000000000000e+02,-8.932212797423149109e-01,0.000000000000000000e+00
1.260000000000000000e+02,-7.599749304884446666e-01,0.000000000000000000e+00
1.270000000000000000e+02,-8.865387213390035770e-01,0.000000000000000000e+00
1.280000000000000000e+02,-6.755407195922527031e-01,0.000000000000000000e+00
1.290000000000000000e+02,-6.247239177560424128e-01,0.000000000000000000e+00
1.300000000000000000e+02,-5.449594648245937867e-01,0.000000000000000000e+00
1.310000000000000000e+02,-5.450703024951354392e-01,0.000000000000000000e+00
1.320000000000000000e+02,-4.536655903722643379e-01,0.000000000000000000e+00
1.330000000000000000e+02,-4.762325078532393396e-01,0.000000000000000000e+00
1.340000000000000000e+02,-1.837976023041421048e-01,0.000000000000000000e+00
1.350000000000000000e+02,-1.550997784702953519e-01,0.000000000000000000e+00
1.360000000000000000e+02,-2.757321011539372660e-02,0.000000000000000000e+00
1.370000000000000000e+02,1.791306392313967710e-01,0.000000000000000000e+00
1.380000000000000000e+02,2.323858035599451199e-01,0.000000000000000000e+00
1.390000000000000000e+02,2.978715899388613142e-01,0.000000000000000000e+00
1.400000000000000000e+02,2.124281383601163420e-01,0.000000000000000000e+00
1.410000000000000000e+02,1.441589488560610643e-01,0.000000000000000000e+00
1.420000000000000000e+02,7.072065360512627685e-02,0.000000000000000000e+00
1.430000000000000000e+02,-1.033903555035882854e-01,0.000000000000000000e+00
1.440000000000000000e+02,-7.547740014302821432e-02,0.000000000000000000e+00
1.450000000000000000e+02,-6.745762384793089518e-03,0.000000000000000000e+00
1.460000000000000000e+02,-1.000531174784379251e-01,0.000000000000000000e+00
1.470000000000000000e+02,-4.479122046394868467e-02,0.000000000000000000e+00
1.480000000000000000e+02,-1.624558405852126811e-02,0.000000000000000000e+00
1.490000000000000000e+02,-4.909578963903344501e-02,0.000000000000000000e+00
1.500000000000000000e+02,1.177815273639920418e-01,0.000000000000000000e+00
1.510000000000000000e+02,1.902455436074433903e-01,0.000000000000000000e+00
1.520000000000000000e+02,2.012827138738465249e-01,0.000000000000000000e+00
1.530000000000000000e+02,1.813175185070696471e-01,0.000000000000000000e+00
1.540000000000000000e+02,1.521188341765919994e-01,0.000000000000000000e+00
1.550000000000000000e+02,1.053038973155708963e-01,0.000000000000000000e+00
1.560000000000000000e+02,7.625114407453997822e-02,0.000000000000000000e+00
1.570000000000000000e+02,1.703572358114589236e-01,0.000000000000000000e+00
1.580000000000000000e+02,1.819700696874580192e-01,0.000000000000000000e+00
1.590000000000000000e+02,2.107679939228123134e-01,0.000000000000000000e+00
1.600000000000000000e+02,2.395425682465322781e-01,0.000000000000000000e+00
1.610000000000000000e+02,1.197488501232286673e-01,0.000000000000000000e+00
1.620000000000000000e+02,-1.501619989195281391e-01,0.000000000000000000e+00
1.630000000000000000e+02,1.050649939602277122e-01,0.000000000000000000e+00
1.640000000000000000e+02,1.803298162311786079e-01,0.000000000000000000e+00
1.650000000000000000e+02,2.069273771019335406e+00,0.000000000000000000e+00
1.660000000000000000e+02,1.925040152434081220e+00,0.000000000000000000e+00
1.670000000000000000e+02,-8.925409203021589244e-02,1.000000000000000000e+00
1.680000000000000000e+02,-6.231834275600928175e-01,0.000000000000000000e+00
1.690000000000000000e+02,-6.734341219671716727e-01,0.000000000000000000e+00
1.700000000000000000e+02,-5.937918078141704026e-01,0.000000000000000000e+00
1.710000000000000000e+02,-6.228186802413822054e-01,0.000000000000000000e+00
1.720000000000000000e+02,-4.859483137389685736e-01,0.000000000000000000e+00
1.730000000000000000e+02,-4.192272116846762486e-01,0.000000000000000000e+00
1.740000000000000000e+02,-3.585974652131095897e-01,0.000000000000000000e+00
1.750000000000000000e+02,-4.361431194174225645e-01,0.000000000000000000e+00
1.760000000000000000e+02,-3.534620363437536161e-01,0.000000000000000000e+00
1.770000000000000000e+02,-1.121015771366963426e-01,0.000000000000000000e+00
1.780000000000000000e+02,6.328440532574088062e-02,0.000000000000000000e+00
1.790000000000000000e+02,-6.985606507481713356e-02,0.000000000000000000e+00
1.800000000000000000e+02,2.415470482563045751e-01,0.000000000000000000e+00
1.810000000000000000e+02,3.913679245715603883e-01,0.000000000000000000e+00
1.820000000000000000e+02,4.209494852439293333e-01,0.000000000000000000e+00
1.830000000000000000e+02,2.903660460319976155e-01,0.000000000000000000e+00
1.840000000000000000e+02,1.732420454236466012e-01,0.000000000000000000e+00
1.850000000000000000e+02,2.454675740629431724e-01,0.000000000000000000e+00
1.860000000000000000e+02,1.424268476369558722e-01,0.000000000000000000e+00
1.870000000000000000e+02,2.715439416542729523e-02,0.000000000000000000e+00
1.880000000000000000e+02,-5.560221864468944258e-02,0.000000000000000000e+00
1.890000000000000000e+02,3.880736734141396194e-02,0.000000000000000000e+00
1.900000000000000000e+02,8.689727975861566422e-02,0.000000000000000000e+00
1.910000000000000000e+02,-2.731260753948758571e-03,0.000000000000000000e+00
1.920000000000000000e+02,6.967708500772162861e-02,0.000000000000000000e+00
1.930000000000000000e+02,1.283782715837911426e-01,0.000000000000000000e+00
1.940000000000000000e+02,2.578569538380545145e-01,0.000000000000000000e+00
1.950000000000000000e+02,1.994087255812057591e-01,0.000000000000000000e+00
1.960000000000000000e+02,1.871211469817606610e-01,0.000000000000000000e+00
1.970000000000000000e+02,3.199671689906294914e-01,0.000000000000000000e+00
1.980000000000000000e+02,7.251387276236585799e-02,0.000000000000000000e+00
1.990000000000000000e+02,2.523066844945014431e-01,0.000000000000000000e+00
2.000000000000000000e+02,9.832219509609405050e-02,0.000000000000000000e+00
2.010000000000000000e+02,1.799092964853578058e-01,0.000000000000000000e+00
2.020000000000000000e+02,1.989717733908452080e-01,0.000000000000000000e+00
2.030000000000000000e+02,3.114274039691304896e-01,0.000000000000000000e+00
2.040000000000000000e+02,3.683954866819182938e-01,0.000000000000000000e+00
2.050000000000000000e+02,2.460784056375297513e-01,0.000000000000000000e+00
2.060000000000000000e+02,-6.584012143250050908e-02,0.000000000000000000e+00
2.070000000000000000e+02,1.534141507481831257e-01,0.000000000000000000e+00
2.080000000000000000e+02,-8.776308682912928316e-02,0.000000000000000000e+00
2.090000000000000000e+02,1.518430528675774438e+00,0.000000000000000000e+00
2.100000000000000000e+02,2.570006231324239110e+00,0.000000000000000000e+00
2.110000000000000000e+02,2.030279807668162184e-01,1.000000000000000000e+00
2.120000000000000000e+02,-6.325236938437180934e-01,0.000000000000000000e+00
2.130000000000000000e+02,-9.627936478095922013e-01,0.000000000000000000e+00
2.140000000000000000e+02,-7.487721529181808888e-01,0.000000000000000000e+00
2.150000000000000000e+02,-7.496637107623080887e-01,0.000000000000000000e+00
2.160000000000000000e+02,-5.369580721401844281e-01,0.000000000000000000e+00
2.170000000000000000e+02,-5.613028457721260800e-01,0.000000000000000000e+00
2.180000000000000000e+02,-4.828914626536665033e-01,0.000000000000000000e+00
2.190000000000000000e+02,-5.091417655541292664e-01,0.000000000000000000e+00
2.200000000000000000e+02,-2.378481955614349386e-01,0.000000000000000000e+00
2.210000000000000000e+02,-3.076385429313611142e-01,0.000000000000000000e+00
2.220000000000000000e+02,-6.791905490988951744e-02,0.000000000000000000e+00
2.230000000000000000e+02,-2.721249086959130759e-02,0.000000000000000000e+00
2.240000000000000000e+02,1.956542926819500317e-01,0.000000000000000000e+00
2.250000000000000000e+02,3.089135544775986619e-01,0.000000000000000000e+00
2.260000000000000000e+02,3.360068514951856655e-01,0.000000000000000000e+00
2.270000000000000000e+02,2.062186762329176470e-01,0.000000000000000000e+00
2.280000000000000000e+02,2.144897667519653217e-01,0.000000000000000000e+00
2.290000000000000000e+02,6.038809844204862110e-02,0.000000000000000000e+00
2.300000000000000000e+02,-6.045009114088267105e-02,0.000000000000000000e+00
2.310000000000000000e+02,-1.124483898724439324e-01,0.000000000000000000e+00
2.320000000000000000e+02,-8.484343571637045778e-02,0.000000000000000000e+00
2.330000000000000000e+02,-1.999683236458414115e-01,0.000000000000000000e+00
2.340000000000000000e+02,-1.609019194191580460e-01,0.000000000000000000e+00
2.350000000000000000e+02,-1.908319692461494799e-01,0.000000000000000000e+00
2.360000000000000000e+02,-4.760581461665145536e-02,0.000000000000000000e+00
2.370000000000000000e+02,-1.825818486527936158e-01,0.000000000000000000e+00
2.380000000000000000e+02,-6.496542449605764193e-03,0.000000000000000000e+00
2.390000000000000000e+02,8.017881063260093311e-02,0.000000000000000000e+00
2.400000000000000000e+02,-8.058154632530355882e-03,0.000000000000000000e+00
2.410000000000000000e+02,6.509671553542766172e-03,0.000000000000000000e+00
2.420000000000000000e+02,-1.068039484600976641e-01,0.000000000000000000e+00
2.430000000000000000e+02,1.051856680455053317e-01,0.000000000000000000e+00
2.440000000000000000e+02,-8.119202266800547643e-03,0.000000000000000000e+00
2.450000000000000000e+02,-7.329604533886861784e-02,0.000000000000000000e+00
2.460000000000000000e+02,-5.307278727196182086e-03,0.000000000000000000e+00
2.470000000000000000e+02,5.825756120993502707e-02,0.000000000000000000e+00
2.480000000000000000e+02,1.044092217975224057e-01,0.000000000000000000e+00
2.490000000000000000e+02,1.594444791331791900e-01,0.000000000000000000e+00
2.500000000000000000e+02,4.336864284724386426e-02,0.000000000000000000e+00
2.510000000000000000e+02,-3.025375880645477245e-01,0.000000000000000000e+00
2.520000000000000000e+02,1.963865610990884678e-02,0.000000000000000000e+00
2.530000000000000000e+02,-1.860004350810630924e-01,0.000000000000000000e+00
2.540000000000000000e+02,1.980274000764476128e+00,0.000000000000000000e+00
2.550000000000000000e+02,2.235733545653552756e+00,0.000000000000000000e+00
2.560000000000000000e+02,-2.260538474393287978e-01,1.000000000000000000e+00
2.570000000000000000e+02,-8.391317722013681424e-01,0.000000000000000000e+00
2.580000000000000000e+02,-1.012499037147924774e+00,0.000000000000000000e+00
2.590000000000000000e+02,-9.027643437053352038e-01,0.000000000000000000e+00
2.600000000000000000e+02,-8.797427980827726701e-01,0.000000000000000000e+00
2.610000000000000000e+02,-7.135477825535938567e-01,0.000000000000000000e+00
2.620000000000000000e+02,-7.409334779816270089e-01,0.000000000000000000e+00
2.630000000000000000e+02,-5.311197585821523237e-01,0.000000000000000000e+00
2.640000000000000000e+02,-6.968438093466887695e-01,0.000000000000000000e+00
2.650000000000000000e+02,-3.845221334238414501e-01,0.000000000000000000e+00
2.660000000000000000e+02,-4.381841637556281310e-01,0.000000000000000000e+00
2.670000000000000000e+02,-2.352832672131766056e-01,0.000000000000000000e+00
2.680000000000000000e+02,-1.139863568725988513e-01,0.000000000000000000e+00
2.690000000000000000e+02,3.773670616493127877e-02,0.000000000000000000e+00
2.700000000000000000e+02,1.534420445763994001e-01,0.000000000000000000e+00
2.710000000000000000e+02,2.306215484347486633e-01,0.000000000000000000e+00
2.720000000000000000e+02,1.866221979044586921e-01,0.000000000000000000e+00
2.730000000000000000e+02,-3.835479242338334094e-02,0.000000000000000000e+00
2.740000000000000000e+02,-1.081225855087779818e-02,0.000000000000000000e+00
2.750000000000000000e+02,-1.407761751746599566e-01,0.000000000000000000e+00
2.760000000000000000e+02,-1.898676623030882971e-01,0.000000000000000000e+00
2.770000000000000000e+02,-1.966617781132142528e-01,0.000000000000000000e+00
2.780000000000000000e+02,-3.028446172674301162e-01,0.000000000000000000e+00
2.790000000000000000e+02,-1.672936156827813658e-01,0.000000000000000000e+00
2.800000000000000000e+02,-3.087516601956696305e-01,0.000000000000000000e+00
2.810000000000000000e+02,-1.167394214653398321e-01,0.000000000000000000e+00
2.820000000000000000e+02,6.091150771895757765e-02,0.000000000000000000e+00
2.830000000000000000e+02,1.989481821936272057e-02,0.000000000000000000e+00
2.840000000000000000e+02,8.794749194352456667e-02,0.000000000000000000e+00
2.850000000000000000e+02,3.302629831107613961e-02,0.000000000000000000e+00
2.860000000000000000e+02,1.017733340139898024e-01,0.000000000000000000e+00
2.870000000000000000e+02,7.761209862959328465e-02,0.000000000000000000e+00
2.880000000000000000e+02,-1.778701149597788217e-02,0.000000000000000000e+00
2.890000000000000000e+02,1.548347123456010090e-02,0.000000000000000000e+00
2.900000000000000000e+02,5.233808819099579346e-02,0.000000000000000000e+00
2.910000000000000000e+02,8.670155316627943531e-02,0.000000000000000000e+00
2.920000000000000000e+02,2.698117623624173012e-02,0.000000000000000000e+00
2.930000000000000000e+02,1.667586948150208692e-01,0.000000000000000000e+00
2.940000000000000000e+02,5.959389760328281938e-02,0.000000000000000000e+00
2.950000000000000000e+02,3.586966680810895203e-01,0.000000000000000000e+00
2.960000000000000000e+02,2.512207997689144823e-01,0.000000000000000000e+00
2.970000000000000000e+02,1.916797593518848875e-01,0.000000000000000000e+00
2.980000000000000000e+02,-5.527969312179654982e-02,0.000000000000000000e+00
2.990000000000000000e+02,2.059172894423491607e-01,0.000000000000000000e+00
3.000000000000000000e+02,1.531007502730456771e-01,0.000000000000000000e+00
3.010000000000000000e+02,2.423139859030876142e+00,0.000000000000000000e+00
3.020000000000000000e+02,2.297842725046941315e+00,0.000000000000000000e+00
3.030000000000000000e+02,-5.103824859296939714e-02,1.000000000000000000e+00
3.040000000000000000e+02,-6.931359213765218019e-01,0.000000000000000000e+00
3.050000000000000000e+02,-8.332392751526415120e-01,0.000000000000000000e+00
3.060000000000000000e+02,-6.324125954437307406e-01,0.000000000000000000e+00
3.070000000000000000e+02,-5.135311828484949714e-01,0.000000000000000000e+00
3.080000000000000000e+02,-4.996587449626505584e-01,0.000000000000000000e+00
3.090000000000000000e+02,-4.918758956145875549e-01,0.000000000000000000e+00
3.100000000000000000e+02,-3.761415161958867603e-01,0.000000000000000000e+00
3.110000000000000000e+02,-3.105511759023373841e-01,0.000000000000000000e+00
3.120000000000000000e+02,-8.949857984603327987e-02,0.000000000000000000e+00
3.130000000000000000e+02,-2.515225119894072270e-01,0.000000000000000000e+00
3.140000000000000000e+02,-8.574437305824319719e-03,0.000000000000000000e+00
3.150000000000000000e+02,1.764935261428219604e-01,0.000000000000000000e+00
3.160000000000000000e+02,2.994784950836885118e-01,0.000000000000000000e+00
3.170000000000000000e+02,4.108055615538733774e-01,0.000000000000000000e+00
3.180000000000000000e+02,3.608576063871171691e-01,0.000000000000000000e+00
3.190000000000000000e+02,3.364506532789151572e-01,0.000000000000000000e+00
3.200000000000000000e+02,3.256483987914193245e-01,0.000000000000000000e+00
3.210000000000000000e+02,4.667855896258660958e-02,0.000000000000000000e+00
3.220000000000000000e+02,1.249782762788226309e-01,0.000000000000000000e+00
3.230000000000000000e+02,-6.807235932700105019e-02,0.000000000000000000e+00
3.240000000000000000e+02,3.277123694740677329e-02,0.000000000000000000e+00
3.250000000000000000e+02,-2.020280688603034308e-02,0.000000000000000000e+00
3.260000000000000000e+02,-1.469379625578169819e-02,0.000000000000000000e+00
3.270000000000000000e+02,5.384258037541574116e-02,0.000000000000000000e+00
3.280000000000000000e+02,9.002463593837869982e-02,0.000000000000000000e+00
3.290000000000000000e+02,2.325071475043708480e-01,0.000000000000000000e+00
3.300000000000000000e+02,1.641043026778169212e-01,0.000000000000000000e+00
3.310000000000000000e+02,2.310390130059880587e-01,0.000000000000000000e+00
3.320000000000000000e+02,1.937620143237721304e-01,0.000000000000000000e+00
3.330000000000000000e+02,1.638475017646295884e-01,0.000000000000000000e+00
3.340000000000000000e+02,9.386422335132867112e-02,0.000000000000000000e+00
3.350000000000000000e+02,9.594086553234927595e-02,0.000000000000000000e+00
3.360000000000000000e+02,1.190375692842488425e-01,0.000000000000000000e+00
3.370000000000000000e+02,-4.438740232716170686e-02,0.000000000000000000e+00
3.380000000000000000e+02,-1.584395154281846019e-01,0.000000000000000000e+00
3.390000000000000000e+02,3.370084736522837264e-03,0.000000000000000000e+00
3.400000000000000000e+02,-1.527589188685593846e-01,0.000000000000000000e+00
3.410000000000000000e+02,4.504658752730930638e-02,0.000000000000000000e+00
3.420000000000000000e+02,1.837699906744637568e-01,0.000000000000000000e+00
3.430000000000000000e+02,2.287373605793473208e-01,0.000000000000000000e+00
3.440000000000000000e+02,-3.555084219591242434e-02,0.000000000000000000e+00
3.450000000000000000e+02,2.020095279772942121e+00,0.000000000000000000e+00
3.460000000000000000e+02,2.393679675096920256e+00,0.000000000000000000e+00
3.470000000000000000e+02,-3.488113506118628027e-01,1.000000000000000000e+00
3.480000000000000000e+02,-9.009328678737307250e-01,0.000000000000000000e+00
3.490000000000000000e+02,-1.057283450350058107e+00,0.000000000000000000e+00
3.500000000000000000e+02,-8.911488471165709413e-01,0.000000000000000000e+00
3.510000000000000000e+02,-8.893159566057463605e-01,0.000000000000000000e+00
3.520000000000000000e+02,-8.087758259976387532e-01,0.000000000000000000e+00
3.530000000000000000e+02,-8.129378938070220828e-01,0.000000000000000000e+00
3.540000000000000000e+02,-6.414735820571251246e-01,0.000000000000000000e+00
3.550000000000000000e+02,-6.761013450900105193e-01,0.000000000000000000e+00
3.560000000000000000e+02,-4.809624268816182768e-01,0.000000000000000000e+00
3.570000000000000000e+02,-3.864211877867725353e-01,0.000000000000000000e+00
3.580000000000000000e+02,-2.823202538682380025e-01,0.000000000000000000e+00
3.590000000000000000e+02,-1.118553371460924012e-01,0.000000000000000000e+00
3.600000000000000000e+02,9.765861502303803399e-02,0.000000000000000000e+00
3.610000000000000000e+02,7.600839496155173403e-02,0.000000000000000000e+00
3.620000000000000000e+02,2.313766934299388844e-01,0.000000000000000000e+00
3.630000000000000000e+02,7.472861776781328236e-02,0.000000000000000000e+00
3.640000000000000000e+02,-1.222391616944091923e-02,0.000000000000000000e+00
3.650000000000000000e+02,-1.302071566271394490e-02,0.000000000000000000e+00
3.660000000000000000e+02,-1.377641169129835697e-01,0.000000000000000000e+00
3.670000000000000000e+02,-1.679473394306151002e-01,0.000000000000000000e+00
3.680000000000000000e+02,-1.720284748387572171e-01,0.000000000000000000e+00
3.690000000000000000e+02,-2.324290107202841849e-01,0.000000000000000000e+00
3.700000000000000000e+02,-1.727096245276946995e-01,0.000000000000000000e+00
3.710000000000000000e+02,-1.499870241516221558e-01,0.000000000000000000e+00
3.720000000000000000e+02,-5.444745271395249990e-03,0.000000000000000000e+00
3.730000000000000000e+02,4.657402260683584511e-02,0.000000000000000000e+00
3.740000000000000000e+02,-7.942016824519590457e-02,0.000000000000000000e+00
3.750000000000000000e+02,-3.057652211082230453e-02,0.000000000000000000e+00
3.760000000000000000e+02,-1.983681989293515149e-02,0.000000000000000000e+00
3.770000000000000000e+02,2.423141465049063331e-02,0.000000000000000000e+00
3.780000000000000000e+02,-2.825510865406867522e-02,0.000000000000000000e+00
3.790000000000000000e+02,-8.287370258556642222e-02,0.000000000000000000e+00
3.800000000000000000e+02,-4.665435096563867734e-02,0.000000000000000000e+00
3.810000000000000000e+02,-3.624049124302100577e-02,0.000000000000000000e+00
3.820000000000000000e+02,-6.346288809038994061e-02,0.000000000000000000e+00
3.830000000000000000e+02,-2.543265091727300170e-02,0.000000000000000000e+00
3.840000000000000000e+02,1.683524293880308415e-02,0.000000000000000000e+00
3.850000000000000000e+02,-2.506276899173331268e-02,0.000000000000000000e+00
3.860000000000000000e+02,9.912045006067345121e-02,0.000000000000000000e+00
3.870000000000000000e+02,-6.078677659815691012e-03,0.000000000000000000e+00
3.880000000000000000e+02,2.461757986207583834e-02,0.000000000000000000e+00
3.890000000000000000e+02,3.254620106154160197e-02,0.000000000000000000e+00
3.900000000000000000e+02,1.833736393864348058e-01,0.000000000000000000e+00
3.910000000000000000e+02,2.980164441159098287e-01,0.000000000000000000e+00
3.920000000000000000e+02,1.043554699262447261e-01,0.000000000000000000e+00
3.930000000000000000e+02,-8.324362770309849668e-02,0.000000000000000000e+00
3.940000000000000000e+02,1.045629176451219611e-01,0.000000000000000000e+00
3.950000000000000000e+02,-1.093761782109280156e-01,0.000000000000000000e+00
3.960000000000000000e+02,9.333044792420214231e-01,0.000000000000000000e+00
3.970000000000000000e+02,2.801596398854938386e+00,0.000000000000000000e+00
3.980000000000000000e+02,6.325013389004700004e-01,1.000000000000000000e+00
3.990000000000000000e+02,-6.142326650800601362e-01,0.000000000000000000e+00
4.000000000000000000e+02,-7.405679557922131284e-01,0.000000000000000000e+00
4.010000000000000000e+02,-5.837335315873495301e-01,0.000000000000000000e+00
4.020000000000000000e+02,-7.050592772888059079e-01,0.000000000000000000e+00
4.030000000000000000e+02,-5.448444840088161323e-01,0.000000000000000000e+00
4.040000000000000000e+02,-4.102216298119983340e-01,0.000000000000000000e+00
4.050000000000000000e+02,-4.345738586544261040e-01,0.000000000000000000e+00
4.060000000000000000e+02,-2.124704383941764807e-01,0.000000000000000000e+00
4.070000000000000000e+02,-3.594599230869131579e-01,0.000000000000000000e+00
4.080000000000000000e+02,-2.355671282720301837e-02,0.000000000000000000e+00
4.090000000000000000e+02,2.629122773104351600e-03,0.000000000000000000e+00
4.100000000000000000e+02,1.960779574839421058e-01,0.000000000000000000e+00
4.110000000000000000e+02,3.058397756186308492e-01,0.000000000000000000e+00
4.120000000000000000e+02,5.446484865154891386e-01,0.000000000000000000e+00
4.130000000000000000e+02,4.097725096865179051e-01,0.000000000000000000e+00
4.140000000000000000e+02,4.318863010338291342e-01,0.000000000000000000e+00
4.150000000000000000e+02,2.103011593523139711e-01,0.000000000000000000e+00
4.160000000000000000e+02,8.651896435452584300e-02,0.000000000000000000e+00
4.170000000000000000e+02,1.312676607457874227e-02,0.000000000000000000e+00
4.180000000000000000e+02,-1.424126672833536389e-01,0.000000000000000000e+00
4.190000000000000000e+02,-1.273066437768673176e-01,0.000000000000000000e+00
4.200000000000000000e+02,-8.101399821345317553e-02,0.000000000000000000e+00
4.210000000000000000e+02,-1.252567609196446330e-01,0.000000000000000000e+00
4.220000000000000000e+02,8.113467225541709515e-03,0.000000000000000000e+00
4.230000000000000000e+02,-3.671899177783619073e-02,0.000000000000000000e+00
4.240000000000000000e+02,1.883009730477742394e-01,0.000000000000000000e+00
4.250000000000000000e+02,8.113387862885824975e-02,0.000000000000000000e+00
4.260000000000000000e+02,1.479721396316792115e-01,0.000000000000000000e+00
4.270000000000000000e+02,1.515167374272222423e-01,0.000000000000000000e+00
4.280000000000000000e+02,6.836538014133632102e-02,0.000000000000000000e+00
4.290000000000000000e+02,1.996179754700596054e-01,0.000000000000000000e+00
4.300000000000000000e+02,-3.445018665960378895e-02,0.000000000000000000e+00
4.310000000000000000e+02,4.676272654079616925e-02,0.000000000000000000e+00
4.320000000000000000e+02,3.432612435701340448e-02,0.000000000000000000e+00
4.330000000000000000e+02,-7.075933468163517204e-02,0.000000000000000000e+00
4.340000000000000000e+02,9.081255087247407098e-02,0.000000000000000000e+00
4.350000000000000000e+02,-1.072223252344181414e-02,0.000000000000000000e+00
4.360000000000000000e+02,6.564851992473594300e-02,0.000000000000000000e+00
4.370000000000000000e+02,-9.569732699650437824e-02,0.000000000000000000e+00
4.380000000000000000e+02,2.477103241848600812e-01,0.000000000000000000e+00
4.390000000000000000e+02,1.545940726817798261e-01,0.000000000000000000e+00
4.400000000000000000e+02,1.161260539851750456e-01,0.000000000000000000e+00
4.410000000000000000e+02,-1.518656584418074940e-01,0.000000000000000000e+00
4.420000000000000000e+02,1.689844590821022008e+00,0.000000000000000000e+00
4.430000000000000000e+02,1.847981956889042765e+00,0.000000000000000000e+00
4.440000000000000000e+02,-2.806298064316483099e-01,1.000000000000000000e+00
4.450000000000000000e+02,-6.133342490849292838e-01,0.000000000000000000e+00
4.460000000000000000e+02,-8.517989737199510580e-01,0.000000000000000000e+00
4.470000000000000000e+02,-6.244659821679977574e-01,0.000000000000000000e+00
4.480000000000000000e+02,-5.957918408474544014e-01,0.000000000000000000e+00
4.490000000000000000e+02,-4.479340780188896254e-01,0.000000000000000000e+00
4.500000000000000000e+02,-5.283965018355072374e-01,0.000000000000000000e+00
4.510000000000000000e+02,-3.995242852902348707e-01,0.000000000000000000e+00
4.520000000000000000e+02,-3.175915610786146370e-01,0.000000000000000000e+00
4.530000000000000000e+02,-2.611980463931601326e-01,0.000000000000000000e+00
4.540000000000000000e+02,-1.621940137271746518e-01,0.000000000000000000e+00
4.550000000000000000e+02,-1.214444363146334610e-01,0.000000000000000000e+00
4.560000000000000000e+02,1.095986632441719733e-01,0.000000000000000000e+00
4.570000000000000000e+02,2.371539580099624733e-01,0.000000000000000000e+00
4.580000000000000000e+02,1.802337532123718666e-01,0.000000000000000000e+00
4.590000000000000000e+02,3.196819050561488518e-01,0.000000000000000000e+00
4.600000000000000000e+02,5.214332931220422296e-02,0.000000000000000000e+00
4.610000000000000000e+02,-2.293362359044552948e-02,0.000000000000000000e+00
4.620000000000000000e+02,-2.144779747955549154e-01,0.000000000000000000e+00
4.630000000000000000e+02,-7.261436576017067657e-02,0.000000000000000000e+00
4.640000000000000000e+02,-3.094479254928840795e-01,0.000000000000000000e+00
4.650000000000000000e+02,-3.081829835078387370e-01,0.000000000000000000e+00
4.660000000000000000e+02,-2.179935126401223444e-01,0.000000000000000000e+00
4.670000000000000000e+02,-3.049997366149859723e-01,0.000000000000000000e+00
4.680000000000000000e+02,-2.235812818738787677e-01,0.000000000000000000e+00
4.690000000000000000e+02,-9.621779867614008164e-02,0.000000000000000000e+00
4.700000000000000000e+02,-1.544441066065483648e-01,0.000000000000000000e+00
4.710000000000000000e+02,-3.853979197027682796e-02,0.000000000000000000e+00
4.720000000000000000e+02,-9.520915041476965546e-02,0.000000000000000000e+00
4.730000000000000000e+02,-5.292665906659144853e-02,0.000000000000000000e+00
4.740000000000000000e+02,1.027354547481523599e-02,0.000000000000000000e+00
4.750000000000000000e+02,4.917371706829775507e-02,0.000000000000000000e+00
4.760000000000000000e+02,-8.180847903590146575e-02,0.000000000000000000e+00
4.770000000000000000e+02,8.066778748570234414e-02,0.000000000000000000e+00
4.780000000000000000e+02,-6.896543901546470234e-02,0.000000000000000000e+00
4.790000000000000000e+02,1.757501823211675140e-01,0.000000000000000000e+00
4.800000000000000000e+02,6.208288604003273786e-02,0.000000000000000000e+00
4.810000000000000000e+02,1.615629421618399453e-01,0.000000000000000000e+00
4.820000000000000000e+02,1.327048421901813324e-01,0.000000000000000000e+00
4.830000000000000000e+02,2.299662716340157287e-01,0.000000000000000000e+00
4.840000000000000000e+02,2.392197339883228302e-01,0.000000000000000000e+00
4.850000000000000000e+02,3.373085401791374172e-01,0.000000000000000000e+00
4.860000000000000000e+02,3.138195768498743266e-01,0.000000000000000000e+00
4.870000000000000000e+02,2.883131893203547680e-01,0.000000000000000000e+00
4.880000000000000000e+02,3.119223234726426625e-02,0.000000000000000000e+00
4.890000000000000000e+02,1.911645273549118229e-01,0.000000000000000000e+00
4.900000000000000000e+02,3.128152261304131265e-01,0.000000000000000000e+00
4.910000000000000000e+02,1.836232351822831399e+00,0.000000000000000000e+00
4.920000000000000000e+02,1.994022024243794711e+00,0.000000000000000000e+00
4.930000000000000000e+02,-6.322244628402914207e-03,1.000000000000000000e+00
4.940000000000000000e+02,-4.221012876216337917e-01,0.000000000000000000e+00
4.950000000000000000e+02,-5.037689576154897875e-01,0.000000000000000000e+00
4.960000000000000000e+02,-4.046648028014369625e-01,0.000000000000000000e+00
4.970000000000000000e+02,-2.996266323145029831e-01,0.000000000000000000e+00
4.980000000000000000e+02,-2.594409953826566362e-01,0.000000000000000000e+00
4.990000000000000000e+02,-2.505851021330387507e-01,0.000000000000000000e+00
5.000000000000000000e+02,-1.015133192505009024e-01,0.000000000000000000e+00
5.010000000000000000e+02,-2.755412560752750623e-02,0.000000000000000000e+00
5.020000000000000000e+02,-1.312837190586653158e-01,0.000000000000000000e+00
5.030000000000000000e+02,-4.012141195724893555e-02,0.000000000000000000e+00
5.040000000000000000e+02,1.703781672392586932e-01,0.000000000000000000e+00
5.050000000000000000e+02,1.467244856391747843e-01,0.000000000000000000e+00
5.060000000000000000e+02,3.559549598342808818e-01,0.000000000000000000e+00
5.070000000000000000e+02,3.220812355256819637e-01,0.000000000000000000e+00
5.080000000000000000e+02,4.706558096265498481e-01,0.000000000000000000e+00
5.090000000000000000e+02,2.697340890116506906e-01,0.000000000000000000e+00
5.100000000000000000e+02,7.466052287223631789e-02,0.000000000000000000e+00
5.110000000000000000e+02,-2.324693787276239498e-03,0.000000000000000000e+00
5.120000000000000000e+02,-4.891209784864049975e-02,0.000000000000000000e+00
5.130000000000000000e+02,-1.996042696945589667e-01,0.000000000000000000e+00
5.140000000000000000e+02,-2.171026471289833337e-01,0.000000000000000000e+00
5.150000000000000000e+02,-2.701220608156553182e-01,0.000000000000000000e+00
5.160000000000000000e+02,-1.236562126588350158e-01,0.000000000000000000e+00
5.170000000000000000e+02,-1.581462130227856144e-01,0.000000000000000000e+00
5.180000000000000000e+02,-1.878438200360260379e-01,0.000000000000000000e+00
5.190000000000000000e+02,-9.763449775553868087e-03,0.000000000000000000e+00
5.200000000000000000e+02,-3.969911598457701030e-02,0.000000000000000000e+00
5.210000000000000000e+02,-3.424603049888257783e-02,0.000000000000000000e+00
5.220000000000000000e+02,-1.405926499808654584e-01,0.000000000000000000e+00
5.230000000000000000e+02,4.429613911673142140e-02,0.000000000000000000e+00
5.240000000000000000e+02,4.688240097045517224e-02,0.000000000000000000e+00
5.250000000000000000e+02,-2.163763138776276518e-01,0.000000000000000000e+00
5.260000000000000000e+02,-2.786489269920128936e-02,0.000000000000000000e+00
5.270000000000000000e+02,-2.248131171670889744e-03,0.000000000000000000e+00
5.280000000000000000e+02,-4.278155414278863450e-02,0.000000000000000000e+00
5.290000000000000000e+02,-9.005364699309599541e-02,0.000000000000000000e+00
5.300000000000000000e+02,-9.295200071427099642e-02,0.000000000000000000e+00
5.310000000000000000e+02,4.477017664280702469e-02,0.000000000000000000e+00
5.320000000000000000e+02,4.814811617129906296e-02,0.000000000000000000e+00
5.330000000000000000e+02,4.433936572687044442e-02,0.000000000000000000e+00
5.340000000000000000e+02,1.345989807554606454e-01,0.000000000000000000e+00
5.350000000000000000e+02,-2.397637356469762837e-01,0.000000000000000000e+00
5.360000000000000000e+02,-8.883023121345878792e-02,0.000000000000000000e+00
5.370000000000000000e+02,-1.365514555830464882e-01,0.000000000000000000e+00
5.380000000000000000e+02,7.369772334498642108e-01,0.000000000000000000e+00
5.390000000000000000e+02,2.065470756644286254e+00,0.000000000000000000e+00
5.400000000000000000e+02,8.667857014162316798e-02,1.000000000000000000e+00
5.410000000000000000e+02,-7.957855849797131897e-01,0.000000000000000000e+00
5.420000000000000000e+02,-8.566751678545022619e-01,0.000000000000000000e+00
5.430000000000000000e+02,-6.917200203983127071e-01,0.000000000000000000e+00
5.440000000000000000e+02,-7.508117451772110540e-01,0.000000000000000000e+00
5.450000000000000000e+02,-6.881008762775130405e-01,0.000000000000000000e+00
5.460000000000000000e+02,-7.455438082114999032e-01,0.000000000000000000e+00
5.470000000000000000e+02,-5.509392702927521368e-01,0.000000000000000000e+00
5.480000000000000000e+02,-5.633044283558714671e-01,0.000000000000000000e+00
5.490000000000000000e+02,-4.389399226992088399e-01,0.000000000000000000e+00
5.500000000000000000e+02,-3.954622863844599046e-01,0.000000000000000000e+00
5.510000000000000000e+02,-3.002914815027662443e-01,0.000000000000000000e+00
5.520000000000000000e+02,-2.628168352530131369e-01,0.000000000000000000e+00
5.530000000000000000e+02,5.192269634643736920e-02,0.000000000000000000e+00
5.540000000000000000e+02,1.864118543164414860e-02,0.000000000000000000e+00
5.550000000000000000e+02,9.456244928476303935e-02,0.000000000000000000e+00
5.560000000000000000e+02,-1.473699064440981039e-02,0.000000000000000000e+00
5.570000000000000000e+02,-2.982024098730007289e-02,0.000000000000000000e+00
5.580000000000000000e+02,-1.825957003255160860e-01,0.000000000000000000e+00
5.590000000000000000e+02,-3.571744791523435159e-01,0.000000000000000000e+00
5.600000000000000000e+02,-3.143859769114435432e-01,0.000000000000000000e+00
5.610000000000000000e+02,-2.519275322569803355e-01,0.000000000000000000e+00
5.620000000000000000e+02,-4.324144621807419764e-01,0.000000000000000000e+00
5.630000000000000000e+02,-3.342481676526518619e-01,0.000000000000000000e+00
5.640000000000000000e+02,-3.845437009135654338e-01,0.000000000000000000e+00
5.650000000000000000e+02,-2.691223324067841260e-01,0.000000000000000000e+00
5.660000000000000000e+02,-2.615249675835179533e-01,0.000000000000000000e+00
5.670000000000000000e+02,-6.953721735860332598e-02,0.000000000000000000e+00
5.680000000000000000e+02,-9.330968562065872218e-02,0.000000000000000000e+00
5.690000000000000000e+02,3.885020557382882350e-02,0.000000000000000000e+00
5.700000000000000000e+02,-1.481926384191374901e-01,0.000000000000000000e+00
5.710000000000000000e+02,-6.637816396955845133e-02,0.000000000000000000e+00
5.720000000000000000e+02,-1.486777936416601165e-01,0.000000000000000000e+00
5.730000000000000000e+02,-2.366488101827398174e-02,0.000000000000000000e+00
5.740000000000000000e+02,2.770598755001618327e-02,0.000000000000000000e+00
5.750000000000000000e+02,2.927340623187131285e-01,0.000000000000000000e+00
5.760000000000000000e+02,9.274567644831153979e-02,0.000000000000000000e+00
5.770000000000000000e+02,1.344081389844830721e+00,0.000000000000000000e+00
5.780000000000000000e+02,2.029529874765854114e+00,0.000000000000000000e+00
5.790000000000000000e+02,-1.747521282137680376e-02,1.000000000000000000e+00
5.800000000000000000e+02,-4.522168468228505711e-01,0.000000000000000000e+00
5.810000000000000000e+02,-6.017557477589624559e-01,0.000000000000000000e+00
5.820000000000000000e+02,-5.076911699435067149e-01,0.000000000000000000e+00
5.830000000000000000e+02,-3.570127313988472051e-01,0.000000000000000000e+00
5.840000000000000000e+02,-4.007039276378420722e-01,0.000000000000000000e+00
5.850000000000000000e+02,-2.195091097825649373e-01,0.000000000000000000e+00
5.860000000000000000e+02,-1.864293171384242553e-01,0.000000000000000000e+00
5.870000000000000000e+02,-1.757755762021973311e-01,0.000000000000000000e+00
5.880000000000000000e+02,-1.179768601953596202e-01,0.000000000000000000e+00
5.890000000000000000e+02,4.885790134576616095e-02,0.000000000000000000e+00
5.900000000000000000e+02,5.526488124331619192e-03,0.000000000000000000e+00
5.910000000000000000e+02,2.795458607601462031e-01,0.000000000000000000e+00
5.920000000000000000e+02,4.272938767572470042e-01,0.000000000000000000e+00
5.930000000000000000e+02,3.446348459357608807e-01,0.000000000000000000e+00
5.940000000000000000e+02,4.602441857341574849e-01,0.000000000000000000e+00
5.950000000000000000e+02,3.590290823523084596e-01,0.000000000000000000e+00
5.960000000000000000e+02,3.160808264903103848e-01,0.000000000000000000e+00
5.970000000000000000e+02,3.066773043118582731e-02,0.000000000000000000e+00
5.980000000000000000e+02,2.368898865159597689e-01,0.000000000000000000e+00
5.990000000000000000e+02,1.168083680537945236e-02,0.000000000000000000e+00
6.000000000000000000e+02,1.521674912514145162e-01,0.000000000000000000e+00
6.010000000000000000e+02,2.513950332225495590e-02,0.000000000000000000e+00
6.020000000000000000e+02,5.383109421935128314e-02,0.000000000000000000e+00
6.030000000000000000e+02,1.879245821463022548e-01,0.000000000000000000e+00
6.040000000000000000e+02,1.257801087422998898e-01,0.000000000000000000e+00
6.050000000000000000e+02,1.753034970903233625e-01,0.000000000000000000e+00
6.060000000000000000e+02,2.737791268458689142e-01,0.000000000000000000e+00
6.070000000000000000e+02,2.302876249057577429e-01,0.000000000000000000e+00
6.080000000000000000e+02,1.811118676655331938e-01,0.000000000000000000e+00
6.090000000000000000e+02,1.977454078264266057e-01,0.000000000000000000e+00
6.100000000000000000e+02,2.170466519888117618e-01,0.000000000000000000e+00
6.110000000000000000e+02,1.353301953989974882e-01,0.000000000000000000e+00
6.120000000000000000e+02,1.499566288781500611e-01,0.000000000000000000e+00
6.130000000000000000e+02,8.178476379920125716e-02,0.000000000000000000e+00
6.140000000000000000e+02,1.533115385294247790e-01,0.000000000000000000e+00
6.150000000000000000e+02,1.586839813420054812e-01,0.000000000000000000e+00
6.160000000000000000e+02,1.412789111628463545e-01,0.000000000000000000e+00
6.170000000000000000e+02,2.540829988643663467e-02,0.000000000000000000e+00
6.180000000000000000e+02,9.343256945978448136e-02,0.000000000000000000e+00
6.190000000000000000e+02,7.721873760111520879e-02,0.000000000000000000e+00
6.200000000000000000e+02,2.007037983528583147e-01,0.000000000000000000e+00
6.210000000000000000e+02,6.884455036977577512e-03,0.000000000000000000e+00
6.220000000000000000e+02,2.494787769764266472e-01,0.000000000000000000e+00
6.230000000000000000e+02,9.929799597105717912e-02,0.000000000000000000e+00
6.240000000000000000e+02,5.756443750176096219e-02,0.000000000000000000e+00
6.250000000000000000e+02,2.602843846240420200e-01,0.000000000000000000e+00
6.260000000000000000e+02,1.886996542785500386e-01,0.000000000000000000e+00
6.270000000000000000e+02,3.274195802562525626e-01,0.000000000000000000e+00
6.280000000000000000e+02,3.574502109691642948e-01,0.000000000000000000e+00
6.290000000000000000e+02,1.756903025688048847e-01,0.000000000000000000e+00
6.300000000000000000e+02,1.418634920691148327e-01,0.000000000000000000e+00
6.310000000000000000e+02,9.085059928333295842e-02,0.000000000000000000e+00
6.320000000000000000e+02,1.139455788620101329e+00,0.000000000000000000e+00
6.330000000000000000e+02,2.460899713305243708e+00,0.000000000000000000e+00
6.340000000000000000e+02,5.120966717598405271e-01,1.000000000000000000e+00
6.350000000000000000e+02,-4.407419819312153320e-01,0.000000000000000000e+00
6.360000000000000000e+02,-5.144198920764332383e-01,0.000000000000000000e+00
6.370000000000000000e+02,-4.277652956077978574e-01,0.000000000000000000e+00
6.380000000000000000e+02,-5.537369150066151491e-01,0.000000000000000000e+00
6.390000000000000000e+02,-2.427577602845013283e-01,0.000000000000000000e+00
6.400000000000000000e+02,-4.257468072504151935e-01,0.000000000000000000e+00
6.410000000000000000e+02,-3.205983630471836987e-01,0.000000000000000000e+00
6.420000000000000000e+02,-2.778820783514626691e-01,0.000000000000000000e+00
6.430000000000000000e+02,-2.497808829154845867e-01,0.000000000000000000e+00
6.440000000000000000e+02,-2.502867739621158494e-01,0.000000000000000000e+00
6.450000000000000000e+02,-9.773854148289344568e-02,0.000000000000000000e+00
6.460000000000000000e+02,3.328041462427535485e-02,0.000000000000000000e+00
6.470000000000000000e+02,9.360042283676527075e-02,0.000000000000000000e+00
6.480000000000000000e+02,1.308384782169202121e-01,0.000000000000000000e+00
6.490000000000000000e+02,2.576614479476873054e-01,0.000000000000000000e+00
6.500000000000000000e+02,1.549003034293694181e-01,0.000000000000000000e+00
6.510000000000000000e+02,1.977909276292083227e-02,0.000000000000000000e+00
6.520000000000000000e+02,-2.128724714475220270e-01,0.000000000000000000e+00
6.530000000000000000e+02,-1.682548030519167848e-01,0.000000000000000000e+00
6.540000000000000000e+02,-3.091794901986137933e-01,0.000000000000000000e+00
6.550000000000000000e+02,-2.920931595509863032e-01,0.000000000000000000e+00
6.560000000000000000e+02,-3.783068779428425676e-01,0.000000000000000000e+00
6.570000000000000000e+02,-2.515309946452252143e-01,0.000000000000000000e+00
6.580000000000000000e+02,-3.593536556199921628e-01,0.000000000000000000e+00
6.590000000000000000e+02,-1.520603440177892007e-01,0.000000000000000000e+00
6.600000000000000000e+02,-9.998380265085832219e-02,0.000000000000000000e+00
6.610000000000000000e+02,-8.283776695510532140e-02,0.000000000000000000e+00
6.620000000000000000e+02,-4.102798889030474100e-02,0.000000000000000000e+00
6.630000000000000000e+02,1.496028903835073566e-02,0.000000000000000000e+00
6.640000000000000000e+02,-4.049883206374373379e-01,0.000000000000000000e+00
6.650000000000000000e+02,-1.910969153085424699e+00,0.000000000000000000e+00
6.660000000000000000e+02,-4.102889429075085914e+00,0.000000000000000000e+00
6.670000000000000000e+02,-3.137000657771757073e+00,1.000000000000000000e+00
6.680000000000000000e+02,-1.074710157866687554e+00,0.000000000000000000e+00
6.690000000000000000e+02,-2.176513165414897810e-01,0.000000000000000000e+00
6.700000000000000000e+02,1.288918670970848002e+00,0.000000000000000000e+00
6.710000000000000000e+02,1.811030805390390075e+00,0.000000000000000000e+00
6.720000000000000000e+02,1.906585683472028059e+00,0.000000000000000000e+00
6.730000000000000000e+02,1.883141800290048851e+00,0.000000000000000000e+00
6.740000000000000000e+02,1.554747355440847301e+00,0.000000000000000000e+00
6.750000000000000000e+02,1.582684089013905115e+00,0.000000000000000000e+00
6.760000000000000000e+02,1.666797758969562837e+00,0.000000000000000000e+00
6.770000000000000000e+02,1.891829652069807910e+00,0.000000000000000000e+00
6.780000000000000000e+02,2.278074550641929097e+00,0.000000000000000000e+00
6.790000000000000000e+02,2.512155265214905953e+00,0.000000000000000000e+00
6.800000000000000000e+02,2.734287403056038901e+00,0.000000000000000000e+00
6.810000000000000000e+02,2.149439668267797199e+00,0.000000000000000000e+00
6.820000000000000000e+02,1.497999818248997306e+00,0.000000000000000000e+00
6.830000000000000000e+02,4.863992299333154135e-01,0.000000000000000000e+00
6.840000000000000000e+02,-5.709721764946238398e-01,0.000000000000000000e+00
6.850000000000000000e+02,-1.228013313113902605e+00,0.000000000000000000e+00
6.860000000000000000e+02,-1.574220793912586069e+00,0.000000000000000000e+00
6.870000000000000000e+02,-1.752288541673086675e+00,0.000000000000000000e+00
6.880000000000000000e+02,-1.682329040138734744e+00,0.000000000000000000e+00
6.890000000000000000e+02,-1.679342546083762100e+00,0.000000000000000000e+00
6.900000000000000000e+02,-1.525186028203425970e+00,0.000000000000000000e+00
6.910000000000000000e+02,-1.493949114613860152e+00,0.000000000000000000e+00
6.920000000000000000e+02,-1.375436038255668514e+00,0.000000000000000000e+00
6.930000000000000000e+02,-1.363561886140445045e+00,0.000000000000000000e+00
6.940000000000000000e+02,-1.233948605442172441e+00,0.000000000000000000e+00
6.950000000000000000e+02,-1.081542532030794979e+00,0.000000000000000000e+00
6.960000000000000000e+02,-1.008713794505854189e+00,0.000000000000000000e+00
6.970000000000000000e+02,-9.208742400718674670e-01,0.000000000000000000e+00
6.980000000000000000e+02,-9.041620114160670019e-01,0.000000000000000000e+00
6.990000000000000000e+02,-8.343365655358387922e-01,0.000000000000000000e+00
7.000000000000000000e+02,-7.721393407064841563e-01,0.000000000000000000e+00
7.010000000000000000e+02,-5.112136374861455668e-01,0.000000000000000000e+00
7.020000000000000000e+02,-4.636850223214252220e-01,0.000000000000000000e+00
7.030000000000000000e+02,-4.858717652329632708e-01,0.000000000000000000e+00
7.040000000000000000e+02,-3.178529383328262958e-01,0.000000000000000000e+00
7.050000000000000000e+02,-3.564364213147713789e-01,0.000000000000000000e+00
7.060000000000000000e+02,-1.595271465983592873e-01,0.000000000000000000e+00
7.070000000000000000e+02,-1.391001159792615016e-01,0.000000000000000000e+00
7.080000000000000000e+02,-6.954623108408913845e-02,0.000000000000000000e+00
7.090000000000000000e+02,-3.788401443159130494e-02,0.000000000000000000e+00
7.100000000000000000e+02,1.308246384572963605e-01,0.000000000000000000e+00
7.110000000000000000e+02,1.969594506972610071e-01,0.000000000000000000e+00
7.120000000000000000e+02,2.555533323727912642e-01,0.000000000000000000e+00
7.130000000000000000e+02,2.883980490839623267e-01,0.000000000000000000e+00
7.140000000000000000e+02,3.158337931673739218e-01,0.000000000000000000e+00
7.150000000000000000e+02,3.142188801706795598e-01,0.000000000000000000e+00
7.160000000000000000e+02,3.249665949386201236e-01,0.000000000000000000e+00
7.170000000000000000e+02,3.198186568209231972e-01,0.000000000000000000e+00
7.180000000000000000e+02,3.451406801704270388e-01,0.000000000000000000e+00
7.190000000000000000e+02,4.562978117124583122e-01,0.000000000000000000e+00
7.200000000000000000e+02,3.264836330668466347e-01,0.000000000000000000e+00
7.210000000000000000e+02,4.595782072600825829e-01,0.000000000000000000e+00
7.220000000000000000e+02,3.842677288862256790e-01,0.000000000000000000e+00
7.230000000000000000e+02,5.145617019220211086e-01,0.000000000000000000e+00
7.240000000000000000e+02,4.258116109791269532e-01,0.000000000000000000e+00
7.250000000000000000e+02,1.787133748686962342e-01,0.000000000000000000e+00
7.260000000000000000e+02,2.323777099613063835e-01,0.000000000000000000e+00
7.270000000000000000e+02,7.348025790325109392e-03,0.000000000000000000e+00
7.280000000000000000e+02,6.951746977537871519e-01,0.000000000000000000e+00
7.290000000000000000e+02,2.376825219465183991e+00,0.000000000000000000e+00
7.300000000000000000e+02,1.110925352961031454e+00,1.000000000000000000e+00
7.310000000000000000e+02,-2.610425936060208896e-01,0.000000000000000000e+00
7.320000000000000000e+02,-4.655129497748234924e-01,0.000000000000000000e+00
7.330000000000000000e+02,-5.775149396125404122e-01,0.000000000000000000e+00
7.340000000000000000e+02,-4.437821176491142938e-01,0.000000000000000000e+00
7.350000000000000000e+02,-3.856615543280706437e-01,0.000000000000000000e+00
7.360000000000000000e+02,-2.943971515891072865e-01,0.000000000000000000e+00
7.370000000000000000e+02,-3.210640514917238453e-01,0.000000000000000000e+00
7.380000000000000000e+02,-1.966095654120326164e-01,0.000000000000000000e+00
7.390000000000000000e+02,-2.125985683116938807e-01,0.000000000000000000e+00
7.400000000000000000e+02,6.314531004491707317e-03,0.000000000000000000e+00
7.410000000000000000e+02,1.173185462555044328e-01,0.000000000000000000e+00
7.420000000000000000e+02,1.103891373354140976e-01,0.000000000000000000e+00
7.430000000000000000e+02,2.976618277463324302e-01,0.000000000000000000e+00
7.440000000000000000e+02,4.008300291743301380e-01,0.000000000000000000e+00
7.450000000000000000e+02,4.258981526961794772e-01,0.000000000000000000e+00
7.460000000000000000e+02,4.201219773128966883e-01,0.000000000000000000e+00
7.470000000000000000e+02,2.763051745030338235e-01,0.000000000000000000e+00
7.480000000000000000e+02,3.562246858243129921e-01,0.000000000000000000e+00
7.490000000000000000e+02,1.842378376632103909e-01,0.000000000000000000e+00
7.500000000000000000e+02,1.850621641451578314e-01,0.000000000000000000e+00
7.510000000000000000e+02,1.648430834677003243e-01,0.000000000000000000e+00
7.520000000000000000e+02,2.478432904130426981e-02,0.000000000000000000e+00
7.530000000000000000e+02,1.538842001977661356e-01,0.000000000000000000e+00
7.540000000000000000e+02,3.918793238548142627e-02,0.000000000000000000e+00
7.550000000000000000e+02,2.031267370713046028e-01,0.000000000000000000e+00
7.560000000000000000e+02,2.904522132983050065e-01,0.000000000000000000e+00
7.570000000000000000e+02,-1.098995087409895710e+00,0.000000000000000000e+00
7.580000000000000000e+02,-3.894416969556570685e+00,0.000000000000000000e+00
7.590000000000000000e+02,-3.930822517674323446e+00,1.000000000000000000e+00
7.600000000000000000e+02,-1.369450044592789517e+00,0.000000000000000000e+00
7.610000000000000000e+02,-1.320496852724115100e-01,0.000000000000000000e+00
7.620000000000000000e+02,6.906145131405874160e-01,0.000000000000000000e+00
7.630000000000000000e+02,2.025810376380840605e+00,0.000000000000000000e+00
7.640000000000000000e+02,2.237971150388463837e+00,0.000000000000000000e+00
7.650000000000000000e+02,2.270049633440172521e+00,0.000000000000000000e+00
7.660000000000000000e+02,2.387574865672780877e+00,0.000000000000000000e+00
7.670000000000000000e+02,2.225750453454519384e+00,0.000000000000000000e+00
7.680000000000000000e+02,2.150074028070457999e+00,0.000000000000000000e+00
7.690000000000000000e+02,2.351677126649045046e+00,0.000000000000000000e+00
7.700000000000000000e+02,2.617311989228396918e+00,0.000000000000000000e+00
7.710000000000000000e+02,2.829077679707046489e+00,0.000000000000000000e+00
7.720000000000000000e+02,2.650046060981473772e+00,0.000000000000000000e+00
7.730000000000000000e+02,2.262929655897172765e+00,0.000000000000000000e+00
7.740000000000000000e+02,1.488662916309268835e+00,0.000000000000000000e+00
7.750000000000000000e+02,4.011884755674701708e-01,0.000000000000000000e+00
7.760000000000000000e+02,-4.431741159400460206e-01,0.000000000000000000e+00
7.770000000000000000e+02,-1.360584976224398446e+00,0.000000000000000000e+00
7.780000000000000000e+02,-1.886049791126180430e+00,0.000000000000000000e+00
7.790000000000000000e+02,-2.078690046293391713e+00,0.000000000000000000e+00
7.800000000000000000e+02,-2.082672905738792046e+00,0.000000000000000000e+00
7.810000000000000000e+02,-2.059400711202484135e+00,0.000000000000000000e+00
7.820000000000000000e+02,-2.007016615264263226e+00,0.000000000000000000e+00
7.830000000000000000e+02,-1.920140114650391361e+00,0.000000000000000000e+00
7.840000000000000000e+02,-1.845829795412381014e+00,0.000000000000000000e+00
7.850000000000000000e+02,-1.706268187495612043e+00,0.000000000000000000e+00
7.860000000000000000e+02,-1.671077334069575260e+00,0.000000000000000000e+00
7.870000000000000000e+02,-1.549454284858428510e+00,0.000000000000000000e+00
7.880000000000000000e+02,-1.507130218767232410e+00,0.000000000000000000e+00
7.890000000000000000e+02,-1.235833262749617134e+00,0.000000000000000000e+00
7.900000000000000000e+02,-1.185096876595294502e+00,0.000000000000000000e+00
7.910000000000000000e+02,-1.060475100131662796e+00,0.000000000000000000e+00
7.920000000000000000e+02,-7.671058415873401870e-01,0.000000000000000000e+00
7.930000000000000000e+02,-7.315439440775174385e-01,0.000000000000000000e+00
7.940000000000000000e+02,-6.316542707220105246e-01,0.000000000000000000e+00
7.950000000000000000e+02,-5.550407311218923390e-01,0.000000000000000000e+00
7.960000000000000000e+02,-4.741180487828264845e-01,0.000000000000000000e+00
7.970000000000000000e+02,-2.882786561205259446e-01,0.000000000000000000e+00
7.980000000000000000e+02,-3.467773786881704345e-01,0.000000000000000000e+00
7.990000000000000000e+02,-2.065270088196913822e-01,0.000000000000000000e+00
8.000000000000000000e+02,-9.696663966504807941e-02,0.000000000000000000e+00
8.010000000000000000e+02,8.140341343346402248e-02,0.000000000000000000e+00
8.020000000000000000e+02,-1.078440987033488403e-02,0.000000000000000000e+00
8.030000000000000000e+02,3.323573591524516674e-02,0.000000000000000000e+00
8.040000000000000000e+02,1.262348957891179790e-01,0.000000000000000000e+00
8.050000000000000000e+02,2.125952264801433123e-01,0.000000000000000000e+00
8.060000000000000000e+02,2.819415570743818988e-01,0.000000000000000000e+00
8.070000000000000000e+02,7.943442626066854473e-02,0.000000000000000000e+00
8.080000000000000000e+02,2.646352677306246792e-01,0.000000000000000000e+00
8.090000000000000000e+02,2.792327194939309698e-01,0.000000000000000000e+00
8.100000000000000000e+02,3.744299513013570335e-01,0.000000000000000000e+00
8.110000000000000000e+02,4.654321329892625037e-01,0.000000000000000000e+00
8.120000000000000000e+02,3.788396846961816777e-01,0.000000000000000000e+00
8.130000000000000000e+02,3.367386829857010322e-01,0.000000000000000000e+00
8.140000000000000000e+02,4.051629236727917749e-01,0.000000000000000000e+00
8.150000000000000000e+02,5.407307011809974195e-01,0.000000000000000000e+00
8.160000000000000000e+02,5.868718622398425566e-01,0.000000000000000000e+00
8.170000000000000000e+02,6.180870462439820301e-01,0.000000000000000000e+00
8.180000000000000000e+02,4.610444461814575678e-01,0.000000000000000000e+00
8.190000000000000000e+02,3.063416591660338972e-01,0.000000000000000000e+00
8.200000000000000000e+02,5.078465198174481054e-01,0.000000000000000000e+00
8.210000000000000000e+02,7.706877688565991757e-01,0.000000000000000000e+00
8.220000000000000000e+02,2.834153828605954217e+00,0.000000000000000000e+00
8.230000000000000000e+02,1.326132864509692366e+00,1.000000000000000000e+00
8.240000000000000000e+02,1.754596955288159621e-02,0.000000000000000000e+00
8.250000000000000000e+02,-3.787105414893782163e-01,0.000000000000000000e+00
8.260000000000000000e+02,-4.122571322426236140e-01,0.000000000000000000e+00
8.270000000000000000e+02,-3.126798376008391167e-01,0.000000000000000000e+00
8.280000000000000000e+02,-1.582565325924424338e-01,0.000000000000000000e+00
8.290000000000000000e+02,-2.198395482086879793e-01,0.000000000000000000e+00
8.300000000000000000e+02,-1.293215001915480056e-01,0.000000000000000000e+00
8.310000000000000000e+02,6.303502080431455656e-02,0.000000000000000000e+00
8.320000000000000000e+02,-3.267351721451813916e-04,0.000000000000000000e+00
8.330000000000000000e+02,3.811357090630095729e-02,0.000000000000000000e+00
8.340000000000000000e+02,1.267271197164644703e-01,0.000000000000000000e+00
8.350000000000000000e+02,2.342142814796463746e-01,0.000000000000000000e+00
8.360000000000000000e+02,3.442186003021825424e-01,0.000000000000000000e+00
8.370000000000000000e+02,3.714123534971093821e-01,0.000000000000000000e+00
8.380000000000000000e+02,3.632786111483107816e-01,0.000000000000000000e+00
8.390000000000000000e+02,4.207895749878591829e-01,0.000000000000000000e+00
8.400000000000000000e+02,2.331116526028674252e-01,0.000000000000000000e+00
8.410000000000000000e+02,2.024055356880031242e-01,0.000000000000000000e+00
8.420000000000000000e+02,6.026051716115071732e-02,0.000000000000000000e+00
8.430000000000000000e+02,7.639500109153472829e-02,0.000000000000000000e+00
8.440000000000000000e+02,5.487906717786627392e-02,0.000000000000000000e+00
8.450000000000000000e+02,1.406736023883479320e-02,0.000000000000000000e+00
8.460000000000000000e+02,5.310646075239709718e-02,0.000000000000000000e+00
8.470000000000000000e+02,8.628032845169653076e-02,0.000000000000000000e+00
8.480000000000000000e+02,1.905566060514786442e-01,0.000000000000000000e+00
8.490000000000000000e+02,-5.160315349253360440e-01,0.000000000000000000e+00
8.500000000000000000e+02,-3.307443606933534674e+00,0.000000000000000000e+00
8.510000000000000000e+02,-4.027739174233493813e+00,0.000000000000000000e+00
8.520000000000000000e+02,-1.007463391349752158e+00,1.000000000000000000e+00
8.530000000000000000e+02,-1.282053492694312236e-01,0.000000000000000000e+00
8.540000000000000000e+02,6.918615111920843885e-01,0.000000000000000000e+00
8.550000000000000000e+02,1.564197318090955857e+00,0.000000000000000000e+00
8.560000000000000000e+02,1.855203741350922586e+00,0.000000000000000000e+00
8.570000000000000000e+02,1.564031553091485227e+00,0.000000000000000000e+00
8.580000000000000000e+02,1.617742994064683693e+00,0.000000000000000000e+00
8.590000000000000000e+02,1.680189530427267597e+00,0.000000000000000000e+00
8.600000000000000000e+02,1.669608097033924210e+00,0.000000000000000000e+00
8.610000000000000000e+02,1.934801270484567848e+00,0.000000000000000000e+00
8.620000000000000000e+02,2.316717007400181050e+00,0.000000000000000000e+00
8.630000000000000000e+02,2.414509423824116041e+00,0.000000000000000000e+00
8.640000000000000000e+02,2.411717959496540775e+00,0.000000000000000000e+00
8.650000000000000000e+02,1.872162279557008535e+00,0.000000000000000000e+00
8.660000000000000000e+02,1.113529304316082769e+00,0.000000000000000000e+00
8.670000000000000000e+02,1.443465263878118132e-01,0.000000000000000000e+00
8.680000000000000000e+02,-6.188535345605398197e-01,0.000000000000000000e+00
8.690000000000000000e+02,-1.214463375805090672e+00,0.000000000000000000e+00
8.700000000000000000e+02,-1.511370306156783139e+00,0.000000000000000000e+00
8.710000000000000000e+02,-1.672606495472707344e+00,0.000000000000000000e+00
8.720000000000000000e+02,-1.739791785524073653e+00,0.000000000000000000e+00
8.730000000000000000e+02,-1.634300335459947684e+00,0.000000000000000000e+00
8.740000000000000000e+02,-1.483141483047852649e+00,0.000000000000000000e+00
8.750000000000000000e+02,-1.558653400963811331e+00,0.000000000000000000e+00
8.760000000000000000e+02,-1.409229521459002044e+00,0.000000000000000000e+00
8.770000000000000000e+02,-1.334407773787715579e+00,0.000000000000000000e+00
8.780000000000000000e+02,-1.280237696115506418e+00,0.000000000000000000e+00
8.790000000000000000e+02,-1.227656791321258378e+00,0.000000000000000000e+00
8.800000000000000000e+02,-1.175767954259239190e+00,0.000000000000000000e+00
8.810000000000000000e+02,-1.141667737396332649e+00,0.000000000000000000e+00
8.820000000000000000e+02,-1.011930856811677160e+00,0.000000000000000000e+00
8.830000000000000000e+02,-8.793090738335505030e-01,0.000000000000000000e+00
8.840000000000000000e+02,-7.615192928401127714e-01,0.000000000000000000e+00
8.850000000000000000e+02,-6.969172600182621524e-01,0.000000000000000000e+00
8.860000000000000000e+02,-7.219207932609628120e-01,0.000000000000000000e+00
8.870000000000000000e+02,-5.185135664172074721e-01,0.000000000000000000e+00
8.880000000000000000e+02,-4.861345473411570750e-01,0.000000000000000000e+00
8.890000000000000000e+02,-3.947365179133856539e-01,0.000000000000000000e+00
8.900000000000000000e+02,-2.310490676826134904e-01,0.000000000000000000e+00
8.910000000000000000e+02,-2.237167059312261952e-01,0.000000000000000000e+00
8.920000000000000000e+02,-4.390582104793001872e-02,0.000000000000000000e+00
8.930000000000000000e+02,-9.896642844357637914e-02,0.000000000000000000e+00
8.940000000000000000e+02,7.794588403505181388e-03,0.000000000000000000e+00
8.950000000000000000e+02,8.060057443099791219e-02,0.000000000000000000e+00
8.960000000000000000e+02,9.579773375693256821e-02,0.000000000000000000e+00
8.970000000000000000e+02,-3.365163031216579503e-02,0.000000000000000000e+00
8.980000000000000000e+02,8.115886183667970696e-03,0.000000000000000000e+00
8.990000000000000000e+02,9.294069025607686052e-02,0.000000000000000000e+00
9.000000000000000000e+02,1.250956101483431671e-01,0.000000000000000000e+00
9.010000000000000000e+02,1.597133522187407506e-01,0.000000000000000000e+00
9.020000000000000000e+02,2.899808665812245723e-01,0.000000000000000000e+00
9.030000000000000000e+02,3.378966715765740481e-01,0.000000000000000000e+00
9.040000000000000000e+02,3.248052686308968151e-01,0.000000000000000000e+00
9.050000000000000000e+02,-9.800224533673243532e-02,0.000000000000000000e+00
9.060000000000000000e+02,2.749926426001494395e-01,0.000000000000000000e+00
9.070000000000000000e+02,1.146153278006160070e-01,0.000000000000000000e+00
9.080000000000000000e+02,1.964515891499336586e+00,0.000000000000000000e+00
9.090000000000000000e+02,1.976899922406772925e+00,0.000000000000000000e+00
9.100000000000000000e+02,4.511913429027893108e-02,1.000000000000000000e+00
9.110000000000000000e+02,-3.579888482743217026e-01,0.000000000000000000e+00
9.120000000000000000e+02,-5.133309366813029184e-01,0.000000000000000000e+00
9.130000000000000000e+02,-2.990106047886772478e-01,0.000000000000000000e+00
9.140000000000000000e+02,-3.989688675015199970e-01,0.000000000000000000e+00
9.150000000000000000e+02,-1.780409819901472568e-01,0.000000000000000000e+00
9.160000000000000000e+02,-1.753174044003373289e-01,0.000000000000000000e+00
9.170000000000000000e+02,-1.032533736022937104e-01,0.000000000000000000e+00
9.180000000000000000e+02,-7.325380923782534581e-02,0.000000000000000000e+00
9.190000000000000000e+02,6.526038942293241329e-02,0.000000000000000000e+00
9.200000000000000000e+02,1.576482753317198227e-01,0.000000000000000000e+00
9.210000000000000000e+02,3.364953088842713713e-01,0.000000000000000000e+00
9.220000000000000000e+02,4.738589543438360696e-01,0.000000000000000000e+00
9.230000000000000000e+02,6.685549827478751705e-01,0.000000000000000000e+00
9.240000000000000000e+02,6.388256159518020949e-01,0.000000000000000000e+00
9.250000000000000000e+02,5.313295354905773760e-01,0.000000000000000000e+00
9.260000000000000000e+02,5.912390765251804847e-01,0.000000000000000000e+00
9.270000000000000000e+02,5.332648002198285830e-01,0.000000000000000000e+00
9.280000000000000000e+02,3.995065170144985189e-01,0.000000000000000000e+00
9.290000000000000000e+02,2.938522230947389624e-01,0.000000000000000000e+00
9.300000000000000000e+02,2.570299225581909597e-01,0.000000000000000000e+00
9.310000000000000000e+02,3.077715358009132096e-01,0.000000000000000000e+00
9.320000000000000000e+02,3.212597182712080834e-01,0.000000000000000000e+00
9.330000000000000000e+02,2.076369457518799921e-01,0.000000000000000000e+00
9.340000000000000000e+02,3.932759951833038059e-01,0.000000000000000000e+00
9.350000000000000000e+02,3.317351605725510910e-01,0.000000000000000000e+00
9.360000000000000000e+02,-2.851732123416505504e-01,0.000000000000000000e+00
9.370000000000000000e+02,-3.201427906199649343e+00,0.000000000000000000e+00
9.380000000000000000e+02,-4.377404509358425067e+00,0.000000000000000000e+00
9.390000000000000000e+02,-1.766388024902441289e+00,1.000000000000000000e+00
9.400000000000000000e+02,-1.940588640205554993e-01,0.000000000000000000e+00
9.410000000000000000e+02,7.251273305731167351e-01,0.000000000000000000e+00
9.420000000000000000e+02,1.756891450266692578e+00,0.000000000000000000e+00
9.430000000000000000e+02,2.589659247127645614e+00,0.000000000000000000e+00
9.440000000000000000e+02,2.387969792380028711e+00,0.000000000000000000e+00
9.450000000000000000e+02,2.547320746664902380e+00,0.000000000000000000e+00
9.460000000000000000e+02,2.148772680783560318e+00,0.000000000000000000e+00
9.470000000000000000e+02,2.181342858813013930e+00,0.000000000000000000e+00
9.480000000000000000e+02,2.430814188331285930e+00,0.000000000000000000e+00
9.490000000000000000e+02,2.674162680803610748e+00,0.000000000000000000e+00
9.500000000000000000e+02,2.787731022874967213e+00,0.000000000000000000e+00
9.510000000000000000e+02,2.889538561535331951e+00,0.000000000000000000e+00
9.520000000000000000e+02,2.388214824002357517e+00,0.000000000000000000e+00
9.530000000000000000e+02,1.613454047965880767e+00,0.000000000000000000e+00
9.540000000000000000e+02,4.060515637064783800e-01,0.000000000000000000e+00
9.550000000000000000e+02,-4.060749588941232058e-01,0.000000000000000000e+00
9.560000000000000000e+02,-1.167758943473872657e+00,0.000000000000000000e+00
9.570000000000000000e+02,-1.789399990753908654e+00,0.000000000000000000e+00
9.580000000000000000e+02,-2.128889921122818940e+00,0.000000000000000000e+00
9.590000000000000000e+02,-2.061620326259162361e+00,0.000000000000000000e+00
9.600000000000000000e+02,-2.101429163138632372e+00,0.000000000000000000e+00
9.610000000000000000e+02,-1.925414101705184899e+00,0.000000000000000000e+00
9.620000000000000000e+02,-1.903633538514852175e+00,0.000000000000000000e+00
9.630000000000000000e+02,-1.776164106414152455e+00,0.000000000000000000e+00
9.640000000000000000e+02,-1.655042491120197523e+00,0.000000000000000000e+00
9.650000000000000000e+02,-1.589330673664634874e+00,0.000000000000000000e+00
9.660000000000000000e+02,-1.478604197072076687e+00,0.000000000000000000e+00
9.670000000000000000e+02,-1.401945643922259510e+00,0.000000000000000000e+00
9.680000000000000000e+02,-1.487109179438761419e+00,0.000000000000000000e+00
9.690000000000000000e+02,-1.098223897960950657e+00,0.000000000000000000e+00
9.700000000000000000e+02,-1.137588747360568364e+00,0.000000000000000000e+00
9.710000000000000000e+02,-1.032980056337450048e+00,0.000000000000000000e+00
9.720000000000000000e+02,-9.496749142126986731e-01,0.000000000000000000e+00
9.730000000000000000e+02,-8.561738867165188394e-01,0.000000000000000000e+00
9.740000000000000000e+02,-7.801883605838307867e-01,0.000000000000000000e+00
9.750000000000000000e+02,-7.341647347260115142e-01,0.000000000000000000e+00
9.760000000000000000e+02,-7.132726523972842125e-01,0.000000000000000000e+00
9.770000000000000000e+02,-6.700451489466157096e-01,0.000000000000000000e+00
9.780000000000000000e+02,-5.465959732223171219e-01,0.000000000000000000e+00
9.790000000000000000e+02,-5.411425768976197981e-01,0.000000000000000000e+00
9.800000000000000000e+02,-4.617232787512896008e-01,0.000000000000000000e+00
9.810000000000000000e+02,-4.239346214592770723e-01,0.000000000000000000e+00
9.820000000000000000e+02,-3.560829420975756832e-01,0.000000000000000000e+00
9.830000000000000000e+02,-3.307087631415847606e-01,0.000000000000000000e+00
9.840000000000000000e+02,-1.497827950605926661e-01,0.000000000000000000e+00
9.850000000000000000e+02,-3.623063364458348201e-02,0.000000000000000000e+00
9.860000000000000000e+02,2.922495474882699090e-02,0.000000000000000000e+00
9.870000000000000000e+02,4.282818094128096331e-02,0.000000000000000000e+00
9.880000000000000000e+02,1.242920516144055132e-01,0.000000000000000000e+00
9.890000000000000000e+02,2.289104357088130315e-01,0.000000000000000000e+00
9.900000000000000000e+02,3.040172145856155916e-01,0.000000000000000000e+00
9.910000000000000000e+02,2.497970705313567186e-01,0.000000000000000000e+00
9.920000000000000000e+02,2.304037660793738784e-01,0.000000000000000000e+00
9.930000000000000000e+02,4.161693767070203664e-01,0.000000000000000000e+00
9.940000000000000000e+02,5.103542264165022990e-01,0.000000000000000000e+00
9.950000000000000000e+02,2.448004774371751679e+00,0.000000000000000000e+00
9.960000000000000000e+02,1.182786999142948270e+00,1.000000000000000000e+00
9.970000000000000000e+02,-6.934775966939771275e-02,0.000000000000000000e+00
9.980000000000000000e+02,-2.142143785250746335e-01,0.000000000000000000e+00
9.990000000000000000e+02,-1.488461442300940130e-01,0.000000000000000000e+00
1.000000000000000000e+03,-8.311742557925143327e-02,0.000000000000000000e+00
1.001000000000000000e+03,7.088229540738924528e-02,0.000000000000000000e+00
1.002000000000000000e+03,1.405507365037367562e-01,0.000000000000000000e+00
1.003000000000000000e+03,3.137590749932673839e-01,0.000000000000000000e+00
1.004000000000000000e+03,3.342306756186030348e-01,0.000000000000000000e+00
1.005000000000000000e+03,3.898753622755947723e-01,0.000000000000000000e+00
1.006000000000000000e+03,5.145093460746763547e-01,0.000000000000000000e+00
1.007000000000000000e+03,5.076999278087979128e-01,0.000000000000000000e+00
1.008000000000000000e+03,6.041327032994511237e-01,0.000000000000000000e+00
1.009000000000000000e+03,7.083055859675346788e-01,0.000000000000000000e+00
1.010000000000000000e+03,7.674563435556059909e-01,0.000000000000000000e+00
1.011000000000000000e+03,7.300965373603311992e-01,0.000000000000000000e+00
1.012000000000000000e+03,7.519071095818589123e-01,0.000000000000000000e+00
1.013000000000000000e+03,4.318971997401382379e-01,0.000000000000000000e+00
1.014000000000000000e+03,4.690274761706211826e-01,0.000000000000000000e+00
1.015000000000000000e+03,3.588437860171792004e-01,0.000000000000000000e+00
1.016000000000000000e+03,1.987366107714725882e-01,0.000000000000000000e+00
1.017000000000000000e+03,2.014793717413807250e-01,0.000000000000000000e+00
1.018000000000000000e+03,1.485182857316339755e-01,0.000000000000000000e+00
1.019000000000000000e+03,2.015599294949739773e-01,0.000000000000000000e+00
1.020000000000000000e+03,2.408392002062490489e-01,0.000000000000000000e+00
1.021000000000000000e+03,3.944909089068616148e-01,0.000000000000000000e+00
1.022000000000000000e+03,5.635466840534174571e-01,0.000000000000000000e+00
1.023000000000000000e+03,3.944762275396886952e-01,0.000000000000000000e+00
1.024000000000000000e+03,-2.158135804320119533e+00,0.000000000000000000e+00
1.025000000000000000e+03,-3.452917907515841822e+00,0.000000000000000000e+00
1.026000000000000000e+03,-1.408409106673957245e+00,1.000000000000000000e+00
1.027000000000000000e+03,-4.609069856326762360e-01,0.000000000000000000e+00
1.028000000000000000e+03,1.740902755745215302e-01,0.000000000000000000e+00
1.029000000000000000e+03,1.525625303894938112e+00,0.000000000000000000e+00
1.030000000000000000e+03,1.763876220666829697e+00,0.000000000000000000e+00
1.031000000000000000e+03,1.520586163741477037e+00,0.000000000000000000e+00
1.032000000000000000e+03,1.509836171080150669e+00,0.000000000000000000e+00
1.033000000000000000e+03,1.457047283202139276e+00,0.000000000000000000e+00
1.034000000000000000e+03,1.502149833872464368e+00,0.000000000000000000e+00
1.035000000000000000e+03,1.695346589195960263e+00,0.000000000000000000e+00
1.036000000000000000e+03,1.884279040795460824e+00,0.000000000000000000e+00
1.037000000000000000e+03,1.996672281507550828e+00,0.000000000000000000e+00
1.038000000000000000e+03,1.992905787025364583e+00,0.000000000000000000e+00
1.039000000000000000e+03,1.879625395234516105e+00,0.000000000000000000e+00
1.040000000000000000e+03,1.188074649673121375e+00,0.000000000000000000e+00
1.041000000000000000e+03,3.505345658685896648e-01,0.000000000000000000e+00
1.042000000000000000e+03,-3.246326595930862369e-01,0.000000000000000000e+00
1.043000000000000000e+03,-1.025201988058409119e+00,0.000000000000000000e+00
1.044000000000000000e+03,-1.415746509397772801e+00,0.000000000000000000e+00
1.045000000000000000e+03,-1.567659633327718849e+00,0.000000000000000000e+00
1.046000000000000000e+03,-1.692936631315496099e+00,0.000000000000000000e+00
1.047000000000000000e+03,-1.579737003855723687e+00,0.000000000000000000e+00
1.048000000000000000e+03,-1.566361685930580894e+00,0.000000000000000000e+00
1.049000000000000000e+03,-1.550455982917180009e+00,0.000000000000000000e+00
1.050000000000000000e+03,-1.250836156946913302e+00,0.000000000000000000e+00
1.051000000000000000e+03,-1.426944131859652298e+00,0.000000000000000000e+00
1.052000000000000000e+03,-1.233923963360908038e+00,0.000000000000000000e+00
1.053000000000000000e+03,-1.136936112612974226e+00,0.000000000000000000e+00
1.054000000000000000e+03,-8.880810921433999194e-01,0.000000000000000000e+00
1.055000000000000000e+03,-7.364854411881968099e-01,0.000000000000000000e+00
1.056000000000000000e+03,-6.974289260143026192e-01,0.000000000000000000e+00
1.057000000000000000e+03,-6.556430953144403162e-01,0.000000000000000000e+00
1.058000000000000000e+03,-5.042127101822274637e-01,0.000000000000000000e+00
1.059000000000000000e+03,-4.759850021610604331e-01,0.000000000000000000e+00
1.060000000000000000e+03,-3.897911926431017471e-01,0.000000000000000000e+00
1.061000000000000000e+03,-2.933851868050703082e-01,0.000000000000000000e+00
1.062000000000000000e+03,-2.305616067548815762e-01,0.000000000000000000e+00
1.063000000000000000e+03,-1.238504632333995853e-01,0.000000000000000000e+00
1.064000000000000000e+03,-2.498767452426925162e-01,0.000000000000000000e+00
1.065000000000000000e+03,-9.570178747337089453e-02,0.000000000000000000e+00
1.066000000000000000e+03,-4.449074022002400680e-02,0.000000000000000000e+00
1.067000000000000000e+03,-1.526387686585499448e-02,0.000000000000000000e+00
1.068000000000000000e+03,-2.678731452543937561e-02,0.000000000000000000e+00
1.069000000000000000e+03,3.745819092440477033e-02,0.000000000000000000e+00
1.070000000000000000e+03,-1.885832855485451709e-02,0.000000000000000000e+00
1.071000000000000000e+03,1.584219803471145771e-01,0.000000000000000000e+00
1.072000000000000000e+03,1.435682662504505491e-01,0.000000000000000000e+00
1.073000000000000000e+03,2.313449989379976202e-01,0.000000000000000000e+00
1.074000000000000000e+03,1.223926793662749313e-01,0.000000000000000000e+00
1.075000000000000000e+03,3.414868839110956622e-01,0.000000000000000000e+00
1.076000000000000000e+03,3.817927202646342888e-01,0.000000000000000000e+00
1.077000000000000000e+03,4.220165865884473733e-01,0.000000000000000000e+00
1.078000000000000000e+03,2.918638877769671458e-01,0.000000000000000000e+00
1.079000000000000000e+03,4.704314725909715666e-01,0.000000000000000000e+00
1.080000000000000000e+03,3.586594500101237815e-01,0.000000000000000000e+00
1.081000000000000000e+03,2.212571043628479561e+00,0.000000000000000000e+00
1.082000000000000000e+03,1.664273762318436711e+00,0.000000000000000000e+00
1.083000000000000000e+03,-1.772739202939305758e-01,1.000000000000000000e+00
1.084000000000000000e+03,-1.281992390080657906e-01,0.000000000000000000e+00
1.085000000000000000e+03,-1.471070753634779738e-01,0.000000000000000000e+00
1.086000000000000000e+03,-1.258495456156307792e-02,0.000000000000000000e+00
1.087000000000000000e+03,-1.666623612757044681e-01,0.000000000000000000e+00
1.088000000000000000e+03,1.076504507408396032e-02,0.000000000000000000e+00
1.089000000000000000e+03,-6.134737530864988603e-02,0.000000000000000000e+00
1.090000000000000000e+03,1.757291548490797772e-01,0.000000000000000000e+00
1.091000000000000000e+03,8.878031091574710432e-02,0.000000000000000000e+00
1.092000000000000000e+03,1.563948232453082066e-01,0.000000000000000000e+00
1.093000000000000000e+03,1.652407713162480085e-01,0.000000000000000000e+00
1.094000000000000000e+03,3.183159811072944212e-01,0.000000000000000000e+00
1.095000000000000000e+03,2.857320524259939765e-01,0.000000000000000000e+00
1.096000000000000000e+03,4.174922477325415660e-01,0.000000000000000000e+00
1.097000000000000000e+03,3.815105954939767008e-01,0.000000000000000000e+00
1.098000000000000000e+03,3.245714277144486348e-01,0.000000000000000000e+00
1.099000000000000000e+03,2.330900837713188178e-01,0.000000000000000000e+00
1.100000000000000000e+03,1.108932954939232662e-01,0.000000000000000000e+00
1.101000000000000000e+03,-8.550831822360376033e-02,0.000000000000000000e+00
1.102000000000000000e+03,-1.723273951223256925e-02,0.000000000000000000e+00
1.103000000000000000e+03,-1.099067655117372116e-01,0.000000000000000000e+00
1.104000000000000000e+03,-2.354317438495383552e-01,0.000000000000000000e+00
1.105000000000000000e+03,-3.073019457040210289e-01,0.000000000000000000e+00
1.106000000000000000e+03,-1.645858823297311202e-01,0.000000000000000000e+00
1.107000000000000000e+03,-2.433592062995142968e-01,0.000000000000000000e+00
1.108000000000000000e+03,-9.752660741724505922e-02,0.000000000000000000e+00
1.109000000000000000e+03,2.748028996089972565e-04,0.000000000000000000e+00
1.110000000000000000e+03,3.841585714167168319e-01,0.000000000000000000e+00
1.111000000000000000e+03,-1.481183354175153122e+00,0.000000000000000000e+00
1.112000000000000000e+03,-4.517239775425659687e+00,0.000000000000000000e+00
1.113000000000000000e+03,-3.195592520270327253e+00,1.000000000000000000e+00
1.114000000000000000e+03,-1.317794756439688575e+00,0.000000000000000000e+00
1.115000000000000000e+03,-4.186877890219577458e-01,0.000000000000000000e+00
1.116000000000000000e+03,9.134711609758614514e-01,0.000000000000000000e+00
1.117000000000000000e+03,2.028340739614700183e+00,0.000000000000000000e+00
1.118000000000000000e+03,1.808112697071680763e+00,0.000000000000000000e+00
1.119000000000000000e+03,1.478082001097740905e+00,0.000000000000000000e+00
1.120000000000000000e+03,1.533415228208990344e+00,0.000000000000000000e+00
1.121000000000000000e+03,1.423125347463847890e+00,0.000000000000000000e+00
1.122000000000000000e+03,1.787499087953586363e+00,0.000000000000000000e+00
1.123000000000000000e+03,1.883794309065620842e+00,0.000000000000000000e+00
1.124000000000000000e+03,2.288421729019394224e+00,0.000000000000000000e+00
1.125000000000000000e+03,2.457042476116922280e+00,0.000000000000000000e+00
1.126000000000000000e+03,2.526845746863097819e+00,0.000000000000000000e+00
1.127000000000000000e+03,2.013967538865844897e+00,0.000000000000000000e+00
1.128000000000000000e+03,1.199565852440212188e+00,0.000000000000000000e+00
1.129000000000000000e+03,1.523707464090049146e-01,0.000000000000000000e+00
1.130000000000000000e+03,-7.226244611097787374e-01,0.000000000000000000e+00
1.131000000000000000e+03,-1.331456254482409562e+00,0.000000000000000000e+00
1.132000000000000000e+03,-1.665481271215162762e+00,0.000000000000000000e+00
1.133000000000000000e+03,-1.840520307541880562e+00,0.000000000000000000e+00
1.134000000000000000e+03,-1.750610609734763790e+00,0.000000000000000000e+00
1.135000000000000000e+03,-1.684161482965242707e+00,0.000000000000000000e+00
1.136000000000000000e+03,-1.562218008751482090e+00,0.000000000000000000e+00
1.137000000000000000e+03,-1.425160715842981984e+00,0.000000000000000000e+00
1.138000000000000000e+03,-1.289081409578082926e+00,0.000000000000000000e+00
1.139000000000000000e+03,-1.376401110669623229e+00,0.000000000000000000e+00
1.140000000000000000e+03,-9.878718941189156277e-01,0.000000000000000000e+00
1.141000000000000000e+03,-1.042103725168006090e+00,0.000000000000000000e+00
1.142000000000000000e+03,-8.723559585619659051e-01,0.000000000000000000e+00
1.143000000000000000e+03,-6.452708480527892254e-01,0.000000000000000000e+00
1.144000000000000000e+03,-6.977426007289925236e-01,0.000000000000000000e+00
1.145000000000000000e+03,-5.141187889178175929e-01,0.000000000000000000e+00
1.146000000000000000e+03,-4.684120046599039577e-01,0.000000000000000000e+00
1.147000000000000000e+03,-4.452083101815247357e-01,0.000000000000000000e+00
1.148000000000000000e+03,-2.511059580688064230e-01,0.000000000000000000e+00
1.149000000000000000e+03,-1.858783917237928351e-01,0.000000000000000000e+00
1.150000000000000000e+03,-1.241558445601022159e-01,0.000000000000000000e+00
1.151000000000000000e+03,-4.181454638795240042e-03,0.000000000000000000e+00
1.152000000000000000e+03,-6.187790336915939028e-03,0.000000000000000000e+00
1.153000000000000000e+03,1.127345485349617038e-01,0.000000000000000000e+00
1.154000000000000000e+03,1.439121950176845688e-01,0.000000000000000000e+00
1.155000000000000000e+03,1.451387637474941539e-01,0.000000000000000000e+00
1.156000000000000000e+03,1.734224186730621842e-01,0.000000000000000000e+00
1.157000000000000000e+03,1.891787647053649601e-01,0.000000000000000000e+00
1.158000000000000000e+03,9.969844384274005600e-02,0.000000000000000000e+00
1.159000000000000000e+03,2.714170757162124858e-01,0.000000000000000000e+00
1.160000000000000000e+03,2.407062543496724660e-01,0.000000000000000000e+00
1.161000000000000000e+03,3.310073964513063349e-01,0.000000000000000000e+00
1.162000000000000000e+03,4.915928979690575851e-02,0.000000000000000000e+00
1.163000000000000000e+03,1.138838043330545058e-01,0.000000000000000000e+00
1.164000000000000000e+03,1.134387678599389909e-01,0.000000000000000000e+00
1.165000000000000000e+03,1.112525868950619667e+00,0.000000000000000000e+00
1.166000000000000000e+03,2.210826511059711841e+00,0.000000000000000000e+00
1.167000000000000000e+03,4.807256582198412009e-01,1.000000000000000000e+00
1.168000000000000000e+03,-3.385745156932219446e-01,0.000000000000000000e+00
1.169000000000000000e+03,-4.403000958976538426e-01,0.000000000000000000e+00
1.170000000000000000e+03,-3.497966777205270272e-01,0.000000000000000000e+00
1.171000000000000000e+03,-2.775152592791609307e-01,0.000000000000000000e+00
1.172000000000000000e+03,-1.444541563721867261e-01,0.000000000000000000e+00
1.173000000000000000e+03,-3.337979407858170378e-01,0.000000000000000000e+00
1.174000000000000000e+03,-8.011225490758723533e-02,0.000000000000000000e+00
1.175000000000000000e+03,-2.166017992047904739e-01,0.000000000000000000e+00
1.176000000000000000e+03,1.002157387894045057e-02,0.000000000000000000e+00
1.177000000000000000e+03,-2.497873936805167575e-02,0.000000000000000000e+00
1.178000000000000000e+03,9.912961444147781742e-02,0.000000000000000000e+00
1.179000000000000000e+03,1.190151493790461285e-01,0.000000000000000000e+00
1.180000000000000000e+03,2.735328213296188138e-01,0.000000000000000000e+00
1.181000000000000000e+03,4.086127702151415297e-01,0.000000000000000000e+00
1.182000000000000000e+03,3.497955804054786455e-01,0.000000000000000000e+00
1.183000000000000000e+03,3.226818593521260103e-01,0.000000000000000000e+00
1.184000000000000000e+03,3.082006089729297238e-01,0.000000000000000000e+00
1.185000000000000000e+03,1.615368017904723064e-01,0.000000000000000000e+00
1.186000000000000000e+03,9.534675928637476039e-02,0.000000000000000000e+00
1.187000000000000000e+03,-7.597367205107831423e-02,0.000000000000000000e+00
1.188000000000000000e+03,1.255344705720636000e-01,0.000000000000000000e+00
1.189000000000000000e+03,-5.017588817201361351e-02,0.000000000000000000e+00
1.190000000000000000e+03,3.208152841968083934e-03,0.000000000000000000e+00
1.191000000000000000e+03,-2.300368630397868486e-01,0.000000000000000000e+00
1.192000000000000000e+03,-9.720824006326497790e-02,0.000000000000000000e+00
1.193000000000000000e+03,-1.741615052601319935e-01,0.000000000000000000e+00
1.194000000000000000e+03,-1.935313160278437083e-01,0.000000000000000000e+00
1.195000000000000000e+03,-2.050477512760765508e-01,0.000000000000000000e+00
1.196000000000000000e+03,2.030663356285080517e-02,0.000000000000000000e+00
1.197000000000000000e+03,9.005783541847445228e-02,0.000000000000000000e+00
1.198000000000000000e+03,2.703163816156713417e-01,0.000000000000000000e+00
1.199000000000000000e+03,4.327769125115204507e-01,0.000000000000000000e+00
1.200000000000000000e+03,2.121991837722500662e+00,0.000000000000000000e+00
1.201000000000000000e+03,1.097499843609497594e+00,0.000000000000000000e+00
1.202000000000000000e+03,-6.244795445404411893e-01,1.000000000000000000e+00
1.203000000000000000e+03,-7.830437247115270560e-01,0.000000000000000000e+00
1.204000000000000000e+03,-8.374310702316830612e-01,0.000000000000000000e+00
1.205000000000000000e+03,-6.879335957098932086e-01,0.000000000000000000e+00
1.206000000000000000e+03,-5.573714385472596788e-01,0.000000000000000000e+00
1.207000000000000000e+03,-4.937031323442334085e-01,0.000000000000000000e+00
1.208000000000000000e+03,-5.426802134230896968e-01,0.000000000000000000e+00
1.209000000000000000e+03,-4.929861137125381987e-01,0.000000000000000000e+00
1.210000000000000000e+03,-4.763994077150692785e-01,0.000000000000000000e+00
1.211000000000000000e+03,-3.865060642872948926e-01,0.000000000000000000e+00
1.212000000000000000e+03,-2.029957784671527765e-01,0.000000000000000000e+00
1.213000000000000000e+03,-2.376222759405073603e-01,0.000000000000000000e+00
1.214000000000000000e+03,-7.098778620149011342e-02,0.000000000000000000e+00
1.215000000000000000e+03,4.247846191798662630e-02,0.000000000000000000e+00
1.216000000000000000e+03,9.883330901056056050e-02,0.000000000000000000e+00
1.217000000000000000e+03,6.522270187771304906e-02,0.000000000000000000e+00
1.218000000000000000e+03,2.599633896093886051e-02,0.000000000000000000e+00
1.219000000000000000e+03,8.654361991142583976e-02,0.000000000000000000e+00
1.220000000000000000e+03,-4.441327104345786647e-02,0.000000000000000000e+00
1.221000000000000000e+03,1.719458638140342333e-01,0.000000000000000000e+00
1.222000000000000000e+03,-4.865434924022919022e-02,0.000000000000000000e+00
1.223000000000000000e+03,8.774860984539473163e-02,0.000000000000000000e+00
1.224000000000000000e+03,2.234815424264593731e-01,0.000000000000000000e+00
1.225000000000000000e+03,6.606980170722055457e-01,0.000000000000000000e+00
1.226000000000000000e+03,1.671424721062031438e+00,0.000000000000000000e+00
1.227000000000000000e+03,3.460887324003949050e+00,0.000000000000000000e+00
1.228000000000000000e+03,1.158579430038957359e+00,0.000000000000000000e+00
1.229000000000000000e+03,-2.235280019459512602e+00,0.000000000000000000e+00
1.230000000000000000e+03,-1.311296487072946659e+00,0.000000000000000000e+00
1.231000000000000000e+03,-9.194321583827664846e-01,0.000000000000000000e+00
1.232000000000000000e+03,-7.662544011492559148e-01,0.000000000000000000e+00
1.233000000000000000e+03,-6.479942506329933183e-01,0.000000000000000000e+00
1.234000000000000000e+03,-4.147630732167946199e-01,0.000000000000000000e+00
1.235000000000000000e+03,-3.979149781328963908e-01,0.000000000000000000e+00
1.236000000000000000e+03,-5.803296320539644837e-01,0.000000000000000000e+00
1.237000000000000000e+03,-5.760303763371292796e-01,0.000000000000000000e+00
1.238000000000000000e+03,-6.885624772790642778e-01,0.000000000000000000e+00
1.239000000000000000e+03,-5.520803819864680273e-01,0.000000000000000000e+00
1.240000000000000000e+03,-5.231023182920206960e-01,0.000000000000000000e+00
1.241000000000000000e+03,-5.930755734178769223e-02,0.000000000000000000e+00
1.242000000000000000e+03,2.605157475417558821e-01,0.000000000000000000e+00
1.243000000000000000e+03,3.878708623654268939e-01,0.000000000000000000e+00
1.244000000000000000e+03,5.387149893734967110e-01,0.000000000000000000e+00
1.245000000000000000e+03,5.669504734519184019e-01,0.000000000000000000e+00
1.246000000000000000e+03,5.434355401996968649e-01,0.000000000000000000e+00
1.247000000000000000e+03,3.977991764745477665e-01,0.000000000000000000e+00
1.248000000000000000e+03,3.626477940739145089e-01,0.000000000000000000e+00
1.249000000000000000e+03,2.775561630602647045e-01,0.000000000000000000e+00
1.250000000000000000e+03,2.409909376901376299e-01,0.000000000000000000e+00
1.251000000000000000e+03,2.815274690601144991e-01,0.000000000000000000e+00
1.252000000000000000e+03,1.703918859462707769e-01,0.000000000000000000e+00
1.253000000000000000e+03,8.273185456746892652e-02,0.000000000000000000e+00
1.254000000000000000e+03,2.003175915081100711e-01,0.000000000000000000e+00
1.255000000000000000e+03,1.350935396265578459e-01,0.000000000000000000e+00
1.256000000000000000e+03,2.607724017037957864e-01,0.000000000000000000e+00
1.257000000000000000e+03,1.696016664595387524e-01,0.000000000000000000e+00
1.258000000000000000e+03,1.927341823552997102e-01,0.000000000000000000e+00
1.259000000000000000e+03,2.605139460096658199e-01,0.000000000000000000e+00
1.260000000000000000e+03,2.790392519812018302e-01,0.000000000000000000e+00
1.261000000000000000e+03,2.770387198515265603e-01,0.000000000000000000e+00
1.262000000000000000e+03,4.096979521197253171e-01,0.000000000000000000e+00
1.263000000000000000e+03,2.702672978476857724e-01,0.000000000000000000e+00
1.264000000000000000e+03,3.229320837431362001e-01,0.000000000000000000e+00
1.265000000000000000e+03,3.849413755697408956e-01,0.000000000000000000e+00
1.266000000000000000e+03,2.120466199554204845e-01,0.000000000000000000e+00
1.267000000000000000e+03,2.440343659351193462e-01,0.000000000000000000e+00
1.268000000000000000e+03,7.011278351930338992e-02,0.000000000000000000e+00
1.269000000000000000e+03,1.427097487348419069e-01,0.000000000000000000e+00
1.270000000000000000e+03,1.694415144610215418e-01,0.000000000000000000e+00
1.271000000000000000e+03,2.307928832919861444e-03,0.000000000000000000e+00
1.272000000000000000e+03,2.459775667896196838e-02,0.000000000000000000e+00
1.273000000000000000e+03,-5.050029423172168463e-02,0.000000000000000000e+00
1.274000000000000000e+03,-1.584300506693993044e-03,0.000000000000000000e+00
1.275000000000000000e+03,1.657728043606631896e-01,0.000000000000000000e+00
1.276000000000000000e+03,1.766611854370867419e-03,0.000000000000000000e+00
1.277000000000000000e+03,2.745605516749463279e-02,0.000000000000000000e+00
1.278000000000000000e+03,3.156175234623520565e-02,0.000000000000000000e+00
1.279000000000000000e+03,1.492364736564632255e-01,0.000000000000000000e+00
1.280000000000000000e+03,-4.712090411320664363e-02,0.000000000000000000e+00
1.281000000000000000e+03,-7.607789722915371013e-03,0.000000000000000000e+00
1.282000000000000000e+03,2.502863474801097013e-02,0.000000000000000000e+00
1.283000000000000000e+03,1.005019556734520203e-01,0.000000000000000000e+00
1.284000000000000000e+03,4.633516218455314695e-01,0.000000000000000000e+00
1.285000000000000000e+03,1.563350375314133955e-01,0.000000000000000000e+00
1.286000000000000000e+03,1.235715997174714698e+00,0.000000000000000000e+00
1.287000000000000000e+03,2.420001191937193319e+00,0.000000000000000000e+00
1.288000000000000000e+03,3.092540110931643049e-01,1.000000000000000000e+00
1.289000000000000000e+03,-6.626729691130618383e-01,0.000000000000000000e+00
1.290000000000000000e+03,-9.342468155247116712e-01,0.000000000000000000e+00
1.291000000000000000e+03,-8.461841692596527853e-01,0.000000000000000000e+00
1.292000000000000000e+03,-1.039564453536456101e+00,0.000000000000000000e+00
1.293000000000000000e+03,-7.678747484161582149e-01,0.000000000000000000e+00
1.294000000000000000e+03,-8.981467977541298664e-01,0.000000000000000000e+00
1.295000000000000000e+03,-6.655734981103711423e-01,0.000000000000000000e+00
1.296000000000000000e+03,-7.087369621446678591e-01,0.000000000000000000e+00
1.297000000000000000e+03,-6.622185376366742648e-01,0.000000000000000000e+00
1.298000000000000000e+03,-6.108873749962052679e-01,0.000000000000000000e+00
1.299000000000000000e+03,-3.634849619775249452e-01,0.000000000000000000e+00
1.300000000000000000e+03,-3.442751366974113325e-01,0.000000000000000000e+00
1.301000000000000000e+03,-1.448695433410733813e-01,0.000000000000000000e+00
1.302000000000000000e+03,-4.931338572173092627e-02,0.000000000000000000e+00
1.303000000000000000e+03,-6.700661039780722583e-02,0.000000000000000000e+00
1.304000000000000000e+03,-1.128126291329732273e-01,0.000000000000000000e+00
1.305000000000000000e+03,-1.070922478582029824e-01,0.000000000000000000e+00
1.306000000000000000e+03,-1.144721086717590680e-01,0.000000000000000000e+00
1.307000000000000000e+03,-2.114849215429765172e-01,0.000000000000000000e+00
1.308000000000000000e+03,-1.381169966394772686e-01,0.000000000000000000e+00
1.309000000000000000e+03,-2.929604113564816537e-01,0.000000000000000000e+00
1.310000000000000000e+03,-1.977713481163319575e-01,0.000000000000000000e+00
1.311000000000000000e+03,-6.934340191646927443e-02,0.000000000000000000e+00
1.312000000000000000e+03,2.809358047521242144e-02,0.000000000000000000e+00
1.313000000000000000e+03,1.831451843565133353e-01,0.000000000000000000e+00
1.314000000000000000e+03,-5.022846393513693553e-01,0.000000000000000000e+00
1.315000000000000000e+03,-3.441189030149006012e+00,0.000000000000000000e+00
1.316000000000000000e+03,-4.719175733400875927e+00,0.000000000000000000e+00
1.317000000000000000e+03,-1.856607035377607184e+00,1.000000000000000000e+00
1.318000000000000000e+03,-3.845509232682693956e-01,0.000000000000000000e+00
1.319000000000000000e+03,2.720056508338493106e-01,0.000000000000000000e+00
1.320000000000000000e+03,1.700718873596425373e+00,0.000000000000000000e+00
1.321000000000000000e+03,2.184861794313928574e+00,0.000000000000000000e+00
1.322000000000000000e+03,2.171850131385421268e+00,0.000000000000000000e+00
1.323000000000000000e+03,2.328456748917294039e+00,0.000000000000000000e+00
1.324000000000000000e+03,2.141405524813322359e+00,0.000000000000000000e+00
1.325000000000000000e+03,2.156261545760291387e+00,0.000000000000000000e+00
1.326000000000000000e+03,2.339241718686817961e+00,0.000000000000000000e+00
1.327000000000000000e+03,2.722843864425827487e+00,0.000000000000000000e+00
1.328000000000000000e+03,2.870596147854656888e+00,0.000000000000000000e+00
1.329000000000000000e+03,2.882176749672709093e+00,0.000000000000000000e+00
1.330000000000000000e+03,2.392430848785696451e+00,0.000000000000000000e+00
1.331000000000000000e+03,1.617651675044633253e+00,0.000000000000000000e+00
1.332000000000000000e+03,4.669063667949180929e-01,0.000000000000000000e+00
1.333000000000000000e+03,-3.612041833088830423e-01,0.000000000000000000e+00
1.334000000000000000e+03,-1.227575010294345237e+00,0.000000000000000000e+00
1.335000000000000000e+03,-1.722041906869125949e+00,0.000000000000000000e+00
1.336000000000000000e+03,-1.810927538401796211e+00,0.000000000000000000e+00
1.337000000000000000e+03,-1.932111060170901951e+00,0.000000000000000000e+00
1.338000000000000000e+03,-1.924663582888391566e+00,0.000000000000000000e+00
1.339000000000000000e+03,-1.766759191458305844e+00,0.000000000000000000e+00
1.340000000000000000e+03,-1.694171523106118293e+00,0.000000000000000000e+00
1.341000000000000000e+03,-1.633619216021528597e+00,0.000000000000000000e+00
1.342000000000000000e+03,-1.450976501242845274e+00,0.000000000000000000e+00
1.343000000000000000e+03,-1.354784704997743283e+00,0.000000000000000000e+00
1.344000000000000000e+03,-1.361079840990076173e+00,0.000000000000000000e+00
1.345000000000000000e+03,-1.159438474765221994e+00,0.000000000000000000e+00
1.346000000000000000e+03,-1.116561406155734293e+00,0.000000000000000000e+00
1.347000000000000000e+03,-9.273916039595999639e-01,0.000000000000000000e+00
1.348000000000000000e+03,-7.907234955731360371e-01,0.000000000000000000e+00
1.349000000000000000e+03,-6.550808612534079201e-01,0.000000000000000000e+00
1.350000000000000000e+03,-6.494578639159439559e-01,0.000000000000000000e+00
1.351000000000000000e+03,-4.488651261853481844e-01,0.000000000000000000e+00
1.352000000000000000e+03,-3.710016682378780573e-01,0.000000000000000000e+00
1.353000000000000000e+03,-2.575050321716173540e-01,0.000000000000000000e+00
1.354000000000000000e+03,-2.999358160151257002e-01,0.000000000000000000e+00
1.355000000000000000e+03,-1.744343722455398704e-01,0.000000000000000000e+00
1.356000000000000000e+03,-1.521338396864891918e-01,0.000000000000000000e+00
1.357000000000000000e+03,-9.173989189860515259e-02,0.000000000000000000e+00
1.358000000000000000e+03,-1.967058752684474610e-01,0.000000000000000000e+00
1.359000000000000000e+03,7.437152135542803022e-02,0.000000000000000000e+00
1.360000000000000000e+03,1.046309825947611544e-01,0.000000000000000000e+00
1.361000000000000000e+03,5.901583864629154075e-01,0.000000000000000000e+00
1.362000000000000000e+03,2.353281173130840898e-01,0.000000000000000000e+00
1.363000000000000000e+03,1.757386850776456733e+00,0.000000000000000000e+00
1.364000000000000000e+03,2.884407615562575078e+00,0.000000000000000000e+00
1.365000000000000000e+03,6.613548212976723129e-01,1.000000000000000000e+00
1.366000000000000000e+03,-1.190356880662721550e-01,0.000000000000000000e+00
1.367000000000000000e+03,-4.356050695197690170e-01,0.000000000000000000e+00
1.368000000000000000e+03,-1.555071552179019823e-01,0.000000000000000000e+00
1.369000000000000000e+03,-3.048203057757307155e-01,0.000000000000000000e+00
1.370000000000000000e+03,7.938740762876558832e-02,0.000000000000000000e+00
1.371000000000000000e+03,-8.519516365379220524e-02,0.000000000000000000e+00
1.372000000000000000e+03,1.583495989025454354e-01,0.000000000000000000e+00
1.373000000000000000e+03,2.509544694187932912e-01,0.000000000000000000e+00
1.374000000000000000e+03,3.449349519168780076e-01,0.000000000000000000e+00
1.375000000000000000e+03,4.044726560543019933e-01,0.000000000000000000e+00
1.376000000000000000e+03,5.365162028733789779e-01,0.000000000000000000e+00
1.377000000000000000e+03,7.599020643885783244e-01,0.000000000000000000e+00
1.378000000000000000e+03,8.669623780646891209e-01,0.000000000000000000e+00
1.379000000000000000e+03,8.565983721497647529e-01,0.000000000000000000e+00
1.380000000000000000e+03,7.897907442900105046e-01,0.000000000000000000e+00
1.381000000000000000e+03,8.269790201231971283e-01,0.000000000000000000e+00
1.382000000000000000e+03,7.037895654439807469e-01,0.000000000000000000e+00
1.383000000000000000e+03,6.889075677836747902e-01,0.000000000000000000e+00
1.384000000000000000e+03,6.957502351880910929e-01,0.000000000000000000e+00
1.385000000000000000e+03,5.168436214154742414e-01,0.000000000000000000e+00
1.386000000000000000e+03,2.585352750691826129e-01,0.000000000000000000e+00
1.387000000000000000e+03,5.052284243421917287e-01,0.000000000000000000e+00
1.388000000000000000e+03,3.897125495161133379e-01,0.000000000000000000e+00
1.389000000000000000e+03,4.589000975343072719e-01,0.000000000000000000e+00
1.390000000000000000e+03,4.079722255404499842e-01,0.000000000000000000e+00
1.391000000000000000e+03,-2.717897440831011924e-01,0.000000000000000000e+00
1.392000000000000000e+03,-3.715058567018821645e+00,0.000000000000000000e+00
1.393000000000000000e+03,-4.572874064403971595e+00,0.000000000000000000e+00
1.394000000000000000e+03,-1.912808958859582020e+00,1.000000000000000000e+00
1.395000000000000000e+03,-3.174158214653387544e-01,0.000000000000000000e+00
1.396000000000000000e+03,5.030518522582678731e-01,0.000000000000000000e+00
1.397000000000000000e+03,1.662542633904371847e+00,0.000000000000000000e+00
1.398000000000000000e+03,2.325246892157035727e+00,0.000000000000000000e+00
1.399000000000000000e+03,2.245631219884354213e+00,0.000000000000000000e+00
1.400000000000000000e+03,2.251329223643457667e+00,0.000000000000000000e+00
1.401000000000000000e+03,2.226576012477388122e+00,0.000000000000000000e+00
1.402000000000000000e+03,2.222777399330787773e+00,0.000000000000000000e+00
1.403000000000000000e+03,2.413803595002793845e+00,0.000000000000000000e+00
1.404000000000000000e+03,2.636939781092471069e+00,0.000000000000000000e+00
1.405000000000000000e+03,2.960148452665514629e+00,0.000000000000000000e+00
1.406000000000000000e+03,2.788832119458750647e+00,0.000000000000000000e+00
1.407000000000000000e+03,2.270022525205433350e+00,0.000000000000000000e+00
1.408000000000000000e+03,1.529041137467108014e+00,0.000000000000000000e+00
1.409000000000000000e+03,3.589541459007777879e-01,0.000000000000000000e+00
1.410000000000000000e+03,-5.038802987256113530e-01,0.000000000000000000e+00
1.411000000000000000e+03,-1.420893605324808684e+00,0.000000000000000000e+00
1.412000000000000000e+03,-1.707889087668538641e+00,0.000000000000000000e+00
1.413000000000000000e+03,-2.191540287982471469e+00,0.000000000000000000e+00
1.414000000000000000e+03,-2.256920436497282800e+00,0.000000000000000000e+00
1.415000000000000000e+03,-2.242084874091886615e+00,0.000000000000000000e+00
1.416000000000000000e+03,-2.036992356778306146e+00,0.000000000000000000e+00
1.417000000000000000e+03,-1.997413039522679457e+00,0.000000000000000000e+00
1.418000000000000000e+03,-1.976056341245744141e+00,0.000000000000000000e+00
1.419000000000000000e+03,-1.878333791488522753e+00,0.000000000000000000e+00
1.420000000000000000e+03,-1.744285705545157938e+00,0.000000000000000000e+00
1.421000000000000000e+03,-1.664744383648799619e+00,0.000000000000000000e+00
1.422000000000000000e+03,-1.527697595255574470e+00,0.000000000000000000e+00
1.423000000000000000e+03,-1.466301142290385551e+00,0.000000000000000000e+00
1.424000000000000000e+03,-1.424229422479148965e+00,0.000000000000000000e+00
1.425000000000000000e+03,-1.250854701026228311e+00,0.000000000000000000e+00
1.426000000000000000e+03,-1.078796840396069268e+00,0.000000000000000000e+00
1.427000000000000000e+03,-1.072500713410650341e+00,0.000000000000000000e+00
1.428000000000000000e+03,-9.210365121494366036e-01,0.000000000000000000e+00
1.429000000000000000e+03,-9.008721959581857952e-01,0.000000000000000000e+00
1.430000000000000000e+03,-7.442028667617944793e-01,0.000000000000000000e+00
1.431000000000000000e+03,-6.967633738785573572e-01,0.000000000000000000e+00
1.432000000000000000e+03,-5.483774647479401354e-01,0.000000000000000000e+00
1.433000000000000000e+03,-5.057659947002013379e-01,0.000000000000000000e+00
1.434000000000000000e+03,-2.925117719791606175e-01,0.000000000000000000e+00
1.435000000000000000e+03,-2.615044717541000763e-01,0.000000000000000000e+00
1.436000000000000000e+03,-1.656168804237571901e-01,0.000000000000000000e+00
1.437000000000000000e+03,-1.251251231667595276e-02,0.000000000000000000e+00
1.438000000000000000e+03,4.813272381047084547e-02,0.000000000000000000e+00
1.439000000000000000e+03,1.392100782187585817e-01,0.000000000000000000e+00
1.440000000000000000e+03,2.149627464412951217e-01,0.000000000000000000e+00
1.441000000000000000e+03,3.453610472341689941e-01,0.000000000000000000e+00
1.442000000000000000e+03,3.495091517342478471e-01,0.000000000000000000e+00
1.443000000000000000e+03,3.410517804811881160e-01,0.000000000000000000e+00
1.444000000000000000e+03,4.249031481131803067e-01,0.000000000000000000e+00
1.445000000000000000e+03,4.920171737598735828e-01,0.000000000000000000e+00
1.446000000000000000e+03,5.382319752929267676e-01,0.000000000000000000e+00
1.447000000000000000e+03,3.952183733949978794e-01,0.000000000000000000e+00
1.448000000000000000e+03,4.720716046063492266e-01,0.000000000000000000e+00
1.449000000000000000e+03,6.353049333528463238e-01,0.000000000000000000e+00
1.450000000000000000e+03,6.344287476445518159e-01,0.000000000000000000e+00
1.451000000000000000e+03,2.761947005599362237e-01,0.000000000000000000e+00
1.452000000000000000e+03,4.725164213820701176e-01,0.000000000000000000e+00
1.453000000000000000e+03,3.760313192941771021e-01,0.000000000000000000e+00
1.454000000000000000e+03,1.807393798763767601e+00,0.000000000000000000e+00
1.455000000000000000e+03,2.020740023339321123e+00,0.000000000000000000e+00
1.456000000000000000e+03,1.046031584917628543e-01,1.000000000000000000e+00
1.457000000000000000e+03,-2.754594003221241261e-01,0.000000000000000000e+00
1.458000000000000000e+03,-4.036033355660129107e-01,0.000000000000000000e+00
1.459000000000000000e+03,-3.173976029790494535e-01,0.000000000000000000e+00
1.460000000000000000e+03,-1.910227006671923189e-01,0.000000000000000000e+00
1.461000000000000000e+03,-2.217757918691258545e-01,0.000000000000000000e+00
1.462000000000000000e+03,-1.872773978888946922e-01,0.000000000000000000e+00
1.463000000000000000e+03,-9.670005973986063597e-02,0.000000000000000000e+00
1.464000000000000000e+03,-5.527808894476304857e-02,0.000000000000000000e+00
1.465000000000000000e+03,1.753693256964503067e-02,0.000000000000000000e+00
1.466000000000000000e+03,2.771833616045096468e-02,0.000000000000000000e+00
1.467000000000000000e+03,2.630735096992908861e-01,0.000000000000000000e+00
1.468000000000000000e+03,1.459904404173940906e-01,0.000000000000000000e+00
1.469000000000000000e+03,4.501600506417479663e-01,0.000000000000000000e+00
1.470000000000000000e+03,4.186136361034880071e-01,0.000000000000000000e+00
1.471000000000000000e+03,4.431404936373761760e-01,0.000000000000000000e+00
1.472000000000000000e+03,2.459992861302269795e-01,0.000000000000000000e+00
1.473000000000000000e+03,2.437329707472577489e-01,0.000000000000000000e+00
1.474000000000000000e+03,8.218139547290374824e-02,0.000000000000000000e+00
1.475000000000000000e+03,-1.570634567624954424e-03,0.000000000000000000e+00
1.476000000000000000e+03,-3.789184605474156531e-02,0.000000000000000000e+00
1.477000000000000000e+03,-4.563610891079554477e-02,0.000000000000000000e+00
1.478000000000000000e+03,-7.890460956680851734e-02,0.000000000000000000e+00
1.479000000000000000e+03,-1.878190158990778250e-02,0.000000000000000000e+00
1.480000000000000000e+03,1.004074696896663510e-01,0.000000000000000000e+00
1.481000000000000000e+03,3.350891829140276168e-01,0.000000000000000000e+00
1.482000000000000000e+03,5.506276955044201449e-01,0.000000000000000000e+00
1.483000000000000000e+03,-1.142027454998190583e+00,0.000000000000000000e+00
1.484000000000000000e+03,-3.559663909358592893e+00,0.000000000000000000e+00
1.485000000000000000e+03,-1.992177223705113409e+00,1.000000000000000000e+00
1.486000000000000000e+03,-4.354187546738069181e-01,0.000000000000000000e+00
1.487000000000000000e+03,-3.976339482395886971e-01,0.000000000000000000e+00
1.488000000000000000e+03,8.548590684080620283e-01,0.000000000000000000e+00
1.489000000000000000e+03,1.578302460842187394e+00,0.000000000000000000e+00
1.490000000000000000e+03,1.551906750805428059e+00,0.000000000000000000e+00
1.491000000000000000e+03,1.489786220792470139e+00,0.000000000000000000e+00
1.492000000000000000e+03,1.372223284896440854e+00,0.000000000000000000e+00
1.493000000000000000e+03,1.257783354444276025e+00,0.000000000000000000e+00
1.494000000000000000e+03,1.527916131526273036e+00,0.000000000000000000e+00
1.495000000000000000e+03,1.668992498723327111e+00,0.000000000000000000e+00
1.496000000000000000e+03,2.110109956214171412e+00,0.000000000000000000e+00
1.497000000000000000e+03,2.033427231244706146e+00,0.000000000000000000e+00
1.498000000000000000e+03,1.926736195710584409e+00,0.000000000000000000e+00
1.499000000000000000e+03,1.389887936269015078e+00,0.000000000000000000e+00
1.500000000000000000e+03,7.130050624735702058e-01,0.000000000000000000e+00
1.501000000000000000e+03,-3.276811559321977929e-02,0.000000000000000000e+00
1.502000000000000000e+03,-7.050410393541363119e-01,0.000000000000000000e+00
1.503000000000000000e+03,-1.262543315597018934e+00,0.000000000000000000e+00
1.504000000000000000e+03,-1.409388676922995742e+00,0.000000000000000000e+00
1.505000000000000000e+03,-1.549210296474984094e+00,0.000000000000000000e+00
1.506000000000000000e+03,-1.514312641293210415e+00,0.000000000000000000e+00
1.507000000000000000e+03,-1.336394872322433258e+00,0.000000000000000000e+00
1.508000000000000000e+03,-1.297369799757432274e+00,0.000000000000000000e+00
1.509000000000000000e+03,-1.237605931160491002e+00,0.000000000000000000e+00
1.510000000000000000e+03,-1.241000610748331789e+00,0.000000000000000000e+00
1.511000000000000000e+03,-1.159927023046015249e+00,0.000000000000000000e+00
1.512000000000000000e+03,-9.963081139892323579e-01,0.000000000000000000e+00
1.513000000000000000e+03,-9.546045443445029255e-01,0.000000000000000000e+00
1.514000000000000000e+03,-9.557445665071502283e-01,0.000000000000000000e+00
1.515000000000000000e+03,-9.028732871374686164e-01,0.000000000000000000e+00
1.516000000000000000e+03,-7.277119136217163886e-01,0.000000000000000000e+00
1.517000000000000000e+03,-6.212131373209891505e-01,0.000000000000000000e+00
1.518000000000000000e+03,-4.815105678632780051e-01,0.000000000000000000e+00
1.519000000000000000e+03,-3.815375416291447719e-01,0.000000000000000000e+00
1.520000000000000000e+03,-3.454266774318144884e-01,0.000000000000000000e+00
1.521000000000000000e+03,-3.408644412585058459e-01,0.000000000000000000e+00
1.522000000000000000e+03,-1.596356661050812031e-01,0.000000000000000000e+00
1.523000000000000000e+03,-9.105181467717907151e-02,0.000000000000000000e+00
1.524000000000000000e+03,-8.826217582861628497e-02,0.000000000000000000e+00
1.525000000000000000e+03,5.165029367420993084e-02,0.000000000000000000e+00
1.526000000000000000e+03,1.260829510292343358e-01,0.000000000000000000e+00
1.527000000000000000e+03,2.906451548069924340e-01,0.000000000000000000e+00
1.528000000000000000e+03,2.979647171738130651e-01,0.000000000000000000e+00
1.529000000000000000e+03,3.385939708471774612e-01,0.000000000000000000e+00
1.530000000000000000e+03,3.663254993390414049e-01,0.000000000000000000e+00
1.531000000000000000e+03,4.203093319441836284e-01,0.000000000000000000e+00
1.532000000000000000e+03,5.588269037015554108e-01,0.000000000000000000e+00
1.533000000000000000e+03,5.815187211736784212e-01,0.000000000000000000e+00
1.534000000000000000e+03,8.001494597637600625e-01,0.000000000000000000e+00
1.535000000000000000e+03,5.602271180274327467e-01,0.000000000000000000e+00
1.536000000000000000e+03,5.982849626463320192e-01,0.000000000000000000e+00
1.537000000000000000e+03,5.489810995101360724e-01,0.000000000000000000e+00
1.538000000000000000e+03,1.205557545356538363e+00,0.000000000000000000e+00
1.539000000000000000e+03,2.777351184364008407e+00,0.000000000000000000e+00
1.540000000000000000e+03,1.265581091167846450e+00,1.000000000000000000e+00
1.541000000000000000e+03,1.119637376778829796e-01,0.000000000000000000e+00
1.542000000000000000e+03,-4.795394639301918394e-02,0.000000000000000000e+00
1.543000000000000000e+03,7.413483994113830022e-02,0.000000000000000000e+00
1.544000000000000000e+03,1.582869459424361969e-01,0.000000000000000000e+00
1.545000000000000000e+03,3.211001568195290812e-01,0.000000000000000000e+00
1.546000000000000000e+03,2.244930017888500939e-01,0.000000000000000000e+00
1.547000000000000000e+03,2.337841257736336387e-01,0.000000000000000000e+00
1.548000000000000000e+03,3.843546484890135173e-01,0.000000000000000000e+00
1.549000000000000000e+03,4.678975437561763706e-01,0.000000000000000000e+00
1.550000000000000000e+03,4.411555963858455054e-01,0.000000000000000000e+00
1.551000000000000000e+03,4.534155373139504563e-01,0.000000000000000000e+00
1.552000000000000000e+03,5.524088997988375604e-01,0.000000000000000000e+00
1.553000000000000000e+03,7.046664907973970715e-01,0.000000000000000000e+00
1.554000000000000000e+03,6.459421450182700752e-01,0.000000000000000000e+00
1.555000000000000000e+03,7.579015526617807197e-01,0.000000000000000000e+00
1.556000000000000000e+03,6.078559142968751328e-01,0.000000000000000000e+00
1.557000000000000000e+03,5.059074105349077310e-01,0.000000000000000000e+00
1.558000000000000000e+03,4.303104240789099033e-01,0.000000000000000000e+00
1.559000000000000000e+03,3.693909629090131874e-01,0.000000000000000000e+00
1.560000000000000000e+03,1.669467632127545620e-01,0.000000000000000000e+00
1.561000000000000000e+03,2.310724870667434372e-01,0.000000000000000000e+00
1.562000000000000000e+03,7.132973991961716331e-02,0.000000000000000000e+00
1.563000000000000000e+03,1.910977933186853717e-01,0.000000000000000000e+00
1.564000000000000000e+03,1.442679412792829963e-01,0.000000000000000000e+00
1.565000000000000000e+03,1.087289306627640117e-01,0.000000000000000000e+00
1.566000000000000000e+03,8.291471359462344870e-02,0.000000000000000000e+00
1.567000000000000000e+03,-1.836448774312314861e-02,0.000000000000000000e+00
1.568000000000000000e+03,1.479640381297759322e-01,0.000000000000000000e+00
1.569000000000000000e+03,-6.161301134526805945e-02,0.000000000000000000e+00
1.570000000000000000e+03,-3.235833843098313345e+00,0.000000000000000000e+00
1.571000000000000000e+03,-4.613529301141061190e+00,0.000000000000000000e+00
1.572000000000000000e+03,-2.775968122824469031e+00,1.000000000000000000e+00
1.573000000000000000e+03,-1.042072787807090561e+00,0.000000000000000000e+00
1.574000000000000000e+03,-2.026945616480630152e-01,0.000000000000000000e+00
1.575000000000000000e+03,1.079450403523610547e+00,0.000000000000000000e+00
1.576000000000000000e+03,1.485637517208987735e+00,0.000000000000000000e+00
1.577000000000000000e+03,1.294661610543857977e+00,0.000000000000000000e+00
1.578000000000000000e+03,1.324458736693995276e+00,0.000000000000000000e+00
1.579000000000000000e+03,1.300729762635731701e+00,0.000000000000000000e+00
1.580000000000000000e+03,1.300518927580890827e+00,0.000000000000000000e+00
1.581000000000000000e+03,1.548123421141218259e+00,0.000000000000000000e+00
1.582000000000000000e+03,1.858131561270154775e+00,0.000000000000000000e+00
1.583000000000000000e+03,2.119911188689917125e+00,0.000000000000000000e+00
1.584000000000000000e+03,2.196354912158842154e+00,0.000000000000000000e+00
1.585000000000000000e+03,1.979645324246606330e+00,0.000000000000000000e+00
1.586000000000000000e+03,1.452092280030110372e+00,0.000000000000000000e+00
1.587000000000000000e+03,3.779047015127779408e-01,0.000000000000000000e+00
1.588000000000000000e+03,-4.541507925525205547e-01,0.000000000000000000e+00
