timestamp,ecg_measurement,qrs_detected
0.000000000000000000e+00,9.762093703190752869e-01,0.000000000000000000e+00
1.000000000000000000e+00,3.434277604595928346e-01,0.000000000000000000e+00
2.000000000000000000e+00,2.342207984277648869e+00,0.000000000000000000e+00
3.000000000000000000e+00,-4.386048388723978037e-02,0.000000000000000000e+00
4.000000000000000000e+00,-3.803012533053475863e-01,0.000000000000000000e+00
5.000000000000000000e+00,-5.917411237522348655e-01,0.000000000000000000e+00
6.000000000000000000e+00,-8.917839809975026677e-01,0.000000000000000000e+00
7.000000000000000000e+00,-1.670640617280748641e+00,1.000000000000000000e+00
8.000000000000000000e+00,-5.344592633638295398e-02,0.000000000000000000e+00
9.000000000000000000e+00,-1.389487840196470092e+00,0.000000000000000000e+00
1.000000000000000000e+01,-4.587312134433924049e-01,0.000000000000000000e+00
1.100000000000000000e+01,-2.228225392151515216e-01,0.000000000000000000e+00
1.200000000000000000e+01,-5.661371409143652889e-01,0.000000000000000000e+00
1.300000000000000000e+01,-3.938877865192391692e-01,0.000000000000000000e+00
1.400000000000000000e+01,-1.355600055690566741e-01,0.000000000000000000e+00
1.500000000000000000e+01,-2.087041246613776102e-01,0.000000000000000000e+00
1.600000000000000000e+01,-2.655459338529453928e-01,0.000000000000000000e+00
1.700000000000000000e+01,1.221417527880654108e-01,0.000000000000000000e+00
1.800000000000000000e+01,3.645369400830142936e-01,0.000000000000000000e+00
1.900000000000000000e+01,-5.715387242482626862e-01,0.000000000000000000e+00
2.000000000000000000e+01,2.023928472487654395e-01,0.000000000000000000e+00
2.100000000000000000e+01,-9.696132469523759123e-02,0.000000000000000000e+00
2.200000000000000000e+01,8.559779989106415243e-01,0.000000000000000000e+00
2.300000000000000000e+01,-8.861504503528243593e-01,0.000000000000000000e+00
2.400000000000000000e+01,6.955546584092445750e-01,0.000000000000000000e+00
2.500000000000000000e+01,-2.099369113402110298e-01,0.000000000000000000e+00
2.600000000000000000e+01,-4.333054102049139766e-01,0.000000000000000000e+00
2.700000000000000000e+01,1.625491333654080606e+00,0.000000000000000000e+00
2.800000000000000000e+01,4.490014164600748814e-02,0.000000000000000000e+00
2.900000000000000000e+01,1.944327526158987907e-01,0.000000000000000000e+00
3.000000000000000000e+01,6.914992116019600399e-01,0.000000000000000000e+00
3.100000000000000000e+01,6.263872384099128388e-01,0.000000000000000000e+00
3.200000000000000000e+01,-2.222718200231067059e-02,0.000000000000000000e+00
3.300000000000000000e+01,7.249205112203869206e-01,0.000000000000000000e+00
3.400000000000000000e+01,2.349547821818735727e-01,0.000000000000000000e+00
3.500000000000000000e+01,-1.806459964339890423e-01,0.000000000000000000e+00
3.600000000000000000e+01,2.518782654320472769e-01,0.000000000000000000e+00
3.700000000000000000e+01,-6.001056394829242802e-01,0.000000000000000000e+00
3.800000000000000000e+01,4.857101079716104941e+00,0.000000000000000000e+00
3.900000000000000000e+01,2.691766482007778460e+00,1.000000000000000000e+00
4.000000000000000000e+01,-2.380171618883812346e-01,0.000000000000000000e+00
4.100000000000000000e+01,-9.560512354560323223e-01,0.000000000000000000e+00
4.200000000000000000e+01,-6.863730386274148332e-01,0.000000000000000000e+00
4.300000000000000000e+01,-1.896487638616565774e-01,0.000000000000000000e+00
4.400000000000000000e+01,-6.940069536938318073e-01,0.000000000000000000e+00
4.500000000000000000e+01,-1.096585251046174464e-01,0.000000000000000000e+00
4.600000000000000000e+01,-1.004677993301704930e+00,0.000000000000000000e+00
4.700000000000000000e+01,1.071628679346550705e-02,0.000000000000000000e+00
4.800000000000000000e+01,-2.570928536483275129e-01,0.000000000000000000e+00
4.900000000000000000e+01,4.213079223417933589e-02,0.000000000000000000e+00
5.000000000000000000e+01,-2.677066105140682439e-01,0.000000000000000000e+00
5.100000000000000000e+01,1.430557073020296333e+00,0.000000000000000000e+00
5.200000000000000000e+01,5.231792048315949684e-01,0.000000000000000000e+00
5.300000000000000000e+01,9.215591110653672535e-01,0.000000000000000000e+00
5.400000000000000000e+01,9.647760264561073829e-01,0.000000000000000000e+00
5.500000000000000000e+01,6.213053447094071258e-01,0.000000000000000000e+00
5.600000000000000000e+01,-1.048787498966153864e+00,0.000000000000000000e+00
5.700000000000000000e+01,-9.448468411635861930e-01,0.000000000000000000e+00
5.800000000000000000e+01,-1.044912485282804226e+00,0.000000000000000000e+00
5.900000000000000000e+01,-9.511460305941347171e-01,0.000000000000000000e+00
6.000000000000000000e+01,4.017399882911053544e-01,0.000000000000000000e+00
6.100000000000000000e+01,-8.393774711201849037e-01,0.000000000000000000e+00
6.200000000000000000e+01,-1.288133651357055820e+00,0.000000000000000000e+00
6.300000000000000000e+01,-2.480430336932735180e-01,0.000000000000000000e+00
6.400000000000000000e+01,-3.040075468944610226e-01,0.000000000000000000e+00
6.500000000000000000e+01,-6.337786548089402450e-01,0.000000000000000000e+00
6.600000000000000000e+01,-5.726571848789712149e-01,0.000000000000000000e+00
6.700000000000000000e+01,1.336849029187116011e-01,0.000000000000000000e+00
6.800000000000000000e+01,-2.150241992705362037e-01,0.000000000000000000e+00
6.900000000000000000e+01,-3.649716603826354544e-01,0.000000000000000000e+00
7.000000000000000000e+01,-1.138149038046847167e-01,0.000000000000000000e+00
7.100000000000000000e+01,-7.396211015804721178e-01,0.000000000000000000e+00
7.200000000000000000e+01,8.859856672014819468e-02,0.000000000000000000e+00
7.300000000000000000e+01,-8.625949652322099925e-03,0.000000000000000000e+00
7.400000000000000000e+01,6.834877717113234386e-02,0.000000000000000000e+00
7.500000000000000000e+01,2.472651456905682749e-02,0.000000000000000000e+00
7.600000000000000000e+01,8.577437268579574114e-02,0.000000000000000000e+00
7.700000000000000000e+01,1.507565305990539728e-01,0.000000000000000000e+00
7.800000000000000000e+01,-1.252628172891984970e-01,0.000000000000000000e+00
7.900000000000000000e+01,1.838979353705167963e-01,0.000000000000000000e+00
8.000000000000000000e+01,-1.841886313509990408e-02,0.000000000000000000e+00
8.100000000000000000e+01,3.130419289087575385e-01,0.000000000000000000e+00
8.200000000000000000e+01,2.759966514153642247e-01,0.000000000000000000e+00
8.300000000000000000e+01,1.207830146256771986e+00,0.000000000000000000e+00
8.400000000000000000e+01,7.229917687195640541e-01,0.000000000000000000e+00
8.500000000000000000e+01,8.037366575605537911e-01,0.000000000000000000e+00
8.600000000000000000e+01,-3.276217987874909809e-01,0.000000000000000000e+00
8.700000000000000000e+01,-2.433489631257847730e-01,0.000000000000000000e+00
8.800000000000000000e+01,-1.959463975542156955e-02,0.000000000000000000e+00
8.900000000000000000e+01,1.002050064133723772e-01,0.000000000000000000e+00
9.000000000000000000e+01,-6.481779475893556519e-02,0.000000000000000000e+00
9.100000000000000000e+01,3.311130124630373484e+00,0.000000000000000000e+00
9.200000000000000000e+01,3.592669497763290032e+00,0.000000000000000000e+00
9.300000000000000000e+01,-7.902240544205605399e-01,1.000000000000000000e+00
9.400000000000000000e+01,-1.568794330678403293e-01,0.000000000000000000e+00
9.500000000000000000e+01,-5.795324499122485040e-01,0.000000000000000000e+00
9.600000000000000000e+01,-1.569881595122200491e+00,0.000000000000000000e+00
9.700000000000000000e+01,4.558412295286355664e-02,0.000000000000000000e+00
9.800000000000000000e+01,-5.919451183756005985e-01,0.000000000000000000e+00
9.900000000000000000e+01,-4.160741062373099486e-01,0.000000000000000000e+00
1.000000000000000000e+02,-6.094651524808805676e-02,0.000000000000000000e+00
1.010000000000000000e+02,-2.116239236916402366e-01,0.000000000000000000e+00
1.020000000000000000e+02,2.078922490378468102e-02,0.000000000000000000e+00
1.030000000000000000e+02,-1.603660984072017015e-01,0.000000000000000000e+00
1.040000000000000000e+02,2.601349300182393409e-01,0.000000000000000000e+00
1.050000000000000000e+02,6.409854268011784262e-01,0.000000000000000000e+00
1.060000000000000000e+02,8.516635301042625450e-01,0.000000000000000000e+00
1.070000000000000000e+02,1.709333572020260483e+00,0.000000000000000000e+00
1.080000000000000000e+02,1.749560621304063479e-01,0.000000000000000000e+00
1.090000000000000000e+02,-2.139422209308691064e-02,0.000000000000000000e+00
1.100000000000000000e+02,-1.142039958821511547e+00,0.000000000000000000e+00
1.110000000000000000e+02,-9.802746327185593023e-01,0.000000000000000000e+00
1.120000000000000000e+02,-7.983069314542844408e-01,0.000000000000000000e+00
1.130000000000000000e+02,-1.263421400201010680e+00,0.000000000000000000e+00
1.140000000000000000e+02,-8.542320180674857211e-01,0.000000000000000000e+00
1.150000000000000000e+02,-6.100085841390687769e-01,0.000000000000000000e+00
1.160000000000000000e+02,-8.862438723451318001e-01,0.000000000000000000e+00
1.170000000000000000e+02,-1.024444504101146736e+00,0.000000000000000000e+00
1.180000000000000000e+02,-2.476924190154453920e-01,0.000000000000000000e+00
1.190000000000000000e+02,1.306303350929186868e-01,0.000000000000000000e+00
1.200000000000000000e+02,-6.049282276060565788e-01,0.000000000000000000e+00
1.210000000000000000e+02,-4.093095147976056336e-01,0.000000000000000000e+00
1.220000000000000000e+02,4.395787930444139402e-01,0.000000000000000000e+00
1.230000000000000000e+02,-8.012612651546348053e-01,0.000000000000000000e+00
1.240000000000000000e+02,-3.578305284902826844e-01,0.000000000000000000e+00
1.250000000000000000e+02,-2.667141012537209699e-01,0.000000000000000000e+00
1.260000000000000000e+02,-8.593721174667465768e-01,0.000000000000000000e+00
1.270000000000000000e+02,5.993977449322551720e-01,0.000000000000000000e+00
1.280000000000000000e+02,2.811652228731170711e-01,0.000000000000000000e+00
1.290000000000000000e+02,-1.620634748636351832e-02,0.000000000000000000e+00
1.300000000000000000e+02,-3.363457666488276487e-01,0.000000000000000000e+00
1.310000000000000000e+02,-3.236009454238872318e-02,0.000000000000000000e+00
1.320000000000000000e+02,2.179991406740429960e-01,0.000000000000000000e+00
1.330000000000000000e+02,-4.042839914129215950e-01,0.000000000000000000e+00
1.340000000000000000e+02,1.181370992133123632e-01,0.000000000000000000e+00
1.350000000000000000e+02,1.574645919742137523e-01,0.000000000000000000e+00
1.360000000000000000e+02,-9.686281445687948931e-04,0.000000000000000000e+00
1.370000000000000000e+02,2.064855158892226206e-01,0.000000000000000000e+00
1.380000000000000000e+02,-8.390689051300441459e-02,0.000000000000000000e+00
1.390000000000000000e+02,1.025902793480826469e+00,0.000000000000000000e+00
1.400000000000000000e+02,1.407174062548391946e-01,0.000000000000000000e+00
1.410000000000000000e+02,6.903666946471148647e-02,0.000000000000000000e+00
1.420000000000000000e+02,-7.812603524151372492e-01,0.000000000000000000e+00
1.430000000000000000e+02,-7.957232326909906284e-02,0.000000000000000000e+00
1.440000000000000000e+02,-7.069548901716695699e-01,0.000000000000000000e+00
1.450000000000000000e+02,1.761035616764877743e+00,0.000000000000000000e+00
1.460000000000000000e+02,3.864171323934327607e+00,0.000000000000000000e+00
1.470000000000000000e+02,-1.109137461197412966e+00,1.000000000000000000e+00
1.480000000000000000e+02,-9.691582438075715955e-02,0.000000000000000000e+00
1.490000000000000000e+02,-7.037115914217938473e-01,0.000000000000000000e+00
1.500000000000000000e+02,-9.356780200217093002e-01,0.000000000000000000e+00
1.510000000000000000e+02,-4.502384446978346944e-01,0.000000000000000000e+00
1.520000000000000000e+02,-1.467562954999199976e+00,0.000000000000000000e+00
1.530000000000000000e+02,2.933975432345967745e-03,0.000000000000000000e+00
1.540000000000000000e+02,-6.292597330524577481e-01,0.000000000000000000e+00
1.550000000000000000e+02,1.030115021615724685e-01,0.000000000000000000e+00
1.560000000000000000e+02,-1.923280564652254387e-01,0.000000000000000000e+00
1.570000000000000000e+02,-1.928979822260953048e-01,0.000000000000000000e+00
1.580000000000000000e+02,5.636478266523377995e-02,0.000000000000000000e+00
1.590000000000000000e+02,1.318846072303695882e+00,0.000000000000000000e+00
1.600000000000000000e+02,2.234464485841873849e-01,0.000000000000000000e+00
1.610000000000000000e+02,7.253457068258185592e-01,0.000000000000000000e+00
1.620000000000000000e+02,1.241779730702338380e+00,0.000000000000000000e+00
1.630000000000000000e+02,-3.905910847370505645e-01,0.000000000000000000e+00
1.640000000000000000e+02,-8.164995595023800956e-02,0.000000000000000000e+00
1.650000000000000000e+02,-1.829376913678540717e+00,0.000000000000000000e+00
1.660000000000000000e+02,-1.323884619156598663e-01,0.000000000000000000e+00
1.670000000000000000e+02,-1.398962498322804837e+00,0.000000000000000000e+00
1.680000000000000000e+02,-7.693946287013436747e-01,0.000000000000000000e+00
1.690000000000000000e+02,-1.165176400733667128e+00,0.000000000000000000e+00
1.700000000000000000e+02,-4.092625999161734196e-01,0.000000000000000000e+00
1.710000000000000000e+02,-3.474026358507683043e-01,0.000000000000000000e+00
1.720000000000000000e+02,6.770767931246478299e-02,0.000000000000000000e+00
1.730000000000000000e+02,-4.907667635636068781e-01,0.000000000000000000e+00
1.740000000000000000e+02,3.528113749772599506e-01,0.000000000000000000e+00
1.750000000000000000e+02,-3.517739376599320900e-01,0.000000000000000000e+00
1.760000000000000000e+02,-6.856658100959666102e-01,0.000000000000000000e+00
1.770000000000000000e+02,-1.704825570738233986e-01,0.000000000000000000e+00
1.780000000000000000e+02,3.613102877240478850e-01,0.000000000000000000e+00
1.790000000000000000e+02,-3.149533511634872163e-02,0.000000000000000000e+00
1.800000000000000000e+02,6.835295480657810341e-01,0.000000000000000000e+00
1.810000000000000000e+02,7.831816267958775779e-02,0.000000000000000000e+00
1.820000000000000000e+02,3.743664607287847806e-02,0.000000000000000000e+00
1.830000000000000000e+02,4.897926463307368250e-01,0.000000000000000000e+00
1.840000000000000000e+02,-1.394593196098622145e-01,0.000000000000000000e+00
1.850000000000000000e+02,-7.908492993173536767e-02,0.000000000000000000e+00
1.860000000000000000e+02,9.404990484500495018e-01,0.000000000000000000e+00
1.870000000000000000e+02,-8.436072503166336389e-02,0.000000000000000000e+00
1.880000000000000000e+02,2.009105206925289044e-01,0.000000000000000000e+00
1.890000000000000000e+02,4.761365688488923276e-01,0.000000000000000000e+00
1.900000000000000000e+02,4.549036891953575079e-01,0.000000000000000000e+00
1.910000000000000000e+02,5.008947670497236881e-01,0.000000000000000000e+00
1.920000000000000000e+02,4.161224616272335974e-01,0.000000000000000000e+00
1.930000000000000000e+02,1.115609077858382037e+00,0.000000000000000000e+00
1.940000000000000000e+02,2.945380414076139708e-01,0.000000000000000000e+00
1.950000000000000000e+02,2.531522392035571167e-01,0.000000000000000000e+00
1.960000000000000000e+02,-5.137589900685678862e-02,0.000000000000000000e+00
1.970000000000000000e+02,-3.455332300152763048e-01,0.000000000000000000e+00
1.980000000000000000e+02,-1.560574867977032321e-01,0.000000000000000000e+00
1.990000000000000000e+02,1.737867826638593294e-01,0.000000000000000000e+00
2.000000000000000000e+02,1.974010304856184561e+00,0.000000000000000000e+00
2.010000000000000000e+02,5.208126228153083126e+00,0.000000000000000000e+00
2.020000000000000000e+02,-9.314585248646134463e-01,1.000000000000000000e+00
2.030000000000000000e+02,-7.963546279089094015e-02,0.000000000000000000e+00
2.040000000000000000e+02,-8.792735845685387686e-01,0.000000000000000000e+00
2.050000000000000000e+02,-1.146244367728421754e+00,0.000000000000000000e+00
2.060000000000000000e+02,-5.513167865477550666e-01,0.000000000000000000e+00
2.070000000000000000e+02,-3.438070585858304939e-01,0.000000000000000000e+00
2.080000000000000000e+02,-3.758741804095724892e-01,0.000000000000000000e+00
2.090000000000000000e+02,-8.183517953752689200e-01,0.000000000000000000e+00
2.100000000000000000e+02,1.653793950084527231e-01,0.000000000000000000e+00
2.110000000000000000e+02,-1.176945064669796814e-01,0.000000000000000000e+00
2.120000000000000000e+02,1.566541610610455021e-02,0.000000000000000000e+00
2.130000000000000000e+02,4.674864935515292697e-01,0.000000000000000000e+00
2.140000000000000000e+02,1.087823987654314983e+00,0.000000000000000000e+00
2.150000000000000000e+02,1.188956978011997734e+00,0.000000000000000000e+00
2.160000000000000000e+02,3.235125844345402846e-01,0.000000000000000000e+00
2.170000000000000000e+02,9.651716780047933097e-01,0.000000000000000000e+00
2.180000000000000000e+02,3.124674817630721524e-01,0.000000000000000000e+00
2.190000000000000000e+02,-6.942189967206540135e-01,0.000000000000000000e+00
2.200000000000000000e+02,-1.082986793317486152e+00,0.000000000000000000e+00
2.210000000000000000e+02,-9.151677288341283356e-01,0.000000000000000000e+00
2.220000000000000000e+02,-7.163975872997856431e-01,0.000000000000000000e+00
2.230000000000000000e+02,-5.801158462927137327e-01,0.000000000000000000e+00
2.240000000000000000e+02,-5.259059681791516949e-01,0.000000000000000000e+00
2.250000000000000000e+02,-1.077133121487164225e+00,0.000000000000000000e+00
2.260000000000000000e+02,-9.853718089653364931e-01,0.000000000000000000e+00
2.270000000000000000e+02,1.517608560713897825e-01,0.000000000000000000e+00
2.280000000000000000e+02,2.397079563733701957e-02,0.000000000000000000e+00
2.290000000000000000e+02,2.327610337593835621e-01,0.000000000000000000e+00
2.300000000000000000e+02,-7.415653579474792423e-01,0.000000000000000000e+00
2.310000000000000000e+02,1.750344431831344638e-01,0.000000000000000000e+00
2.320000000000000000e+02,-4.323132009331252801e-02,0.000000000000000000e+00
2.330000000000000000e+02,-4.571383782778226657e-02,0.000000000000000000e+00
2.340000000000000000e+02,-7.838011644772507891e-01,0.000000000000000000e+00
2.350000000000000000e+02,1.014434142593463983e+00,0.000000000000000000e+00
2.360000000000000000e+02,-2.487930851929893994e-01,0.000000000000000000e+00
2.370000000000000000e+02,-4.234799425132338979e-01,0.000000000000000000e+00
2.380000000000000000e+02,2.421444074944003877e-01,0.000000000000000000e+00
2.390000000000000000e+02,9.500477650225302995e-01,0.000000000000000000e+00
2.400000000000000000e+02,-2.170620930651118441e-01,0.000000000000000000e+00
2.410000000000000000e+02,-2.983087686481398215e-01,0.000000000000000000e+00
2.420000000000000000e+02,6.465001919360980898e-01,0.000000000000000000e+00
2.430000000000000000e+02,3.379055716884710736e-01,0.000000000000000000e+00
2.440000000000000000e+02,4.997822002178357037e-01,0.000000000000000000e+00
2.450000000000000000e+02,-5.685781088304553421e-01,0.000000000000000000e+00
2.460000000000000000e+02,5.173970927202995451e-01,0.000000000000000000e+00
2.470000000000000000e+02,7.460065993097464432e-01,0.000000000000000000e+00
2.480000000000000000e+02,-1.938047329643993455e-01,0.000000000000000000e+00
2.490000000000000000e+02,-3.138342664766455292e-01,0.000000000000000000e+00
2.500000000000000000e+02,4.923569825669170674e-01,0.000000000000000000e+00
2.510000000000000000e+02,-2.727657498491758981e-01,0.000000000000000000e+00
2.520000000000000000e+02,-9.500223179221967129e-02,0.000000000000000000e+00
2.530000000000000000e+02,8.408446720054464363e-01,0.000000000000000000e+00
2.540000000000000000e+02,2.908603255153765499e+00,0.000000000000000000e+00
2.550000000000000000e+02,6.280678475031464814e-01,1.000000000000000000e+00
2.560000000000000000e+02,-6.522239063469286169e-01,0.000000000000000000e+00
2.570000000000000000e+02,-3.942253724926026992e-01,0.000000000000000000e+00
2.580000000000000000e+02,-5.552875308965702361e-01,0.000000000000000000e+00
2.590000000000000000e+02,-1.101686539260961217e-01,0.000000000000000000e+00
2.600000000000000000e+02,-1.313903308240491896e-01,0.000000000000000000e+00
2.610000000000000000e+02,-4.770482732225891920e-01,0.000000000000000000e+00
2.620000000000000000e+02,-8.053022516185369684e-01,0.000000000000000000e+00
2.630000000000000000e+02,-2.719750265857162619e-01,0.000000000000000000e+00
2.640000000000000000e+02,-6.468144505395313493e-01,0.000000000000000000e+00
2.650000000000000000e+02,4.716968239271562280e-01,0.000000000000000000e+00
2.660000000000000000e+02,5.408658076795644920e-01,0.000000000000000000e+00
2.670000000000000000e+02,2.974620511928185440e-01,0.000000000000000000e+00
2.680000000000000000e+02,1.841920269404601296e+00,0.000000000000000000e+00
2.690000000000000000e+02,4.985411956856260485e-01,0.000000000000000000e+00
2.700000000000000000e+02,9.685393337815508819e-01,0.000000000000000000e+00
2.710000000000000000e+02,-2.457027678336290710e-01,0.000000000000000000e+00
2.720000000000000000e+02,-2.233064292466863388e-01,0.000000000000000000e+00
2.730000000000000000e+02,-1.716551731539922132e+00,0.000000000000000000e+00
2.740000000000000000e+02,-9.220751192722711487e-01,0.000000000000000000e+00
2.750000000000000000e+02,-1.101333172454418863e+00,0.000000000000000000e+00
2.760000000000000000e+02,-8.188456390348480829e-01,0.000000000000000000e+00
2.770000000000000000e+02,-2.452656949798028840e-01,0.000000000000000000e+00
2.780000000000000000e+02,-3.965560763426166369e-01,0.000000000000000000e+00
2.790000000000000000e+02,-3.157028039818625675e-01,0.000000000000000000e+00
2.800000000000000000e+02,-8.345722690307254554e-01,0.000000000000000000e+00
2.810000000000000000e+02,-7.120484001367575200e-01,0.000000000000000000e+00
2.820000000000000000e+02,8.538042657715794181e-02,0.000000000000000000e+00
2.830000000000000000e+02,-3.921907525502055791e-01,0.000000000000000000e+00
2.840000000000000000e+02,1.421886116978044734e-01,0.000000000000000000e+00
2.850000000000000000e+02,2.211801329843526287e-01,0.000000000000000000e+00
2.860000000000000000e+02,-3.148555552789455980e-01,0.000000000000000000e+00
2.870000000000000000e+02,-2.100230493212161820e-01,0.000000000000000000e+00
2.880000000000000000e+02,7.614789101799343540e-02,0.000000000000000000e+00
2.890000000000000000e+02,-2.468487130271738161e-01,0.000000000000000000e+00
2.900000000000000000e+02,2.068333196380406080e-01,0.000000000000000000e+00
2.910000000000000000e+02,3.774773494379441985e-01,0.000000000000000000e+00
2.920000000000000000e+02,-4.163725134942688477e-01,0.000000000000000000e+00
2.930000000000000000e+02,1.259455758759229771e-01,0.000000000000000000e+00
2.940000000000000000e+02,-7.432196358113755084e-03,0.000000000000000000e+00
2.950000000000000000e+02,-1.056945914809692411e-01,0.000000000000000000e+00
2.960000000000000000e+02,3.999099277420167242e-01,0.000000000000000000e+00
2.970000000000000000e+02,1.466586666498388980e-01,0.000000000000000000e+00
2.980000000000000000e+02,6.540717225007691704e-01,0.000000000000000000e+00
2.990000000000000000e+02,3.957371553424707811e-01,0.000000000000000000e+00
3.000000000000000000e+02,-2.782661262958303627e-01,0.000000000000000000e+00
3.010000000000000000e+02,5.635435694803130058e-02,0.000000000000000000e+00
3.020000000000000000e+02,-3.311946620845701017e-01,0.000000000000000000e+00
3.030000000000000000e+02,2.465750463972374573e-01,0.000000000000000000e+00
3.040000000000000000e+02,3.677516782183382071e-01,0.000000000000000000e+00
3.050000000000000000e+02,2.222624479941023079e+00,0.000000000000000000e+00
3.060000000000000000e+02,3.463310350706109819e+00,0.000000000000000000e+00
3.070000000000000000e+02,-2.004006876188147990e-01,1.000000000000000000e+00
3.080000000000000000e+02,-1.209011279422153029e+00,0.000000000000000000e+00
3.090000000000000000e+02,-8.400189912451946350e-01,0.000000000000000000e+00
3.100000000000000000e+02,1.840260754059982740e-01,0.000000000000000000e+00
3.110000000000000000e+02,-1.422534272183309002e-02,0.000000000000000000e+00
3.120000000000000000e+02,-7.381301329597059757e-01,0.000000000000000000e+00
3.130000000000000000e+02,2.565136182468437664e-01,0.000000000000000000e+00
3.140000000000000000e+02,-1.765439161014613345e-01,0.000000000000000000e+00
3.150000000000000000e+02,-9.878096117115485464e-02,0.000000000000000000e+00
3.160000000000000000e+02,-2.683055009600334162e-01,0.000000000000000000e+00
3.170000000000000000e+02,9.038383256233770147e-02,0.000000000000000000e+00
3.180000000000000000e+02,6.206482652527889332e-02,0.000000000000000000e+00
3.190000000000000000e+02,8.289436625086153976e-01,0.000000000000000000e+00
3.200000000000000000e+02,1.777655032756240372e+00,0.000000000000000000e+00
3.210000000000000000e+02,1.305627325550190898e+00,0.000000000000000000e+00
3.220000000000000000e+02,6.393444658006210979e-01,0.000000000000000000e+00
3.230000000000000000e+02,-2.019911348636882764e-01,0.000000000000000000e+00
3.240000000000000000e+02,-1.177093328358451929e+00,0.000000000000000000e+00
3.250000000000000000e+02,-1.065295729339649888e+00,0.000000000000000000e+00
3.260000000000000000e+02,-1.036104857102674526e+00,0.000000000000000000e+00
3.270000000000000000e+02,-1.185799902266303940e+00,0.000000000000000000e+00
3.280000000000000000e+02,-8.114942822414900059e-01,0.000000000000000000e+00
3.290000000000000000e+02,-2.939013970271722731e-01,0.000000000000000000e+00
3.300000000000000000e+02,-4.064499698308816078e-01,0.000000000000000000e+00
3.310000000000000000e+02,4.564793509083011486e-02,0.000000000000000000e+00
3.320000000000000000e+02,-4.500105672520229305e-01,0.000000000000000000e+00
3.330000000000000000e+02,-7.810804173094553216e-01,0.000000000000000000e+00
3.340000000000000000e+02,-1.189365179512258119e-01,0.000000000000000000e+00
3.350000000000000000e+02,-2.128992417919482183e-01,0.000000000000000000e+00
3.360000000000000000e+02,-2.126843215414901123e-01,0.000000000000000000e+00
3.370000000000000000e+02,-5.073752039315958529e-01,0.000000000000000000e+00
3.380000000000000000e+02,-4.726301067007764312e-01,0.000000000000000000e+00
3.390000000000000000e+02,1.816286550311341230e-01,0.000000000000000000e+00
3.400000000000000000e+02,3.550853238664641309e-01,0.000000000000000000e+00
3.410000000000000000e+02,3.243118109674372196e-01,0.000000000000000000e+00
3.420000000000000000e+02,8.617846527574160587e-02,0.000000000000000000e+00
3.430000000000000000e+02,-6.194868983412147312e-01,0.000000000000000000e+00
3.440000000000000000e+02,2.311551481148607645e-01,0.000000000000000000e+00
3.450000000000000000e+02,-1.983122141024451501e-02,0.000000000000000000e+00
3.460000000000000000e+02,6.793436472192991848e-01,0.000000000000000000e+00
3.470000000000000000e+02,-5.446242592594093823e-01,0.000000000000000000e+00
3.480000000000000000e+02,7.590906157256352982e-01,0.000000000000000000e+00
3.490000000000000000e+02,-2.017652361719543819e-01,0.000000000000000000e+00
3.500000000000000000e+02,6.127745944534469524e-01,0.000000000000000000e+00
3.510000000000000000e+02,9.567345191291082296e-01,0.000000000000000000e+00
3.520000000000000000e+02,-5.390683271408825972e-01,0.000000000000000000e+00
3.530000000000000000e+02,1.412815570982472735e-01,0.000000000000000000e+00
3.540000000000000000e+02,3.205563669389324688e-02,0.000000000000000000e+00
3.550000000000000000e+02,-1.423065079536536270e-01,0.000000000000000000e+00
3.560000000000000000e+02,2.797326794880581891e-01,0.000000000000000000e+00
3.570000000000000000e+02,4.173890883227110216e+00,0.000000000000000000e+00
3.580000000000000000e+02,1.196605295893452103e+00,1.000000000000000000e+00
3.590000000000000000e+02,-1.057465674879993767e+00,0.000000000000000000e+00
3.600000000000000000e+02,-2.459097631710552012e-01,0.000000000000000000e+00
3.610000000000000000e+02,-9.958943252579209870e-01,0.000000000000000000e+00
3.620000000000000000e+02,-4.040218994385798013e-01,0.000000000000000000e+00
3.630000000000000000e+02,-9.356462762290588264e-01,0.000000000000000000e+00
3.640000000000000000e+02,2.572746281302474430e-02,0.000000000000000000e+00
3.650000000000000000e+02,-3.956809061843983288e-01,0.000000000000000000e+00
3.660000000000000000e+02,-4.434498990770649463e-01,0.000000000000000000e+00
3.670000000000000000e+02,-2.333096387848058173e-01,0.000000000000000000e+00
3.680000000000000000e+02,2.918850315539322504e-01,0.000000000000000000e+00
3.690000000000000000e+02,-2.544543083454829380e-01,0.000000000000000000e+00
3.700000000000000000e+02,5.764801584782013322e-01,0.000000000000000000e+00
3.710000000000000000e+02,3.723618548002072814e-01,0.000000000000000000e+00
3.720000000000000000e+02,1.033814714922806299e+00,0.000000000000000000e+00
3.730000000000000000e+02,3.602366787587063524e-01,0.000000000000000000e+00
3.740000000000000000e+02,5.468469042640193845e-01,0.000000000000000000e+00
3.750000000000000000e+02,-6.642248538975506489e-02,0.000000000000000000e+00
3.760000000000000000e+02,-7.147900352947009761e-01,0.000000000000000000e+00
3.770000000000000000e+02,-6.019088729860975207e-01,0.000000000000000000e+00
3.780000000000000000e+02,-1.862233480392081697e+00,0.000000000000000000e+00
3.790000000000000000e+02,-6.402386051344092222e-01,0.000000000000000000e+00
3.800000000000000000e+02,-2.779869436674925476e-01,0.000000000000000000e+00
3.810000000000000000e+02,-5.299423198201633767e-01,0.000000000000000000e+00
3.820000000000000000e+02,-2.828123718244350271e-01,0.000000000000000000e+00
3.830000000000000000e+02,-3.006932181904067858e-01,0.000000000000000000e+00
3.840000000000000000e+02,-9.755306685215850981e-01,0.000000000000000000e+00
3.850000000000000000e+02,-5.356508489248141824e-01,0.000000000000000000e+00
3.860000000000000000e+02,6.846522408526370951e-01,0.000000000000000000e+00
3.870000000000000000e+02,-5.743695623169264852e-01,0.000000000000000000e+00
3.880000000000000000e+02,-1.235487533620099332e-01,0.000000000000000000e+00
3.890000000000000000e+02,-4.275057058300603674e-01,0.000000000000000000e+00
3.900000000000000000e+02,3.710640145285217795e-01,0.000000000000000000e+00
3.910000000000000000e+02,-4.143885075494241899e-01,0.000000000000000000e+00
3.920000000000000000e+02,5.882012171464834349e-01,0.000000000000000000e+00
3.930000000000000000e+02,2.384061025535130496e-01,0.000000000000000000e+00
3.940000000000000000e+02,-4.183281185057234342e-01,0.000000000000000000e+00
3.950000000000000000e+02,-1.546183161996806665e-01,0.000000000000000000e+00
3.960000000000000000e+02,-3.666957746136584873e-01,0.000000000000000000e+00
3.970000000000000000e+02,8.241504415013822804e-01,0.000000000000000000e+00
3.980000000000000000e+02,1.397573094352453638e-01,0.000000000000000000e+00
3.990000000000000000e+02,4.837616981530277194e-01,0.000000000000000000e+00
4.000000000000000000e+02,5.314982697269915457e-01,0.000000000000000000e+00
4.010000000000000000e+02,1.264266704404265473e-01,0.000000000000000000e+00
4.020000000000000000e+02,4.062396545139863036e-01,0.000000000000000000e+00
4.030000000000000000e+02,7.686586593070067197e-01,0.000000000000000000e+00
4.040000000000000000e+02,-1.021532210656072248e+00,0.000000000000000000e+00
4.050000000000000000e+02,4.918513949097550464e-01,0.000000000000000000e+00
4.060000000000000000e+02,-2.055396600981153898e-01,0.000000000000000000e+00
4.070000000000000000e+02,5.047865372775203197e-01,0.000000000000000000e+00
4.080000000000000000e+02,-3.483047956904879172e-02,0.000000000000000000e+00
4.090000000000000000e+02,2.896276497506359071e+00,0.000000000000000000e+00
4.100000000000000000e+02,3.129415142366917202e+00,0.000000000000000000e+00
4.110000000000000000e+02,-4.313946309891756314e-01,1.000000000000000000e+00
4.120000000000000000e+02,-5.348294835500809752e-01,0.000000000000000000e+00
4.130000000000000000e+02,-5.990719571559265377e-01,0.000000000000000000e+00
4.140000000000000000e+02,-5.646510467540135636e-01,0.000000000000000000e+00
4.150000000000000000e+02,-4.501886862721943272e-01,0.000000000000000000e+00
4.160000000000000000e+02,-7.871233390937369956e-01,0.000000000000000000e+00
4.170000000000000000e+02,-8.075750098488769790e-01,0.000000000000000000e+00
4.180000000000000000e+02,5.924343887951072363e-01,0.000000000000000000e+00
4.190000000000000000e+02,-5.536385981296324532e-01,0.000000000000000000e+00
4.200000000000000000e+02,-1.332312744218385192e-01,0.000000000000000000e+00
4.210000000000000000e+02,4.026270090802501755e-01,0.000000000000000000e+00
4.220000000000000000e+02,3.476884705709810119e-01,0.000000000000000000e+00
4.230000000000000000e+02,5.042976164894494850e-01,0.000000000000000000e+00
4.240000000000000000e+02,9.516074348775841463e-01,0.000000000000000000e+00
4.250000000000000000e+02,7.857489563216498718e-01,0.000000000000000000e+00
4.260000000000000000e+02,8.566639706629517459e-01,0.000000000000000000e+00
4.270000000000000000e+02,-7.485899119118933909e-01,0.000000000000000000e+00
4.280000000000000000e+02,-4.482824661678677658e-01,0.000000000000000000e+00
4.290000000000000000e+02,2.746423713308721593e-01,0.000000000000000000e+00
4.300000000000000000e+02,-1.014117722563511848e+00,0.000000000000000000e+00
4.310000000000000000e+02,-6.362454938361887802e-01,0.000000000000000000e+00
4.320000000000000000e+02,-8.360017861587479282e-02,0.000000000000000000e+00
4.330000000000000000e+02,-1.279558265409246332e+00,0.000000000000000000e+00
4.340000000000000000e+02,-8.216393758523190538e-01,0.000000000000000000e+00
4.350000000000000000e+02,-7.245895509605121410e-01,0.000000000000000000e+00
4.360000000000000000e+02,-1.082421063931890748e+00,0.000000000000000000e+00
4.370000000000000000e+02,3.156675387190123749e-01,0.000000000000000000e+00
4.380000000000000000e+02,4.093097630511192131e-01,0.000000000000000000e+00
4.390000000000000000e+02,3.057982777097814631e-01,0.000000000000000000e+00
4.400000000000000000e+02,1.926611866778020488e-01,0.000000000000000000e+00
4.410000000000000000e+02,-1.081843803887091893e+00,0.000000000000000000e+00
4.420000000000000000e+02,1.291129219458843347e-01,0.000000000000000000e+00
4.430000000000000000e+02,-3.632655674887413921e-01,0.000000000000000000e+00
4.440000000000000000e+02,-6.124561878878677090e-01,0.000000000000000000e+00
4.450000000000000000e+02,4.888596929009166731e-02,0.000000000000000000e+00
4.460000000000000000e+02,8.968923745223581490e-01,0.000000000000000000e+00
4.470000000000000000e+02,-3.357581041182967074e-01,0.000000000000000000e+00
4.480000000000000000e+02,3.603521273361342536e-01,0.000000000000000000e+00
4.490000000000000000e+02,-8.957908328412569898e-02,0.000000000000000000e+00
4.500000000000000000e+02,4.435495785781169431e-01,0.000000000000000000e+00
4.510000000000000000e+02,-1.641047145883064440e-01,0.000000000000000000e+00
4.520000000000000000e+02,6.081030094149227766e-02,0.000000000000000000e+00
4.530000000000000000e+02,3.682195070411074522e-01,0.000000000000000000e+00
4.540000000000000000e+02,-3.199970882973426217e-02,0.000000000000000000e+00
4.550000000000000000e+02,1.092495309600852060e+00,0.000000000000000000e+00
4.560000000000000000e+02,6.126849122835764661e-01,0.000000000000000000e+00
4.570000000000000000e+02,-2.570452951951440190e-01,0.000000000000000000e+00
4.580000000000000000e+02,-1.630086465270052729e-02,0.000000000000000000e+00
4.590000000000000000e+02,-4.566548249221429878e-01,0.000000000000000000e+00
4.600000000000000000e+02,5.120599671692969146e-01,0.000000000000000000e+00
4.610000000000000000e+02,-1.236799162018210607e+00,0.000000000000000000e+00
4.620000000000000000e+02,1.802969060421167891e+00,0.000000000000000000e+00
4.630000000000000000e+02,3.917182125329782938e+00,0.000000000000000000e+00
4.640000000000000000e+02,1.106298008690301780e-02,1.000000000000000000e+00
4.650000000000000000e+02,-1.035728834563940826e+00,0.000000000000000000e+00
4.660000000000000000e+02,-1.076542549888784839e+00,0.000000000000000000e+00
4.670000000000000000e+02,-1.292338007720129078e-01,0.000000000000000000e+00
4.680000000000000000e+02,-4.410376550658314243e-01,0.000000000000000000e+00
4.690000000000000000e+02,-8.406066856781866381e-01,0.000000000000000000e+00
4.700000000000000000e+02,-5.910370969473368596e-01,0.000000000000000000e+00
4.710000000000000000e+02,-1.040622387103645741e+00,0.000000000000000000e+00
4.720000000000000000e+02,1.388566288091724193e-02,0.000000000000000000e+00
4.730000000000000000e+02,2.198323004837889894e-01,0.000000000000000000e+00
4.740000000000000000e+02,-1.956372455713999425e-01,0.000000000000000000e+00
4.750000000000000000e+02,3.073689988529098027e-01,0.000000000000000000e+00
4.760000000000000000e+02,1.185505526380953079e+00,0.000000000000000000e+00
4.770000000000000000e+02,4.151249569931645955e-01,0.000000000000000000e+00
4.780000000000000000e+02,1.055691765568546048e+00,0.000000000000000000e+00
4.790000000000000000e+02,1.154914989180032103e+00,0.000000000000000000e+00
4.800000000000000000e+02,-1.011825404881059542e+00,0.000000000000000000e+00
4.810000000000000000e+02,-5.782060023061044163e-01,0.000000000000000000e+00
4.820000000000000000e+02,4.583770384810813558e-01,0.000000000000000000e+00
4.830000000000000000e+02,-1.581535032667534146e+00,0.000000000000000000e+00
4.840000000000000000e+02,-4.053162607720299238e-01,0.000000000000000000e+00
4.850000000000000000e+02,-8.792420897619375175e-01,0.000000000000000000e+00
4.860000000000000000e+02,-8.196777263011880699e-01,0.000000000000000000e+00
4.870000000000000000e+02,-1.240167994003677832e+00,0.000000000000000000e+00
4.880000000000000000e+02,-1.674200502585302675e-01,0.000000000000000000e+00
4.890000000000000000e+02,-6.253122795856944638e-01,0.000000000000000000e+00
4.900000000000000000e+02,-1.896794538411345210e-01,0.000000000000000000e+00
4.910000000000000000e+02,5.291856226823893339e-01,0.000000000000000000e+00
4.920000000000000000e+02,-1.006397049880508598e+00,0.000000000000000000e+00
4.930000000000000000e+02,-1.557404734292574255e-01,0.000000000000000000e+00
4.940000000000000000e+02,2.368452381193812961e-01,0.000000000000000000e+00
4.950000000000000000e+02,-1.645804509147280048e-01,0.000000000000000000e+00
4.960000000000000000e+02,-3.142336746373607936e-01,0.000000000000000000e+00
4.970000000000000000e+02,2.612343421103676677e-01,0.000000000000000000e+00
4.980000000000000000e+02,-1.303312660617486629e-01,0.000000000000000000e+00
4.990000000000000000e+02,2.058648690532568770e-01,0.000000000000000000e+00
5.000000000000000000e+02,3.575569097550830300e-01,0.000000000000000000e+00
5.010000000000000000e+02,9.004992109108904408e-02,0.000000000000000000e+00
5.020000000000000000e+02,1.926977876334956263e-01,0.000000000000000000e+00
5.030000000000000000e+02,3.468446110660744486e-01,0.000000000000000000e+00
5.040000000000000000e+02,-8.099247435146507135e-01,0.000000000000000000e+00
5.050000000000000000e+02,7.883583736177682821e-01,0.000000000000000000e+00
5.060000000000000000e+02,2.452943248515289387e-01,0.000000000000000000e+00
5.070000000000000000e+02,3.268280609193674382e-03,0.000000000000000000e+00
5.080000000000000000e+02,1.059067548911122758e+00,0.000000000000000000e+00
5.090000000000000000e+02,5.366407981469444310e-01,0.000000000000000000e+00
5.100000000000000000e+02,9.460047673590030737e-01,0.000000000000000000e+00
5.110000000000000000e+02,-8.157842223044461383e-01,0.000000000000000000e+00
5.120000000000000000e+02,6.367232685176252849e-01,0.000000000000000000e+00
5.130000000000000000e+02,-1.778404540842060122e-01,0.000000000000000000e+00
5.140000000000000000e+02,-1.420724233059709185e+00,0.000000000000000000e+00
5.150000000000000000e+02,2.561021110976590798e+00,0.000000000000000000e+00
5.160000000000000000e+02,3.861281467845877557e+00,0.000000000000000000e+00
5.170000000000000000e+02,6.404119532639082069e-01,1.000000000000000000e+00
5.180000000000000000e+02,-1.053601706106693126e+00,0.000000000000000000e+00
5.190000000000000000e+02,-6.008015434117887077e-01,0.000000000000000000e+00
5.200000000000000000e+02,-4.456186723329049193e-01,0.000000000000000000e+00
5.210000000000000000e+02,-1.052043352058936954e+00,0.000000000000000000e+00
5.220000000000000000e+02,-4.152249408651771945e-01,0.000000000000000000e+00
5.230000000000000000e+02,-6.052364185652270301e-01,0.000000000000000000e+00
5.240000000000000000e+02,-5.757784300385168086e-01,0.000000000000000000e+00
5.250000000000000000e+02,2.668389661928587953e-01,0.000000000000000000e+00
5.260000000000000000e+02,-1.984931939257108535e-01,0.000000000000000000e+00
5.270000000000000000e+02,1.623423444571503726e-01,0.000000000000000000e+00
5.280000000000000000e+02,5.367411805188911922e-01,0.000000000000000000e+00
5.290000000000000000e+02,7.994718998760811379e-01,0.000000000000000000e+00
5.300000000000000000e+02,1.791521632389918295e-01,0.000000000000000000e+00
5.310000000000000000e+02,9.525920309326963986e-01,0.000000000000000000e+00
5.320000000000000000e+02,1.057767954238597374e+00,0.000000000000000000e+00
5.330000000000000000e+02,3.319084662337834501e-01,0.000000000000000000e+00
5.340000000000000000e+02,-5.260751037253577067e-01,0.000000000000000000e+00
5.350000000000000000e+02,-5.040978146178728414e-01,0.000000000000000000e+00
5.360000000000000000e+02,-1.556332863219628049e+00,0.000000000000000000e+00
5.370000000000000000e+02,-9.963497189489996242e-02,0.000000000000000000e+00
5.380000000000000000e+02,-1.328095368100025597e+00,0.000000000000000000e+00
5.390000000000000000e+02,-6.882003837096897225e-01,0.000000000000000000e+00
5.400000000000000000e+02,-1.184615104863338958e-01,0.000000000000000000e+00
5.410000000000000000e+02,-8.295501900635308123e-01,0.000000000000000000e+00
5.420000000000000000e+02,9.311067464104240410e-02,0.000000000000000000e+00
5.430000000000000000e+02,-1.194395336716002731e+00,0.000000000000000000e+00
5.440000000000000000e+02,2.543415925874933370e-01,0.000000000000000000e+00
5.450000000000000000e+02,-7.918071336619429690e-02,0.000000000000000000e+00
5.460000000000000000e+02,4.014637684922088834e-01,0.000000000000000000e+00
5.470000000000000000e+02,-1.268615788938036060e+00,0.000000000000000000e+00
5.480000000000000000e+02,2.358422841838118678e-01,0.000000000000000000e+00
5.490000000000000000e+02,3.996887440829290372e-01,0.000000000000000000e+00
5.500000000000000000e+02,-1.073125253036189553e-01,0.000000000000000000e+00
5.510000000000000000e+02,-3.685676267326604139e-01,0.000000000000000000e+00
5.520000000000000000e+02,-2.855524971274426248e-03,0.000000000000000000e+00
5.530000000000000000e+02,-1.489940004467263934e-01,0.000000000000000000e+00
5.540000000000000000e+02,3.939337155370332688e-01,0.000000000000000000e+00
5.550000000000000000e+02,-4.210065142052905607e-01,0.000000000000000000e+00
5.560000000000000000e+02,7.842114900014431900e-01,0.000000000000000000e+00
5.570000000000000000e+02,-4.097490703884523189e-01,0.000000000000000000e+00
5.580000000000000000e+02,4.550396965262548110e-01,0.000000000000000000e+00
5.590000000000000000e+02,3.120615443966650027e-01,0.000000000000000000e+00
5.600000000000000000e+02,1.124369501318984721e-01,0.000000000000000000e+00
5.610000000000000000e+02,1.017746542081904071e+00,0.000000000000000000e+00
5.620000000000000000e+02,1.306882527975699593e-01,0.000000000000000000e+00
5.630000000000000000e+02,-1.110679230113472971e-01,0.000000000000000000e+00
5.640000000000000000e+02,-7.148749399146165917e-01,0.000000000000000000e+00
5.650000000000000000e+02,-1.406170111336364215e-01,0.000000000000000000e+00
5.660000000000000000e+02,2.756012187590146587e-02,0.000000000000000000e+00
5.670000000000000000e+02,-5.925466384627308125e-01,0.000000000000000000e+00
5.680000000000000000e+02,3.358235859819900693e+00,0.000000000000000000e+00
5.690000000000000000e+02,3.619189736159885928e+00,0.000000000000000000e+00
5.700000000000000000e+02,-1.036947491290155288e+00,1.000000000000000000e+00
5.710000000000000000e+02,-4.637532423867426479e-01,0.000000000000000000e+00
5.720000000000000000e+02,-5.796388685602619217e-01,0.000000000000000000e+00
5.730000000000000000e+02,-1.054516791247722463e+00,0.000000000000000000e+00
5.740000000000000000e+02,-1.119114489376545452e+00,0.000000000000000000e+00
5.750000000000000000e+02,-1.368088664936210896e-01,0.000000000000000000e+00
5.760000000000000000e+02,-3.189100087987574716e-01,0.000000000000000000e+00
5.770000000000000000e+02,-5.653603612776049170e-01,0.000000000000000000e+00
5.780000000000000000e+02,7.375281456133103708e-02,0.000000000000000000e+00
5.790000000000000000e+02,4.035741850209201287e-01,0.000000000000000000e+00
5.800000000000000000e+02,-7.061709568485350363e-01,0.000000000000000000e+00
5.810000000000000000e+02,9.592276847539613627e-01,0.000000000000000000e+00
5.820000000000000000e+02,1.440485482371221648e+00,0.000000000000000000e+00
5.830000000000000000e+02,4.586967083646530385e-01,0.000000000000000000e+00
5.840000000000000000e+02,1.455654791385676994e+00,0.000000000000000000e+00
5.850000000000000000e+02,7.815990894951745371e-01,0.000000000000000000e+00
5.860000000000000000e+02,-9.135235569552071500e-01,0.000000000000000000e+00
5.870000000000000000e+02,-4.009884891632304327e-01,0.000000000000000000e+00
5.880000000000000000e+02,-3.884273348851327023e-01,0.000000000000000000e+00
5.890000000000000000e+02,-1.124504544096633252e+00,0.000000000000000000e+00
5.900000000000000000e+02,-8.310978661477319562e-01,0.000000000000000000e+00
5.910000000000000000e+02,-6.734805571847988226e-01,0.000000000000000000e+00
5.920000000000000000e+02,-9.156664392332046765e-01,0.000000000000000000e+00
5.930000000000000000e+02,-5.583665569429143716e-01,0.000000000000000000e+00
5.940000000000000000e+02,-5.035048825197370181e-01,0.000000000000000000e+00
5.950000000000000000e+02,-5.877565456607257710e-01,0.000000000000000000e+00
5.960000000000000000e+02,-2.869380054972949234e-01,0.000000000000000000e+00
5.970000000000000000e+02,-8.524960581537624482e-02,0.000000000000000000e+00
5.980000000000000000e+02,-7.916156843278798760e-01,0.000000000000000000e+00
5.990000000000000000e+02,3.141294706726810437e-01,0.000000000000000000e+00
6.000000000000000000e+02,3.588231864417705252e-01,0.000000000000000000e+00
6.010000000000000000e+02,-1.837335358452958367e-01,0.000000000000000000e+00
6.020000000000000000e+02,-2.743688617723237244e-01,0.000000000000000000e+00
6.030000000000000000e+02,1.482023990461616564e-02,0.000000000000000000e+00
6.040000000000000000e+02,-3.848533208002694606e-01,0.000000000000000000e+00
6.050000000000000000e+02,-4.981508014911808502e-01,0.000000000000000000e+00
6.060000000000000000e+02,5.540977623620498838e-01,0.000000000000000000e+00
6.070000000000000000e+02,1.023588642819368566e-01,0.000000000000000000e+00
6.080000000000000000e+02,-1.953498834958979635e-01,0.000000000000000000e+00
6.090000000000000000e+02,3.503825092656183693e-01,0.000000000000000000e+00
6.100000000000000000e+02,5.980657775415465505e-01,0.000000000000000000e+00
6.110000000000000000e+02,9.700629123238402318e-02,0.000000000000000000e+00
6.120000000000000000e+02,-1.255490153996301761e-01,0.000000000000000000e+00
6.130000000000000000e+02,9.400207634934573120e-01,0.000000000000000000e+00
6.140000000000000000e+02,1.356469271770644747e-01,0.000000000000000000e+00
6.150000000000000000e+02,-1.246604020300929178e-01,0.000000000000000000e+00
6.160000000000000000e+02,-5.892919227317591213e-01,0.000000000000000000e+00
6.170000000000000000e+02,-1.104188902484691398e-01,0.000000000000000000e+00
6.180000000000000000e+02,3.052954177980080064e-01,0.000000000000000000e+00
6.190000000000000000e+02,4.212399774404970709e-01,0.000000000000000000e+00
6.200000000000000000e+02,3.579047541671121824e+00,0.000000000000000000e+00
6.210000000000000000e+02,9.283520741751432048e-01,1.000000000000000000e+00
6.220000000000000000e+02,-1.192070430935075809e+00,0.000000000000000000e+00
6.230000000000000000e+02,-2.581070539888137838e-01,0.000000000000000000e+00
6.240000000000000000e+02,-4.997158202565427781e-02,0.000000000000000000e+00
6.250000000000000000e+02,-3.713594516075194307e-01,0.000000000000000000e+00
6.260000000000000000e+02,-8.859752475190765253e-01,0.000000000000000000e+00
6.270000000000000000e+02,-2.049382952075815834e-01,0.000000000000000000e+00
6.280000000000000000e+02,6.492934599174055021e-02,0.000000000000000000e+00
6.290000000000000000e+02,3.271223230682288041e-01,0.000000000000000000e+00
6.300000000000000000e+02,-2.132605014921416242e-01,0.000000000000000000e+00
6.310000000000000000e+02,2.658201875118473279e-01,0.000000000000000000e+00
6.320000000000000000e+02,4.479151562097692940e-01,0.000000000000000000e+00
6.330000000000000000e+02,8.701874075823956556e-01,0.000000000000000000e+00
6.340000000000000000e+02,7.516254019420112176e-01,0.000000000000000000e+00
6.350000000000000000e+02,1.182991190740115606e+00,0.000000000000000000e+00
6.360000000000000000e+02,4.660350385393516870e-01,0.000000000000000000e+00
6.370000000000000000e+02,2.963393249128781770e-01,0.000000000000000000e+00
6.380000000000000000e+02,-4.517624178859613870e-01,0.000000000000000000e+00
6.390000000000000000e+02,-1.144712747692781862e+00,0.000000000000000000e+00
6.400000000000000000e+02,-7.829688015254618882e-01,0.000000000000000000e+00
6.410000000000000000e+02,-5.753474903567709076e-01,0.000000000000000000e+00
6.420000000000000000e+02,1.391740554415682174e-01,0.000000000000000000e+00
6.430000000000000000e+02,-1.433091631300229096e+00,0.000000000000000000e+00
6.440000000000000000e+02,-6.554514072953641080e-01,0.000000000000000000e+00
6.450000000000000000e+02,-9.013852212952004894e-01,0.000000000000000000e+00
6.460000000000000000e+02,1.392261738600229226e-01,0.000000000000000000e+00
6.470000000000000000e+02,-5.442617323239251625e-01,0.000000000000000000e+00
6.480000000000000000e+02,-1.095133821752921205e-01,0.000000000000000000e+00
6.490000000000000000e+02,2.792481409224331634e-01,0.000000000000000000e+00
6.500000000000000000e+02,-2.185317014440498751e-01,0.000000000000000000e+00
6.510000000000000000e+02,-5.730143669137558460e-01,0.000000000000000000e+00
6.520000000000000000e+02,4.725022675703834940e-01,0.000000000000000000e+00
6.530000000000000000e+02,-5.719862939457144302e-01,0.000000000000000000e+00
6.540000000000000000e+02,8.660137887171850402e-01,0.000000000000000000e+00
6.550000000000000000e+02,-1.297818886006941508e+00,0.000000000000000000e+00
6.560000000000000000e+02,4.857540997621723755e-01,0.000000000000000000e+00
6.570000000000000000e+02,-1.811977618318056649e-01,0.000000000000000000e+00
6.580000000000000000e+02,4.660888265915900108e-01,0.000000000000000000e+00
6.590000000000000000e+02,-3.024298898631344046e-01,0.000000000000000000e+00
6.600000000000000000e+02,4.031096936418285814e-01,0.000000000000000000e+00
6.610000000000000000e+02,-4.697389840313846016e-02,0.000000000000000000e+00
6.620000000000000000e+02,2.585568952874768289e-01,0.000000000000000000e+00
6.630000000000000000e+02,2.030747877513117139e-01,0.000000000000000000e+00
6.640000000000000000e+02,7.470540065036661570e-01,0.000000000000000000e+00
6.650000000000000000e+02,4.721343049129504699e-02,0.000000000000000000e+00
6.660000000000000000e+02,-4.048361002808533726e-01,0.000000000000000000e+00
6.670000000000000000e+02,6.755474292855082052e-02,0.000000000000000000e+00
6.680000000000000000e+02,-4.560644882793926658e-01,0.000000000000000000e+00
6.690000000000000000e+02,1.144716589602022383e+00,0.000000000000000000e+00
6.700000000000000000e+02,2.897076009901471849e+00,0.000000000000000000e+00
6.710000000000000000e+02,1.520536772013822091e+00,1.000000000000000000e+00
6.720000000000000000e+02,-4.563754977529027590e-01,0.000000000000000000e+00
6.730000000000000000e+02,-6.855908017687040168e-01,0.000000000000000000e+00
6.740000000000000000e+02,-9.854802473594640455e-01,0.000000000000000000e+00
6.750000000000000000e+02,-2.578296332654690937e-01,0.000000000000000000e+00
6.760000000000000000e+02,7.401458546042233300e-02,0.000000000000000000e+00
6.770000000000000000e+02,-4.547518266296950995e-01,0.000000000000000000e+00
6.780000000000000000e+02,-4.775908395352045921e-01,0.000000000000000000e+00
6.790000000000000000e+02,-5.860717831105519832e-02,0.000000000000000000e+00
6.800000000000000000e+02,4.002915805513878600e-01,0.000000000000000000e+00
6.810000000000000000e+02,3.067249469124460060e-01,0.000000000000000000e+00
6.820000000000000000e+02,3.116831086139293938e-01,0.000000000000000000e+00
6.830000000000000000e+02,1.070776996666638725e+00,0.000000000000000000e+00
6.840000000000000000e+02,1.380321128022591992e+00,0.000000000000000000e+00
6.850000000000000000e+02,1.423164156519040047e+00,0.000000000000000000e+00
6.860000000000000000e+02,1.307083410770042697e-01,0.000000000000000000e+00
6.870000000000000000e+02,2.154048529866251227e-01,0.000000000000000000e+00
6.880000000000000000e+02,-9.597805231235594092e-02,0.000000000000000000e+00
6.890000000000000000e+02,-1.321223855052593210e+00,0.000000000000000000e+00
6.900000000000000000e+02,-8.546740016237945603e-02,0.000000000000000000e+00
6.910000000000000000e+02,-1.102390350648548178e+00,0.000000000000000000e+00
6.920000000000000000e+02,-1.343970369684426736e+00,0.000000000000000000e+00
6.930000000000000000e+02,-7.271223259118024806e-01,0.000000000000000000e+00
6.940000000000000000e+02,-3.990927921828845149e-01,0.000000000000000000e+00
6.950000000000000000e+02,3.963495887835170040e-01,0.000000000000000000e+00
6.960000000000000000e+02,-1.059489254787459256e+00,0.000000000000000000e+00
6.970000000000000000e+02,-8.805281418005427019e-02,0.000000000000000000e+00
6.980000000000000000e+02,5.328127013556792635e-01,0.000000000000000000e+00
6.990000000000000000e+02,-7.526610437578105106e-01,0.000000000000000000e+00
7.000000000000000000e+02,-6.685622317424382288e-01,0.000000000000000000e+00
7.010000000000000000e+02,1.283362985266197076e-01,0.000000000000000000e+00
7.020000000000000000e+02,-7.135929321701452999e-01,0.000000000000000000e+00
7.030000000000000000e+02,5.293341013988173832e-02,0.000000000000000000e+00
7.040000000000000000e+02,1.580441985536023553e-01,0.000000000000000000e+00
7.050000000000000000e+02,4.216611999765047802e-02,0.000000000000000000e+00
7.060000000000000000e+02,-5.703543310648959697e-01,0.000000000000000000e+00
7.070000000000000000e+02,-2.530604833517460794e-01,0.000000000000000000e+00
7.080000000000000000e+02,-4.499895016150239901e-01,0.000000000000000000e+00
7.090000000000000000e+02,1.547999519365532262e+00,0.000000000000000000e+00
7.100000000000000000e+02,8.955357361243511394e-03,0.000000000000000000e+00
7.110000000000000000e+02,-6.192215513813094097e-01,0.000000000000000000e+00
7.120000000000000000e+02,1.754886439033577494e-01,0.000000000000000000e+00
7.130000000000000000e+02,3.377532175460912778e-01,0.000000000000000000e+00
7.140000000000000000e+02,-4.183394173150790929e-02,0.000000000000000000e+00
7.150000000000000000e+02,4.485710584624805208e-01,0.000000000000000000e+00
7.160000000000000000e+02,-1.325268271792744840e-02,0.000000000000000000e+00
7.170000000000000000e+02,1.133871679313487035e-01,0.000000000000000000e+00
7.180000000000000000e+02,-5.568946238523221348e-01,0.000000000000000000e+00
7.190000000000000000e+02,2.822372427935593286e+00,0.000000000000000000e+00
7.200000000000000000e+02,3.127484318618190873e+00,0.000000000000000000e+00
7.210000000000000000e+02,-1.007374941325914097e+00,1.000000000000000000e+00
7.220000000000000000e+02,-5.091304996825157803e-01,0.000000000000000000e+00
7.230000000000000000e+02,-6.768480675201115071e-01,0.000000000000000000e+00
7.240000000000000000e+02,-2.177700128352043074e-01,0.000000000000000000e+00
7.250000000000000000e+02,-4.580225093127723301e-01,0.000000000000000000e+00
7.260000000000000000e+02,-7.300501086944582996e-01,0.000000000000000000e+00
7.270000000000000000e+02,-3.785017116016811123e-01,0.000000000000000000e+00
7.280000000000000000e+02,-4.180596949219341774e-01,0.000000000000000000e+00
7.290000000000000000e+02,-5.646599501891133022e-01,0.000000000000000000e+00
7.300000000000000000e+02,5.513027595735487951e-01,0.000000000000000000e+00
7.310000000000000000e+02,-2.505199413469879829e-02,0.000000000000000000e+00
7.320000000000000000e+02,3.470391446119827639e-01,0.000000000000000000e+00
7.330000000000000000e+02,-2.685922205868030571e-02,0.000000000000000000e+00
7.340000000000000000e+02,9.884398027401175568e-01,0.000000000000000000e+00
7.350000000000000000e+02,8.207549490472463294e-01,0.000000000000000000e+00
7.360000000000000000e+02,6.227982970997608669e-01,0.000000000000000000e+00
7.370000000000000000e+02,-1.455891310063328614e+00,0.000000000000000000e+00
7.380000000000000000e+02,-2.327603657574477403e-01,0.000000000000000000e+00
7.390000000000000000e+02,-4.280989849157336713e-01,0.000000000000000000e+00
7.400000000000000000e+02,-7.927719802111871106e-01,0.000000000000000000e+00
7.410000000000000000e+02,-6.898221136317808089e-01,0.000000000000000000e+00
7.420000000000000000e+02,1.276664803219721145e-01,0.000000000000000000e+00
7.430000000000000000e+02,-9.449657138991023331e-01,0.000000000000000000e+00
7.440000000000000000e+02,-7.110912290107972433e-01,0.000000000000000000e+00
7.450000000000000000e+02,-8.525157389285230591e-01,0.000000000000000000e+00
7.460000000000000000e+02,-5.292574374176982621e-01,0.000000000000000000e+00
7.470000000000000000e+02,-9.136503199681158538e-01,0.000000000000000000e+00
7.480000000000000000e+02,1.438522073870006635e+00,0.000000000000000000e+00
7.490000000000000000e+02,-3.644593181532906900e-01,0.000000000000000000e+00
7.500000000000000000e+02,6.795251391993190060e-01,0.000000000000000000e+00
7.510000000000000000e+02,1.041032864623410437e-01,0.000000000000000000e+00
7.520000000000000000e+02,-4.206403507814159282e-01,0.000000000000000000e+00
7.530000000000000000e+02,1.218983264565036556e-01,0.000000000000000000e+00
7.540000000000000000e+02,-2.590087598715438699e-01,0.000000000000000000e+00
7.550000000000000000e+02,6.349015358711160295e-02,0.000000000000000000e+00
7.560000000000000000e+02,-7.038818956021387629e-01,0.000000000000000000e+00
7.570000000000000000e+02,4.372812105080679523e-01,0.000000000000000000e+00
7.580000000000000000e+02,1.469805687464993849e+00,0.000000000000000000e+00
7.590000000000000000e+02,4.675516057780073065e-01,0.000000000000000000e+00
7.600000000000000000e+02,-1.563288545203854740e-01,0.000000000000000000e+00
7.610000000000000000e+02,-4.567052501837782219e-01,0.000000000000000000e+00
7.620000000000000000e+02,7.029162708836355078e-01,0.000000000000000000e+00
7.630000000000000000e+02,1.011493495420791700e+00,0.000000000000000000e+00
7.640000000000000000e+02,-1.154964011927135603e+00,0.000000000000000000e+00
7.650000000000000000e+02,2.273969871686768729e-01,0.000000000000000000e+00
7.660000000000000000e+02,4.268338388606224831e-01,0.000000000000000000e+00
7.670000000000000000e+02,-4.459887341390122995e-01,0.000000000000000000e+00
7.680000000000000000e+02,1.136083490397757530e-02,0.000000000000000000e+00
7.690000000000000000e+02,1.619637828052802098e+00,0.000000000000000000e+00
7.700000000000000000e+02,3.646906086447252449e+00,0.000000000000000000e+00
7.710000000000000000e+02,1.255116559628327799e+00,1.000000000000000000e+00
7.720000000000000000e+02,-6.039974529554109628e-01,0.000000000000000000e+00
7.730000000000000000e+02,-8.142378507983865088e-01,0.000000000000000000e+00
7.740000000000000000e+02,-1.111261533427272186e+00,0.000000000000000000e+00
7.750000000000000000e+02,-4.073557748933941403e-01,0.000000000000000000e+00
7.760000000000000000e+02,-2.166498374720712550e-01,0.000000000000000000e+00
7.770000000000000000e+02,1.694830900307530419e-01,0.000000000000000000e+00
7.780000000000000000e+02,-2.070629316276168808e-01,0.000000000000000000e+00
7.790000000000000000e+02,2.387889191291562019e-01,0.000000000000000000e+00
7.800000000000000000e+02,-1.577507892478719753e-01,0.000000000000000000e+00
7.810000000000000000e+02,-1.942225643374349275e-01,0.000000000000000000e+00
7.820000000000000000e+02,3.103274480727994389e-01,0.000000000000000000e+00
7.830000000000000000e+02,2.982659655352503103e-01,0.000000000000000000e+00
7.840000000000000000e+02,9.731773556270900682e-01,0.000000000000000000e+00
7.850000000000000000e+02,5.021687408251009899e-01,0.000000000000000000e+00
7.860000000000000000e+02,1.091518175562379955e+00,0.000000000000000000e+00
7.870000000000000000e+02,5.397569853778784177e-01,0.000000000000000000e+00
7.880000000000000000e+02,-2.049283103259450789e-01,0.000000000000000000e+00
7.890000000000000000e+02,-8.619378403895392449e-01,0.000000000000000000e+00
7.900000000000000000e+02,-8.122089748776988305e-01,0.000000000000000000e+00
7.910000000000000000e+02,-9.514545511175497294e-01,0.000000000000000000e+00
7.920000000000000000e+02,-1.363096257404462497e+00,0.000000000000000000e+00
7.930000000000000000e+02,-1.216905023766702509e+00,0.000000000000000000e+00
7.940000000000000000e+02,-9.512326491916145432e-01,0.000000000000000000e+00
7.950000000000000000e+02,-5.320638197156286608e-01,0.000000000000000000e+00
7.960000000000000000e+02,3.097512048072478263e-01,0.000000000000000000e+00
7.970000000000000000e+02,-3.164945580430663097e-01,0.000000000000000000e+00
7.980000000000000000e+02,-1.590726095163524256e+00,0.000000000000000000e+00
7.990000000000000000e+02,3.827567770211044440e-01,0.000000000000000000e+00
8.000000000000000000e+02,-2.345754717375178044e-01,0.000000000000000000e+00
8.010000000000000000e+02,-5.384829223467969550e-01,0.000000000000000000e+00
8.020000000000000000e+02,-2.485161084276654997e-01,0.000000000000000000e+00
8.030000000000000000e+02,-5.907810641761844783e-01,0.000000000000000000e+00
8.040000000000000000e+02,3.219703550913165513e-01,0.000000000000000000e+00
8.050000000000000000e+02,3.214201620107474122e-01,0.000000000000000000e+00
8.060000000000000000e+02,-4.736195777881195834e-01,0.000000000000000000e+00
8.070000000000000000e+02,1.037328851025252074e-01,0.000000000000000000e+00
8.080000000000000000e+02,-1.638001685650472550e-01,0.000000000000000000e+00
8.090000000000000000e+02,2.485913318634706548e-01,0.000000000000000000e+00
8.100000000000000000e+02,-4.162325514883550848e-01,0.000000000000000000e+00
8.110000000000000000e+02,2.001437723172731220e-01,0.000000000000000000e+00
8.120000000000000000e+02,-4.499302076015879170e-02,0.000000000000000000e+00
8.130000000000000000e+02,2.246251262256836190e-01,0.000000000000000000e+00
8.140000000000000000e+02,8.565996261148512980e-01,0.000000000000000000e+00
8.150000000000000000e+02,7.556575868380158711e-01,0.000000000000000000e+00
8.160000000000000000e+02,-1.104384425859878505e+00,0.000000000000000000e+00
8.170000000000000000e+02,-2.598671302133775951e-02,0.000000000000000000e+00
8.180000000000000000e+02,1.594242545505392961e-01,0.000000000000000000e+00
8.190000000000000000e+02,-3.054755447558772929e-01,0.000000000000000000e+00
8.200000000000000000e+02,1.085206491573596221e-01,0.000000000000000000e+00
8.210000000000000000e+02,3.870595584374530329e+00,0.000000000000000000e+00
8.220000000000000000e+02,1.429408255651464232e+00,1.000000000000000000e+00
8.230000000000000000e+02,-1.456358256000279905e+00,0.000000000000000000e+00
8.240000000000000000e+02,2.274110694349419926e-01,0.000000000000000000e+00
8.250000000000000000e+02,-8.858517081586938513e-01,0.000000000000000000e+00
8.260000000000000000e+02,-1.943971398931184646e-01,0.000000000000000000e+00
8.270000000000000000e+02,-2.791586522966109096e-01,0.000000000000000000e+00
8.280000000000000000e+02,-2.137226409191031185e-01,0.000000000000000000e+00
8.290000000000000000e+02,-9.709894456288858944e-01,0.000000000000000000e+00
8.300000000000000000e+02,7.728584592981109502e-02,0.000000000000000000e+00
8.310000000000000000e+02,-2.872710289990705879e-01,0.000000000000000000e+00
8.320000000000000000e+02,2.347437468066656263e-01,0.000000000000000000e+00
8.330000000000000000e+02,6.639137371353547312e-01,0.000000000000000000e+00
8.340000000000000000e+02,4.712779590979123689e-01,0.000000000000000000e+00
8.350000000000000000e+02,1.115349709686171975e+00,0.000000000000000000e+00
8.360000000000000000e+02,1.235525524479708537e+00,0.000000000000000000e+00
8.370000000000000000e+02,8.555645242465726996e-01,0.000000000000000000e+00
8.380000000000000000e+02,6.413792119518185730e-02,0.000000000000000000e+00
8.390000000000000000e+02,-3.984122117382111750e-01,0.000000000000000000e+00
8.400000000000000000e+02,-8.251582582096539387e-01,0.000000000000000000e+00
8.410000000000000000e+02,-5.893788621706360642e-01,0.000000000000000000e+00
8.420000000000000000e+02,-4.679558093116086837e-01,0.000000000000000000e+00
8.430000000000000000e+02,-1.279148393682315810e+00,0.000000000000000000e+00
8.440000000000000000e+02,1.314225093920594854e-02,0.000000000000000000e+00
8.450000000000000000e+02,-1.272890192132857257e+00,0.000000000000000000e+00
8.460000000000000000e+02,2.209814015539310339e-01,0.000000000000000000e+00
8.470000000000000000e+02,-7.678105814326710021e-01,0.000000000000000000e+00
8.480000000000000000e+02,-2.887486794198080853e-01,0.000000000000000000e+00
8.490000000000000000e+02,-5.183055229536889241e-01,0.000000000000000000e+00
8.500000000000000000e+02,3.847092700184349678e-01,0.000000000000000000e+00
8.510000000000000000e+02,-3.672044229262937387e-01,0.000000000000000000e+00
8.520000000000000000e+02,-2.255797048646505237e-02,0.000000000000000000e+00
8.530000000000000000e+02,2.123393893508629671e-01,0.000000000000000000e+00
8.540000000000000000e+02,1.682497725587742410e-01,0.000000000000000000e+00
8.550000000000000000e+02,-1.831101238435471346e-01,0.000000000000000000e+00
8.560000000000000000e+02,3.831849529554475220e-01,0.000000000000000000e+00
8.570000000000000000e+02,3.858945763101528925e-02,0.000000000000000000e+00
8.580000000000000000e+02,6.080971957845900944e-01,0.000000000000000000e+00
8.590000000000000000e+02,-3.970111190595047024e-01,0.000000000000000000e+00
8.600000000000000000e+02,1.556809644491286282e-01,0.000000000000000000e+00
8.610000000000000000e+02,7.953082870916972080e-01,0.000000000000000000e+00
8.620000000000000000e+02,-4.071785180739741494e-01,0.000000000000000000e+00
8.630000000000000000e+02,5.662043935889312651e-01,0.000000000000000000e+00
8.640000000000000000e+02,3.715302128386924196e-01,0.000000000000000000e+00
8.650000000000000000e+02,2.201551720429908987e-01,0.000000000000000000e+00
8.660000000000000000e+02,8.397376663586917367e-01,0.000000000000000000e+00
8.670000000000000000e+02,4.487313226972406560e-02,0.000000000000000000e+00
8.680000000000000000e+02,-6.887906738779878690e-01,0.000000000000000000e+00
8.690000000000000000e+02,2.844155729793501064e-01,0.000000000000000000e+00
8.700000000000000000e+02,-2.984069518454145475e-01,0.000000000000000000e+00
8.710000000000000000e+02,3.061973987761592020e-01,0.000000000000000000e+00
8.720000000000000000e+02,-3.455488255020601196e-01,0.000000000000000000e+00
8.730000000000000000e+02,2.102938138660340961e+00,0.000000000000000000e+00
8.740000000000000000e+02,3.118578127180143156e+00,0.000000000000000000e+00
8.750000000000000000e+02,-7.218954545081354146e-01,1.000000000000000000e+00
8.760000000000000000e+02,-2.304937219008307836e-01,0.000000000000000000e+00
8.770000000000000000e+02,-1.159543977582957019e+00,0.000000000000000000e+00
8.780000000000000000e+02,-4.631573465413639235e-01,0.000000000000000000e+00
8.790000000000000000e+02,-6.362005580146738726e-02,0.000000000000000000e+00
8.800000000000000000e+02,-4.041594321320840510e-01,0.000000000000000000e+00
8.810000000000000000e+02,-3.030500079720625517e-01,0.000000000000000000e+00
8.820000000000000000e+02,-1.458748311530625730e-01,0.000000000000000000e+00
8.830000000000000000e+02,-6.801922438475389576e-01,0.000000000000000000e+00
8.840000000000000000e+02,1.805551952438201324e-01,0.000000000000000000e+00
8.850000000000000000e+02,-4.480319846626693581e-01,0.000000000000000000e+00
8.860000000000000000e+02,2.052077273982000349e-01,0.000000000000000000e+00
8.870000000000000000e+02,1.574064399564452543e+00,0.000000000000000000e+00
8.880000000000000000e+02,9.066291098751899646e-01,0.000000000000000000e+00
8.890000000000000000e+02,1.268476676388017088e+00,0.000000000000000000e+00
8.900000000000000000e+02,6.230789174918625051e-01,0.000000000000000000e+00
8.910000000000000000e+02,1.129489867076291648e-01,0.000000000000000000e+00
8.920000000000000000e+02,-7.962270233111965467e-01,0.000000000000000000e+00
8.930000000000000000e+02,-1.194917334508937889e+00,0.000000000000000000e+00
8.940000000000000000e+02,-1.222808613398784328e+00,0.000000000000000000e+00
8.950000000000000000e+02,-6.234882534148018102e-02,0.000000000000000000e+00
8.960000000000000000e+02,-8.732415563898248134e-01,0.000000000000000000e+00
8.970000000000000000e+02,-6.745001174874565297e-01,0.000000000000000000e+00
8.980000000000000000e+02,-3.349844115725742477e-01,0.000000000000000000e+00
8.990000000000000000e+02,-1.593313582887308788e-01,0.000000000000000000e+00
9.000000000000000000e+02,-2.774176749993177427e-01,0.000000000000000000e+00
9.010000000000000000e+02,-5.891383257413789210e-01,0.000000000000000000e+00
9.020000000000000000e+02,-5.139894279785778286e-01,0.000000000000000000e+00
9.030000000000000000e+02,-5.338263310489937269e-02,0.000000000000000000e+00
9.040000000000000000e+02,-5.412782591596602966e-02,0.000000000000000000e+00
9.050000000000000000e+02,-4.101097568174995600e-01,0.000000000000000000e+00
9.060000000000000000e+02,4.624297616777822140e-01,0.000000000000000000e+00
9.070000000000000000e+02,3.168704790943154687e-02,0.000000000000000000e+00
9.080000000000000000e+02,5.986708209585943630e-01,0.000000000000000000e+00
9.090000000000000000e+02,-9.388324490406426692e-01,0.000000000000000000e+00
9.100000000000000000e+02,1.566699070096994051e-01,0.000000000000000000e+00
9.110000000000000000e+02,4.292338867790707613e-01,0.000000000000000000e+00
9.120000000000000000e+02,-5.408259934330257312e-01,0.000000000000000000e+00
9.130000000000000000e+02,-1.884754045694923830e-01,0.000000000000000000e+00
9.140000000000000000e+02,-1.178338233294987381e-01,0.000000000000000000e+00
9.150000000000000000e+02,1.700966948675771473e+00,0.000000000000000000e+00
9.160000000000000000e+02,-8.880130146159472826e-01,0.000000000000000000e+00
9.170000000000000000e+02,1.325782221585893039e-01,0.000000000000000000e+00
9.180000000000000000e+02,3.580593363132336671e-01,0.000000000000000000e+00
9.190000000000000000e+02,9.298610339995091456e-01,0.000000000000000000e+00
9.200000000000000000e+02,-3.479868786257743207e-01,0.000000000000000000e+00
9.210000000000000000e+02,-6.626265544319209777e-02,0.000000000000000000e+00
9.220000000000000000e+02,2.616745940924263825e-01,0.000000000000000000e+00
9.230000000000000000e+02,-1.245131213912634288e-01,0.000000000000000000e+00
9.240000000000000000e+02,-2.394872364601882686e-01,0.000000000000000000e+00
9.250000000000000000e+02,1.898329578966688816e-02,0.000000000000000000e+00
9.260000000000000000e+02,3.257482830469966117e+00,0.000000000000000000e+00
9.270000000000000000e+02,2.700245428746125942e+00,0.000000000000000000e+00
9.280000000000000000e+02,-2.735164613112641696e-01,1.000000000000000000e+00
9.290000000000000000e+02,-1.073371929024366400e+00,0.000000000000000000e+00
9.300000000000000000e+02,-6.611219157437502325e-01,0.000000000000000000e+00
9.310000000000000000e+02,-7.528885619599586798e-01,0.000000000000000000e+00
9.320000000000000000e+02,-4.822609962440688736e-01,0.000000000000000000e+00
9.330000000000000000e+02,-1.018444124844842369e+00,0.000000000000000000e+00
9.340000000000000000e+02,2.080390288450702507e-01,0.000000000000000000e+00
9.350000000000000000e+02,3.945809837924230123e-02,0.000000000000000000e+00
9.360000000000000000e+02,4.234683808924865622e-01,0.000000000000000000e+00
9.370000000000000000e+02,-7.350578281833696215e-01,0.000000000000000000e+00
9.380000000000000000e+02,-6.420843401604699012e-03,0.000000000000000000e+00
9.390000000000000000e+02,1.585402254330537941e-01,0.000000000000000000e+00
9.400000000000000000e+02,1.417154979358225431e+00,0.000000000000000000e+00
9.410000000000000000e+02,8.930378702578271044e-01,0.000000000000000000e+00
9.420000000000000000e+02,1.579339158921312380e+00,0.000000000000000000e+00
9.430000000000000000e+02,4.045740886962756466e-01,0.000000000000000000e+00
9.440000000000000000e+02,3.460890715797997896e-01,0.000000000000000000e+00
9.450000000000000000e+02,-1.177442468969940537e+00,0.000000000000000000e+00
9.460000000000000000e+02,-6.608155057381455144e-01,0.000000000000000000e+00
9.470000000000000000e+02,-4.894103749234542944e-01,0.000000000000000000e+00
9.480000000000000000e+02,-1.453147308139041360e+00,0.000000000000000000e+00
9.490000000000000000e+02,-1.096331174827759325e+00,0.000000000000000000e+00
9.500000000000000000e+02,-5.920467850351286421e-01,0.000000000000000000e+00
9.510000000000000000e+02,-4.573569860389650188e-01,0.000000000000000000e+00
9.520000000000000000e+02,-1.030314787843328132e-02,0.000000000000000000e+00
9.530000000000000000e+02,-4.678731658179189901e-01,0.000000000000000000e+00
9.540000000000000000e+02,-2.508496084204342447e-01,0.000000000000000000e+00
9.550000000000000000e+02,-4.654359234060072015e-01,0.000000000000000000e+00
9.560000000000000000e+02,-1.646537941502112246e-01,0.000000000000000000e+00
9.570000000000000000e+02,-1.795991906718916731e-01,0.000000000000000000e+00
9.580000000000000000e+02,2.030009898232457144e-01,0.000000000000000000e+00
9.590000000000000000e+02,1.536260950360696376e-01,0.000000000000000000e+00
9.600000000000000000e+02,-6.671031197187730077e-01,0.000000000000000000e+00
9.610000000000000000e+02,-1.812492930168341787e-01,0.000000000000000000e+00
9.620000000000000000e+02,2.817376066848301976e-03,0.000000000000000000e+00
9.630000000000000000e+02,1.954202646532806065e-01,0.000000000000000000e+00
9.640000000000000000e+02,5.078731924297903016e-02,0.000000000000000000e+00
9.650000000000000000e+02,9.658176534581978945e-02,0.000000000000000000e+00
9.660000000000000000e+02,-1.142696436287693185e-01,0.000000000000000000e+00
9.670000000000000000e+02,1.612137674311269753e-01,0.000000000000000000e+00
9.680000000000000000e+02,5.423034683590993721e-01,0.000000000000000000e+00
9.690000000000000000e+02,-4.272327995034164161e-01,0.000000000000000000e+00
9.700000000000000000e+02,1.975397151641504201e-01,0.000000000000000000e+00
9.710000000000000000e+02,5.180723453232115583e-01,0.000000000000000000e+00
9.720000000000000000e+02,8.866774880026118133e-01,0.000000000000000000e+00
9.730000000000000000e+02,7.756468688350831586e-01,0.000000000000000000e+00
9.740000000000000000e+02,-9.890805931857991062e-01,0.000000000000000000e+00
9.750000000000000000e+02,6.870522914990517815e-03,0.000000000000000000e+00
9.760000000000000000e+02,-1.967947546895617572e-01,0.000000000000000000e+00
9.770000000000000000e+02,4.588732180940335303e-01,0.000000000000000000e+00
9.780000000000000000e+02,-3.212715051107786213e-01,0.000000000000000000e+00
9.790000000000000000e+02,3.821832642138077496e+00,0.000000000000000000e+00
9.800000000000000000e+02,2.702186349545089961e+00,0.000000000000000000e+00
9.810000000000000000e+02,-1.400438325640532389e+00,1.000000000000000000e+00
9.820000000000000000e+02,-6.906283015422969296e-01,0.000000000000000000e+00
9.830000000000000000e+02,-1.022407003066161169e+00,0.000000000000000000e+00
9.840000000000000000e+02,-5.994995014160229285e-01,0.000000000000000000e+00
9.850000000000000000e+02,-3.158310395965702178e-01,0.000000000000000000e+00
9.860000000000000000e+02,-7.166050977895470631e-01,0.000000000000000000e+00
9.870000000000000000e+02,-1.105572190591943282e-01,0.000000000000000000e+00
9.880000000000000000e+02,-8.168435629893727734e-01,0.000000000000000000e+00
9.890000000000000000e+02,4.731156079206164655e-01,0.000000000000000000e+00
9.900000000000000000e+02,-5.058293604320299730e-01,0.000000000000000000e+00
9.910000000000000000e+02,-2.825629815383667309e-01,0.000000000000000000e+00
9.920000000000000000e+02,4.822618128818060845e-01,0.000000000000000000e+00
9.930000000000000000e+02,1.547713721070912152e-01,0.000000000000000000e+00
9.940000000000000000e+02,1.300753230805346217e+00,0.000000000000000000e+00
9.950000000000000000e+02,2.116881654735074392e+00,0.000000000000000000e+00
9.960000000000000000e+02,3.325869566021255608e-01,0.000000000000000000e+00
9.970000000000000000e+02,-6.465261868969344183e-01,0.000000000000000000e+00
9.980000000000000000e+02,-2.983255285429747827e-01,0.000000000000000000e+00
9.990000000000000000e+02,-1.776936841155496216e+00,0.000000000000000000e+00
1.000000000000000000e+03,-1.241620289587594517e+00,0.000000000000000000e+00
1.001000000000000000e+03,-1.787438937493590063e-01,0.000000000000000000e+00
1.002000000000000000e+03,-1.648643699422942754e+00,0.000000000000000000e+00
1.003000000000000000e+03,-9.092848087981915128e-01,0.000000000000000000e+00
1.004000000000000000e+03,-1.693328447943159842e-01,0.000000000000000000e+00
1.005000000000000000e+03,-5.348382771560213911e-01,0.000000000000000000e+00
1.006000000000000000e+03,-1.236851821628698334e+00,0.000000000000000000e+00
1.007000000000000000e+03,4.536863045878339329e-01,0.000000000000000000e+00
1.008000000000000000e+03,-3.074694159869647003e-01,0.000000000000000000e+00
1.009000000000000000e+03,-4.206365938783529490e-01,0.000000000000000000e+00
1.010000000000000000e+03,2.052465087503780039e-01,0.000000000000000000e+00
1.011000000000000000e+03,-4.339064573004431380e-01,0.000000000000000000e+00
1.012000000000000000e+03,6.324583256479193727e-02,0.000000000000000000e+00
1.013000000000000000e+03,-2.913106351999451005e-01,0.000000000000000000e+00
1.014000000000000000e+03,-2.893087188951978250e-01,0.000000000000000000e+00
1.015000000000000000e+03,-6.311547418543427268e-01,0.000000000000000000e+00
1.016000000000000000e+03,-6.528514253188295591e-01,0.000000000000000000e+00
1.017000000000000000e+03,7.354007359546488320e-01,0.000000000000000000e+00
1.018000000000000000e+03,5.206380923832772956e-01,0.000000000000000000e+00
1.019000000000000000e+03,-9.351173692645797786e-02,0.000000000000000000e+00
1.020000000000000000e+03,8.928208078672293935e-01,0.000000000000000000e+00
1.021000000000000000e+03,-4.554866997971038223e-01,0.000000000000000000e+00
1.022000000000000000e+03,5.445156348893097631e-01,0.000000000000000000e+00
1.023000000000000000e+03,-2.895250753921702613e-01,0.000000000000000000e+00
1.024000000000000000e+03,9.573716891507468851e-01,0.000000000000000000e+00
1.025000000000000000e+03,-5.250177906414704720e-01,0.000000000000000000e+00
1.026000000000000000e+03,2.209624158537364935e-01,0.000000000000000000e+00
1.027000000000000000e+03,-2.080499768803289184e-01,0.000000000000000000e+00
1.028000000000000000e+03,3.138915899725474579e-01,0.000000000000000000e+00
1.029000000000000000e+03,4.514570508683816291e-02,0.000000000000000000e+00
1.030000000000000000e+03,1.219777836445036900e+00,0.000000000000000000e+00
1.031000000000000000e+03,2.742620047330834865e+00,0.000000000000000000e+00
1.032000000000000000e+03,1.398876355062612653e+00,1.000000000000000000e+00
1.033000000000000000e+03,-6.470568028309132691e-01,0.000000000000000000e+00
1.034000000000000000e+03,-2.381219016602558192e-01,0.000000000000000000e+00
1.035000000000000000e+03,-4.371241438325145778e-01,0.000000000000000000e+00
1.036000000000000000e+03,-2.451305211091977382e-02,0.000000000000000000e+00
1.037000000000000000e+03,-3.066674617284038673e-01,0.000000000000000000e+00
1.038000000000000000e+03,3.502734867073256653e-01,0.000000000000000000e+00
1.039000000000000000e+03,-1.487954549056342557e-01,0.000000000000000000e+00
1.040000000000000000e+03,-1.026886465168922874e-01,0.000000000000000000e+00
1.041000000000000000e+03,4.758383471702613554e-01,0.000000000000000000e+00
1.042000000000000000e+03,9.704760449513058496e-02,0.000000000000000000e+00
1.043000000000000000e+03,1.050977920023060230e+00,0.000000000000000000e+00
1.044000000000000000e+03,5.852712057347880803e-01,0.000000000000000000e+00
1.045000000000000000e+03,9.274307321391398462e-01,0.000000000000000000e+00
1.046000000000000000e+03,1.416540474864608212e+00,0.000000000000000000e+00
1.047000000000000000e+03,1.222034572935747576e+00,0.000000000000000000e+00
1.048000000000000000e+03,1.010301954765924659e+00,0.000000000000000000e+00
1.049000000000000000e+03,-7.720129169943313885e-01,0.000000000000000000e+00
1.050000000000000000e+03,-7.614493762301719482e-01,0.000000000000000000e+00
1.051000000000000000e+03,-1.213200340998211946e+00,0.000000000000000000e+00
1.052000000000000000e+03,-1.054305905249321551e+00,0.000000000000000000e+00
1.053000000000000000e+03,-1.365509924935949471e+00,0.000000000000000000e+00
1.054000000000000000e+03,-5.433291023825680410e-01,0.000000000000000000e+00
1.055000000000000000e+03,-4.716469026929587804e-01,0.000000000000000000e+00
1.056000000000000000e+03,-9.234246756206981877e-01,0.000000000000000000e+00
1.057000000000000000e+03,-3.131361436146956057e-01,0.000000000000000000e+00
1.058000000000000000e+03,3.516486164266983683e-01,0.000000000000000000e+00
1.059000000000000000e+03,-7.855262757039762622e-01,0.000000000000000000e+00
1.060000000000000000e+03,-2.773508828665473547e-01,0.000000000000000000e+00
1.061000000000000000e+03,-4.313041931070236285e-02,0.000000000000000000e+00
1.062000000000000000e+03,-4.233496876109976714e-01,0.000000000000000000e+00
1.063000000000000000e+03,-5.282639945493031730e-01,0.000000000000000000e+00
1.064000000000000000e+03,-1.241305684807111065e-01,0.000000000000000000e+00
1.065000000000000000e+03,-5.232866788769674482e-01,0.000000000000000000e+00
1.066000000000000000e+03,-3.746148017321585533e-01,0.000000000000000000e+00
1.067000000000000000e+03,3.194448539985503821e-01,0.000000000000000000e+00
1.068000000000000000e+03,8.647373627994114909e-02,0.000000000000000000e+00
1.069000000000000000e+03,-4.512281380929603625e-01,0.000000000000000000e+00
1.070000000000000000e+03,2.204927309955068693e-01,0.000000000000000000e+00
1.071000000000000000e+03,1.289360225700576790e-01,0.000000000000000000e+00
1.072000000000000000e+03,5.199669735719044672e-01,0.000000000000000000e+00
1.073000000000000000e+03,-7.558039925912138357e-02,0.000000000000000000e+00
1.074000000000000000e+03,9.072824133264429936e-01,0.000000000000000000e+00
1.075000000000000000e+03,3.905436242843485783e-01,0.000000000000000000e+00
1.076000000000000000e+03,2.765736634653308545e-01,0.000000000000000000e+00
1.077000000000000000e+03,4.163862140916986809e-01,0.000000000000000000e+00
1.078000000000000000e+03,-4.120351353614740142e-01,0.000000000000000000e+00
1.079000000000000000e+03,6.120577007855120509e-03,0.000000000000000000e+00
1.080000000000000000e+03,1.280405210780821257e+00,0.000000000000000000e+00
1.081000000000000000e+03,3.690602506892004975e+00,0.000000000000000000e+00
1.082000000000000000e+03,-4.664999160580198811e-01,1.000000000000000000e+00
1.083000000000000000e+03,1.257304456541287301e-03,0.000000000000000000e+00
1.084000000000000000e+03,-4.299660437123629664e-01,0.000000000000000000e+00
1.085000000000000000e+03,-1.079809586382636244e+00,0.000000000000000000e+00
1.086000000000000000e+03,-2.596963706780547887e-01,0.000000000000000000e+00
1.087000000000000000e+03,-8.197779245350061972e-01,0.000000000000000000e+00
1.088000000000000000e+03,-4.773041232704346992e-01,0.000000000000000000e+00
1.089000000000000000e+03,-1.601513118450242565e-02,0.000000000000000000e+00
1.090000000000000000e+03,-1.292840045125966640e-02,0.000000000000000000e+00
1.091000000000000000e+03,-3.270798152492880861e-01,0.000000000000000000e+00
1.092000000000000000e+03,4.185544346035830476e-01,0.000000000000000000e+00
1.093000000000000000e+03,6.964989841338281584e-01,0.000000000000000000e+00
1.094000000000000000e+03,4.909844524934199872e-01,0.000000000000000000e+00
1.095000000000000000e+03,1.444723692822090788e+00,0.000000000000000000e+00
1.096000000000000000e+03,1.066952578823172626e+00,0.000000000000000000e+00
1.097000000000000000e+03,9.487955082136558804e-01,0.000000000000000000e+00
1.098000000000000000e+03,-3.628455944198828997e-01,0.000000000000000000e+00
1.099000000000000000e+03,-1.860002022757637485e-01,0.000000000000000000e+00
1.100000000000000000e+03,-6.607188017775054156e-01,0.000000000000000000e+00
1.101000000000000000e+03,-5.416439924793986505e-01,0.000000000000000000e+00
1.102000000000000000e+03,-1.094508877380527823e+00,0.000000000000000000e+00
1.103000000000000000e+03,1.176645207453620584e-01,0.000000000000000000e+00
1.104000000000000000e+03,-1.637313895182429757e+00,0.000000000000000000e+00
1.105000000000000000e+03,1.848954668741993879e-01,0.000000000000000000e+00
1.106000000000000000e+03,-2.481230554439091684e-01,0.000000000000000000e+00
1.107000000000000000e+03,1.818614777523929957e-02,0.000000000000000000e+00
1.108000000000000000e+03,-6.057292419229987068e-01,0.000000000000000000e+00
1.109000000000000000e+03,6.873569461716298734e-02,0.000000000000000000e+00
1.110000000000000000e+03,4.559356751821444509e-02,0.000000000000000000e+00
1.111000000000000000e+03,-4.753516060583913572e-02,0.000000000000000000e+00
1.112000000000000000e+03,3.634979883588096428e-01,0.000000000000000000e+00
1.113000000000000000e+03,-7.412960191185489212e-01,0.000000000000000000e+00
1.114000000000000000e+03,-3.992502781788983546e-01,0.000000000000000000e+00
1.115000000000000000e+03,2.049897421560465949e-01,0.000000000000000000e+00
1.116000000000000000e+03,6.373392083839586331e-01,0.000000000000000000e+00
1.117000000000000000e+03,-9.809716524688242290e-01,0.000000000000000000e+00
1.118000000000000000e+03,2.127443860722756930e-01,0.000000000000000000e+00
1.119000000000000000e+03,2.100156453203174123e-01,0.000000000000000000e+00
1.120000000000000000e+03,7.866492201782732119e-02,0.000000000000000000e+00
1.121000000000000000e+03,-9.152919494423434887e-01,0.000000000000000000e+00
1.122000000000000000e+03,6.160442322684782646e-01,0.000000000000000000e+00
1.123000000000000000e+03,5.897868211085078444e-02,0.000000000000000000e+00
1.124000000000000000e+03,4.803688754067585442e-01,0.000000000000000000e+00
1.125000000000000000e+03,-3.916686758025872406e-01,0.000000000000000000e+00
1.126000000000000000e+03,7.536534241694025082e-01,0.000000000000000000e+00
1.127000000000000000e+03,-6.519566605581466057e-01,0.000000000000000000e+00
1.128000000000000000e+03,1.237934623550453334e-01,0.000000000000000000e+00
1.129000000000000000e+03,4.227656091317367748e-01,0.000000000000000000e+00
1.130000000000000000e+03,2.850637252627053364e+00,0.000000000000000000e+00
1.131000000000000000e+03,2.215314448424343219e+00,0.000000000000000000e+00
1.132000000000000000e+03,-1.249296006607626852e+00,1.000000000000000000e+00
1.133000000000000000e+03,-1.420471734194184599e+00,0.000000000000000000e+00
1.134000000000000000e+03,-3.962210464351884620e-01,0.000000000000000000e+00
1.135000000000000000e+03,-1.922010099664374638e-01,0.000000000000000000e+00
1.136000000000000000e+03,-1.308646835790038487e+00,0.000000000000000000e+00
1.137000000000000000e+03,9.166723686616926395e-03,0.000000000000000000e+00
1.138000000000000000e+03,-9.522449482035882928e-01,0.000000000000000000e+00
1.139000000000000000e+03,-2.300305030934156891e-01,0.000000000000000000e+00
1.140000000000000000e+03,-1.698639369914758390e-01,0.000000000000000000e+00
1.141000000000000000e+03,-6.702852506488603535e-01,0.000000000000000000e+00
1.142000000000000000e+03,-9.200086977284976930e-02,0.000000000000000000e+00
1.143000000000000000e+03,3.622340181868063391e-01,0.000000000000000000e+00
1.144000000000000000e+03,8.441218476598659759e-01,0.000000000000000000e+00
1.145000000000000000e+03,9.489500009757054766e-01,0.000000000000000000e+00
1.146000000000000000e+03,8.332110306971617364e-01,0.000000000000000000e+00
1.147000000000000000e+03,-9.443136026146070963e-03,0.000000000000000000e+00
1.148000000000000000e+03,-5.103905572299790583e-01,0.000000000000000000e+00
1.149000000000000000e+03,-1.080674075488814667e+00,0.000000000000000000e+00
1.150000000000000000e+03,-8.039904217861184588e-01,0.000000000000000000e+00
1.151000000000000000e+03,-8.327460262835548743e-01,0.000000000000000000e+00
1.152000000000000000e+03,-1.574086016150123557e-01,0.000000000000000000e+00
1.153000000000000000e+03,-8.313421102562815745e-01,0.000000000000000000e+00
1.154000000000000000e+03,-5.526954252918928612e-01,0.000000000000000000e+00
1.155000000000000000e+03,-1.959749306503775698e-02,0.000000000000000000e+00
1.156000000000000000e+03,1.918764051495782386e-01,0.000000000000000000e+00
1.157000000000000000e+03,-9.891308468772613827e-01,0.000000000000000000e+00
1.158000000000000000e+03,-1.068361038226567916e-01,0.000000000000000000e+00
1.159000000000000000e+03,1.791034580207812310e-01,0.000000000000000000e+00
1.160000000000000000e+03,1.123017769857853759e-01,0.000000000000000000e+00
1.161000000000000000e+03,-7.302762502487702978e-01,0.000000000000000000e+00
1.162000000000000000e+03,2.826351180177672506e-01,0.000000000000000000e+00
1.163000000000000000e+03,-9.435542218992624269e-03,0.000000000000000000e+00
1.164000000000000000e+03,-2.079623747003269407e-01,0.000000000000000000e+00
1.165000000000000000e+03,3.843310530203501441e-01,0.000000000000000000e+00
1.166000000000000000e+03,4.167680998056047526e-01,0.000000000000000000e+00
1.167000000000000000e+03,-1.519808596570722259e-01,0.000000000000000000e+00
1.168000000000000000e+03,7.810215087914145204e-01,0.000000000000000000e+00
1.169000000000000000e+03,1.007747020648537689e-01,0.000000000000000000e+00
1.170000000000000000e+03,5.307825652265780736e-01,0.000000000000000000e+00
1.171000000000000000e+03,-4.928976814057406397e-01,0.000000000000000000e+00
1.172000000000000000e+03,6.847732937269105369e-01,0.000000000000000000e+00
1.173000000000000000e+03,7.670608054980078139e-01,0.000000000000000000e+00
1.174000000000000000e+03,3.481028504739579477e-01,0.000000000000000000e+00
1.175000000000000000e+03,2.722813621484377333e-01,0.000000000000000000e+00
1.176000000000000000e+03,2.477113774852330585e-01,0.000000000000000000e+00
1.177000000000000000e+03,8.382849273655491873e-02,0.000000000000000000e+00
1.178000000000000000e+03,6.418880666285163850e-01,0.000000000000000000e+00
1.179000000000000000e+03,1.841130806200358683e-01,0.000000000000000000e+00
1.180000000000000000e+03,4.189698030751383584e+00,0.000000000000000000e+00
1.181000000000000000e+03,4.982777414711184738e-01,1.000000000000000000e+00
1.182000000000000000e+03,-5.538075690394774764e-01,0.000000000000000000e+00
1.183000000000000000e+03,-1.612717682010487430e-01,0.000000000000000000e+00
1.184000000000000000e+03,-7.929074271454414902e-01,0.000000000000000000e+00
1.185000000000000000e+03,6.557866517165898690e-02,0.000000000000000000e+00
1.186000000000000000e+03,-8.533613464270748405e-01,0.000000000000000000e+00
1.187000000000000000e+03,8.279907241165653797e-01,0.000000000000000000e+00
1.188000000000000000e+03,-4.443287429482509765e-01,0.000000000000000000e+00
1.189000000000000000e+03,-5.438547969736602372e-01,0.000000000000000000e+00
1.190000000000000000e+03,-6.153700089240351501e-01,0.000000000000000000e+00
1.191000000000000000e+03,-7.375667001003316514e-01,0.000000000000000000e+00
1.192000000000000000e+03,1.080689275853244924e+00,0.000000000000000000e+00
1.193000000000000000e+03,3.428910447364542646e-01,0.000000000000000000e+00
1.194000000000000000e+03,7.469241766738056176e-01,0.000000000000000000e+00
1.195000000000000000e+03,9.999964272628047990e-01,0.000000000000000000e+00
1.196000000000000000e+03,9.008502928689549050e-01,0.000000000000000000e+00
1.197000000000000000e+03,6.744801998136669141e-01,0.000000000000000000e+00
1.198000000000000000e+03,-1.331168148397632978e+00,0.000000000000000000e+00
1.199000000000000000e+03,-4.539276224819393524e-01,0.000000000000000000e+00
1.200000000000000000e+03,-1.896106437054506655e-01,0.000000000000000000e+00
1.201000000000000000e+03,-2.272450721333584500e+00,0.000000000000000000e+00
1.202000000000000000e+03,-4.712172625852820707e-01,0.000000000000000000e+00
1.203000000000000000e+03,-6.845904663929112122e-01,0.000000000000000000e+00
1.204000000000000000e+03,-7.897416915779758018e-01,0.000000000000000000e+00
1.205000000000000000e+03,-7.709981952100639635e-01,0.000000000000000000e+00
1.206000000000000000e+03,1.384972079643125194e-02,0.000000000000000000e+00
1.207000000000000000e+03,-5.111831458347808610e-01,0.000000000000000000e+00
1.208000000000000000e+03,-1.101115928941454880e-01,0.000000000000000000e+00
1.209000000000000000e+03,2.214531456432611567e-01,0.000000000000000000e+00
1.210000000000000000e+03,-7.148464047683332767e-01,0.000000000000000000e+00
1.211000000000000000e+03,-2.375871088236620465e-01,0.000000000000000000e+00
1.212000000000000000e+03,-3.806500391979026343e-01,0.000000000000000000e+00
1.213000000000000000e+03,-7.058709367232183229e-01,0.000000000000000000e+00
1.214000000000000000e+03,1.202090557977126384e+00,0.000000000000000000e+00
1.215000000000000000e+03,-4.561437230271573884e-01,0.000000000000000000e+00
1.216000000000000000e+03,4.523219722526170550e-01,0.000000000000000000e+00
1.217000000000000000e+03,-6.474184551790260755e-01,0.000000000000000000e+00
1.218000000000000000e+03,-5.293018507859089672e-01,0.000000000000000000e+00
1.219000000000000000e+03,1.145504409393198753e+00,0.000000000000000000e+00
1.220000000000000000e+03,-5.953529962888959304e-01,0.000000000000000000e+00
1.221000000000000000e+03,-1.726914263946463246e-01,0.000000000000000000e+00
1.222000000000000000e+03,7.032348962252610303e-02,0.000000000000000000e+00
1.223000000000000000e+03,2.384169945814979652e+00,0.000000000000000000e+00
1.224000000000000000e+03,-1.001228450741356246e+00,0.000000000000000000e+00
1.225000000000000000e+03,-5.882062523131850740e-02,0.000000000000000000e+00
1.226000000000000000e+03,7.217333455159632982e-02,0.000000000000000000e+00
1.227000000000000000e+03,-8.136061817643218674e-01,0.000000000000000000e+00
1.228000000000000000e+03,-3.000847827560970682e-01,0.000000000000000000e+00
1.229000000000000000e+03,7.945539314041424328e-01,0.000000000000000000e+00
1.230000000000000000e+03,3.952527633019225828e+00,0.000000000000000000e+00
1.231000000000000000e+03,2.592333586795333655e+00,1.000000000000000000e+00
1.232000000000000000e+03,-1.203555334791900577e+00,0.000000000000000000e+00
1.233000000000000000e+03,-7.136962656596776977e-01,0.000000000000000000e+00
1.234000000000000000e+03,-7.330469040195531916e-01,0.000000000000000000e+00
1.235000000000000000e+03,-7.013594843510112531e-01,0.000000000000000000e+00
1.236000000000000000e+03,-8.806128999018311143e-01,0.000000000000000000e+00
1.237000000000000000e+03,2.334254354445566004e-01,0.000000000000000000e+00
1.238000000000000000e+03,-6.701197065285957599e-01,0.000000000000000000e+00
1.239000000000000000e+03,-5.350100535331762108e-01,0.000000000000000000e+00
1.240000000000000000e+03,-7.974797139344316221e-01,0.000000000000000000e+00
1.241000000000000000e+03,-7.923875560138575469e-02,0.000000000000000000e+00
1.242000000000000000e+03,-3.715833483748400834e-01,0.000000000000000000e+00
1.243000000000000000e+03,1.456565226051121487e+00,0.000000000000000000e+00
1.244000000000000000e+03,2.807765886550583345e-01,0.000000000000000000e+00
1.245000000000000000e+03,7.484008607122001333e-01,0.000000000000000000e+00
1.246000000000000000e+03,8.021339503395744641e-01,0.000000000000000000e+00
1.247000000000000000e+03,8.033743749509545395e-01,0.000000000000000000e+00
1.248000000000000000e+03,5.330980864568897470e-02,0.000000000000000000e+00
1.249000000000000000e+03,-1.716457217648319267e+00,0.000000000000000000e+00
1.250000000000000000e+03,-1.039232428604651259e+00,0.000000000000000000e+00
1.251000000000000000e+03,-7.047702829002882030e-01,0.000000000000000000e+00
1.252000000000000000e+03,-2.793297133457575132e-01,0.000000000000000000e+00
1.253000000000000000e+03,-7.799087912713148496e-01,0.000000000000000000e+00
1.254000000000000000e+03,-6.692667707815557199e-01,0.000000000000000000e+00
1.255000000000000000e+03,6.077818575612501384e-01,0.000000000000000000e+00
1.256000000000000000e+03,-9.385729734723582407e-01,0.000000000000000000e+00
1.257000000000000000e+03,2.733703298038564489e-01,0.000000000000000000e+00
1.258000000000000000e+03,-9.430530943953026046e-01,0.000000000000000000e+00
1.259000000000000000e+03,-4.482249393544670002e-01,0.000000000000000000e+00
1.260000000000000000e+03,2.161392528484922249e-01,0.000000000000000000e+00
1.261000000000000000e+03,-4.158495332244658838e-01,0.000000000000000000e+00
1.262000000000000000e+03,-5.440804247684873779e-02,0.000000000000000000e+00
1.263000000000000000e+03,2.398608239773545592e-01,0.000000000000000000e+00
1.264000000000000000e+03,4.867109369748673364e-01,0.000000000000000000e+00
1.265000000000000000e+03,4.096223668818174124e-01,0.000000000000000000e+00
1.266000000000000000e+03,5.220910484326456158e-02,0.000000000000000000e+00
1.267000000000000000e+03,3.036057490930503255e-01,0.000000000000000000e+00
1.268000000000000000e+03,6.811230126463279078e-01,0.000000000000000000e+00
1.269000000000000000e+03,1.084211696151330395e-01,0.000000000000000000e+00
1.270000000000000000e+03,9.533517592433496946e-01,0.000000000000000000e+00
1.271000000000000000e+03,-5.571083104132988628e-02,0.000000000000000000e+00
1.272000000000000000e+03,1.333329352795884493e-01,0.000000000000000000e+00
1.273000000000000000e+03,9.118750112852587186e-01,0.000000000000000000e+00
1.274000000000000000e+03,4.496594395306708486e-02,0.000000000000000000e+00
1.275000000000000000e+03,-3.291568621286222740e-01,0.000000000000000000e+00
1.276000000000000000e+03,1.037465272875416122e+00,0.000000000000000000e+00
1.277000000000000000e+03,-2.326655830074268461e-01,0.000000000000000000e+00
1.278000000000000000e+03,2.374066969019367479e-01,0.000000000000000000e+00
1.279000000000000000e+03,-5.533398230057733347e-01,0.000000000000000000e+00
1.280000000000000000e+03,1.839501283735988535e+00,0.000000000000000000e+00
1.281000000000000000e+03,3.808606633726218327e+00,0.000000000000000000e+00
1.282000000000000000e+03,-1.301709687022164497e-01,1.000000000000000000e+00
1.283000000000000000e+03,-3.974565727381940694e-01,0.000000000000000000e+00
1.284000000000000000e+03,-1.280392805086859598e+00,0.000000000000000000e+00
1.285000000000000000e+03,7.901775920805904907e-02,0.000000000000000000e+00
1.286000000000000000e+03,-5.162569840941432231e-01,0.000000000000000000e+00
1.287000000000000000e+03,-3.235566802845620260e-01,0.000000000000000000e+00
1.288000000000000000e+03,-1.056796375484746475e+00,0.000000000000000000e+00
1.289000000000000000e+03,-2.069428245751315718e-02,0.000000000000000000e+00
1.290000000000000000e+03,-3.738322557729903406e-01,0.000000000000000000e+00
1.291000000000000000e+03,-4.894083856411409195e-01,0.000000000000000000e+00
1.292000000000000000e+03,-2.258539104510538242e-01,0.000000000000000000e+00
1.293000000000000000e+03,2.806578452100038090e-01,0.000000000000000000e+00
1.294000000000000000e+03,1.053505685307735806e+00,0.000000000000000000e+00
1.295000000000000000e+03,1.193720690818702579e+00,0.000000000000000000e+00
1.296000000000000000e+03,8.658681286227668528e-01,0.000000000000000000e+00
1.297000000000000000e+03,8.900430026720688170e-01,0.000000000000000000e+00
1.298000000000000000e+03,-5.513879640593070119e-01,0.000000000000000000e+00
1.299000000000000000e+03,-1.361867019484344077e-01,0.000000000000000000e+00
1.300000000000000000e+03,-1.125748378651991288e+00,0.000000000000000000e+00
1.301000000000000000e+03,-1.043238677926062286e+00,0.000000000000000000e+00
1.302000000000000000e+03,-1.153062101005377232e-01,0.000000000000000000e+00
1.303000000000000000e+03,-1.821654173418282952e+00,0.000000000000000000e+00
1.304000000000000000e+03,-6.165257381813130655e-01,0.000000000000000000e+00
1.305000000000000000e+03,2.583264617437415755e-01,0.000000000000000000e+00
1.306000000000000000e+03,-4.036129703439788607e-01,0.000000000000000000e+00
1.307000000000000000e+03,-1.224650155048952055e-01,0.000000000000000000e+00
1.308000000000000000e+03,-1.151257921936558876e-01,0.000000000000000000e+00
1.309000000000000000e+03,-9.403293509195811417e-01,0.000000000000000000e+00
1.310000000000000000e+03,-7.847462730151419930e-01,0.000000000000000000e+00
1.311000000000000000e+03,2.635491886276563056e-01,0.000000000000000000e+00
1.312000000000000000e+03,-5.474352880133973587e-01,0.000000000000000000e+00
1.313000000000000000e+03,3.176988885691509057e-01,0.000000000000000000e+00
1.314000000000000000e+03,6.026591257405872204e-01,0.000000000000000000e+00
1.315000000000000000e+03,6.016819473326482370e-01,0.000000000000000000e+00
1.316000000000000000e+03,-6.595932188057598844e-02,0.000000000000000000e+00
1.317000000000000000e+03,-3.537859135246985143e-01,0.000000000000000000e+00
1.318000000000000000e+03,1.605024692562415090e-01,0.000000000000000000e+00
1.319000000000000000e+03,-6.231287080283294255e-01,0.000000000000000000e+00
1.320000000000000000e+03,-2.005117244318797842e-01,0.000000000000000000e+00
1.321000000000000000e+03,6.948439216163372623e-02,0.000000000000000000e+00
1.322000000000000000e+03,3.749412154801654573e-01,0.000000000000000000e+00
1.323000000000000000e+03,3.751899139571043262e-01,0.000000000000000000e+00
1.324000000000000000e+03,7.450750540007844425e-01,0.000000000000000000e+00
1.325000000000000000e+03,-1.178036992109921244e-01,0.000000000000000000e+00
1.326000000000000000e+03,4.012586343137950484e-01,0.000000000000000000e+00
1.327000000000000000e+03,-2.829208233856463917e-01,0.000000000000000000e+00
1.328000000000000000e+03,-8.417107893608379854e-01,0.000000000000000000e+00
1.329000000000000000e+03,2.228002021099144137e-01,0.000000000000000000e+00
1.330000000000000000e+03,-1.066100812460148095e+00,0.000000000000000000e+00
1.331000000000000000e+03,3.821791092378906463e+00,0.000000000000000000e+00
1.332000000000000000e+03,2.850316303074707402e+00,1.000000000000000000e+00
1.333000000000000000e+03,-7.314435530528523577e-01,0.000000000000000000e+00
1.334000000000000000e+03,-3.744184106399630063e-01,0.000000000000000000e+00
1.335000000000000000e+03,-1.029044363226475634e+00,0.000000000000000000e+00
1.336000000000000000e+03,-1.065411800913618867e+00,0.000000000000000000e+00
1.337000000000000000e+03,-9.515548747950300923e-01,0.000000000000000000e+00
1.338000000000000000e+03,-1.604994562535995983e-01,0.000000000000000000e+00
1.339000000000000000e+03,-7.888329951824288866e-01,0.000000000000000000e+00
1.340000000000000000e+03,2.018704786999760484e-02,0.000000000000000000e+00
1.341000000000000000e+03,-6.640065802223152902e-01,0.000000000000000000e+00
1.342000000000000000e+03,2.191792328462671968e-01,0.000000000000000000e+00
1.343000000000000000e+03,2.729886626529459681e-01,0.000000000000000000e+00
1.344000000000000000e+03,5.900329200282835584e-01,0.000000000000000000e+00
1.345000000000000000e+03,1.317479092899015214e+00,0.000000000000000000e+00
1.346000000000000000e+03,7.193095835308059849e-01,0.000000000000000000e+00
1.347000000000000000e+03,1.764367020415762655e+00,0.000000000000000000e+00
1.348000000000000000e+03,6.232754740341122091e-01,0.000000000000000000e+00
1.349000000000000000e+03,-5.360469978776790656e-01,0.000000000000000000e+00
1.350000000000000000e+03,-3.678387215340112593e-01,0.000000000000000000e+00
1.351000000000000000e+03,-5.470980952213374549e-01,0.000000000000000000e+00
1.352000000000000000e+03,-1.216495742484894338e+00,0.000000000000000000e+00
1.353000000000000000e+03,-1.022823758291803387e+00,0.000000000000000000e+00
1.354000000000000000e+03,-1.380792071221342843e+00,0.000000000000000000e+00
1.355000000000000000e+03,-2.229862475557206070e-01,0.000000000000000000e+00
1.356000000000000000e+03,-2.132914866265216702e-01,0.000000000000000000e+00
1.357000000000000000e+03,-9.919762020904311361e-01,0.000000000000000000e+00
1.358000000000000000e+03,7.216450958117166525e-01,0.000000000000000000e+00
1.359000000000000000e+03,-4.565471989942799236e-01,0.000000000000000000e+00
1.360000000000000000e+03,-4.047839447331750273e-01,0.000000000000000000e+00
1.361000000000000000e+03,7.172084252167559848e-02,0.000000000000000000e+00
1.362000000000000000e+03,-3.553546097416722671e-01,0.000000000000000000e+00
1.363000000000000000e+03,-3.044602159562200816e-01,0.000000000000000000e+00
1.364000000000000000e+03,-4.983240813851647633e-01,0.000000000000000000e+00
1.365000000000000000e+03,-3.294818795733148176e-01,0.000000000000000000e+00
1.366000000000000000e+03,7.713486177668406329e-02,0.000000000000000000e+00
1.367000000000000000e+03,6.037327790885685941e-01,0.000000000000000000e+00
1.368000000000000000e+03,3.064096839564308672e-01,0.000000000000000000e+00
1.369000000000000000e+03,2.864744500899051374e-02,0.000000000000000000e+00
1.370000000000000000e+03,-3.676544061845854472e-01,0.000000000000000000e+00
1.371000000000000000e+03,7.255975452572033246e-01,0.000000000000000000e+00
1.372000000000000000e+03,-1.363674868554088371e-01,0.000000000000000000e+00
1.373000000000000000e+03,-4.813483023213530609e-01,0.000000000000000000e+00
1.374000000000000000e+03,9.668747818407446015e-01,0.000000000000000000e+00
1.375000000000000000e+03,5.218028880853065044e-01,0.000000000000000000e+00
1.376000000000000000e+03,5.328945745129832767e-01,0.000000000000000000e+00
1.377000000000000000e+03,-3.653264194964147560e-01,0.000000000000000000e+00
1.378000000000000000e+03,-1.828524773203192566e-01,0.000000000000000000e+00
1.379000000000000000e+03,-6.720296340203434360e-01,0.000000000000000000e+00
1.380000000000000000e+03,7.365210195285888384e-01,0.000000000000000000e+00
1.381000000000000000e+03,-2.534441710359197075e-01,0.000000000000000000e+00
1.382000000000000000e+03,4.637144030935344219e+00,0.000000000000000000e+00
1.383000000000000000e+03,2.033085658466533108e+00,1.000000000000000000e+00
1.384000000000000000e+03,-3.627536809508046800e-01,0.000000000000000000e+00
1.385000000000000000e+03,-6.141335565553320830e-01,0.000000000000000000e+00
1.386000000000000000e+03,-1.450672148748058277e+00,0.000000000000000000e+00
1.387000000000000000e+03,5.723262825941303200e-01,0.000000000000000000e+00
1.388000000000000000e+03,-1.386787692680341966e+00,0.000000000000000000e+00
1.389000000000000000e+03,-1.708932818252452759e-02,0.000000000000000000e+00
1.390000000000000000e+03,-4.338607177643757362e-01,0.000000000000000000e+00
1.391000000000000000e+03,5.185312821301151232e-01,0.000000000000000000e+00
1.392000000000000000e+03,-4.223233968504518099e-02,0.000000000000000000e+00
1.393000000000000000e+03,-2.465883511941442119e-01,0.000000000000000000e+00
1.394000000000000000e+03,3.106204243867374259e-01,0.000000000000000000e+00
1.395000000000000000e+03,8.657965634045737824e-01,0.000000000000000000e+00
1.396000000000000000e+03,-4.831305100172412353e-02,0.000000000000000000e+00
1.397000000000000000e+03,2.240644180613532654e+00,0.000000000000000000e+00
1.398000000000000000e+03,8.777006319063690443e-01,0.000000000000000000e+00
1.399000000000000000e+03,4.334114657247607472e-01,0.000000000000000000e+00
1.400000000000000000e+03,-4.261227741802921520e-01,0.000000000000000000e+00
1.401000000000000000e+03,-8.243946084913728045e-01,0.000000000000000000e+00
1.402000000000000000e+03,-6.490717547537273591e-01,0.000000000000000000e+00
1.403000000000000000e+03,-1.093806934471519554e+00,0.000000000000000000e+00
1.404000000000000000e+03,-7.873445088451731522e-01,0.000000000000000000e+00
1.405000000000000000e+03,-8.489020667112766594e-01,0.000000000000000000e+00
1.406000000000000000e+03,-1.045682415133539989e+00,0.000000000000000000e+00
1.407000000000000000e+03,-7.821643084241027832e-01,0.000000000000000000e+00
1.408000000000000000e+03,-4.286394779737849325e-01,0.000000000000000000e+00
1.409000000000000000e+03,2.472971274970593020e-02,0.000000000000000000e+00
1.410000000000000000e+03,-7.651453190809783811e-01,0.000000000000000000e+00
1.411000000000000000e+03,1.951369727928268794e-01,0.000000000000000000e+00
1.412000000000000000e+03,-5.579327001978960920e-01,0.000000000000000000e+00
1.413000000000000000e+03,-1.425455968156205677e-01,0.000000000000000000e+00
1.414000000000000000e+03,-5.577595191181499157e-01,0.000000000000000000e+00
1.415000000000000000e+03,-8.300344439413319675e-01,0.000000000000000000e+00
1.416000000000000000e+03,1.739526646041338748e-02,0.000000000000000000e+00
1.417000000000000000e+03,-3.966869089188906905e-01,0.000000000000000000e+00
1.418000000000000000e+03,1.969491295345947024e-01,0.000000000000000000e+00
1.419000000000000000e+03,5.611416182806053810e-01,0.000000000000000000e+00
1.420000000000000000e+03,-2.966288786728300542e-01,0.000000000000000000e+00
1.421000000000000000e+03,4.648054570788116013e-01,0.000000000000000000e+00
1.422000000000000000e+03,-8.113309983610532683e-01,0.000000000000000000e+00
1.423000000000000000e+03,1.065297575818192205e-01,0.000000000000000000e+00
1.424000000000000000e+03,-5.711142853021490030e-03,0.000000000000000000e+00
1.425000000000000000e+03,1.212378034086172729e+00,0.000000000000000000e+00
1.426000000000000000e+03,-4.284242507278955836e-01,0.000000000000000000e+00
1.427000000000000000e+03,-3.084642323022543930e-01,0.000000000000000000e+00
1.428000000000000000e+03,-3.861993148291393840e-01,0.000000000000000000e+00
1.429000000000000000e+03,6.155688510927507240e-01,0.000000000000000000e+00
1.430000000000000000e+03,-2.625326884159789181e-02,0.000000000000000000e+00
1.431000000000000000e+03,1.490607411231966495e+00,0.000000000000000000e+00
1.432000000000000000e+03,2.957994043561150921e+00,0.000000000000000000e+00
1.433000000000000000e+03,-7.102034001433839006e-01,1.000000000000000000e+00
1.434000000000000000e+03,-7.331907826573307307e-01,0.000000000000000000e+00
1.435000000000000000e+03,-6.883151166797233378e-01,0.000000000000000000e+00
1.436000000000000000e+03,-1.638540659160437063e-01,0.000000000000000000e+00
1.437000000000000000e+03,-6.632755674202144014e-02,0.000000000000000000e+00
1.438000000000000000e+03,-4.105499258540362684e-01,0.000000000000000000e+00
1.439000000000000000e+03,-2.897080308331231868e-01,0.000000000000000000e+00
1.440000000000000000e+03,1.555933079636736063e-02,0.000000000000000000e+00
1.441000000000000000e+03,-1.537990538521665784e-01,0.000000000000000000e+00
1.442000000000000000e+03,-1.069895317622144154e-01,0.000000000000000000e+00
1.443000000000000000e+03,-4.590754701904376477e-03,0.000000000000000000e+00
1.444000000000000000e+03,7.273892601310676387e-01,0.000000000000000000e+00
1.445000000000000000e+03,4.784846605000432351e-01,0.000000000000000000e+00
1.446000000000000000e+03,9.471689025682579199e-01,0.000000000000000000e+00
1.447000000000000000e+03,7.706702681017668644e-01,0.000000000000000000e+00
1.448000000000000000e+03,1.395095798268965570e+00,0.000000000000000000e+00
1.449000000000000000e+03,-4.887501506800661089e-01,0.000000000000000000e+00
1.450000000000000000e+03,-4.584805886565800348e-01,0.000000000000000000e+00
1.451000000000000000e+03,-7.123673953552648319e-01,0.000000000000000000e+00
1.452000000000000000e+03,-7.560712086360108497e-01,0.000000000000000000e+00
1.453000000000000000e+03,-8.136017244434167184e-01,0.000000000000000000e+00
1.454000000000000000e+03,-6.152901310250182831e-01,0.000000000000000000e+00
1.455000000000000000e+03,-9.654192410101387900e-02,0.000000000000000000e+00
1.456000000000000000e+03,-3.010414043606200463e-01,0.000000000000000000e+00
1.457000000000000000e+03,-5.184183873159901035e-01,0.000000000000000000e+00
1.458000000000000000e+03,-3.426076796746764797e-01,0.000000000000000000e+00
1.459000000000000000e+03,1.973228304992747095e-01,0.000000000000000000e+00
1.460000000000000000e+03,-3.712815730047293594e-01,0.000000000000000000e+00
1.461000000000000000e+03,5.830964538690738275e-01,0.000000000000000000e+00
1.462000000000000000e+03,1.289522567039408096e-01,0.000000000000000000e+00
1.463000000000000000e+03,-1.767829094932638762e-02,0.000000000000000000e+00
1.464000000000000000e+03,-1.879592163058678989e-01,0.000000000000000000e+00
1.465000000000000000e+03,2.119225335978337232e-01,0.000000000000000000e+00
1.466000000000000000e+03,-1.497458136868744238e-01,0.000000000000000000e+00
1.467000000000000000e+03,1.149194847402832398e-01,0.000000000000000000e+00
1.468000000000000000e+03,6.288568524079205524e-01,0.000000000000000000e+00
1.469000000000000000e+03,2.082415353214417120e-01,0.000000000000000000e+00
1.470000000000000000e+03,7.219856085137940083e-01,0.000000000000000000e+00
1.471000000000000000e+03,1.425655920147167188e-01,0.000000000000000000e+00
1.472000000000000000e+03,1.019496752410419704e+00,0.000000000000000000e+00
1.473000000000000000e+03,2.063448381110569441e-01,0.000000000000000000e+00
1.474000000000000000e+03,7.591423384177518885e-02,0.000000000000000000e+00
1.475000000000000000e+03,-5.277444629681715682e-02,0.000000000000000000e+00
1.476000000000000000e+03,4.327364637444633400e-02,0.000000000000000000e+00
1.477000000000000000e+03,-4.443397337404346170e-01,0.000000000000000000e+00
1.478000000000000000e+03,4.905801710064015553e-01,0.000000000000000000e+00
1.479000000000000000e+03,2.669598948839951191e+00,0.000000000000000000e+00
1.480000000000000000e+03,1.684702046813749909e+00,1.000000000000000000e+00
1.481000000000000000e+03,-7.697981595870367899e-01,0.000000000000000000e+00
1.482000000000000000e+03,-3.681038523668209717e-01,0.000000000000000000e+00
1.483000000000000000e+03,-8.014783560374005855e-01,0.000000000000000000e+00
1.484000000000000000e+03,-5.567601470392621321e-01,0.000000000000000000e+00
1.485000000000000000e+03,-1.016566374702652320e+00,0.000000000000000000e+00
1.486000000000000000e+03,-9.332344779280037084e-02,0.000000000000000000e+00
1.487000000000000000e+03,-6.279722515953223283e-01,0.000000000000000000e+00
1.488000000000000000e+03,-2.450282596957875647e-01,0.000000000000000000e+00
1.489000000000000000e+03,-5.248171847633650161e-02,0.000000000000000000e+00
1.490000000000000000e+03,-5.341392425834667890e-02,0.000000000000000000e+00
1.491000000000000000e+03,7.217441664543338548e-03,0.000000000000000000e+00
1.492000000000000000e+03,-1.092602923412585719e-01,0.000000000000000000e+00
1.493000000000000000e+03,8.858966389991412838e-01,0.000000000000000000e+00
1.494000000000000000e+03,9.325994585170850337e-01,0.000000000000000000e+00
1.495000000000000000e+03,4.627830158430773499e-01,0.000000000000000000e+00
1.496000000000000000e+03,1.464384736980214319e-01,0.000000000000000000e+00
1.497000000000000000e+03,-8.918983718486082068e-01,0.000000000000000000e+00
1.498000000000000000e+03,-5.318238840417155444e-01,0.000000000000000000e+00
1.499000000000000000e+03,-9.929072609128927751e-02,0.000000000000000000e+00
1.500000000000000000e+03,-1.208697980904871905e+00,0.000000000000000000e+00
1.501000000000000000e+03,-1.327018148712406642e+00,0.000000000000000000e+00
1.502000000000000000e+03,-1.640678015257193145e-01,0.000000000000000000e+00
1.503000000000000000e+03,-5.966792711304662600e-01,0.000000000000000000e+00
1.504000000000000000e+03,-8.509154844123149042e-01,0.000000000000000000e+00
1.505000000000000000e+03,2.919831940136400350e-01,0.000000000000000000e+00
1.506000000000000000e+03,-7.169677676601492466e-01,0.000000000000000000e+00
1.507000000000000000e+03,-2.702713804286859811e-01,0.000000000000000000e+00
1.508000000000000000e+03,4.475202644971170707e-01,0.000000000000000000e+00
1.509000000000000000e+03,-1.701773058874605782e-01,0.000000000000000000e+00
1.510000000000000000e+03,2.107763266668939706e-01,0.000000000000000000e+00
1.511000000000000000e+03,7.494228344728892655e-02,0.000000000000000000e+00
1.512000000000000000e+03,-7.667598372869789403e-01,0.000000000000000000e+00
1.513000000000000000e+03,3.653855719168957461e-01,0.000000000000000000e+00
1.514000000000000000e+03,3.767461263147047767e-01,0.000000000000000000e+00
1.515000000000000000e+03,-8.701080257159746756e-01,0.000000000000000000e+00
1.516000000000000000e+03,8.716408738174957760e-01,0.000000000000000000e+00
1.517000000000000000e+03,-3.819978126100508076e-02,0.000000000000000000e+00
1.518000000000000000e+03,-3.593241530742553175e-02,0.000000000000000000e+00
1.519000000000000000e+03,7.610361581516821294e-01,0.000000000000000000e+00
1.520000000000000000e+03,5.927148257480728821e-01,0.000000000000000000e+00
1.521000000000000000e+03,2.242589613530521497e-01,0.000000000000000000e+00
1.522000000000000000e+03,-2.529501759721571874e-01,0.000000000000000000e+00
1.523000000000000000e+03,-4.726780245258286883e-01,0.000000000000000000e+00
1.524000000000000000e+03,-2.862544568498069930e-01,0.000000000000000000e+00
1.525000000000000000e+03,-3.550635025730258104e-02,0.000000000000000000e+00
1.526000000000000000e+03,2.796229932405740026e+00,0.000000000000000000e+00
1.527000000000000000e+03,3.258830414541376896e+00,0.000000000000000000e+00
1.528000000000000000e+03,3.494672899632057517e-01,1.000000000000000000e+00
1.529000000000000000e+03,-4.907697900499599086e-01,0.000000000000000000e+00
1.530000000000000000e+03,-9.376308812001319382e-01,0.000000000000000000e+00
1.531000000000000000e+03,-3.459087333885733084e-01,0.000000000000000000e+00
1.532000000000000000e+03,-6.149317278175261414e-01,0.000000000000000000e+00
1.533000000000000000e+03,-1.872987801867470048e-01,0.000000000000000000e+00
1.534000000000000000e+03,-7.763124885040635359e-01,0.000000000000000000e+00
1.535000000000000000e+03,2.821844464244537276e-01,0.000000000000000000e+00
1.536000000000000000e+03,-6.165807844795861969e-01,0.000000000000000000e+00
1.537000000000000000e+03,3.999469252746162273e-01,0.000000000000000000e+00
1.538000000000000000e+03,5.832117652957874432e-01,0.000000000000000000e+00
1.539000000000000000e+03,-8.936402610440419281e-02,0.000000000000000000e+00
1.540000000000000000e+03,7.883729908402556941e-01,0.000000000000000000e+00
1.541000000000000000e+03,1.165992166703374133e+00,0.000000000000000000e+00
1.542000000000000000e+03,1.125787963468836139e+00,0.000000000000000000e+00
1.543000000000000000e+03,5.651534110886249351e-01,0.000000000000000000e+00
1.544000000000000000e+03,-2.400898842607107342e-01,0.000000000000000000e+00
1.545000000000000000e+03,-2.131932667699953377e-01,0.000000000000000000e+00
1.546000000000000000e+03,-8.791430628044053508e-01,0.000000000000000000e+00
1.547000000000000000e+03,-2.687283993428725148e-01,0.000000000000000000e+00
1.548000000000000000e+03,-2.895021443656616844e-01,0.000000000000000000e+00
1.549000000000000000e+03,-6.782240364406372235e-01,0.000000000000000000e+00
1.550000000000000000e+03,-2.612080584773332492e-01,0.000000000000000000e+00
1.551000000000000000e+03,-8.306202476949270386e-01,0.000000000000000000e+00
1.552000000000000000e+03,-7.104586188605520602e-01,0.000000000000000000e+00
1.553000000000000000e+03,-2.070251013727991973e-01,0.000000000000000000e+00
1.554000000000000000e+03,-3.790416311831018570e-01,0.000000000000000000e+00
1.555000000000000000e+03,4.939804273215518959e-01,0.000000000000000000e+00
1.556000000000000000e+03,-3.030306963456889102e-01,0.000000000000000000e+00
1.557000000000000000e+03,-5.462207259311963742e-02,0.000000000000000000e+00
1.558000000000000000e+03,-2.771711925247337671e-01,0.000000000000000000e+00
1.559000000000000000e+03,1.418576349154706262e-01,0.000000000000000000e+00
1.560000000000000000e+03,-5.004160533730186433e-01,0.000000000000000000e+00
1.561000000000000000e+03,-4.599140783672573535e-02,0.000000000000000000e+00
1.562000000000000000e+03,2.182185767545292143e-01,0.000000000000000000e+00
1.563000000000000000e+03,5.349862378931032891e-01,0.000000000000000000e+00
1.564000000000000000e+03,-5.857275035098197941e-02,0.000000000000000000e+00
1.565000000000000000e+03,-3.010792681595906434e-02,0.000000000000000000e+00
1.566000000000000000e+03,1.193729924223748268e-01,0.000000000000000000e+00
1.567000000000000000e+03,-3.990499083319738460e-01,0.000000000000000000e+00
1.568000000000000000e+03,4.803245933554183278e-01,0.000000000000000000e+00
1.569000000000000000e+03,8.320072099476563121e-01,0.000000000000000000e+00
1.570000000000000000e+03,-1.020292964868338287e-01,0.000000000000000000e+00
1.571000000000000000e+03,-1.701376420379852317e-01,0.000000000000000000e+00
1.572000000000000000e+03,-1.039776184258772301e-01,0.000000000000000000e+00
1.573000000000000000e+03,-5.006886208365792790e-01,0.000000000000000000e+00
1.574000000000000000e+03,-3.285317235838862704e-01,0.000000000000000000e+00
1.575000000000000000e+03,2.562519195901922675e+00,0.000000000000000000e+00
1.576000000000000000e+03,3.407064618956884061e+00,0.000000000000000000e+00
1.577000000000000000e+03,1.056125253181007945e-01,1.000000000000000000e+00
1.578000000000000000e+03,-1.108931930527177867e+00,0.000000000000000000e+00
1.579000000000000000e+03,-9.701763909166349897e-01,0.000000000000000000e+00
1.580000000000000000e+03,-2.440053809113508221e-01,0.000000000000000000e+00
1.581000000000000000e+03,-1.318541161749035462e+00,0.000000000000000000e+00
1.582000000000000000e+03,-4.371847772898038165e-01,0.000000000000000000e+00
1.583000000000000000e+03,-4.435551100085705079e-01,0.000000000000000000e+00
1.584000000000000000e+03,-8.013885433507204059e-01,0.000000000000000000e+00
1.585000000000000000e+03,-9.544357503633046913e-02,0.000000000000000000e+00
1.586000000000000000e+03,-7.730479078807847571e-02,0.000000000000000000e+00
