timestamp,ecg_measurement,qrs_detected
0.000000000000000000e+00,-2.343716834242875469e-01,0.000000000000000000e+00
1.000000000000000000e+00,-1.590808500596022856e+00,0.000000000000000000e+00
2.000000000000000000e+00,6.022142934331583541e-01,0.000000000000000000e+00
3.000000000000000000e+00,-5.214079009068367521e-01,0.000000000000000000e+00
4.000000000000000000e+00,-2.683083574861346299e-01,0.000000000000000000e+00
5.000000000000000000e+00,6.731408899887922903e-01,0.000000000000000000e+00
6.000000000000000000e+00,2.900683737722315469e-01,0.000000000000000000e+00
7.000000000000000000e+00,9.283635254124145142e-01,0.000000000000000000e+00
8.000000000000000000e+00,5.256673507522015010e-01,0.000000000000000000e+00
9.000000000000000000e+00,3.080509852808085425e-01,0.000000000000000000e+00
1.000000000000000000e+01,5.884986439892341270e-01,0.000000000000000000e+00
1.100000000000000000e+01,-2.831520904095397029e-01,0.000000000000000000e+00
1.200000000000000000e+01,-5.173787087425499864e-01,0.000000000000000000e+00
1.300000000000000000e+01,-4.235085291738115432e-01,0.000000000000000000e+00
1.400000000000000000e+01,3.400914820524673088e-01,0.000000000000000000e+00
1.500000000000000000e+01,-8.414143603540893412e-01,0.000000000000000000e+00
1.600000000000000000e+01,7.330172888859153024e-02,0.000000000000000000e+00
1.700000000000000000e+01,-6.362011475209646827e-01,0.000000000000000000e+00
1.800000000000000000e+01,-3.339393295595559641e-01,0.000000000000000000e+00
1.900000000000000000e+01,-1.507492934874206658e-01,0.000000000000000000e+00
2.000000000000000000e+01,6.009743407511429492e-02,0.000000000000000000e+00
2.100000000000000000e+01,-3.168552353527844812e-01,0.000000000000000000e+00
2.200000000000000000e+01,6.676021878681178690e-01,0.000000000000000000e+00
2.300000000000000000e+01,1.281453001958599291e-01,1.000000000000000000e+00
2.400000000000000000e+01,-6.725349922538409464e-01,0.000000000000000000e+00
2.500000000000000000e+01,2.475983420965784942e-01,0.000000000000000000e+00
2.600000000000000000e+01,-4.664466446281348433e-01,0.000000000000000000e+00
2.700000000000000000e+01,2.665509008366370031e-02,0.000000000000000000e+00
2.800000000000000000e+01,9.349537993865197905e-01,0.000000000000000000e+00
2.900000000000000000e+01,-6.075856780943417884e-02,0.000000000000000000e+00
3.000000000000000000e+01,3.547701703794663985e-01,0.000000000000000000e+00
3.100000000000000000e+01,-3.313433797871119801e-01,0.000000000000000000e+00
3.200000000000000000e+01,-2.638002368216972870e-01,0.000000000000000000e+00
3.300000000000000000e+01,2.420100316963896270e-01,0.000000000000000000e+00
3.400000000000000000e+01,-2.262565604175735823e-01,0.000000000000000000e+00
3.500000000000000000e+01,7.599003531157064728e-01,0.000000000000000000e+00
3.600000000000000000e+01,-4.930051067526150521e-01,0.000000000000000000e+00
3.700000000000000000e+01,-1.242428901894437610e-01,0.000000000000000000e+00
3.800000000000000000e+01,2.436297222269447060e-01,0.000000000000000000e+00
3.900000000000000000e+01,-1.384934853039959668e-01,0.000000000000000000e+00
4.000000000000000000e+01,4.281565300481760677e-02,0.000000000000000000e+00
4.100000000000000000e+01,4.718717312687738530e-01,0.000000000000000000e+00
4.200000000000000000e+01,-7.108328173720923626e-01,0.000000000000000000e+00
4.300000000000000000e+01,1.330604515301084589e+00,0.000000000000000000e+00
4.400000000000000000e+01,2.622146535630777375e+00,0.000000000000000000e+00
4.500000000000000000e+01,-1.298819830487404792e+00,0.000000000000000000e+00
4.600000000000000000e+01,9.364164767290802938e-02,0.000000000000000000e+00
4.700000000000000000e+01,-6.128291836065417053e-01,0.000000000000000000e+00
4.800000000000000000e+01,-6.871393560929139888e-01,0.000000000000000000e+00
4.900000000000000000e+01,-6.161621341000721452e-01,0.000000000000000000e+00
5.000000000000000000e+01,-1.997369880809347076e-01,0.000000000000000000e+00
5.100000000000000000e+01,-1.414867384995721400e+00,0.000000000000000000e+00
5.200000000000000000e+01,4.508068655158311011e-01,0.000000000000000000e+00
5.300000000000000000e+01,-1.270531883818361907e+00,0.000000000000000000e+00
5.400000000000000000e+01,-1.119164453811656856e-01,0.000000000000000000e+00
5.500000000000000000e+01,6.192333535030829228e-02,0.000000000000000000e+00
5.600000000000000000e+01,-6.904974028029164934e-01,0.000000000000000000e+00
5.700000000000000000e+01,6.647940733018613546e-01,0.000000000000000000e+00
5.800000000000000000e+01,5.078410438722612552e-01,0.000000000000000000e+00
5.900000000000000000e+01,3.179885035890600009e-01,0.000000000000000000e+00
6.000000000000000000e+01,7.002625469314679441e-01,0.000000000000000000e+00
6.100000000000000000e+01,-7.243263353485297484e-01,0.000000000000000000e+00
6.200000000000000000e+01,-5.084709654961354630e-01,1.000000000000000000e+00
6.300000000000000000e+01,-1.187001807759061611e+00,0.000000000000000000e+00
6.400000000000000000e+01,-3.759139612171478739e-01,0.000000000000000000e+00
6.500000000000000000e+01,-4.402033078243703379e-01,0.000000000000000000e+00
6.600000000000000000e+01,-3.319274045647072069e-01,0.000000000000000000e+00
6.700000000000000000e+01,-5.886356371854095659e-01,0.000000000000000000e+00
6.800000000000000000e+01,-8.140006731223882186e-01,0.000000000000000000e+00
6.900000000000000000e+01,-1.417215988553903183e-01,0.000000000000000000e+00
7.000000000000000000e+01,-4.739489314373493967e-01,0.000000000000000000e+00
7.100000000000000000e+01,6.356210038279270780e-01,0.000000000000000000e+00
7.200000000000000000e+01,-6.049102410893602011e-01,0.000000000000000000e+00
7.300000000000000000e+01,7.273369760692423025e-01,0.000000000000000000e+00
7.400000000000000000e+01,-5.607211042362428843e-01,0.000000000000000000e+00
7.500000000000000000e+01,1.653426845317470251e-01,0.000000000000000000e+00
7.600000000000000000e+01,1.321129550862688351e+00,0.000000000000000000e+00
7.700000000000000000e+01,7.676824176139583622e-02,0.000000000000000000e+00
7.800000000000000000e+01,-1.942899517051028535e-01,0.000000000000000000e+00
7.900000000000000000e+01,3.000901000763340765e-01,0.000000000000000000e+00
8.000000000000000000e+01,1.874140998624372334e-01,0.000000000000000000e+00
8.100000000000000000e+01,1.952241939146222294e-01,0.000000000000000000e+00
8.200000000000000000e+01,8.709887147465373847e-01,0.000000000000000000e+00
8.300000000000000000e+01,1.809409056231308099e-01,0.000000000000000000e+00
8.400000000000000000e+01,1.644358764295819342e-01,0.000000000000000000e+00
8.500000000000000000e+01,4.907181296339721555e-01,0.000000000000000000e+00
8.600000000000000000e+01,5.952287678495020717e-01,0.000000000000000000e+00
8.700000000000000000e+01,5.226195901602035399e-01,0.000000000000000000e+00
8.800000000000000000e+01,5.348650936975484216e-01,0.000000000000000000e+00
8.900000000000000000e+01,1.722649280906000946e-01,0.000000000000000000e+00
9.000000000000000000e+01,-2.045694861848158519e-01,0.000000000000000000e+00
9.100000000000000000e+01,3.907875250803532485e-01,0.000000000000000000e+00
9.200000000000000000e+01,-4.831556408421294746e-01,0.000000000000000000e+00
9.300000000000000000e+01,-3.397320976447515406e-02,0.000000000000000000e+00
9.400000000000000000e+01,5.824632234436236816e-02,0.000000000000000000e+00
9.500000000000000000e+01,3.023700399880937972e+00,0.000000000000000000e+00
9.600000000000000000e+01,1.440989173820258928e+00,1.000000000000000000e+00
9.700000000000000000e+01,-4.430737202919243223e-01,0.000000000000000000e+00
9.800000000000000000e+01,-5.238119949707326084e-01,0.000000000000000000e+00
9.900000000000000000e+01,-6.052931958690970227e-01,0.000000000000000000e+00
1.000000000000000000e+02,-8.428190840447169485e-02,0.000000000000000000e+00
1.010000000000000000e+02,-2.633671954354332989e-01,0.000000000000000000e+00
1.020000000000000000e+02,-5.872644939576937562e-01,0.000000000000000000e+00
1.030000000000000000e+02,-3.962000106190015358e-02,0.000000000000000000e+00
1.040000000000000000e+02,-8.899049991797142178e-01,0.000000000000000000e+00
1.050000000000000000e+02,3.658612010167896361e-02,0.000000000000000000e+00
1.060000000000000000e+02,4.991680827464586856e-01,0.000000000000000000e+00
1.070000000000000000e+02,-1.155340600382865068e-01,0.000000000000000000e+00
1.080000000000000000e+02,6.157052803350524517e-01,0.000000000000000000e+00
1.090000000000000000e+02,3.405739004225167843e-01,0.000000000000000000e+00
1.100000000000000000e+02,8.901019706103447948e-01,0.000000000000000000e+00
1.110000000000000000e+02,1.575497578828330414e-01,0.000000000000000000e+00
1.120000000000000000e+02,-1.215977021065441366e-01,0.000000000000000000e+00
1.130000000000000000e+02,2.187379491341991389e-01,0.000000000000000000e+00
1.140000000000000000e+02,-7.356247370860136137e-01,0.000000000000000000e+00
1.150000000000000000e+02,-1.485457190815422823e+00,0.000000000000000000e+00
1.160000000000000000e+02,-1.076533599541863673e+00,0.000000000000000000e+00
1.170000000000000000e+02,-7.066894250550397050e-02,0.000000000000000000e+00
1.180000000000000000e+02,-6.197293862618493687e-01,0.000000000000000000e+00
1.190000000000000000e+02,-5.448242284556699122e-01,0.000000000000000000e+00
1.200000000000000000e+02,-2.088036533178793119e-01,0.000000000000000000e+00
1.210000000000000000e+02,-6.607529106703041721e-01,0.000000000000000000e+00
1.220000000000000000e+02,-4.271855953944512230e-01,0.000000000000000000e+00
1.230000000000000000e+02,-1.384799925518305497e-01,0.000000000000000000e+00
1.240000000000000000e+02,-4.002330828552574382e-01,0.000000000000000000e+00
1.250000000000000000e+02,-2.524065248461926370e-02,0.000000000000000000e+00
1.260000000000000000e+02,1.681025373135325574e-01,0.000000000000000000e+00
1.270000000000000000e+02,1.230280589297441801e-01,0.000000000000000000e+00
1.280000000000000000e+02,2.081213779389353147e-01,0.000000000000000000e+00
1.290000000000000000e+02,-1.354384191171110752e-01,0.000000000000000000e+00
1.300000000000000000e+02,-2.763637011411579358e-01,0.000000000000000000e+00
1.310000000000000000e+02,-1.456060502140365809e-01,0.000000000000000000e+00
1.320000000000000000e+02,5.154321279043810877e-01,0.000000000000000000e+00
1.330000000000000000e+02,-1.332354843013945078e-01,0.000000000000000000e+00
1.340000000000000000e+02,2.261337683425731770e-01,0.000000000000000000e+00
1.350000000000000000e+02,-3.469215292663865302e-01,0.000000000000000000e+00
1.360000000000000000e+02,1.353038627969195828e-01,0.000000000000000000e+00
1.370000000000000000e+02,3.950561967170286848e-01,0.000000000000000000e+00
1.380000000000000000e+02,6.591302816584223567e-01,0.000000000000000000e+00
1.390000000000000000e+02,-2.658020996375815570e-01,0.000000000000000000e+00
1.400000000000000000e+02,-4.614995043505540351e-02,0.000000000000000000e+00
1.410000000000000000e+02,-2.777664514289227560e-01,0.000000000000000000e+00
1.420000000000000000e+02,-2.170306102236302104e-01,0.000000000000000000e+00
1.430000000000000000e+02,-5.338915801172255948e-01,0.000000000000000000e+00
1.440000000000000000e+02,-7.842777612687594768e-01,0.000000000000000000e+00
1.450000000000000000e+02,2.363516880656221009e+00,0.000000000000000000e+00
1.460000000000000000e+02,2.518547005941666139e+00,1.000000000000000000e+00
1.470000000000000000e+02,-1.118795620611393815e+00,0.000000000000000000e+00
1.480000000000000000e+02,2.606996608500069534e-01,0.000000000000000000e+00
1.490000000000000000e+02,-9.617441614105284309e-01,0.000000000000000000e+00
1.500000000000000000e+02,-9.624644215129234126e-02,0.000000000000000000e+00
1.510000000000000000e+02,-7.039034981028001736e-01,0.000000000000000000e+00
1.520000000000000000e+02,-2.935740757432974135e-01,0.000000000000000000e+00
1.530000000000000000e+02,-1.020927132812368576e+00,0.000000000000000000e+00
1.540000000000000000e+02,2.326242978409256978e-01,0.000000000000000000e+00
1.550000000000000000e+02,-1.270088505288790914e+00,0.000000000000000000e+00
1.560000000000000000e+02,9.297095066754844650e-01,0.000000000000000000e+00
1.570000000000000000e+02,4.259344203556368336e-01,0.000000000000000000e+00
1.580000000000000000e+02,9.728931120291937074e-01,0.000000000000000000e+00
1.590000000000000000e+02,9.260177223686297809e-01,0.000000000000000000e+00
1.600000000000000000e+02,1.139865016162607381e+00,0.000000000000000000e+00
1.610000000000000000e+02,4.172377107702881505e-01,0.000000000000000000e+00
1.620000000000000000e+02,-9.499544152403402442e-02,0.000000000000000000e+00
1.630000000000000000e+02,6.315946426807839131e-02,0.000000000000000000e+00
1.640000000000000000e+02,-9.343455366061975687e-01,0.000000000000000000e+00
1.650000000000000000e+02,-7.237001023753589779e-01,0.000000000000000000e+00
1.660000000000000000e+02,-2.214302503287842450e-01,0.000000000000000000e+00
1.670000000000000000e+02,-5.585161509327231100e-01,0.000000000000000000e+00
1.680000000000000000e+02,-4.823508510699309748e-01,0.000000000000000000e+00
1.690000000000000000e+02,1.728694908932749130e-01,0.000000000000000000e+00
1.700000000000000000e+02,-2.526810985662523157e-01,0.000000000000000000e+00
1.710000000000000000e+02,-6.924598652419365896e-01,0.000000000000000000e+00
1.720000000000000000e+02,1.897155133192516274e-01,0.000000000000000000e+00
1.730000000000000000e+02,-8.883980768810879614e-01,0.000000000000000000e+00
1.740000000000000000e+02,-2.223960523080135143e-01,0.000000000000000000e+00
1.750000000000000000e+02,1.588432695148467022e-01,0.000000000000000000e+00
1.760000000000000000e+02,1.454433874089683908e-02,0.000000000000000000e+00
1.770000000000000000e+02,-7.314489372378590870e-01,0.000000000000000000e+00
1.780000000000000000e+02,3.104037336760996357e-01,0.000000000000000000e+00
1.790000000000000000e+02,1.076224513428636786e+00,0.000000000000000000e+00
1.800000000000000000e+02,-4.659532962852577787e-01,1.000000000000000000e+00
1.810000000000000000e+02,8.039600174469115068e-02,0.000000000000000000e+00
1.820000000000000000e+02,-2.031915109290740457e-02,0.000000000000000000e+00
1.830000000000000000e+02,-9.891224756702654552e-02,0.000000000000000000e+00
1.840000000000000000e+02,-3.691452420028096815e-01,0.000000000000000000e+00
1.850000000000000000e+02,1.139404603267952787e-01,0.000000000000000000e+00
1.860000000000000000e+02,5.862497964132554751e-01,0.000000000000000000e+00
1.870000000000000000e+02,2.554173854695144796e-01,0.000000000000000000e+00
1.880000000000000000e+02,6.116640543401623553e-01,0.000000000000000000e+00
1.890000000000000000e+02,7.366603485937007756e-01,0.000000000000000000e+00
1.900000000000000000e+02,-1.444227989063543716e-01,0.000000000000000000e+00
1.910000000000000000e+02,-5.999555701081648040e-01,0.000000000000000000e+00
1.920000000000000000e+02,3.484964593271588362e-01,0.000000000000000000e+00
1.930000000000000000e+02,-1.036162059183581396e+00,0.000000000000000000e+00
1.940000000000000000e+02,3.627547904436849713e-01,0.000000000000000000e+00
1.950000000000000000e+02,1.035919988801381031e+00,0.000000000000000000e+00
1.960000000000000000e+02,2.153202200129447075e+00,0.000000000000000000e+00
1.970000000000000000e+02,4.738049599458026839e-01,0.000000000000000000e+00
1.980000000000000000e+02,-3.048274416707201784e-01,0.000000000000000000e+00
1.990000000000000000e+02,-1.971140699569954857e-01,0.000000000000000000e+00
2.000000000000000000e+02,-6.680820283443583696e-01,0.000000000000000000e+00
2.010000000000000000e+02,-7.073435013633875279e-01,0.000000000000000000e+00
2.020000000000000000e+02,2.438878147980771682e-01,0.000000000000000000e+00
2.030000000000000000e+02,-1.123218079364979527e+00,0.000000000000000000e+00
2.040000000000000000e+02,5.690689174471933454e-01,0.000000000000000000e+00
2.050000000000000000e+02,-6.413228409783132689e-01,0.000000000000000000e+00
2.060000000000000000e+02,6.371910105976493766e-01,0.000000000000000000e+00
2.070000000000000000e+02,2.823911319235511974e-01,0.000000000000000000e+00
2.080000000000000000e+02,1.519923824842052233e-02,0.000000000000000000e+00
2.090000000000000000e+02,4.084721922622940316e-01,0.000000000000000000e+00
2.100000000000000000e+02,1.071684762294179194e+00,0.000000000000000000e+00
2.110000000000000000e+02,5.190427153804232363e-01,0.000000000000000000e+00
2.120000000000000000e+02,7.557980132362648318e-01,0.000000000000000000e+00
2.130000000000000000e+02,-6.461273494119595950e-02,1.000000000000000000e+00
2.140000000000000000e+02,-6.784199113165518824e-01,0.000000000000000000e+00
2.150000000000000000e+02,-1.886682398990463527e-01,0.000000000000000000e+00
2.160000000000000000e+02,-3.586132060773403185e-01,0.000000000000000000e+00
2.170000000000000000e+02,-5.636804921430560444e-01,0.000000000000000000e+00
2.180000000000000000e+02,3.378462010865765919e-01,0.000000000000000000e+00
2.190000000000000000e+02,-2.415435244805165527e-01,0.000000000000000000e+00
2.200000000000000000e+02,4.279577965478718882e-02,0.000000000000000000e+00
2.210000000000000000e+02,-8.340948591131439604e-01,0.000000000000000000e+00
2.220000000000000000e+02,4.232933640932558528e-01,0.000000000000000000e+00
2.230000000000000000e+02,-1.119352590968713951e-01,0.000000000000000000e+00
2.240000000000000000e+02,7.053132631846770195e-02,0.000000000000000000e+00
2.250000000000000000e+02,-9.676926966712033618e-02,0.000000000000000000e+00
2.260000000000000000e+02,5.319482176299759058e-01,0.000000000000000000e+00
2.270000000000000000e+02,-2.097036819394877405e-01,0.000000000000000000e+00
2.280000000000000000e+02,2.221947888753388889e-01,0.000000000000000000e+00
2.290000000000000000e+02,1.365605526488056221e-01,0.000000000000000000e+00
2.300000000000000000e+02,2.343729886562407883e-01,0.000000000000000000e+00
2.310000000000000000e+02,-1.210417181341043730e-01,0.000000000000000000e+00
2.320000000000000000e+02,7.830711941575954627e-02,0.000000000000000000e+00
2.330000000000000000e+02,-7.320418625149055503e-01,0.000000000000000000e+00
2.340000000000000000e+02,2.536109948820932658e-01,0.000000000000000000e+00
2.350000000000000000e+02,1.582596903925322096e-01,0.000000000000000000e+00
2.360000000000000000e+02,2.674193990983126934e-01,0.000000000000000000e+00
2.370000000000000000e+02,-9.120151804903645076e-02,0.000000000000000000e+00
2.380000000000000000e+02,3.358174939029496819e-01,0.000000000000000000e+00
2.390000000000000000e+02,3.266548062408893283e-01,0.000000000000000000e+00
2.400000000000000000e+02,5.223911837132958480e-01,0.000000000000000000e+00
2.410000000000000000e+02,-9.368672218618970815e-01,0.000000000000000000e+00
2.420000000000000000e+02,1.612722178852712962e-01,0.000000000000000000e+00
2.430000000000000000e+02,-1.069419593817295233e+00,0.000000000000000000e+00
2.440000000000000000e+02,-3.245807051445073754e-01,0.000000000000000000e+00
2.450000000000000000e+02,2.018125303609779111e-02,0.000000000000000000e+00
2.460000000000000000e+02,1.055461967686264879e+00,0.000000000000000000e+00
2.470000000000000000e+02,2.483726108021833134e+00,0.000000000000000000e+00
2.480000000000000000e+02,-6.454899658915269622e-01,1.000000000000000000e+00
2.490000000000000000e+02,-3.928724602429450874e-01,0.000000000000000000e+00
2.500000000000000000e+02,-2.194095148238965343e-01,0.000000000000000000e+00
2.510000000000000000e+02,-1.162457304147350934e+00,0.000000000000000000e+00
2.520000000000000000e+02,-2.603524197737265844e-01,0.000000000000000000e+00
2.530000000000000000e+02,-1.137301932424506390e+00,0.000000000000000000e+00
2.540000000000000000e+02,-9.261309930368968324e-01,0.000000000000000000e+00
2.550000000000000000e+02,-6.938465163458062968e-02,0.000000000000000000e+00
2.560000000000000000e+02,-4.339376758836102632e-01,0.000000000000000000e+00
2.570000000000000000e+02,2.720473188737575487e-01,0.000000000000000000e+00
2.580000000000000000e+02,4.111310363024954506e-02,0.000000000000000000e+00
2.590000000000000000e+02,-4.301668011486118465e-02,0.000000000000000000e+00
2.600000000000000000e+02,1.224836464956624349e+00,0.000000000000000000e+00
2.610000000000000000e+02,2.588072979793328843e-01,0.000000000000000000e+00
2.620000000000000000e+02,4.957774780488761746e-01,0.000000000000000000e+00
2.630000000000000000e+02,-7.330289567068346557e-01,0.000000000000000000e+00
2.640000000000000000e+02,-7.341578711060838813e-01,0.000000000000000000e+00
2.650000000000000000e+02,-7.349745799085785070e-01,0.000000000000000000e+00
2.660000000000000000e+02,-5.507774245993661832e-01,0.000000000000000000e+00
2.670000000000000000e+02,-7.388974217538915035e-01,0.000000000000000000e+00
2.680000000000000000e+02,1.553326867531520383e-01,0.000000000000000000e+00
2.690000000000000000e+02,-1.266618360963950307e+00,0.000000000000000000e+00
2.700000000000000000e+02,-1.718880549941444735e-01,0.000000000000000000e+00
2.710000000000000000e+02,-1.100377119367290935e-01,0.000000000000000000e+00
2.720000000000000000e+02,9.167727433078236288e-02,0.000000000000000000e+00
2.730000000000000000e+02,-1.017254022889163556e+00,0.000000000000000000e+00
2.740000000000000000e+02,-2.070809932533800857e-01,0.000000000000000000e+00
2.750000000000000000e+02,5.353123493077915213e-02,0.000000000000000000e+00
2.760000000000000000e+02,-1.172875773519814202e-01,0.000000000000000000e+00
2.770000000000000000e+02,5.153749279048301934e-01,0.000000000000000000e+00
2.780000000000000000e+02,-2.380066607189858241e-01,0.000000000000000000e+00
2.790000000000000000e+02,2.860679686048445136e-01,0.000000000000000000e+00
2.800000000000000000e+02,1.392896668969595686e-01,0.000000000000000000e+00
2.810000000000000000e+02,-3.223877619688060858e-01,0.000000000000000000e+00
2.820000000000000000e+02,5.316086253212531920e-01,0.000000000000000000e+00
2.830000000000000000e+02,6.233729693539071803e-01,0.000000000000000000e+00
2.840000000000000000e+02,-1.494662727023080562e-01,0.000000000000000000e+00
2.850000000000000000e+02,3.866960814725118878e-01,0.000000000000000000e+00
2.860000000000000000e+02,6.123734758768405173e-02,0.000000000000000000e+00
2.870000000000000000e+02,7.507362358307998473e-01,0.000000000000000000e+00
2.880000000000000000e+02,2.845579258608381124e-01,0.000000000000000000e+00
2.890000000000000000e+02,9.930763135851811141e-01,0.000000000000000000e+00
2.900000000000000000e+02,8.281672000540495349e-01,0.000000000000000000e+00
2.910000000000000000e+02,-2.635011094202822646e-01,0.000000000000000000e+00
2.920000000000000000e+02,7.288593779544644269e-01,0.000000000000000000e+00
2.930000000000000000e+02,4.524004728635581118e-01,0.000000000000000000e+00
2.940000000000000000e+02,-1.382478415331057399e-02,0.000000000000000000e+00
2.950000000000000000e+02,-3.605192173081583906e-01,0.000000000000000000e+00
2.960000000000000000e+02,5.941022522149109752e-01,0.000000000000000000e+00
2.970000000000000000e+02,3.163731937829494356e+00,0.000000000000000000e+00
2.980000000000000000e+02,2.025104900942294339e+00,1.000000000000000000e+00
2.990000000000000000e+02,-1.054560917320315649e+00,0.000000000000000000e+00
3.000000000000000000e+02,-5.565979436759095622e-02,0.000000000000000000e+00
3.010000000000000000e+02,-5.977450411025250210e-01,0.000000000000000000e+00
3.020000000000000000e+02,-1.416191269742021475e-01,0.000000000000000000e+00
3.030000000000000000e+02,-2.070328424997806838e-01,0.000000000000000000e+00
3.040000000000000000e+02,-5.961890385940215031e-01,0.000000000000000000e+00
3.050000000000000000e+02,9.211768653701071785e-02,0.000000000000000000e+00
3.060000000000000000e+02,-7.128182012380243071e-01,0.000000000000000000e+00
3.070000000000000000e+02,3.725619791327219321e-01,0.000000000000000000e+00
3.080000000000000000e+02,-3.898544467957424930e-01,0.000000000000000000e+00
3.090000000000000000e+02,-3.294027111213080894e-01,0.000000000000000000e+00
3.100000000000000000e+02,2.652501084212816052e-01,0.000000000000000000e+00
3.110000000000000000e+02,7.855636398358262218e-01,0.000000000000000000e+00
3.120000000000000000e+02,1.225967603062597666e+00,0.000000000000000000e+00
3.130000000000000000e+02,6.664478886255315038e-01,0.000000000000000000e+00
3.140000000000000000e+02,4.484600796572817960e-01,0.000000000000000000e+00
3.150000000000000000e+02,-7.101010744811988573e-01,0.000000000000000000e+00
3.160000000000000000e+02,7.364215354469047514e-02,0.000000000000000000e+00
3.170000000000000000e+02,-1.157389580677097074e+00,0.000000000000000000e+00
3.180000000000000000e+02,-6.873850129958963828e-01,0.000000000000000000e+00
3.190000000000000000e+02,-8.604238493199941606e-01,0.000000000000000000e+00
3.200000000000000000e+02,-1.452492268240516970e-01,0.000000000000000000e+00
3.210000000000000000e+02,-2.494011583872866311e-01,0.000000000000000000e+00
3.220000000000000000e+02,5.545347440207619716e-01,0.000000000000000000e+00
3.230000000000000000e+02,-3.993505875879403977e-01,0.000000000000000000e+00
3.240000000000000000e+02,-1.869499771026735327e-02,0.000000000000000000e+00
3.250000000000000000e+02,-4.027814575210655890e-01,0.000000000000000000e+00
3.260000000000000000e+02,-1.440049926395844115e-01,0.000000000000000000e+00
3.270000000000000000e+02,-4.576670858649063978e-01,0.000000000000000000e+00
3.280000000000000000e+02,-1.772362342539241242e-01,0.000000000000000000e+00
3.290000000000000000e+02,3.095606526646317858e-01,0.000000000000000000e+00
3.300000000000000000e+02,-4.705485473575125588e-01,0.000000000000000000e+00
3.310000000000000000e+02,-2.268663488792631300e-01,0.000000000000000000e+00
3.320000000000000000e+02,1.974347394957033375e-01,0.000000000000000000e+00
3.330000000000000000e+02,2.306540105325224910e-01,0.000000000000000000e+00
3.340000000000000000e+02,-1.077330870755496273e-01,0.000000000000000000e+00
3.350000000000000000e+02,2.432518641959350303e-01,0.000000000000000000e+00
3.360000000000000000e+02,3.386276333817815343e-01,0.000000000000000000e+00
3.370000000000000000e+02,-3.915066208446207341e-01,0.000000000000000000e+00
3.380000000000000000e+02,1.130843895152779388e-01,0.000000000000000000e+00
3.390000000000000000e+02,9.924981838923091493e-02,0.000000000000000000e+00
3.400000000000000000e+02,4.700430960371321798e-01,0.000000000000000000e+00
3.410000000000000000e+02,3.987886389889906957e-01,0.000000000000000000e+00
3.420000000000000000e+02,-7.076429287948982072e-02,0.000000000000000000e+00
3.430000000000000000e+02,5.286717384633689010e-01,0.000000000000000000e+00
3.440000000000000000e+02,-8.142545982273378113e-01,0.000000000000000000e+00
3.450000000000000000e+02,-3.795733035475976763e-02,0.000000000000000000e+00
3.460000000000000000e+02,-3.481725904478266131e-01,0.000000000000000000e+00
3.470000000000000000e+02,-4.125071960081656552e-01,0.000000000000000000e+00
3.480000000000000000e+02,2.264151008736718040e+00,0.000000000000000000e+00
3.490000000000000000e+02,1.270864162288211086e+00,1.000000000000000000e+00
3.500000000000000000e+02,-2.651280180128791075e-01,0.000000000000000000e+00
3.510000000000000000e+02,-1.001639586118532738e-01,0.000000000000000000e+00
3.520000000000000000e+02,-1.892955621361640306e+00,0.000000000000000000e+00
3.530000000000000000e+02,5.667021141028379810e-02,0.000000000000000000e+00
3.540000000000000000e+02,-4.794255011165925451e-01,0.000000000000000000e+00
3.550000000000000000e+02,-2.031925859800854384e-01,0.000000000000000000e+00
3.560000000000000000e+02,-6.539885742856609285e-01,0.000000000000000000e+00
3.570000000000000000e+02,-3.576497070286975832e-01,0.000000000000000000e+00
3.580000000000000000e+02,-1.030782868106497746e-01,0.000000000000000000e+00
3.590000000000000000e+02,-8.473305829998530880e-01,0.000000000000000000e+00
3.600000000000000000e+02,-3.170110476238960362e-01,0.000000000000000000e+00
3.610000000000000000e+02,4.140845861206304129e-02,0.000000000000000000e+00
3.620000000000000000e+02,4.092101971661291637e-01,0.000000000000000000e+00
3.630000000000000000e+02,1.419053704016820072e+00,0.000000000000000000e+00
3.640000000000000000e+02,-2.686498253937665837e-01,0.000000000000000000e+00
3.650000000000000000e+02,7.758236089629358956e-01,0.000000000000000000e+00
3.660000000000000000e+02,-1.013302510344490814e+00,0.000000000000000000e+00
3.670000000000000000e+02,-1.862875928441171391e-01,0.000000000000000000e+00
3.680000000000000000e+02,-6.017238025543162339e-01,0.000000000000000000e+00
3.690000000000000000e+02,-1.020870563039602885e+00,0.000000000000000000e+00
3.700000000000000000e+02,-8.999059278850298771e-01,0.000000000000000000e+00
3.710000000000000000e+02,-7.576923845753967823e-01,0.000000000000000000e+00
3.720000000000000000e+02,-1.019773251027296324e+00,0.000000000000000000e+00
3.730000000000000000e+02,-7.676935989533358873e-01,0.000000000000000000e+00
3.740000000000000000e+02,-3.486685188731740159e-01,0.000000000000000000e+00
3.750000000000000000e+02,4.347875987412926913e-01,0.000000000000000000e+00
3.760000000000000000e+02,-1.168444204660468166e-01,0.000000000000000000e+00
3.770000000000000000e+02,-1.964717759899809943e-02,0.000000000000000000e+00
3.780000000000000000e+02,-2.608481790435267511e-01,0.000000000000000000e+00
3.790000000000000000e+02,-4.827812378488401390e-01,0.000000000000000000e+00
3.800000000000000000e+02,4.819960979552566360e-02,0.000000000000000000e+00
3.810000000000000000e+02,-4.793973698396665761e-01,0.000000000000000000e+00
3.820000000000000000e+02,2.209544631689214778e-01,0.000000000000000000e+00
3.830000000000000000e+02,-4.989705241023505988e-01,0.000000000000000000e+00
3.840000000000000000e+02,1.041567944597939110e+00,0.000000000000000000e+00
3.850000000000000000e+02,-2.016932366084737416e-01,0.000000000000000000e+00
3.860000000000000000e+02,6.183599362369021080e-01,0.000000000000000000e+00
3.870000000000000000e+02,-5.147013302776264343e-01,0.000000000000000000e+00
3.880000000000000000e+02,4.590687315461296492e-01,0.000000000000000000e+00
3.890000000000000000e+02,-3.908718610416511141e-01,0.000000000000000000e+00
3.900000000000000000e+02,3.165159902691448979e-01,0.000000000000000000e+00
3.910000000000000000e+02,4.514097752055939994e-01,0.000000000000000000e+00
3.920000000000000000e+02,7.814036518543959753e-01,0.000000000000000000e+00
3.930000000000000000e+02,1.181366912537375052e-01,0.000000000000000000e+00
3.940000000000000000e+02,5.513418004298344943e-01,0.000000000000000000e+00
3.950000000000000000e+02,-1.142807827449611874e-01,0.000000000000000000e+00
3.960000000000000000e+02,5.978362031534584231e-01,0.000000000000000000e+00
3.970000000000000000e+02,-6.563304160434384471e-01,0.000000000000000000e+00
3.980000000000000000e+02,-3.552815087091206747e-01,0.000000000000000000e+00
3.990000000000000000e+02,2.594923149938198614e-01,0.000000000000000000e+00
4.000000000000000000e+02,3.070109897180896219e+00,0.000000000000000000e+00
4.010000000000000000e+02,1.435502498867091248e+00,1.000000000000000000e+00
4.020000000000000000e+02,-6.611241537953387315e-01,0.000000000000000000e+00
4.030000000000000000e+02,2.547005418744785477e-01,0.000000000000000000e+00
4.040000000000000000e+02,-5.849895141297661860e-01,0.000000000000000000e+00
4.050000000000000000e+02,-6.652941899550283977e-02,0.000000000000000000e+00
4.060000000000000000e+02,-5.307822317000171486e-01,0.000000000000000000e+00
4.070000000000000000e+02,3.148114335181688705e-01,0.000000000000000000e+00
4.080000000000000000e+02,-3.158244150044858811e-01,0.000000000000000000e+00
4.090000000000000000e+02,-1.721937642145298375e-01,0.000000000000000000e+00
4.100000000000000000e+02,-4.754137863664186225e-01,0.000000000000000000e+00
4.110000000000000000e+02,5.676722030447031164e-01,0.000000000000000000e+00
4.120000000000000000e+02,5.459847934670598590e-01,0.000000000000000000e+00
4.130000000000000000e+02,-3.398887178990098179e-01,0.000000000000000000e+00
4.140000000000000000e+02,1.370136535036706738e+00,0.000000000000000000e+00
4.150000000000000000e+02,1.166621001650799627e+00,0.000000000000000000e+00
4.160000000000000000e+02,1.105190543830526284e+00,0.000000000000000000e+00
4.170000000000000000e+02,-4.435350497196240416e-01,0.000000000000000000e+00
4.180000000000000000e+02,2.387835008757800692e-02,0.000000000000000000e+00
4.190000000000000000e+02,-9.656586966656515170e-01,0.000000000000000000e+00
4.200000000000000000e+02,-3.714223698725430678e-01,0.000000000000000000e+00
4.210000000000000000e+02,-7.465039099573679282e-01,0.000000000000000000e+00
4.220000000000000000e+02,-1.548363977118012713e-01,0.000000000000000000e+00
4.230000000000000000e+02,-8.445159904027896847e-01,0.000000000000000000e+00
4.240000000000000000e+02,5.181823438770220003e-01,0.000000000000000000e+00
4.250000000000000000e+02,9.137475058980182308e-02,0.000000000000000000e+00
4.260000000000000000e+02,-7.075216823094780949e-01,0.000000000000000000e+00
4.270000000000000000e+02,4.082214698236088374e-02,0.000000000000000000e+00
4.280000000000000000e+02,-1.081283798856384148e+00,0.000000000000000000e+00
4.290000000000000000e+02,6.657357448895296903e-01,0.000000000000000000e+00
4.300000000000000000e+02,-8.615064314228161324e-01,0.000000000000000000e+00
4.310000000000000000e+02,6.176246038833103080e-01,0.000000000000000000e+00
4.320000000000000000e+02,2.499525902194560389e-01,0.000000000000000000e+00
4.330000000000000000e+02,6.541051226213373537e-01,0.000000000000000000e+00
4.340000000000000000e+02,-2.257914154194580747e-01,0.000000000000000000e+00
4.350000000000000000e+02,4.540494068169915187e-01,0.000000000000000000e+00
4.360000000000000000e+02,-5.837266517169974467e-01,0.000000000000000000e+00
4.370000000000000000e+02,5.984654916318729589e-02,0.000000000000000000e+00
4.380000000000000000e+02,2.215934213505931227e-01,0.000000000000000000e+00
4.390000000000000000e+02,-1.680489343544997183e-01,0.000000000000000000e+00
4.400000000000000000e+02,-4.873527126104346685e-01,0.000000000000000000e+00
4.410000000000000000e+02,7.971264189809172951e-01,0.000000000000000000e+00
4.420000000000000000e+02,3.072030955360461335e-01,0.000000000000000000e+00
4.430000000000000000e+02,4.310134371323013913e-01,0.000000000000000000e+00
4.440000000000000000e+02,6.242985218072435449e-01,0.000000000000000000e+00
4.450000000000000000e+02,1.747933520809805408e-01,0.000000000000000000e+00
4.460000000000000000e+02,2.104508402552952295e-01,0.000000000000000000e+00
4.470000000000000000e+02,1.555578720090540316e-02,0.000000000000000000e+00
4.480000000000000000e+02,-1.852562207291366669e-01,0.000000000000000000e+00
4.490000000000000000e+02,-6.966987304956052673e-01,0.000000000000000000e+00
4.500000000000000000e+02,1.523278903420783037e-01,0.000000000000000000e+00
4.510000000000000000e+02,-3.957659514189376671e-02,0.000000000000000000e+00
4.520000000000000000e+02,1.300398378005347633e+00,0.000000000000000000e+00
4.530000000000000000e+02,3.204643221343463466e+00,0.000000000000000000e+00
4.540000000000000000e+02,-1.277531794681558974e-01,1.000000000000000000e+00
4.550000000000000000e+02,-6.846817407687005863e-01,0.000000000000000000e+00
4.560000000000000000e+02,-5.335725491340096438e-01,0.000000000000000000e+00
4.570000000000000000e+02,-6.892125195120228920e-01,0.000000000000000000e+00
4.580000000000000000e+02,-6.860046686724080578e-01,0.000000000000000000e+00
4.590000000000000000e+02,-5.145468415582189481e-01,0.000000000000000000e+00
4.600000000000000000e+02,-3.756863897712751921e-02,0.000000000000000000e+00
4.610000000000000000e+02,-3.063430079665478978e-01,0.000000000000000000e+00
4.620000000000000000e+02,5.403805137339384723e-01,0.000000000000000000e+00
4.630000000000000000e+02,-4.454157680246965678e-01,0.000000000000000000e+00
4.640000000000000000e+02,-2.827186702396018436e-01,0.000000000000000000e+00
4.650000000000000000e+02,-3.352869469943145497e-01,0.000000000000000000e+00
4.660000000000000000e+02,1.088278727805242374e+00,0.000000000000000000e+00
4.670000000000000000e+02,2.553206814903483668e-01,0.000000000000000000e+00
4.680000000000000000e+02,7.836376764427580577e-01,0.000000000000000000e+00
4.690000000000000000e+02,6.176719928727290032e-01,0.000000000000000000e+00
4.700000000000000000e+02,-1.070221607555767174e-01,0.000000000000000000e+00
4.710000000000000000e+02,-1.638493989804354345e-01,0.000000000000000000e+00
4.720000000000000000e+02,-5.297058028008950759e-01,0.000000000000000000e+00
4.730000000000000000e+02,-7.672671046296933861e-01,0.000000000000000000e+00
4.740000000000000000e+02,-1.026326294923698867e+00,0.000000000000000000e+00
4.750000000000000000e+02,-7.429175033860653254e-01,0.000000000000000000e+00
4.760000000000000000e+02,-8.782828814343260904e-01,0.000000000000000000e+00
4.770000000000000000e+02,-3.150911440581908307e-01,0.000000000000000000e+00
4.780000000000000000e+02,-2.427167488304306231e-02,0.000000000000000000e+00
4.790000000000000000e+02,-8.335578238289471642e-01,0.000000000000000000e+00
4.800000000000000000e+02,2.956997003325124718e-01,0.000000000000000000e+00
4.810000000000000000e+02,-4.455042199396290203e-01,0.000000000000000000e+00
4.820000000000000000e+02,-3.622793633975180394e-01,0.000000000000000000e+00
4.830000000000000000e+02,-4.421197189238842973e-01,0.000000000000000000e+00
4.840000000000000000e+02,-3.757439859678881056e-01,0.000000000000000000e+00
4.850000000000000000e+02,-6.097959228448133207e-01,0.000000000000000000e+00
4.860000000000000000e+02,1.200785764075778528e-01,0.000000000000000000e+00
4.870000000000000000e+02,-1.924458866635357923e-01,0.000000000000000000e+00
4.880000000000000000e+02,-1.342126799961592121e-01,0.000000000000000000e+00
4.890000000000000000e+02,-2.813402275166676514e-01,0.000000000000000000e+00
4.900000000000000000e+02,1.985090220046181742e-01,0.000000000000000000e+00
4.910000000000000000e+02,-7.006215380084831468e-01,0.000000000000000000e+00
4.920000000000000000e+02,1.745337459413222603e-01,0.000000000000000000e+00
4.930000000000000000e+02,-2.695662981095062749e-01,0.000000000000000000e+00
4.940000000000000000e+02,4.184904463958278864e-01,0.000000000000000000e+00
4.950000000000000000e+02,-6.849069939973705390e-01,0.000000000000000000e+00
4.960000000000000000e+02,9.788130628298298275e-01,0.000000000000000000e+00
4.970000000000000000e+02,1.013943488287719075e-01,0.000000000000000000e+00
4.980000000000000000e+02,-1.036679754597309988e-01,0.000000000000000000e+00
4.990000000000000000e+02,1.846866689177796214e-02,0.000000000000000000e+00
5.000000000000000000e+02,-9.035944912809272811e-01,0.000000000000000000e+00
5.010000000000000000e+02,-2.735543330177556132e-01,0.000000000000000000e+00
5.020000000000000000e+02,-1.172489178412664118e-01,0.000000000000000000e+00
5.030000000000000000e+02,3.068125950592564058e-02,0.000000000000000000e+00
5.040000000000000000e+02,2.685346034216920419e+00,0.000000000000000000e+00
5.050000000000000000e+02,1.166835070927119355e+00,1.000000000000000000e+00
5.060000000000000000e+02,-6.749725989798129877e-01,0.000000000000000000e+00
5.070000000000000000e+02,8.721405700249605653e-02,0.000000000000000000e+00
5.080000000000000000e+02,-4.895717455097856052e-01,0.000000000000000000e+00
5.090000000000000000e+02,1.141627904835664370e-01,0.000000000000000000e+00
5.100000000000000000e+02,-4.225103368027912643e-01,0.000000000000000000e+00
5.110000000000000000e+02,3.296945126976303375e-01,0.000000000000000000e+00
5.120000000000000000e+02,-2.828912068998375440e-01,0.000000000000000000e+00
5.130000000000000000e+02,-4.220831210351240759e-01,0.000000000000000000e+00
5.140000000000000000e+02,1.458306101943529776e-01,0.000000000000000000e+00
5.150000000000000000e+02,1.055880611812369585e+00,0.000000000000000000e+00
5.160000000000000000e+02,-4.048980970607168328e-01,0.000000000000000000e+00
5.170000000000000000e+02,1.205758366071846055e+00,0.000000000000000000e+00
5.180000000000000000e+02,7.853275301605283643e-01,0.000000000000000000e+00
5.190000000000000000e+02,1.382901057728703753e+00,0.000000000000000000e+00
5.200000000000000000e+02,4.725364196295951946e-01,0.000000000000000000e+00
5.210000000000000000e+02,1.410320974228988222e-01,0.000000000000000000e+00
5.220000000000000000e+02,-6.867108857906936148e-01,0.000000000000000000e+00
5.230000000000000000e+02,-5.953681642398791496e-01,0.000000000000000000e+00
5.240000000000000000e+02,-1.508963050627772251e+00,0.000000000000000000e+00
5.250000000000000000e+02,-1.568192523335737720e-01,0.000000000000000000e+00
5.260000000000000000e+02,-3.795458763051831608e-02,0.000000000000000000e+00
5.270000000000000000e+02,-3.926202934001987721e-01,0.000000000000000000e+00
5.280000000000000000e+02,-3.688568651282251865e-01,0.000000000000000000e+00
5.290000000000000000e+02,-2.990677693115005864e-01,0.000000000000000000e+00
5.300000000000000000e+02,-1.151931998894146325e+00,0.000000000000000000e+00
5.310000000000000000e+02,8.774849473474828632e-02,0.000000000000000000e+00
5.320000000000000000e+02,1.813108834661807944e-01,0.000000000000000000e+00
5.330000000000000000e+02,-7.935553657058994625e-01,0.000000000000000000e+00
5.340000000000000000e+02,-7.918246956200672426e-02,0.000000000000000000e+00
5.350000000000000000e+02,4.097097854734829125e-01,0.000000000000000000e+00
5.360000000000000000e+02,-3.250809439983314286e-01,0.000000000000000000e+00
5.370000000000000000e+02,3.608680320469433989e-01,0.000000000000000000e+00
5.380000000000000000e+02,1.338257415736932021e-01,0.000000000000000000e+00
5.390000000000000000e+02,4.746721366686092458e-01,0.000000000000000000e+00
5.400000000000000000e+02,-7.754751213319352465e-02,0.000000000000000000e+00
5.410000000000000000e+02,2.997683070842558362e-01,0.000000000000000000e+00
5.420000000000000000e+02,-9.769846119391514816e-02,0.000000000000000000e+00
5.430000000000000000e+02,6.679339580773344109e-02,0.000000000000000000e+00
5.440000000000000000e+02,-9.760024825767547874e-02,0.000000000000000000e+00
5.450000000000000000e+02,-6.889626643580815113e-01,0.000000000000000000e+00
5.460000000000000000e+02,1.311246531730867471e+00,0.000000000000000000e+00
5.470000000000000000e+02,6.884613782446041830e-01,0.000000000000000000e+00
5.480000000000000000e+02,-4.409002386360989616e-03,0.000000000000000000e+00
5.490000000000000000e+02,6.564069272087943441e-01,0.000000000000000000e+00
5.500000000000000000e+02,-3.174328577021647835e-01,0.000000000000000000e+00
5.510000000000000000e+02,-2.241438715928678604e-01,0.000000000000000000e+00
5.520000000000000000e+02,3.165605813128493096e-01,0.000000000000000000e+00
5.530000000000000000e+02,-9.475245048752833910e-01,0.000000000000000000e+00
5.540000000000000000e+02,1.922761184595447537e+00,0.000000000000000000e+00
5.550000000000000000e+02,2.266569961476279538e+00,0.000000000000000000e+00
5.560000000000000000e+02,3.127449045583856058e-01,1.000000000000000000e+00
5.570000000000000000e+02,-2.672065048743987314e-01,0.000000000000000000e+00
5.580000000000000000e+02,2.901017840713289164e-01,0.000000000000000000e+00
5.590000000000000000e+02,-1.039916457468757383e+00,0.000000000000000000e+00
5.600000000000000000e+02,-6.412380429745143662e-01,0.000000000000000000e+00
5.610000000000000000e+02,1.763424053661046820e-01,0.000000000000000000e+00
5.620000000000000000e+02,-7.210054205865104038e-01,0.000000000000000000e+00
5.630000000000000000e+02,8.560482435215652219e-02,0.000000000000000000e+00
5.640000000000000000e+02,2.457529893682463273e-01,0.000000000000000000e+00
5.650000000000000000e+02,-1.426562245189502698e-01,0.000000000000000000e+00
5.660000000000000000e+02,4.104475850160180794e-01,0.000000000000000000e+00
5.670000000000000000e+02,2.560542103326967078e-01,0.000000000000000000e+00
5.680000000000000000e+02,6.814675309344517817e-01,0.000000000000000000e+00
5.690000000000000000e+02,7.622586908203746736e-01,0.000000000000000000e+00
5.700000000000000000e+02,9.189453346997710215e-01,0.000000000000000000e+00
5.710000000000000000e+02,5.715114742136075954e-01,0.000000000000000000e+00
5.720000000000000000e+02,-3.912885722543211209e-01,0.000000000000000000e+00
5.730000000000000000e+02,-6.039827193503705116e-01,0.000000000000000000e+00
5.740000000000000000e+02,-9.625226174909508325e-02,0.000000000000000000e+00
5.750000000000000000e+02,-2.594991199363960166e-01,0.000000000000000000e+00
5.760000000000000000e+02,-5.363520938858948872e-01,0.000000000000000000e+00
5.770000000000000000e+02,-7.980558990447048640e-01,0.000000000000000000e+00
5.780000000000000000e+02,-6.976671647293193335e-01,0.000000000000000000e+00
5.790000000000000000e+02,-1.839016129714949876e-01,0.000000000000000000e+00
5.800000000000000000e+02,-8.381004020159636969e-01,0.000000000000000000e+00
5.810000000000000000e+02,4.675882015527687008e-01,0.000000000000000000e+00
5.820000000000000000e+02,7.237087087532143581e-01,0.000000000000000000e+00
5.830000000000000000e+02,-7.441418879102439377e-01,0.000000000000000000e+00
5.840000000000000000e+02,1.871170420303394644e-01,0.000000000000000000e+00
5.850000000000000000e+02,2.263214989482027206e-01,0.000000000000000000e+00
5.860000000000000000e+02,-2.719730983953506653e-01,0.000000000000000000e+00
5.870000000000000000e+02,-2.628708328891419810e-01,0.000000000000000000e+00
5.880000000000000000e+02,6.639686106446420766e-01,0.000000000000000000e+00
5.890000000000000000e+02,-6.239092762529077074e-01,0.000000000000000000e+00
5.900000000000000000e+02,9.628332397289227629e-01,0.000000000000000000e+00
5.910000000000000000e+02,1.661734678465016934e-01,0.000000000000000000e+00
5.920000000000000000e+02,5.886252567566363069e-04,0.000000000000000000e+00
5.930000000000000000e+02,1.248220735338099845e-02,0.000000000000000000e+00
5.940000000000000000e+02,-1.270686231520321563e-01,0.000000000000000000e+00
5.950000000000000000e+02,7.219874967178935288e-01,0.000000000000000000e+00
5.960000000000000000e+02,7.760874970693306674e-01,0.000000000000000000e+00
5.970000000000000000e+02,5.831032202519588481e-02,0.000000000000000000e+00
5.980000000000000000e+02,-4.549991268077367423e-01,0.000000000000000000e+00
5.990000000000000000e+02,-7.847224888462689396e-02,0.000000000000000000e+00
6.000000000000000000e+02,-1.733390602530871794e-01,0.000000000000000000e+00
6.010000000000000000e+02,-8.138019402812285419e-01,0.000000000000000000e+00
6.020000000000000000e+02,7.776066149686268192e-01,0.000000000000000000e+00
6.030000000000000000e+02,-3.171612818438484527e-01,0.000000000000000000e+00
6.040000000000000000e+02,6.883864317087892148e-01,0.000000000000000000e+00
6.050000000000000000e+02,2.868839679203143866e+00,0.000000000000000000e+00
6.060000000000000000e+02,-1.752584467249434508e-01,1.000000000000000000e+00
6.070000000000000000e+02,-5.073553596004567456e-01,0.000000000000000000e+00
6.080000000000000000e+02,-2.806015650679039020e+00,0.000000000000000000e+00
6.090000000000000000e+02,-5.493585772993394567e-01,0.000000000000000000e+00
6.100000000000000000e+02,-1.078433620402218240e+00,0.000000000000000000e+00
6.110000000000000000e+02,2.688536524719303648e-03,0.000000000000000000e+00
6.120000000000000000e+02,-1.956388924740331756e-02,0.000000000000000000e+00
6.130000000000000000e+02,-6.580315932211315832e-01,0.000000000000000000e+00
6.140000000000000000e+02,-6.426153558315025327e-01,0.000000000000000000e+00
6.150000000000000000e+02,-1.421848228310258921e+00,0.000000000000000000e+00
6.160000000000000000e+02,1.549807286675004281e-01,0.000000000000000000e+00
6.170000000000000000e+02,-1.684479675884870964e-01,0.000000000000000000e+00
6.180000000000000000e+02,7.729699971660577429e-01,0.000000000000000000e+00
6.190000000000000000e+02,3.677122305773990463e-01,0.000000000000000000e+00
6.200000000000000000e+02,7.818909928021555711e-01,0.000000000000000000e+00
6.210000000000000000e+02,4.777857204348682219e-01,0.000000000000000000e+00
6.220000000000000000e+02,-2.379417778088716295e-01,0.000000000000000000e+00
6.230000000000000000e+02,-5.498825365242049346e-01,0.000000000000000000e+00
6.240000000000000000e+02,-8.244975573048643480e-02,0.000000000000000000e+00
6.250000000000000000e+02,-5.321482318667446476e-01,0.000000000000000000e+00
6.260000000000000000e+02,-4.400048291690986102e-01,0.000000000000000000e+00
6.270000000000000000e+02,-6.024774583185171783e-01,0.000000000000000000e+00
6.280000000000000000e+02,-1.629238160440723282e-01,0.000000000000000000e+00
6.290000000000000000e+02,-5.650493123237378956e-01,0.000000000000000000e+00
6.300000000000000000e+02,2.896364849471881886e-01,0.000000000000000000e+00
6.310000000000000000e+02,-1.588425319503733446e-01,0.000000000000000000e+00
6.320000000000000000e+02,-6.350870859969812710e-01,0.000000000000000000e+00
6.330000000000000000e+02,-2.520747057386087397e-01,0.000000000000000000e+00
6.340000000000000000e+02,1.228156563338722584e-01,0.000000000000000000e+00
6.350000000000000000e+02,2.672657810501555264e-01,0.000000000000000000e+00
6.360000000000000000e+02,2.177207087555331488e-01,0.000000000000000000e+00
6.370000000000000000e+02,7.037414320582645599e-01,0.000000000000000000e+00
6.380000000000000000e+02,-1.897806022551633554e-01,0.000000000000000000e+00
6.390000000000000000e+02,8.496829982340253773e-02,0.000000000000000000e+00
6.400000000000000000e+02,6.347681841476896514e-01,0.000000000000000000e+00
6.410000000000000000e+02,1.609148895956132308e-01,0.000000000000000000e+00
6.420000000000000000e+02,-7.002770518143981437e-01,0.000000000000000000e+00
6.430000000000000000e+02,8.479337620548553778e-01,0.000000000000000000e+00
6.440000000000000000e+02,9.187080003593377509e-01,0.000000000000000000e+00
6.450000000000000000e+02,1.063949814764205692e+00,0.000000000000000000e+00
6.460000000000000000e+02,1.819491899544359303e-01,0.000000000000000000e+00
6.470000000000000000e+02,5.400317549782736037e-01,0.000000000000000000e+00
6.480000000000000000e+02,-3.498159289628044455e-03,0.000000000000000000e+00
6.490000000000000000e+02,7.690171212773740939e-01,0.000000000000000000e+00
6.500000000000000000e+02,-1.091338161460271294e+00,0.000000000000000000e+00
6.510000000000000000e+02,-2.571955317667035668e-01,0.000000000000000000e+00
6.520000000000000000e+02,4.685058626395964265e-01,0.000000000000000000e+00
6.530000000000000000e+02,-4.316993485436949607e-01,0.000000000000000000e+00
6.540000000000000000e+02,6.085451558911996184e-01,0.000000000000000000e+00
6.550000000000000000e+02,3.182833512200049508e+00,0.000000000000000000e+00
6.560000000000000000e+02,1.334312493485271700e+00,1.000000000000000000e+00
6.570000000000000000e+02,-4.240524576733228357e-01,0.000000000000000000e+00
6.580000000000000000e+02,-9.803440597762579090e-02,0.000000000000000000e+00
6.590000000000000000e+02,-1.667999240442886055e+00,0.000000000000000000e+00
6.600000000000000000e+02,3.238941579530882353e-01,0.000000000000000000e+00
6.610000000000000000e+02,-5.963287642961864199e-01,0.000000000000000000e+00
6.620000000000000000e+02,-5.699137305596616576e-01,0.000000000000000000e+00
6.630000000000000000e+02,-1.185163487255584819e-01,0.000000000000000000e+00
6.640000000000000000e+02,-1.978623196805114337e-01,0.000000000000000000e+00
6.650000000000000000e+02,4.198773950807608846e-01,0.000000000000000000e+00
6.660000000000000000e+02,-7.463395427946362126e-02,0.000000000000000000e+00
6.670000000000000000e+02,1.666893764285784507e-01,0.000000000000000000e+00
6.680000000000000000e+02,1.461922628693541337e-01,0.000000000000000000e+00
6.690000000000000000e+02,-4.442114922238927233e-01,0.000000000000000000e+00
6.700000000000000000e+02,1.281275980557170513e+00,0.000000000000000000e+00
6.710000000000000000e+02,9.652572891725140769e-01,0.000000000000000000e+00
6.720000000000000000e+02,1.708716689509232611e-01,0.000000000000000000e+00
6.730000000000000000e+02,-1.223346366372104338e-01,0.000000000000000000e+00
6.740000000000000000e+02,-3.577575519195211329e-01,0.000000000000000000e+00
6.750000000000000000e+02,-6.971395097228267890e-01,0.000000000000000000e+00
6.760000000000000000e+02,-1.259825048599129582e+00,0.000000000000000000e+00
6.770000000000000000e+02,-1.090895989059720961e+00,0.000000000000000000e+00
6.780000000000000000e+02,-4.759640420118663173e-01,0.000000000000000000e+00
6.790000000000000000e+02,-8.056312306132110482e-04,0.000000000000000000e+00
6.800000000000000000e+02,-1.239013535969330837e+00,0.000000000000000000e+00
6.810000000000000000e+02,5.196072131410772732e-01,0.000000000000000000e+00
6.820000000000000000e+02,-9.035646957294009018e-01,0.000000000000000000e+00
6.830000000000000000e+02,4.738133320324545150e-01,0.000000000000000000e+00
6.840000000000000000e+02,-4.880284234017836509e-01,0.000000000000000000e+00
6.850000000000000000e+02,-1.424968695789569084e-01,0.000000000000000000e+00
6.860000000000000000e+02,-4.748045313215970564e-01,0.000000000000000000e+00
6.870000000000000000e+02,-5.310988216669962347e-02,0.000000000000000000e+00
6.880000000000000000e+02,-2.974616584791247020e-01,0.000000000000000000e+00
6.890000000000000000e+02,-2.821131858827725658e-01,0.000000000000000000e+00
6.900000000000000000e+02,-5.919152672697785000e-01,0.000000000000000000e+00
6.910000000000000000e+02,2.687807040945263126e-01,0.000000000000000000e+00
6.920000000000000000e+02,1.761547702840010055e-01,0.000000000000000000e+00
6.930000000000000000e+02,-3.548772625428714411e-01,0.000000000000000000e+00
6.940000000000000000e+02,-7.394368335341869880e-01,0.000000000000000000e+00
6.950000000000000000e+02,3.835651710739547138e-01,0.000000000000000000e+00
6.960000000000000000e+02,-3.267377555386118126e-02,0.000000000000000000e+00
6.970000000000000000e+02,1.047072350290426668e+00,0.000000000000000000e+00
6.980000000000000000e+02,-1.607826304890100089e-01,0.000000000000000000e+00
6.990000000000000000e+02,-8.781924327887728754e-02,0.000000000000000000e+00
7.000000000000000000e+02,-6.449058772449278720e-01,0.000000000000000000e+00
7.010000000000000000e+02,-1.595299054020098417e-01,0.000000000000000000e+00
7.020000000000000000e+02,-5.057257967759294370e-01,0.000000000000000000e+00
7.030000000000000000e+02,1.342152835082581486e-01,0.000000000000000000e+00
7.040000000000000000e+02,-1.876798742184336288e-01,0.000000000000000000e+00
7.050000000000000000e+02,3.153233569782825096e+00,0.000000000000000000e+00
7.060000000000000000e+02,4.243595256194622745e-01,1.000000000000000000e+00
7.070000000000000000e+02,-9.587272893095293291e-01,0.000000000000000000e+00
7.080000000000000000e+02,-1.090871956249855612e-01,0.000000000000000000e+00
7.090000000000000000e+02,-7.199731209747839422e-01,0.000000000000000000e+00
7.100000000000000000e+02,-5.694824166701657475e-01,0.000000000000000000e+00
7.110000000000000000e+02,-4.617150270161744507e-01,0.000000000000000000e+00
7.120000000000000000e+02,-1.120810489328809556e-01,0.000000000000000000e+00
7.130000000000000000e+02,1.384869530896080392e-01,0.000000000000000000e+00
7.140000000000000000e+02,-8.570248127702119467e-02,0.000000000000000000e+00
7.150000000000000000e+02,-3.605293288188762824e-02,0.000000000000000000e+00
7.160000000000000000e+02,3.237444608302438298e-01,0.000000000000000000e+00
7.170000000000000000e+02,2.301432828313800805e-01,0.000000000000000000e+00
7.180000000000000000e+02,6.459647606930989383e-01,0.000000000000000000e+00
7.190000000000000000e+02,7.751257137654962159e-01,0.000000000000000000e+00
7.200000000000000000e+02,2.863851077765960929e-01,0.000000000000000000e+00
7.210000000000000000e+02,1.267044163518982636e+00,0.000000000000000000e+00
7.220000000000000000e+02,1.012947489050167182e-01,0.000000000000000000e+00
7.230000000000000000e+02,-3.303361214290836956e-01,0.000000000000000000e+00
7.240000000000000000e+02,-7.675702807664819272e-02,0.000000000000000000e+00
7.250000000000000000e+02,-8.454001368136042638e-01,0.000000000000000000e+00
7.260000000000000000e+02,-4.148465687628185017e-01,0.000000000000000000e+00
7.270000000000000000e+02,-5.289387304275782187e-01,0.000000000000000000e+00
7.280000000000000000e+02,-1.143699137959927059e+00,0.000000000000000000e+00
7.290000000000000000e+02,-6.613183712585656293e-01,0.000000000000000000e+00
7.300000000000000000e+02,-1.359360559715876993e-01,0.000000000000000000e+00
7.310000000000000000e+02,-2.869552022544906156e-01,0.000000000000000000e+00
7.320000000000000000e+02,4.816502016908220662e-01,0.000000000000000000e+00
7.330000000000000000e+02,6.951961622576929845e-02,0.000000000000000000e+00
7.340000000000000000e+02,-2.077253284577704473e-01,0.000000000000000000e+00
7.350000000000000000e+02,1.690441541041794449e-01,0.000000000000000000e+00
7.360000000000000000e+02,-4.741700779924036824e-01,0.000000000000000000e+00
7.370000000000000000e+02,-3.690673447315909739e-01,0.000000000000000000e+00
7.380000000000000000e+02,-2.031953148265489284e-01,0.000000000000000000e+00
7.390000000000000000e+02,-1.637522535836746784e-02,0.000000000000000000e+00
7.400000000000000000e+02,2.180735134716686729e-01,0.000000000000000000e+00
7.410000000000000000e+02,7.668546191026398562e-01,0.000000000000000000e+00
7.420000000000000000e+02,5.926535306105562562e-02,0.000000000000000000e+00
7.430000000000000000e+02,7.498270375140884125e-01,0.000000000000000000e+00
7.440000000000000000e+02,9.479664402602218376e-02,0.000000000000000000e+00
7.450000000000000000e+02,1.320432604605049631e-01,0.000000000000000000e+00
7.460000000000000000e+02,8.851646433754744026e-01,0.000000000000000000e+00
7.470000000000000000e+02,5.755656722743147657e-01,0.000000000000000000e+00
7.480000000000000000e+02,-7.140141865754416617e-02,0.000000000000000000e+00
7.490000000000000000e+02,-1.844937281961483433e-01,0.000000000000000000e+00
7.500000000000000000e+02,1.896005363121148479e-01,0.000000000000000000e+00
7.510000000000000000e+02,4.679372252298097390e-01,0.000000000000000000e+00
7.520000000000000000e+02,1.604381378315274387e-01,0.000000000000000000e+00
7.530000000000000000e+02,3.244062791803493107e-01,0.000000000000000000e+00
7.540000000000000000e+02,2.816280866708154917e+00,0.000000000000000000e+00
7.550000000000000000e+02,2.190731005493893768e+00,0.000000000000000000e+00
7.560000000000000000e+02,-3.345612822844885176e-02,1.000000000000000000e+00
7.570000000000000000e+02,-6.435501308472573179e-01,0.000000000000000000e+00
7.580000000000000000e+02,-1.568601937448436123e+00,0.000000000000000000e+00
7.590000000000000000e+02,-3.344576054009282817e-01,0.000000000000000000e+00
7.600000000000000000e+02,-2.848455952839908378e-01,0.000000000000000000e+00
7.610000000000000000e+02,1.699504503656567300e-01,0.000000000000000000e+00
7.620000000000000000e+02,5.952253775122374330e-02,0.000000000000000000e+00
7.630000000000000000e+02,-2.827559543612425119e-01,0.000000000000000000e+00
7.640000000000000000e+02,7.165111078477824913e-01,0.000000000000000000e+00
7.650000000000000000e+02,2.036231750600765167e-01,0.000000000000000000e+00
7.660000000000000000e+02,-6.384755546271864146e-01,0.000000000000000000e+00
7.670000000000000000e+02,-2.624097789596876451e-01,0.000000000000000000e+00
7.680000000000000000e+02,6.619061484613861235e-02,0.000000000000000000e+00
7.690000000000000000e+02,7.269152243265738500e-01,0.000000000000000000e+00
7.700000000000000000e+02,7.412851583853043991e-01,0.000000000000000000e+00
7.710000000000000000e+02,1.071033954744671890e+00,0.000000000000000000e+00
7.720000000000000000e+02,-5.541101392844114404e-01,0.000000000000000000e+00
7.730000000000000000e+02,-5.356990346658949687e-01,0.000000000000000000e+00
7.740000000000000000e+02,-1.066722798875537892e+00,0.000000000000000000e+00
7.750000000000000000e+02,-4.485296839177607686e-01,0.000000000000000000e+00
7.760000000000000000e+02,-1.432276456447035606e+00,0.000000000000000000e+00
7.770000000000000000e+02,-6.065995766310122717e-01,0.000000000000000000e+00
7.780000000000000000e+02,-1.235427439603783206e+00,0.000000000000000000e+00
7.790000000000000000e+02,-1.111880929810237367e-01,0.000000000000000000e+00
7.800000000000000000e+02,-3.696493077854547393e-01,0.000000000000000000e+00
7.810000000000000000e+02,-4.076413785440731186e-01,0.000000000000000000e+00
7.820000000000000000e+02,5.776352730337845631e-02,0.000000000000000000e+00
7.830000000000000000e+02,-5.008842428401149016e-01,0.000000000000000000e+00
7.840000000000000000e+02,-7.091853665802928808e-02,0.000000000000000000e+00
7.850000000000000000e+02,-5.890067907897074129e-01,0.000000000000000000e+00
7.860000000000000000e+02,-9.131688264196172744e-01,0.000000000000000000e+00
7.870000000000000000e+02,1.900244266343105726e-01,0.000000000000000000e+00
7.880000000000000000e+02,7.571496414754010085e-02,0.000000000000000000e+00
7.890000000000000000e+02,-2.622889075772932288e-01,0.000000000000000000e+00
7.900000000000000000e+02,-1.551497092513862662e-02,0.000000000000000000e+00
7.910000000000000000e+02,3.504453329719195431e-01,0.000000000000000000e+00
7.920000000000000000e+02,3.673386945936826242e-01,0.000000000000000000e+00
7.930000000000000000e+02,4.209655012281264541e-02,0.000000000000000000e+00
7.940000000000000000e+02,1.656518290984839437e-01,0.000000000000000000e+00
7.950000000000000000e+02,-9.594569179067106157e-01,0.000000000000000000e+00
7.960000000000000000e+02,1.435471665368862615e+00,0.000000000000000000e+00
7.970000000000000000e+02,8.398153996200270477e-01,0.000000000000000000e+00
7.980000000000000000e+02,-1.480815373774957977e-01,0.000000000000000000e+00
7.990000000000000000e+02,6.281704819482830660e-01,0.000000000000000000e+00
8.000000000000000000e+02,-1.128421122373212820e-01,0.000000000000000000e+00
8.010000000000000000e+02,3.872374597575248267e-02,0.000000000000000000e+00
8.020000000000000000e+02,5.470017478227618968e-01,0.000000000000000000e+00
8.030000000000000000e+02,2.279852739944247642e+00,0.000000000000000000e+00
8.040000000000000000e+02,2.129218061743645585e+00,0.000000000000000000e+00
8.050000000000000000e+02,-2.723440643106750381e-01,1.000000000000000000e+00
8.060000000000000000e+02,-3.015071122710233364e-01,0.000000000000000000e+00
8.070000000000000000e+02,9.130252300874575067e-02,0.000000000000000000e+00
8.080000000000000000e+02,-2.612573614327913796e-01,0.000000000000000000e+00
8.090000000000000000e+02,-1.625716980151445945e+00,0.000000000000000000e+00
8.100000000000000000e+02,5.008481876569390590e-01,0.000000000000000000e+00
8.110000000000000000e+02,-6.814738453085612546e-01,0.000000000000000000e+00
8.120000000000000000e+02,-2.458750168901537858e-01,0.000000000000000000e+00
8.130000000000000000e+02,-5.036955097837716999e-02,0.000000000000000000e+00
8.140000000000000000e+02,5.703638989145718430e-01,0.000000000000000000e+00
8.150000000000000000e+02,3.497365647396852989e-02,0.000000000000000000e+00
8.160000000000000000e+02,7.691798185447175085e-01,0.000000000000000000e+00
8.170000000000000000e+02,2.028574566990027916e-01,0.000000000000000000e+00
8.180000000000000000e+02,6.831819543379831217e-01,0.000000000000000000e+00
8.190000000000000000e+02,8.433941878427937411e-01,0.000000000000000000e+00
8.200000000000000000e+02,1.723078739524871450e-01,0.000000000000000000e+00
8.210000000000000000e+02,-4.055915982808456360e-02,0.000000000000000000e+00
8.220000000000000000e+02,-4.968942056385832751e-01,0.000000000000000000e+00
8.230000000000000000e+02,-5.147967256534861091e-01,0.000000000000000000e+00
8.240000000000000000e+02,-4.696406440145122207e-01,0.000000000000000000e+00
8.250000000000000000e+02,-4.111695153271307385e-02,0.000000000000000000e+00
8.260000000000000000e+02,-4.281579547800755670e-01,0.000000000000000000e+00
8.270000000000000000e+02,-1.891460849146094428e-02,0.000000000000000000e+00
8.280000000000000000e+02,-4.840308364131264973e-01,0.000000000000000000e+00
8.290000000000000000e+02,-7.621921719996003208e-01,0.000000000000000000e+00
8.300000000000000000e+02,-6.903196610638203667e-01,0.000000000000000000e+00
8.310000000000000000e+02,6.759218223962063510e-01,0.000000000000000000e+00
8.320000000000000000e+02,-4.791864284088678261e-01,0.000000000000000000e+00
8.330000000000000000e+02,2.359500423654151136e-01,0.000000000000000000e+00
8.340000000000000000e+02,-4.516259610338493879e-01,0.000000000000000000e+00
8.350000000000000000e+02,7.262273433318605642e-01,0.000000000000000000e+00
8.360000000000000000e+02,-1.357737325361689118e+00,0.000000000000000000e+00
8.370000000000000000e+02,1.202804623292142161e-01,0.000000000000000000e+00
8.380000000000000000e+02,-2.679927734917972870e-01,0.000000000000000000e+00
8.390000000000000000e+02,-1.164917229171636842e-01,0.000000000000000000e+00
8.400000000000000000e+02,-5.400854058985768980e-01,0.000000000000000000e+00
8.410000000000000000e+02,5.411072277301882671e-01,0.000000000000000000e+00
8.420000000000000000e+02,7.213313594131530726e-01,0.000000000000000000e+00
8.430000000000000000e+02,-8.325706589333356500e-02,0.000000000000000000e+00
8.440000000000000000e+02,2.355873664097638820e-01,0.000000000000000000e+00
8.450000000000000000e+02,-6.548559665481057390e-02,0.000000000000000000e+00
8.460000000000000000e+02,-5.633933077222188501e-01,0.000000000000000000e+00
8.470000000000000000e+02,-6.458197895924158161e-01,0.000000000000000000e+00
8.480000000000000000e+02,-2.683949194446617614e-01,0.000000000000000000e+00
8.490000000000000000e+02,5.324474342661840165e-01,0.000000000000000000e+00
8.500000000000000000e+02,1.029048971351576025e-01,0.000000000000000000e+00
8.510000000000000000e+02,2.128218953329621410e+00,0.000000000000000000e+00
8.520000000000000000e+02,3.075962743941892175e+00,0.000000000000000000e+00
8.530000000000000000e+02,-1.136665216190111682e-01,1.000000000000000000e+00
8.540000000000000000e+02,-1.696990508188487734e+00,0.000000000000000000e+00
8.550000000000000000e+02,-8.592145505525096150e-01,0.000000000000000000e+00
8.560000000000000000e+02,-8.108799736981743278e-01,0.000000000000000000e+00
8.570000000000000000e+02,-1.493111489560986493e+00,0.000000000000000000e+00
8.580000000000000000e+02,-2.104441815324541720e-01,0.000000000000000000e+00
8.590000000000000000e+02,-9.279611524361745800e-02,0.000000000000000000e+00
8.600000000000000000e+02,4.785485443170728326e-02,0.000000000000000000e+00
8.610000000000000000e+02,-6.120489740243943988e-01,0.000000000000000000e+00
8.620000000000000000e+02,-2.959435750937511322e-01,0.000000000000000000e+00
8.630000000000000000e+02,-4.257678883405148496e-02,0.000000000000000000e+00
8.640000000000000000e+02,4.965448366666368463e-01,0.000000000000000000e+00
8.650000000000000000e+02,3.357010344794182921e-01,0.000000000000000000e+00
8.660000000000000000e+02,1.116039111908017079e-01,0.000000000000000000e+00
8.670000000000000000e+02,7.005811453290397006e-01,0.000000000000000000e+00
8.680000000000000000e+02,-1.164575295077397571e-01,0.000000000000000000e+00
8.690000000000000000e+02,-1.984821565596490978e-01,0.000000000000000000e+00
8.700000000000000000e+02,-4.184099626240165293e-01,0.000000000000000000e+00
8.710000000000000000e+02,1.556159275719836699e-01,0.000000000000000000e+00
8.720000000000000000e+02,-5.999034520783179669e-01,0.000000000000000000e+00
8.730000000000000000e+02,3.461960457722402240e-01,0.000000000000000000e+00
8.740000000000000000e+02,-7.787370000854600960e-01,0.000000000000000000e+00
8.750000000000000000e+02,-1.192950864956932255e+00,0.000000000000000000e+00
8.760000000000000000e+02,5.633342039363100490e-02,0.000000000000000000e+00
8.770000000000000000e+02,-2.224640886725439970e-01,0.000000000000000000e+00
8.780000000000000000e+02,-3.443432203567748512e-02,0.000000000000000000e+00
8.790000000000000000e+02,5.419785019675146254e-01,0.000000000000000000e+00
8.800000000000000000e+02,-3.715011507392612100e-01,0.000000000000000000e+00
8.810000000000000000e+02,6.113746550626445453e-01,0.000000000000000000e+00
8.820000000000000000e+02,-6.179531197534975373e-01,0.000000000000000000e+00
8.830000000000000000e+02,5.402525597618599296e-01,0.000000000000000000e+00
8.840000000000000000e+02,-2.986211200139807787e-01,0.000000000000000000e+00
8.850000000000000000e+02,-2.898698338298371854e-02,0.000000000000000000e+00
8.860000000000000000e+02,1.492624942638887398e-01,0.000000000000000000e+00
8.870000000000000000e+02,-6.612578663284959801e-02,0.000000000000000000e+00
8.880000000000000000e+02,3.763255047616632099e-01,0.000000000000000000e+00
8.890000000000000000e+02,3.984632956505061996e-01,0.000000000000000000e+00
8.900000000000000000e+02,3.567511982195339937e-01,0.000000000000000000e+00
8.910000000000000000e+02,1.863031248298043507e-01,0.000000000000000000e+00
8.920000000000000000e+02,-1.543785914232753687e-01,0.000000000000000000e+00
8.930000000000000000e+02,5.022798510564413510e-01,0.000000000000000000e+00
8.940000000000000000e+02,6.178198312184125518e-01,0.000000000000000000e+00
8.950000000000000000e+02,-5.587503832720934760e-01,0.000000000000000000e+00
8.960000000000000000e+02,4.043089469019322535e-01,0.000000000000000000e+00
8.970000000000000000e+02,-2.861790459812406096e-01,0.000000000000000000e+00
8.980000000000000000e+02,2.343788084847529540e-01,0.000000000000000000e+00
8.990000000000000000e+02,1.604855833709183388e+00,0.000000000000000000e+00
9.000000000000000000e+02,2.709659877437208930e+00,0.000000000000000000e+00
9.010000000000000000e+02,-8.823888853929154896e-01,1.000000000000000000e+00
9.020000000000000000e+02,-3.117666629314954641e-01,0.000000000000000000e+00
9.030000000000000000e+02,-4.106459975464216705e-01,0.000000000000000000e+00
9.040000000000000000e+02,-9.861994007957787245e-01,0.000000000000000000e+00
9.050000000000000000e+02,3.755705938540396804e-01,0.000000000000000000e+00
9.060000000000000000e+02,-7.039080288023387144e-01,0.000000000000000000e+00
9.070000000000000000e+02,4.578969768623731285e-01,0.000000000000000000e+00
9.080000000000000000e+02,-6.762847313409705574e-01,0.000000000000000000e+00
9.090000000000000000e+02,1.298145063599884519e-01,0.000000000000000000e+00
9.100000000000000000e+02,-3.686928774358541050e-01,0.000000000000000000e+00
9.110000000000000000e+02,2.803232135942327896e-01,0.000000000000000000e+00
9.120000000000000000e+02,4.487823479744598165e-01,0.000000000000000000e+00
9.130000000000000000e+02,8.039929679475697755e-02,0.000000000000000000e+00
9.140000000000000000e+02,8.892026589971226969e-01,0.000000000000000000e+00
9.150000000000000000e+02,1.119276258220814668e+00,0.000000000000000000e+00
9.160000000000000000e+02,8.585380708523032700e-01,0.000000000000000000e+00
9.170000000000000000e+02,5.316640442122886473e-02,0.000000000000000000e+00
9.180000000000000000e+02,-1.002099659599802406e+00,0.000000000000000000e+00
9.190000000000000000e+02,2.146897605751275917e-02,0.000000000000000000e+00
9.200000000000000000e+02,-9.700495230381295242e-01,0.000000000000000000e+00
9.210000000000000000e+02,-7.906364399857346292e-01,0.000000000000000000e+00
9.220000000000000000e+02,-3.553771268350107704e-01,0.000000000000000000e+00
9.230000000000000000e+02,-1.272380214527918829e+00,0.000000000000000000e+00
9.240000000000000000e+02,2.751295882075166510e-01,0.000000000000000000e+00
9.250000000000000000e+02,-9.039097222579521584e-02,0.000000000000000000e+00
9.260000000000000000e+02,3.582790736757068273e-01,0.000000000000000000e+00
9.270000000000000000e+02,-1.123831321406825179e-01,0.000000000000000000e+00
9.280000000000000000e+02,-4.240097316446366782e-01,0.000000000000000000e+00
9.290000000000000000e+02,-6.064443135228890780e-01,0.000000000000000000e+00
9.300000000000000000e+02,-7.261453180196750928e-03,0.000000000000000000e+00
9.310000000000000000e+02,-8.558108786592638628e-01,0.000000000000000000e+00
9.320000000000000000e+02,1.930249216035892501e-01,0.000000000000000000e+00
9.330000000000000000e+02,2.666041073391919869e-01,0.000000000000000000e+00
9.340000000000000000e+02,3.241528427176044724e-01,0.000000000000000000e+00
9.350000000000000000e+02,-2.092188449109747272e-01,0.000000000000000000e+00
9.360000000000000000e+02,-2.990583225956232050e-01,0.000000000000000000e+00
9.370000000000000000e+02,-3.309038137515439293e-01,0.000000000000000000e+00
9.380000000000000000e+02,4.210543257128354089e-01,0.000000000000000000e+00
9.390000000000000000e+02,6.242019112912772227e-01,0.000000000000000000e+00
9.400000000000000000e+02,-7.366167904365652497e-01,0.000000000000000000e+00
9.410000000000000000e+02,-1.392295032697746585e-02,0.000000000000000000e+00
9.420000000000000000e+02,5.850690904556742344e-01,0.000000000000000000e+00
9.430000000000000000e+02,-5.831399551240775692e-01,0.000000000000000000e+00
9.440000000000000000e+02,-2.277372356841099732e-01,0.000000000000000000e+00
9.450000000000000000e+02,1.309960268025907260e+00,0.000000000000000000e+00
9.460000000000000000e+02,2.788220940411657800e+00,0.000000000000000000e+00
9.470000000000000000e+02,-4.947750682206956130e-01,1.000000000000000000e+00
9.480000000000000000e+02,-6.186690335310132127e-01,0.000000000000000000e+00
9.490000000000000000e+02,-1.520850239318633779e-01,0.000000000000000000e+00
9.500000000000000000e+02,-8.682083820097936666e-01,0.000000000000000000e+00
9.510000000000000000e+02,-1.450961323225727628e-01,0.000000000000000000e+00
9.520000000000000000e+02,-1.075774112209548328e+00,0.000000000000000000e+00
9.530000000000000000e+02,1.762395516267997383e-02,0.000000000000000000e+00
9.540000000000000000e+02,-4.262796580632219889e-01,0.000000000000000000e+00
9.550000000000000000e+02,4.912986997859262184e-01,0.000000000000000000e+00
9.560000000000000000e+02,-3.743899663143016032e-02,0.000000000000000000e+00
9.570000000000000000e+02,3.284254696608953084e-01,0.000000000000000000e+00
9.580000000000000000e+02,4.594477228876200359e-01,0.000000000000000000e+00
9.590000000000000000e+02,2.844163406019845075e-01,0.000000000000000000e+00
9.600000000000000000e+02,6.137735978236332768e-01,0.000000000000000000e+00
9.610000000000000000e+02,7.387815701659840029e-01,0.000000000000000000e+00
9.620000000000000000e+02,-2.341202348603397265e-01,0.000000000000000000e+00
9.630000000000000000e+02,2.518790555007652254e-01,0.000000000000000000e+00
9.640000000000000000e+02,-6.267723850831260490e-01,0.000000000000000000e+00
9.650000000000000000e+02,-4.844294257149926036e-02,0.000000000000000000e+00
9.660000000000000000e+02,-1.797474836404849841e-01,0.000000000000000000e+00
9.670000000000000000e+02,-5.886920552778127647e-01,0.000000000000000000e+00
9.680000000000000000e+02,-9.060292223177899285e-01,0.000000000000000000e+00
9.690000000000000000e+02,-3.853255858733923289e-01,0.000000000000000000e+00
9.700000000000000000e+02,-5.625444235196270792e-01,0.000000000000000000e+00
9.710000000000000000e+02,-1.007408975128039064e+00,0.000000000000000000e+00
9.720000000000000000e+02,1.528678750451770985e-01,0.000000000000000000e+00
9.730000000000000000e+02,-7.917719003877332629e-02,0.000000000000000000e+00
9.740000000000000000e+02,3.434656082565055168e-01,0.000000000000000000e+00
9.750000000000000000e+02,2.133095676348506498e-01,0.000000000000000000e+00
9.760000000000000000e+02,-1.925432654045664549e-01,0.000000000000000000e+00
9.770000000000000000e+02,-5.131317979947657149e-01,0.000000000000000000e+00
9.780000000000000000e+02,5.916208229329668333e-02,0.000000000000000000e+00
9.790000000000000000e+02,-2.730949513184390276e-01,0.000000000000000000e+00
9.800000000000000000e+02,1.602906942289789305e-01,0.000000000000000000e+00
9.810000000000000000e+02,-1.278106604576110805e-01,0.000000000000000000e+00
9.820000000000000000e+02,4.890673381997390212e-01,0.000000000000000000e+00
9.830000000000000000e+02,-1.401923332009032963e-01,0.000000000000000000e+00
9.840000000000000000e+02,2.805418782160906122e-01,0.000000000000000000e+00
9.850000000000000000e+02,1.252487391704074859e+00,0.000000000000000000e+00
9.860000000000000000e+02,-7.847806185135777213e-01,0.000000000000000000e+00
9.870000000000000000e+02,2.528349324585975610e-01,0.000000000000000000e+00
9.880000000000000000e+02,-2.841745750812988969e-01,0.000000000000000000e+00
9.890000000000000000e+02,4.114674214114213968e-01,0.000000000000000000e+00
9.900000000000000000e+02,-2.957452660239354159e-02,0.000000000000000000e+00
9.910000000000000000e+02,1.335122270207923956e+00,0.000000000000000000e+00
9.920000000000000000e+02,2.752851129332193114e+00,0.000000000000000000e+00
9.930000000000000000e+02,-2.582534986858922577e-01,1.000000000000000000e+00
9.940000000000000000e+02,-1.322363399632386638e-01,0.000000000000000000e+00
9.950000000000000000e+02,-6.245996217334048861e-01,0.000000000000000000e+00
9.960000000000000000e+02,-4.423067766927127331e-01,0.000000000000000000e+00
9.970000000000000000e+02,2.312377858585533685e-01,0.000000000000000000e+00
9.980000000000000000e+02,-7.031066250944422169e-01,0.000000000000000000e+00
9.990000000000000000e+02,-1.691538861460034349e-01,0.000000000000000000e+00
1.000000000000000000e+03,-3.683033703188224872e-01,0.000000000000000000e+00
1.001000000000000000e+03,9.337633847481378868e-02,0.000000000000000000e+00
1.002000000000000000e+03,-3.024780126997613783e-01,0.000000000000000000e+00
1.003000000000000000e+03,1.504836768910232936e-01,0.000000000000000000e+00
1.004000000000000000e+03,8.197926697957780284e-01,0.000000000000000000e+00
1.005000000000000000e+03,5.182570126790722043e-01,0.000000000000000000e+00
1.006000000000000000e+03,1.158916487522736460e+00,0.000000000000000000e+00
1.007000000000000000e+03,3.666003750865071686e-01,0.000000000000000000e+00
1.008000000000000000e+03,-4.542971154950670165e-01,0.000000000000000000e+00
1.009000000000000000e+03,3.829623029218991448e-01,0.000000000000000000e+00
1.010000000000000000e+03,-1.290567231756469146e+00,0.000000000000000000e+00
1.011000000000000000e+03,-1.219081652472405519e+00,0.000000000000000000e+00
1.012000000000000000e+03,-7.563284742087954537e-01,0.000000000000000000e+00
1.013000000000000000e+03,-1.285210913939590416e+00,0.000000000000000000e+00
1.014000000000000000e+03,-4.407275022825899446e-01,0.000000000000000000e+00
1.015000000000000000e+03,-3.104602321329549275e-01,0.000000000000000000e+00
1.016000000000000000e+03,4.752283741887113333e-01,0.000000000000000000e+00
1.017000000000000000e+03,-9.220428559889229936e-01,0.000000000000000000e+00
1.018000000000000000e+03,5.364374641889606554e-01,0.000000000000000000e+00
1.019000000000000000e+03,-3.664058768155799006e-01,0.000000000000000000e+00
1.020000000000000000e+03,6.363584040617195070e-01,0.000000000000000000e+00
1.021000000000000000e+03,-6.873047070013166282e-02,0.000000000000000000e+00
1.022000000000000000e+03,3.009972847924435868e-01,0.000000000000000000e+00
1.023000000000000000e+03,8.909082384536805010e-01,0.000000000000000000e+00
1.024000000000000000e+03,2.995208138247072993e-01,0.000000000000000000e+00
1.025000000000000000e+03,-2.052233025181687820e-01,0.000000000000000000e+00
1.026000000000000000e+03,4.124991248196045457e-01,0.000000000000000000e+00
1.027000000000000000e+03,1.455249914083554530e-01,0.000000000000000000e+00
1.028000000000000000e+03,5.682214143974695375e-01,0.000000000000000000e+00
1.029000000000000000e+03,2.180266026671780905e-02,0.000000000000000000e+00
1.030000000000000000e+03,8.607085474196793928e-01,0.000000000000000000e+00
1.031000000000000000e+03,-1.114341270780541404e-01,0.000000000000000000e+00
1.032000000000000000e+03,1.292701442793408873e-01,0.000000000000000000e+00
1.033000000000000000e+03,-5.771208712996039880e-01,0.000000000000000000e+00
1.034000000000000000e+03,-1.072733843057215447e-01,0.000000000000000000e+00
1.035000000000000000e+03,9.951321986175527545e-01,0.000000000000000000e+00
1.036000000000000000e+03,-1.511206240173263923e-02,0.000000000000000000e+00
1.037000000000000000e+03,7.240711878925223388e-01,0.000000000000000000e+00
1.038000000000000000e+03,3.047387873957075222e+00,0.000000000000000000e+00
1.039000000000000000e+03,-9.873040284893814800e-01,1.000000000000000000e+00
1.040000000000000000e+03,-4.834577254679820468e-01,0.000000000000000000e+00
1.041000000000000000e+03,-5.419535596078031148e-01,0.000000000000000000e+00
1.042000000000000000e+03,-1.149384582850754566e-01,0.000000000000000000e+00
1.043000000000000000e+03,6.171747574058469854e-02,0.000000000000000000e+00
1.044000000000000000e+03,-3.612853110297968295e-01,0.000000000000000000e+00
1.045000000000000000e+03,3.496508262795433586e-01,0.000000000000000000e+00
1.046000000000000000e+03,1.557767476263907380e-01,0.000000000000000000e+00
1.047000000000000000e+03,-1.185130925738876323e-01,0.000000000000000000e+00
1.048000000000000000e+03,-3.520361782047948807e-01,0.000000000000000000e+00
1.049000000000000000e+03,2.559896908966829421e-01,0.000000000000000000e+00
1.050000000000000000e+03,2.212147398050454683e-01,0.000000000000000000e+00
1.051000000000000000e+03,7.359767988112060344e-01,0.000000000000000000e+00
1.052000000000000000e+03,7.555126842175391433e-01,0.000000000000000000e+00
1.053000000000000000e+03,9.245628245425218106e-01,0.000000000000000000e+00
1.054000000000000000e+03,1.736043020958248084e-01,0.000000000000000000e+00
1.055000000000000000e+03,2.859734526843193403e-01,0.000000000000000000e+00
1.056000000000000000e+03,-7.777445508269157370e-01,0.000000000000000000e+00
1.057000000000000000e+03,-9.628606849987246807e-01,0.000000000000000000e+00
1.058000000000000000e+03,-7.852180879203642938e-01,0.000000000000000000e+00
1.059000000000000000e+03,-7.855927153838458965e-01,0.000000000000000000e+00
1.060000000000000000e+03,-5.522566023435467875e-01,0.000000000000000000e+00
1.061000000000000000e+03,-1.782283375099310285e-01,0.000000000000000000e+00
1.062000000000000000e+03,-1.358375459524053586e+00,0.000000000000000000e+00
1.063000000000000000e+03,-5.258995157009289240e-02,0.000000000000000000e+00
1.064000000000000000e+03,-2.844303450976189973e-01,0.000000000000000000e+00
1.065000000000000000e+03,-1.395454591490838565e-02,0.000000000000000000e+00
1.066000000000000000e+03,-5.108469417914962563e-01,0.000000000000000000e+00
1.067000000000000000e+03,4.155345327129935096e-01,0.000000000000000000e+00
1.068000000000000000e+03,-6.801484983032819454e-01,0.000000000000000000e+00
1.069000000000000000e+03,-8.776198712419130965e-01,0.000000000000000000e+00
1.070000000000000000e+03,1.706686092112944531e-01,0.000000000000000000e+00
1.071000000000000000e+03,-2.659411531099633019e-01,0.000000000000000000e+00
1.072000000000000000e+03,-1.118145941465333582e-01,0.000000000000000000e+00
1.073000000000000000e+03,-8.885083303111421249e-02,0.000000000000000000e+00
1.074000000000000000e+03,2.790281667720783121e-01,0.000000000000000000e+00
1.075000000000000000e+03,-3.136290004526310904e-01,0.000000000000000000e+00
1.076000000000000000e+03,3.815503325947394719e-02,0.000000000000000000e+00
1.077000000000000000e+03,-1.260135075078268607e-01,0.000000000000000000e+00
1.078000000000000000e+03,-5.579553406643463637e-02,0.000000000000000000e+00
1.079000000000000000e+03,3.322571263823294319e-02,0.000000000000000000e+00
1.080000000000000000e+03,-2.140789403942855995e-01,0.000000000000000000e+00
1.081000000000000000e+03,-6.412402869447594300e-01,0.000000000000000000e+00
1.082000000000000000e+03,-3.144886201889242061e-01,0.000000000000000000e+00
1.083000000000000000e+03,9.093562533834246286e-01,0.000000000000000000e+00
1.084000000000000000e+03,2.680775824374637128e+00,0.000000000000000000e+00
1.085000000000000000e+03,-3.805910652895103108e-01,1.000000000000000000e+00
1.086000000000000000e+03,-4.539077815358341650e-01,0.000000000000000000e+00
1.087000000000000000e+03,-4.667428420197404226e-01,0.000000000000000000e+00
1.088000000000000000e+03,-5.418319299332023942e-01,0.000000000000000000e+00
1.089000000000000000e+03,-1.442345489361570865e-01,0.000000000000000000e+00
1.090000000000000000e+03,-4.796335553702661403e-01,0.000000000000000000e+00
1.091000000000000000e+03,-7.907053279132589818e-01,0.000000000000000000e+00
1.092000000000000000e+03,-5.896818640143745016e-01,0.000000000000000000e+00
1.093000000000000000e+03,3.750194791097550828e-01,0.000000000000000000e+00
1.094000000000000000e+03,-3.289449825863393073e-01,0.000000000000000000e+00
1.095000000000000000e+03,2.090830894415758312e-01,0.000000000000000000e+00
1.096000000000000000e+03,7.048292196592563785e-01,0.000000000000000000e+00
1.097000000000000000e+03,-9.061570619093207990e-02,0.000000000000000000e+00
1.098000000000000000e+03,7.571838875664899104e-01,0.000000000000000000e+00
1.099000000000000000e+03,5.581166174079104092e-01,0.000000000000000000e+00
1.100000000000000000e+03,1.440870087590460369e-01,0.000000000000000000e+00
1.101000000000000000e+03,-3.458050465481715685e-01,0.000000000000000000e+00
1.102000000000000000e+03,-7.084952453987839460e-01,0.000000000000000000e+00
1.103000000000000000e+03,-7.353897829885313042e-01,0.000000000000000000e+00
1.104000000000000000e+03,3.563824305452455432e-01,0.000000000000000000e+00
1.105000000000000000e+03,-5.329556424519334978e-01,0.000000000000000000e+00
1.106000000000000000e+03,-5.048757937097807513e-01,0.000000000000000000e+00
1.107000000000000000e+03,-4.325406581515230942e-01,0.000000000000000000e+00
1.108000000000000000e+03,-4.308398262768944886e-02,0.000000000000000000e+00
1.109000000000000000e+03,-2.272285909654719327e-01,0.000000000000000000e+00
1.110000000000000000e+03,-4.123934866805141763e-01,0.000000000000000000e+00
1.111000000000000000e+03,3.253160156687501248e-01,0.000000000000000000e+00
1.112000000000000000e+03,2.148323506213976331e-01,0.000000000000000000e+00
1.113000000000000000e+03,5.507332273318455984e-01,0.000000000000000000e+00
1.114000000000000000e+03,-2.280028532360722504e-01,0.000000000000000000e+00
1.115000000000000000e+03,5.912584487577959153e-03,0.000000000000000000e+00
1.116000000000000000e+03,-4.546402874784214419e-03,0.000000000000000000e+00
1.117000000000000000e+03,-1.175475149963113863e-01,0.000000000000000000e+00
1.118000000000000000e+03,-3.660431354502505230e-01,0.000000000000000000e+00
1.119000000000000000e+03,2.572960308707247790e-01,0.000000000000000000e+00
1.120000000000000000e+03,1.149941566212161759e-01,0.000000000000000000e+00
1.121000000000000000e+03,-3.747745534861328665e-01,0.000000000000000000e+00
1.122000000000000000e+03,1.143795466314486475e+00,0.000000000000000000e+00
1.123000000000000000e+03,4.468706938317999477e-01,0.000000000000000000e+00
1.124000000000000000e+03,1.871816585881670991e-01,0.000000000000000000e+00
1.125000000000000000e+03,3.719685248955215129e-02,0.000000000000000000e+00
1.126000000000000000e+03,-4.222842139773915204e-01,0.000000000000000000e+00
1.127000000000000000e+03,6.859072446242380217e-01,0.000000000000000000e+00
1.128000000000000000e+03,1.619552589982716645e-02,0.000000000000000000e+00
1.129000000000000000e+03,1.801185050813110256e-01,0.000000000000000000e+00
1.130000000000000000e+03,4.022990134789288241e+00,0.000000000000000000e+00
1.131000000000000000e+03,-1.959828490533057910e-01,1.000000000000000000e+00
1.132000000000000000e+03,2.214060902505225470e-01,0.000000000000000000e+00
1.133000000000000000e+03,-7.515475528747141976e-01,0.000000000000000000e+00
1.134000000000000000e+03,-1.071561935313101177e+00,0.000000000000000000e+00
1.135000000000000000e+03,2.645278398834623457e-01,0.000000000000000000e+00
1.136000000000000000e+03,-1.693667354968432903e+00,0.000000000000000000e+00
1.137000000000000000e+03,7.467013610429602544e-01,0.000000000000000000e+00
1.138000000000000000e+03,-1.722047012578411251e-01,0.000000000000000000e+00
1.139000000000000000e+03,-5.758233012310518539e-01,0.000000000000000000e+00
1.140000000000000000e+03,6.515459475789018295e-01,0.000000000000000000e+00
1.141000000000000000e+03,7.961222951832945538e-02,0.000000000000000000e+00
1.142000000000000000e+03,5.171237869169162948e-01,0.000000000000000000e+00
1.143000000000000000e+03,-4.309461466269459695e-01,0.000000000000000000e+00
1.144000000000000000e+03,1.806740348733518520e+00,0.000000000000000000e+00
1.145000000000000000e+03,-2.935102578981096388e-01,0.000000000000000000e+00
1.146000000000000000e+03,1.163592363534344587e+00,0.000000000000000000e+00
1.147000000000000000e+03,5.380044354334693191e-01,0.000000000000000000e+00
1.148000000000000000e+03,-7.142183600772505914e-01,0.000000000000000000e+00
1.149000000000000000e+03,-3.339154173661332825e-01,0.000000000000000000e+00
1.150000000000000000e+03,-1.097048454144603946e+00,0.000000000000000000e+00
1.151000000000000000e+03,5.543261188036252562e-01,0.000000000000000000e+00
1.152000000000000000e+03,-1.367166467741586233e+00,0.000000000000000000e+00
1.153000000000000000e+03,-2.078847567916522199e-01,0.000000000000000000e+00
1.154000000000000000e+03,-3.254045828153369069e-01,0.000000000000000000e+00
1.155000000000000000e+03,-5.664367575319455067e-04,0.000000000000000000e+00
1.156000000000000000e+03,-2.734044832610327824e-01,0.000000000000000000e+00
1.157000000000000000e+03,-2.399128411993741994e-01,0.000000000000000000e+00
1.158000000000000000e+03,1.297580780235390863e-01,0.000000000000000000e+00
1.159000000000000000e+03,3.608709526507223320e-01,0.000000000000000000e+00
1.160000000000000000e+03,3.033647048748932540e-01,0.000000000000000000e+00
1.161000000000000000e+03,1.184975942094589896e-01,0.000000000000000000e+00
1.162000000000000000e+03,-2.046546924551899405e-01,0.000000000000000000e+00
1.163000000000000000e+03,1.556571214663018121e-01,0.000000000000000000e+00
1.164000000000000000e+03,-2.104122644314444096e-02,0.000000000000000000e+00
1.165000000000000000e+03,-2.137649025149848669e-01,0.000000000000000000e+00
1.166000000000000000e+03,6.726822735369641926e-02,0.000000000000000000e+00
1.167000000000000000e+03,8.057234242649665701e-01,0.000000000000000000e+00
1.168000000000000000e+03,2.596242308535200438e-01,0.000000000000000000e+00
1.169000000000000000e+03,3.867390726824610492e-01,0.000000000000000000e+00
1.170000000000000000e+03,8.486604503097813224e-01,0.000000000000000000e+00
1.171000000000000000e+03,-7.987809189644455854e-01,0.000000000000000000e+00
1.172000000000000000e+03,5.632673505897420885e-01,0.000000000000000000e+00
1.173000000000000000e+03,-2.921957695500626007e-01,0.000000000000000000e+00
1.174000000000000000e+03,2.781321743836120408e-01,0.000000000000000000e+00
1.175000000000000000e+03,-3.130971069965716724e-01,0.000000000000000000e+00
1.176000000000000000e+03,1.451632904166601623e+00,0.000000000000000000e+00
1.177000000000000000e+03,3.317767299521643398e+00,0.000000000000000000e+00
1.178000000000000000e+03,7.885822141655072226e-01,1.000000000000000000e+00
1.179000000000000000e+03,-3.000803128072339621e-01,0.000000000000000000e+00
1.180000000000000000e+03,-9.063335070058458065e-01,0.000000000000000000e+00
1.181000000000000000e+03,-7.150197953974417597e-01,0.000000000000000000e+00
1.182000000000000000e+03,-1.946834050487915302e-01,0.000000000000000000e+00
1.183000000000000000e+03,-7.711710599983390146e-01,0.000000000000000000e+00
1.184000000000000000e+03,-3.531892866058323338e-02,0.000000000000000000e+00
1.185000000000000000e+03,-5.822392621046162953e-01,0.000000000000000000e+00
1.186000000000000000e+03,-8.837066419212635804e-01,0.000000000000000000e+00
1.187000000000000000e+03,3.952712402345295861e-02,0.000000000000000000e+00
1.188000000000000000e+03,-1.264425534977595871e-03,0.000000000000000000e+00
1.189000000000000000e+03,4.052500418944513516e-01,0.000000000000000000e+00
1.190000000000000000e+03,3.238460876313883352e-01,0.000000000000000000e+00
1.191000000000000000e+03,4.841058847013046673e-01,0.000000000000000000e+00
1.192000000000000000e+03,9.314709006461210361e-01,0.000000000000000000e+00
1.193000000000000000e+03,3.033075579764089869e-02,0.000000000000000000e+00
1.194000000000000000e+03,8.328901135049223206e-03,0.000000000000000000e+00
1.195000000000000000e+03,-8.138743431820401053e-01,0.000000000000000000e+00
1.196000000000000000e+03,-3.197360530451868188e-01,0.000000000000000000e+00
1.197000000000000000e+03,-4.869943375811951469e-01,0.000000000000000000e+00
1.198000000000000000e+03,-4.738811724240687973e-01,0.000000000000000000e+00
1.199000000000000000e+03,-8.198995659927473811e-01,0.000000000000000000e+00
1.200000000000000000e+03,-7.335783632256855924e-01,0.000000000000000000e+00
1.201000000000000000e+03,-3.996577755784906927e-01,0.000000000000000000e+00
1.202000000000000000e+03,-2.687030163020597828e-01,0.000000000000000000e+00
1.203000000000000000e+03,-1.056569837282836710e+00,0.000000000000000000e+00
1.204000000000000000e+03,2.604440638568385480e-01,0.000000000000000000e+00
1.205000000000000000e+03,-1.538492676021550265e+00,0.000000000000000000e+00
1.206000000000000000e+03,6.102432822840205828e-01,0.000000000000000000e+00
1.207000000000000000e+03,-2.318282987937184819e-02,0.000000000000000000e+00
1.208000000000000000e+03,-1.621610241636342042e-01,0.000000000000000000e+00
1.209000000000000000e+03,3.864428989556653038e-01,0.000000000000000000e+00
1.210000000000000000e+03,-9.435349951085095777e-01,0.000000000000000000e+00
1.211000000000000000e+03,-4.994633338571704551e-01,0.000000000000000000e+00
1.212000000000000000e+03,2.514860092588441232e-01,0.000000000000000000e+00
1.213000000000000000e+03,-6.008511216653383835e-01,0.000000000000000000e+00
1.214000000000000000e+03,5.592357768509170768e-01,0.000000000000000000e+00
1.215000000000000000e+03,-2.698488424973550237e-01,0.000000000000000000e+00
1.216000000000000000e+03,1.056674988286161743e-01,0.000000000000000000e+00
1.217000000000000000e+03,4.257824691067651490e-01,0.000000000000000000e+00
1.218000000000000000e+03,2.730458757143214288e-01,0.000000000000000000e+00
1.219000000000000000e+03,-3.595708689966820581e-01,0.000000000000000000e+00
1.220000000000000000e+03,-5.979255438198251282e-02,0.000000000000000000e+00
1.221000000000000000e+03,-9.595859494809468870e-01,0.000000000000000000e+00
1.222000000000000000e+03,3.003391396207831243e-01,0.000000000000000000e+00
1.223000000000000000e+03,-7.820767482220273292e-01,0.000000000000000000e+00
1.224000000000000000e+03,2.196999072076762261e+00,0.000000000000000000e+00
1.225000000000000000e+03,3.241611165687178886e+00,0.000000000000000000e+00
1.226000000000000000e+03,-7.414955635213096308e-01,1.000000000000000000e+00
1.227000000000000000e+03,-1.428173517943076287e-01,0.000000000000000000e+00
1.228000000000000000e+03,-7.212615765085618191e-01,0.000000000000000000e+00
1.229000000000000000e+03,-5.057537337141950751e-01,0.000000000000000000e+00
1.230000000000000000e+03,-4.757839085019676117e-01,0.000000000000000000e+00
1.231000000000000000e+03,-6.867148624185787087e-01,0.000000000000000000e+00
1.232000000000000000e+03,-1.056361219574720595e-01,0.000000000000000000e+00
1.233000000000000000e+03,-6.970173699168348280e-01,0.000000000000000000e+00
1.234000000000000000e+03,-7.042661577081997804e-01,0.000000000000000000e+00
1.235000000000000000e+03,4.118439428046617445e-01,0.000000000000000000e+00
1.236000000000000000e+03,-2.614250254373330917e-01,0.000000000000000000e+00
1.237000000000000000e+03,8.097668310219442445e-01,0.000000000000000000e+00
1.238000000000000000e+03,7.495238287769025176e-02,0.000000000000000000e+00
1.239000000000000000e+03,1.309633205478688334e+00,0.000000000000000000e+00
1.240000000000000000e+03,1.422759072302562655e-01,0.000000000000000000e+00
1.241000000000000000e+03,1.135582508922875933e+00,0.000000000000000000e+00
1.242000000000000000e+03,1.410272714209420165e-02,0.000000000000000000e+00
1.243000000000000000e+03,-1.019124111903212393e+00,0.000000000000000000e+00
1.244000000000000000e+03,-1.071762057547592274e-02,0.000000000000000000e+00
1.245000000000000000e+03,-9.833408238600687135e-01,0.000000000000000000e+00
1.246000000000000000e+03,4.293617877122785434e-03,0.000000000000000000e+00
1.247000000000000000e+03,-1.143980707805432928e+00,0.000000000000000000e+00
1.248000000000000000e+03,7.047596886235606151e-02,0.000000000000000000e+00
1.249000000000000000e+03,-2.163018160281192093e-01,0.000000000000000000e+00
1.250000000000000000e+03,-3.361872350013385413e-02,0.000000000000000000e+00
1.251000000000000000e+03,-1.278483928525847857e-01,0.000000000000000000e+00
1.252000000000000000e+03,-6.868354371391996449e-02,0.000000000000000000e+00
1.253000000000000000e+03,2.259739413389453278e-01,0.000000000000000000e+00
1.254000000000000000e+03,-1.494336214046161071e-01,0.000000000000000000e+00
1.255000000000000000e+03,-1.062172596601667351e-01,0.000000000000000000e+00
1.256000000000000000e+03,-1.376593116630079683e-03,0.000000000000000000e+00
1.257000000000000000e+03,-6.483740598282381473e-01,0.000000000000000000e+00
1.258000000000000000e+03,5.404860313501722580e-01,0.000000000000000000e+00
1.259000000000000000e+03,4.205071707184488417e-01,0.000000000000000000e+00
1.260000000000000000e+03,-6.793842167131918242e-01,0.000000000000000000e+00
1.261000000000000000e+03,4.595066194880832455e-01,0.000000000000000000e+00
1.262000000000000000e+03,5.831518134784088314e-01,0.000000000000000000e+00
1.263000000000000000e+03,-1.008951062617187588e+00,0.000000000000000000e+00
1.264000000000000000e+03,2.269951888432305831e-01,0.000000000000000000e+00
1.265000000000000000e+03,-2.744752315847008226e-02,0.000000000000000000e+00
1.266000000000000000e+03,3.540307745354639990e-01,0.000000000000000000e+00
1.267000000000000000e+03,2.910025628606293657e-01,0.000000000000000000e+00
1.268000000000000000e+03,-4.747581665814395446e-01,0.000000000000000000e+00
1.269000000000000000e+03,5.250175362783848776e-01,0.000000000000000000e+00
1.270000000000000000e+03,-4.744039360330468136e-01,0.000000000000000000e+00
1.271000000000000000e+03,1.572086938068560924e-01,0.000000000000000000e+00
1.272000000000000000e+03,5.722931046325058224e-01,0.000000000000000000e+00
1.273000000000000000e+03,2.315132606754591649e+00,0.000000000000000000e+00
1.274000000000000000e+03,5.416876503649470376e-01,1.000000000000000000e+00
1.275000000000000000e+03,-1.596862392541375519e-01,0.000000000000000000e+00
1.276000000000000000e+03,-2.494987753986495915e-01,0.000000000000000000e+00
1.277000000000000000e+03,-3.752591895941296274e-01,0.000000000000000000e+00
1.278000000000000000e+03,-2.464111117239178306e-01,0.000000000000000000e+00
1.279000000000000000e+03,1.631385793729992484e-01,0.000000000000000000e+00
1.280000000000000000e+03,-2.034435451314365317e-01,0.000000000000000000e+00
1.281000000000000000e+03,-2.863047935643212583e-01,0.000000000000000000e+00
1.282000000000000000e+03,-5.702092054661545700e-02,0.000000000000000000e+00
1.283000000000000000e+03,-6.702546701196694656e-02,0.000000000000000000e+00
1.284000000000000000e+03,1.219475890872645296e+00,0.000000000000000000e+00
1.285000000000000000e+03,2.679649760284745774e-01,0.000000000000000000e+00
1.286000000000000000e+03,1.322274472085162578e-01,0.000000000000000000e+00
1.287000000000000000e+03,1.248822124738339534e+00,0.000000000000000000e+00
1.288000000000000000e+03,5.542325550528990341e-01,0.000000000000000000e+00
1.289000000000000000e+03,3.523650856925704677e-01,0.000000000000000000e+00
1.290000000000000000e+03,-3.916908349652346577e-01,0.000000000000000000e+00
1.291000000000000000e+03,-5.141369693249344675e-01,0.000000000000000000e+00
1.292000000000000000e+03,-4.009895937775539432e-01,0.000000000000000000e+00
1.293000000000000000e+03,-8.864123949801981928e-01,0.000000000000000000e+00
1.294000000000000000e+03,-4.678037480402001402e-01,0.000000000000000000e+00
1.295000000000000000e+03,-3.694817839865696119e-01,0.000000000000000000e+00
1.296000000000000000e+03,-9.549140333942388037e-02,0.000000000000000000e+00
1.297000000000000000e+03,-9.242547459955673395e-01,0.000000000000000000e+00
1.298000000000000000e+03,-5.191444997826051289e-01,0.000000000000000000e+00
1.299000000000000000e+03,-4.913693294609259299e-01,0.000000000000000000e+00
1.300000000000000000e+03,4.427282262413281821e-01,0.000000000000000000e+00
1.301000000000000000e+03,3.224439340419891220e-01,0.000000000000000000e+00
1.302000000000000000e+03,2.305047181183611238e-01,0.000000000000000000e+00
1.303000000000000000e+03,-3.299937854215587857e-02,0.000000000000000000e+00
1.304000000000000000e+03,4.469737130420851218e-02,0.000000000000000000e+00
1.305000000000000000e+03,-6.496648416564922146e-02,0.000000000000000000e+00
1.306000000000000000e+03,8.932249330320526925e-02,0.000000000000000000e+00
1.307000000000000000e+03,2.523019616299972956e-01,0.000000000000000000e+00
1.308000000000000000e+03,9.296458560639803137e-01,0.000000000000000000e+00
1.309000000000000000e+03,-6.284048122081229426e-01,0.000000000000000000e+00
1.310000000000000000e+03,1.093123405521492231e-01,0.000000000000000000e+00
1.311000000000000000e+03,6.681906589390417261e-01,0.000000000000000000e+00
1.312000000000000000e+03,-4.638206614320156129e-01,0.000000000000000000e+00
1.313000000000000000e+03,9.809248125686351738e-01,0.000000000000000000e+00
1.314000000000000000e+03,5.855922768086953001e-01,0.000000000000000000e+00
1.315000000000000000e+03,-1.832595364405490979e-01,0.000000000000000000e+00
1.316000000000000000e+03,-2.298947523248911703e-02,0.000000000000000000e+00
1.317000000000000000e+03,-1.682779443154645282e-01,0.000000000000000000e+00
1.318000000000000000e+03,-2.307305093320448364e-01,0.000000000000000000e+00
1.319000000000000000e+03,-1.616703066145651346e-01,0.000000000000000000e+00
1.320000000000000000e+03,9.179346991027219627e-01,0.000000000000000000e+00
1.321000000000000000e+03,2.595627225664158821e+00,0.000000000000000000e+00
1.322000000000000000e+03,2.408226435761925618e-02,1.000000000000000000e+00
1.323000000000000000e+03,1.128635879194455488e-01,0.000000000000000000e+00
1.324000000000000000e+03,-8.565918765485573960e-01,0.000000000000000000e+00
1.325000000000000000e+03,2.030108310553460083e-01,0.000000000000000000e+00
1.326000000000000000e+03,-4.862577866970008711e-01,0.000000000000000000e+00
1.327000000000000000e+03,-3.329298500367287583e-01,0.000000000000000000e+00
1.328000000000000000e+03,-4.914856504865944276e-01,0.000000000000000000e+00
1.329000000000000000e+03,-2.352312442172486973e-01,0.000000000000000000e+00
1.330000000000000000e+03,-5.577409246484442695e-01,0.000000000000000000e+00
1.331000000000000000e+03,-3.028412217388439243e-01,0.000000000000000000e+00
1.332000000000000000e+03,-1.102763965902210513e-01,0.000000000000000000e+00
1.333000000000000000e+03,1.711451530991844883e-01,0.000000000000000000e+00
1.334000000000000000e+03,8.483429622653972935e-01,0.000000000000000000e+00
1.335000000000000000e+03,1.245809448551119525e+00,0.000000000000000000e+00
1.336000000000000000e+03,4.975571855995767900e-01,0.000000000000000000e+00
1.337000000000000000e+03,2.120749825617242734e-01,0.000000000000000000e+00
1.338000000000000000e+03,-7.863601217559451628e-01,0.000000000000000000e+00
1.339000000000000000e+03,-8.466011307395010510e-01,0.000000000000000000e+00
1.340000000000000000e+03,-3.762491622028478755e-01,0.000000000000000000e+00
1.341000000000000000e+03,-1.022027470173160646e+00,0.000000000000000000e+00
1.342000000000000000e+03,-6.644480684396038006e-01,0.000000000000000000e+00
1.343000000000000000e+03,-1.707169933504680548e-01,0.000000000000000000e+00
1.344000000000000000e+03,-2.284561570524556440e-01,0.000000000000000000e+00
1.345000000000000000e+03,-2.385519927228493542e-01,0.000000000000000000e+00
1.346000000000000000e+03,2.571333466597566231e-01,0.000000000000000000e+00
1.347000000000000000e+03,-4.574682534331889761e-01,0.000000000000000000e+00
1.348000000000000000e+03,-4.854866022132184877e-01,0.000000000000000000e+00
1.349000000000000000e+03,-6.675406929310205850e-01,0.000000000000000000e+00
1.350000000000000000e+03,-5.255963021563517801e-01,0.000000000000000000e+00
1.351000000000000000e+03,-4.906194392308523833e-01,0.000000000000000000e+00
1.352000000000000000e+03,1.084396115405326100e+00,0.000000000000000000e+00
1.353000000000000000e+03,1.729287427604983829e-01,0.000000000000000000e+00
1.354000000000000000e+03,-3.564476786695381927e-01,0.000000000000000000e+00
1.355000000000000000e+03,-1.499065346558597356e-01,0.000000000000000000e+00
1.356000000000000000e+03,3.704625619317773455e-01,0.000000000000000000e+00
1.357000000000000000e+03,-5.230509220798459369e-01,0.000000000000000000e+00
1.358000000000000000e+03,-5.099016286363178274e-01,0.000000000000000000e+00
1.359000000000000000e+03,-5.095894766333465276e-01,0.000000000000000000e+00
1.360000000000000000e+03,3.213379719190128103e-01,0.000000000000000000e+00
1.361000000000000000e+03,1.291015494358968674e+00,0.000000000000000000e+00
1.362000000000000000e+03,-4.663552044101892946e-01,0.000000000000000000e+00
1.363000000000000000e+03,4.213598621473085837e-01,0.000000000000000000e+00
1.364000000000000000e+03,-1.835024032548625006e-01,0.000000000000000000e+00
1.365000000000000000e+03,2.963012560797136374e-01,0.000000000000000000e+00
1.366000000000000000e+03,-5.038422055439798486e-01,0.000000000000000000e+00
1.367000000000000000e+03,2.866006591964286865e-01,0.000000000000000000e+00
1.368000000000000000e+03,2.866797849166575762e+00,0.000000000000000000e+00
1.369000000000000000e+03,1.522179134313548454e+00,1.000000000000000000e+00
1.370000000000000000e+03,-4.334630486464055577e-01,0.000000000000000000e+00
1.371000000000000000e+03,-3.544462782565831471e-01,0.000000000000000000e+00
1.372000000000000000e+03,-9.519499367816999236e-01,0.000000000000000000e+00
1.373000000000000000e+03,8.077310007179828999e-02,0.000000000000000000e+00
1.374000000000000000e+03,-5.420220128208560473e-01,0.000000000000000000e+00
1.375000000000000000e+03,-2.722420628045665869e-01,0.000000000000000000e+00
1.376000000000000000e+03,-9.955541979881830927e-02,0.000000000000000000e+00
1.377000000000000000e+03,1.395833001255246675e-01,0.000000000000000000e+00
1.378000000000000000e+03,-3.433801320513883426e-01,0.000000000000000000e+00
1.379000000000000000e+03,4.097217891733386241e-01,0.000000000000000000e+00
1.380000000000000000e+03,5.422915121711825437e-01,0.000000000000000000e+00
1.381000000000000000e+03,5.067973054378899223e-01,0.000000000000000000e+00
1.382000000000000000e+03,1.648403765455609682e-01,0.000000000000000000e+00
1.383000000000000000e+03,1.220226038919212330e+00,0.000000000000000000e+00
1.384000000000000000e+03,1.072384082419398865e+00,0.000000000000000000e+00
1.385000000000000000e+03,3.965272617316132897e-01,0.000000000000000000e+00
1.386000000000000000e+03,-1.181797073431867684e+00,0.000000000000000000e+00
1.387000000000000000e+03,-1.435489083616833458e-02,0.000000000000000000e+00
1.388000000000000000e+03,-4.106810722922529244e-01,0.000000000000000000e+00
1.389000000000000000e+03,-1.955897871719158188e+00,0.000000000000000000e+00
1.390000000000000000e+03,8.396496972336977560e-01,0.000000000000000000e+00
1.391000000000000000e+03,-1.106406756149641568e+00,0.000000000000000000e+00
1.392000000000000000e+03,2.127731137152878427e-01,0.000000000000000000e+00
1.393000000000000000e+03,-3.827530924937178614e-01,0.000000000000000000e+00
1.394000000000000000e+03,-5.478850853613111971e-01,0.000000000000000000e+00
1.395000000000000000e+03,-6.461606854456832805e-01,0.000000000000000000e+00
1.396000000000000000e+03,1.767457543265963105e-01,0.000000000000000000e+00
1.397000000000000000e+03,-3.484284117200722175e-01,0.000000000000000000e+00
1.398000000000000000e+03,-2.122968011708031288e-01,0.000000000000000000e+00
1.399000000000000000e+03,6.191631744243965285e-02,0.000000000000000000e+00
1.400000000000000000e+03,-1.979105210842725393e-01,0.000000000000000000e+00
1.401000000000000000e+03,-3.753839740678506232e-01,0.000000000000000000e+00
1.402000000000000000e+03,1.535956479037895450e-01,0.000000000000000000e+00
1.403000000000000000e+03,-4.329895344860690276e-01,0.000000000000000000e+00
1.404000000000000000e+03,1.722923295111146447e-01,0.000000000000000000e+00
1.405000000000000000e+03,-1.194975345554550733e-01,0.000000000000000000e+00
1.406000000000000000e+03,-3.527383554695619483e-01,0.000000000000000000e+00
1.407000000000000000e+03,6.092553896756665033e-01,0.000000000000000000e+00
1.408000000000000000e+03,-1.282945794408011930e-01,0.000000000000000000e+00
1.409000000000000000e+03,1.750986267453063239e-01,0.000000000000000000e+00
1.410000000000000000e+03,-6.417271791273823078e-01,0.000000000000000000e+00
1.411000000000000000e+03,8.860835477232265056e-02,0.000000000000000000e+00
1.412000000000000000e+03,-2.874769785676156708e-01,0.000000000000000000e+00
1.413000000000000000e+03,-2.156168284469248131e-01,0.000000000000000000e+00
1.414000000000000000e+03,-1.798384132167815119e-01,0.000000000000000000e+00
1.415000000000000000e+03,1.710565306647502171e+00,0.000000000000000000e+00
1.416000000000000000e+03,2.440313128919695984e+00,0.000000000000000000e+00
1.417000000000000000e+03,-6.224725114228726319e-01,1.000000000000000000e+00
1.418000000000000000e+03,-8.379907428813958559e-01,0.000000000000000000e+00
1.419000000000000000e+03,-7.122054106928376038e-01,0.000000000000000000e+00
1.420000000000000000e+03,-2.271485380414604016e-01,0.000000000000000000e+00
1.421000000000000000e+03,-9.862151734115328638e-01,0.000000000000000000e+00
1.422000000000000000e+03,-5.624143852251122233e-01,0.000000000000000000e+00
1.423000000000000000e+03,-1.062044144710051208e-01,0.000000000000000000e+00
1.424000000000000000e+03,2.321749087080430818e-01,0.000000000000000000e+00
1.425000000000000000e+03,-6.399028714155010622e-01,0.000000000000000000e+00
1.426000000000000000e+03,5.522131603008924028e-01,0.000000000000000000e+00
1.427000000000000000e+03,2.758303611065530681e-01,0.000000000000000000e+00
1.428000000000000000e+03,1.368532178452325776e-01,0.000000000000000000e+00
1.429000000000000000e+03,1.105696948182366635e+00,0.000000000000000000e+00
1.430000000000000000e+03,7.907803863224827090e-01,0.000000000000000000e+00
1.431000000000000000e+03,4.686010111888049834e-01,0.000000000000000000e+00
1.432000000000000000e+03,3.517782297224154031e-01,0.000000000000000000e+00
1.433000000000000000e+03,3.345941449462006001e-02,0.000000000000000000e+00
1.434000000000000000e+03,-8.262345546510021510e-01,0.000000000000000000e+00
1.435000000000000000e+03,-3.095164288578753919e-01,0.000000000000000000e+00
1.436000000000000000e+03,-7.585244646610341812e-01,0.000000000000000000e+00
1.437000000000000000e+03,-2.426530948578594082e-01,0.000000000000000000e+00
1.438000000000000000e+03,-5.679922007347963930e-01,0.000000000000000000e+00
1.439000000000000000e+03,-8.832188949004893264e-02,0.000000000000000000e+00
1.440000000000000000e+03,-5.244660122577560202e-01,0.000000000000000000e+00
1.441000000000000000e+03,-3.603632871940743443e-01,0.000000000000000000e+00
1.442000000000000000e+03,6.933903506739645672e-02,0.000000000000000000e+00
1.443000000000000000e+03,-3.264067402083498104e-01,0.000000000000000000e+00
1.444000000000000000e+03,-9.945118503332661675e-02,0.000000000000000000e+00
1.445000000000000000e+03,2.097405118653240530e-01,0.000000000000000000e+00
1.446000000000000000e+03,-5.079762819358619730e-01,0.000000000000000000e+00
1.447000000000000000e+03,3.667396211501565140e-01,0.000000000000000000e+00
1.448000000000000000e+03,1.554805474299577606e-01,0.000000000000000000e+00
1.449000000000000000e+03,5.100349338497333074e-01,0.000000000000000000e+00
1.450000000000000000e+03,-5.229174080963105986e-01,0.000000000000000000e+00
1.451000000000000000e+03,1.128750034610955790e-03,0.000000000000000000e+00
1.452000000000000000e+03,7.110320619127002972e-01,0.000000000000000000e+00
1.453000000000000000e+03,4.268368805240010250e-02,0.000000000000000000e+00
1.454000000000000000e+03,-3.279928646982787632e-01,0.000000000000000000e+00
1.455000000000000000e+03,5.717494123737749678e-01,0.000000000000000000e+00
1.456000000000000000e+03,8.571593479485782596e-02,0.000000000000000000e+00
1.457000000000000000e+03,1.461221098100028426e-01,0.000000000000000000e+00
1.458000000000000000e+03,1.755266719714154433e-01,0.000000000000000000e+00
1.459000000000000000e+03,1.746516175388665160e-01,0.000000000000000000e+00
1.460000000000000000e+03,-2.037792230270680377e-02,0.000000000000000000e+00
1.461000000000000000e+03,1.497893003355374279e-02,0.000000000000000000e+00
1.462000000000000000e+03,9.869074963509446574e-01,0.000000000000000000e+00
1.463000000000000000e+03,2.886346253077596735e+00,0.000000000000000000e+00
1.464000000000000000e+03,1.916388220287921496e-01,1.000000000000000000e+00
1.465000000000000000e+03,3.000127532494359026e-02,0.000000000000000000e+00
1.466000000000000000e+03,-1.184860325242817813e+00,0.000000000000000000e+00
1.467000000000000000e+03,-5.084979072299076197e-01,0.000000000000000000e+00
1.468000000000000000e+03,2.744304788787467753e-01,0.000000000000000000e+00
1.469000000000000000e+03,-3.898834371922461073e-01,0.000000000000000000e+00
1.470000000000000000e+03,4.597795728845264218e-01,0.000000000000000000e+00
1.471000000000000000e+03,-2.229292274223891313e-01,0.000000000000000000e+00
1.472000000000000000e+03,-3.427166284934485829e-01,0.000000000000000000e+00
1.473000000000000000e+03,-2.390085953503232330e-01,0.000000000000000000e+00
1.474000000000000000e+03,6.461432206169702708e-01,0.000000000000000000e+00
1.475000000000000000e+03,8.811043157474165608e-04,0.000000000000000000e+00
1.476000000000000000e+03,4.031020452259158615e-01,0.000000000000000000e+00
1.477000000000000000e+03,4.906409259640025500e-01,0.000000000000000000e+00
1.478000000000000000e+03,1.783830395891663922e+00,0.000000000000000000e+00
1.479000000000000000e+03,5.039076745856748696e-01,0.000000000000000000e+00
1.480000000000000000e+03,-6.803788017374695629e-02,0.000000000000000000e+00
1.481000000000000000e+03,1.031652634074496089e-01,0.000000000000000000e+00
1.482000000000000000e+03,-8.638298135560678048e-01,0.000000000000000000e+00
1.483000000000000000e+03,-8.326866904135520331e-01,0.000000000000000000e+00
1.484000000000000000e+03,-5.756589904187624507e-01,0.000000000000000000e+00
1.485000000000000000e+03,-1.769060059627070303e-01,0.000000000000000000e+00
1.486000000000000000e+03,-6.627265532897730349e-01,0.000000000000000000e+00
1.487000000000000000e+03,-4.011438642302866953e-02,0.000000000000000000e+00
1.488000000000000000e+03,2.694292567293784524e-01,0.000000000000000000e+00
1.489000000000000000e+03,-1.086640672303291533e+00,0.000000000000000000e+00
1.490000000000000000e+03,1.077526782209295708e-01,0.000000000000000000e+00
1.491000000000000000e+03,-3.691240212669618659e-01,0.000000000000000000e+00
1.492000000000000000e+03,2.660094576829779567e-01,0.000000000000000000e+00
1.493000000000000000e+03,-4.135261218191413901e-01,0.000000000000000000e+00
1.494000000000000000e+03,-1.220597115247900877e-01,0.000000000000000000e+00
1.495000000000000000e+03,-6.439219134231911612e-01,0.000000000000000000e+00
1.496000000000000000e+03,6.519092811471871585e-01,0.000000000000000000e+00
1.497000000000000000e+03,-1.098881837650874521e-01,0.000000000000000000e+00
1.498000000000000000e+03,1.255092918769939170e-01,0.000000000000000000e+00
1.499000000000000000e+03,3.111657386579937956e-01,0.000000000000000000e+00
1.500000000000000000e+03,5.610583609861109489e-01,0.000000000000000000e+00
1.501000000000000000e+03,-5.878489831300366397e-01,0.000000000000000000e+00
1.502000000000000000e+03,-3.589167834495960441e-01,0.000000000000000000e+00
1.503000000000000000e+03,1.529976605654954636e-01,0.000000000000000000e+00
1.504000000000000000e+03,2.475166220686741275e-02,0.000000000000000000e+00
1.505000000000000000e+03,1.605645895499882569e-01,0.000000000000000000e+00
1.506000000000000000e+03,2.455114978454397412e-01,0.000000000000000000e+00
1.507000000000000000e+03,3.367040447234243006e-01,0.000000000000000000e+00
1.508000000000000000e+03,-6.300710674709179004e-01,0.000000000000000000e+00
1.509000000000000000e+03,-1.211619118297625697e+00,0.000000000000000000e+00
1.510000000000000000e+03,2.220161081134019554e+00,0.000000000000000000e+00
1.511000000000000000e+03,2.248987234343418518e+00,0.000000000000000000e+00
1.512000000000000000e+03,-5.195815822677141149e-01,1.000000000000000000e+00
1.513000000000000000e+03,-9.935977236960573666e-01,0.000000000000000000e+00
1.514000000000000000e+03,-6.577468593653855722e-01,0.000000000000000000e+00
1.515000000000000000e+03,-1.956415190637141865e-01,0.000000000000000000e+00
1.516000000000000000e+03,-6.845292924083183905e-01,0.000000000000000000e+00
1.517000000000000000e+03,-2.611980586684301553e-01,0.000000000000000000e+00
1.518000000000000000e+03,-5.942204890749283042e-01,0.000000000000000000e+00
1.519000000000000000e+03,-3.024393002105000283e-01,0.000000000000000000e+00
1.520000000000000000e+03,1.073670122734153853e-01,0.000000000000000000e+00
1.521000000000000000e+03,-2.355256700529277936e-01,0.000000000000000000e+00
1.522000000000000000e+03,-6.536862532823919381e-01,0.000000000000000000e+00
1.523000000000000000e+03,5.744124370133578683e-01,0.000000000000000000e+00
1.524000000000000000e+03,1.181926645451305768e+00,0.000000000000000000e+00
1.525000000000000000e+03,7.696016409170036709e-01,0.000000000000000000e+00
1.526000000000000000e+03,9.834461039752386835e-01,0.000000000000000000e+00
1.527000000000000000e+03,7.441462366741108392e-01,0.000000000000000000e+00
1.528000000000000000e+03,8.318859141878223729e-02,0.000000000000000000e+00
1.529000000000000000e+03,-3.167901499322395287e-01,0.000000000000000000e+00
1.530000000000000000e+03,-4.186530637111124387e-01,0.000000000000000000e+00
1.531000000000000000e+03,-8.312414820877397359e-01,0.000000000000000000e+00
1.532000000000000000e+03,-3.457749054562760938e-01,0.000000000000000000e+00
1.533000000000000000e+03,-3.349948002747643039e-01,0.000000000000000000e+00
1.534000000000000000e+03,-3.054320212278416324e-01,0.000000000000000000e+00
1.535000000000000000e+03,-1.451069459298046926e-01,0.000000000000000000e+00
1.536000000000000000e+03,-1.505723352181635721e-01,0.000000000000000000e+00
1.537000000000000000e+03,6.108042801900936958e-02,0.000000000000000000e+00
1.538000000000000000e+03,3.304026326032569183e-02,0.000000000000000000e+00
1.539000000000000000e+03,-2.752557911177389571e-01,0.000000000000000000e+00
1.540000000000000000e+03,-7.332004992425436574e-02,0.000000000000000000e+00
1.541000000000000000e+03,-6.143176828568001069e-01,0.000000000000000000e+00
1.542000000000000000e+03,6.772668881655859174e-02,0.000000000000000000e+00
1.543000000000000000e+03,-4.176367331821172479e-01,0.000000000000000000e+00
1.544000000000000000e+03,-3.586247463640967470e-01,0.000000000000000000e+00
1.545000000000000000e+03,3.723844826588549872e-01,0.000000000000000000e+00
1.546000000000000000e+03,5.146443484449054750e-01,0.000000000000000000e+00
1.547000000000000000e+03,7.482423407622397493e-02,0.000000000000000000e+00
1.548000000000000000e+03,2.458164655763005468e-01,0.000000000000000000e+00
1.549000000000000000e+03,-7.071212493984624370e-01,0.000000000000000000e+00
1.550000000000000000e+03,-4.072943052123133012e-01,0.000000000000000000e+00
1.551000000000000000e+03,6.887489677641752683e-01,0.000000000000000000e+00
1.552000000000000000e+03,-9.735867647679680159e-02,0.000000000000000000e+00
1.553000000000000000e+03,-8.641695068174216898e-02,0.000000000000000000e+00
1.554000000000000000e+03,-1.103315583883515000e-01,0.000000000000000000e+00
1.555000000000000000e+03,4.238557454406097769e-01,0.000000000000000000e+00
1.556000000000000000e+03,-4.003635321613286946e-01,0.000000000000000000e+00
1.557000000000000000e+03,3.232973975353812257e-01,0.000000000000000000e+00
1.558000000000000000e+03,2.598039247278165043e+00,0.000000000000000000e+00
1.559000000000000000e+03,1.464545152823507390e+00,1.000000000000000000e+00
1.560000000000000000e+03,-1.226233990432305188e+00,0.000000000000000000e+00
1.561000000000000000e+03,-8.701790042193946473e-01,0.000000000000000000e+00
1.562000000000000000e+03,-3.241005069222323565e-01,0.000000000000000000e+00
1.563000000000000000e+03,-4.488806326602005070e-01,0.000000000000000000e+00
1.564000000000000000e+03,-5.673141270861175034e-01,0.000000000000000000e+00
1.565000000000000000e+03,5.187855119174805685e-02,0.000000000000000000e+00
1.566000000000000000e+03,-9.597416999801104687e-02,0.000000000000000000e+00
1.567000000000000000e+03,8.050294454095802132e-02,0.000000000000000000e+00
1.568000000000000000e+03,-6.148643631211709870e-01,0.000000000000000000e+00
1.569000000000000000e+03,1.138439865874965873e-01,0.000000000000000000e+00
1.570000000000000000e+03,1.368205606507303940e-01,0.000000000000000000e+00
1.571000000000000000e+03,1.057926251721292427e-01,0.000000000000000000e+00
1.572000000000000000e+03,8.526728993140501034e-01,0.000000000000000000e+00
1.573000000000000000e+03,3.130688918385456931e-01,0.000000000000000000e+00
1.574000000000000000e+03,5.179438682663869420e-01,0.000000000000000000e+00
1.575000000000000000e+03,1.293037654077227039e-01,0.000000000000000000e+00
1.576000000000000000e+03,-5.657716401374572879e-01,0.000000000000000000e+00
1.577000000000000000e+03,-2.687381390304772188e-01,0.000000000000000000e+00
1.578000000000000000e+03,-1.421653228863421159e+00,0.000000000000000000e+00
1.579000000000000000e+03,-5.114359489587440022e-01,0.000000000000000000e+00
1.580000000000000000e+03,-4.060677654607345866e-01,0.000000000000000000e+00
1.581000000000000000e+03,-6.146573393949962272e-01,0.000000000000000000e+00
1.582000000000000000e+03,-1.622949210840454182e-01,0.000000000000000000e+00
1.583000000000000000e+03,-3.097580327053248705e-01,0.000000000000000000e+00
1.584000000000000000e+03,-5.007243276081260186e-01,0.000000000000000000e+00
1.585000000000000000e+03,2.170704670265866110e-01,0.000000000000000000e+00
1.586000000000000000e+03,4.340761883025824330e-01,0.000000000000000000e+00
