timestamp,ecg_measurement,qrs_detected
0.000000000000000000e+00,-1.347419272094033671e+00,0.000000000000000000e+00
1.000000000000000000e+00,-1.089588847488816681e+00,0.000000000000000000e+00
2.000000000000000000e+00,-1.017906447795390967e+00,0.000000000000000000e+00
3.000000000000000000e+00,-8.794147343530946959e-01,0.000000000000000000e+00
4.000000000000000000e+00,-8.127461028971507684e-01,0.000000000000000000e+00
5.000000000000000000e+00,-5.543117542443950496e-01,0.000000000000000000e+00
6.000000000000000000e+00,-3.554874400234421250e-01,0.000000000000000000e+00
7.000000000000000000e+00,-1.046998624639277897e-01,0.000000000000000000e+00
8.000000000000000000e+00,2.683930859267325345e-02,0.000000000000000000e+00
9.000000000000000000e+00,1.790699535725918112e-01,0.000000000000000000e+00
1.000000000000000000e+01,8.528055200605490216e-02,0.000000000000000000e+00
1.100000000000000000e+01,-4.357255586673321884e-03,0.000000000000000000e+00
1.200000000000000000e+01,5.012565955773693599e-02,0.000000000000000000e+00
1.300000000000000000e+01,-7.215937777707788492e-02,0.000000000000000000e+00
1.400000000000000000e+01,5.571207970211984606e-02,0.000000000000000000e+00
1.500000000000000000e+01,-8.022928626436566513e-02,0.000000000000000000e+00
1.600000000000000000e+01,1.233090009742194085e-02,0.000000000000000000e+00
1.700000000000000000e+01,2.721399933984574096e-02,0.000000000000000000e+00
1.800000000000000000e+01,1.048544423978125806e-01,0.000000000000000000e+00
1.900000000000000000e+01,1.403464656589659965e-01,0.000000000000000000e+00
2.000000000000000000e+01,9.135102436561870487e-02,0.000000000000000000e+00
2.100000000000000000e+01,1.293995506720459765e-01,0.000000000000000000e+00
2.200000000000000000e+01,1.794093751656578584e-01,0.000000000000000000e+00
2.300000000000000000e+01,1.229721232503030171e-01,0.000000000000000000e+00
2.400000000000000000e+01,1.371549405379766662e-01,0.000000000000000000e+00
2.500000000000000000e+01,1.217803449228124363e-01,0.000000000000000000e+00
2.600000000000000000e+01,2.298979708384001897e-01,0.000000000000000000e+00
2.700000000000000000e+01,2.553230039266423668e-01,0.000000000000000000e+00
2.800000000000000000e+01,3.628635476620137856e-01,0.000000000000000000e+00
2.900000000000000000e+01,2.403167017427829399e-01,0.000000000000000000e+00
3.000000000000000000e+01,9.540578762444949790e-02,0.000000000000000000e+00
3.100000000000000000e+01,2.365329175099516179e-02,0.000000000000000000e+00
3.200000000000000000e+01,6.255286798342581112e-02,0.000000000000000000e+00
3.300000000000000000e+01,3.826067457943790884e-02,0.000000000000000000e+00
3.400000000000000000e+01,1.215073786176132792e-01,0.000000000000000000e+00
3.500000000000000000e+01,3.401539727716053063e-01,0.000000000000000000e+00
3.600000000000000000e+01,1.791911227485373903e+00,0.000000000000000000e+00
3.700000000000000000e+01,2.278198328659878591e+00,0.000000000000000000e+00
3.800000000000000000e+01,2.667568585572569706e+00,0.000000000000000000e+00
3.900000000000000000e+01,2.559930325332751000e+00,0.000000000000000000e+00
4.000000000000000000e+01,2.228583353000554990e+00,0.000000000000000000e+00
4.100000000000000000e+01,5.946175554433774657e-01,0.000000000000000000e+00
4.200000000000000000e+01,-1.782664798516720772e+00,1.000000000000000000e+00
4.300000000000000000e+01,-1.891277967821878070e+00,0.000000000000000000e+00
4.400000000000000000e+01,-1.930619064350870051e+00,0.000000000000000000e+00
4.500000000000000000e+01,-1.626092795427653614e+00,0.000000000000000000e+00
4.600000000000000000e+01,-1.484303185285897220e+00,0.000000000000000000e+00
4.700000000000000000e+01,-1.314215331146261878e+00,0.000000000000000000e+00
4.800000000000000000e+01,-1.215604882010344889e+00,0.000000000000000000e+00
4.900000000000000000e+01,-1.022695292674867584e+00,0.000000000000000000e+00
5.000000000000000000e+01,-9.001670288667464881e-01,0.000000000000000000e+00
5.100000000000000000e+01,-8.417083926910945424e-01,0.000000000000000000e+00
5.200000000000000000e+01,-7.827319914131255496e-01,0.000000000000000000e+00
5.300000000000000000e+01,-3.368581499242965793e-01,0.000000000000000000e+00
5.400000000000000000e+01,-2.784715340806017680e-01,0.000000000000000000e+00
5.500000000000000000e+01,9.641511798742494199e-02,0.000000000000000000e+00
5.600000000000000000e+01,3.656448726705669450e-01,0.000000000000000000e+00
5.700000000000000000e+01,3.814393402419381518e-01,0.000000000000000000e+00
5.800000000000000000e+01,2.517960643541298227e-01,0.000000000000000000e+00
5.900000000000000000e+01,1.698993667928878903e-01,0.000000000000000000e+00
6.000000000000000000e+01,1.965078008914498964e-01,0.000000000000000000e+00
6.100000000000000000e+01,1.480211338273037525e-01,0.000000000000000000e+00
6.200000000000000000e+01,1.968157574298415036e-01,0.000000000000000000e+00
6.300000000000000000e+01,1.492869056717111287e-01,0.000000000000000000e+00
6.400000000000000000e+01,1.303005216304274627e-01,0.000000000000000000e+00
6.500000000000000000e+01,1.694135464437347416e-01,0.000000000000000000e+00
6.600000000000000000e+01,2.497119788613824110e-01,0.000000000000000000e+00
6.700000000000000000e+01,2.134546907655740511e-01,0.000000000000000000e+00
6.800000000000000000e+01,2.780164909665365225e-01,0.000000000000000000e+00
6.900000000000000000e+01,2.868374066584117865e-01,0.000000000000000000e+00
7.000000000000000000e+01,1.916145223750462534e-01,0.000000000000000000e+00
7.100000000000000000e+01,3.844105766470349295e-01,0.000000000000000000e+00
7.200000000000000000e+01,3.168362516286027386e-01,0.000000000000000000e+00
7.300000000000000000e+01,3.785786223722383825e-01,0.000000000000000000e+00
7.400000000000000000e+01,3.791271731308736292e-01,0.000000000000000000e+00
7.500000000000000000e+01,3.962046553614559929e-01,0.000000000000000000e+00
7.600000000000000000e+01,4.837456996760973182e-01,0.000000000000000000e+00
7.700000000000000000e+01,6.750880324414224587e-01,0.000000000000000000e+00
7.800000000000000000e+01,3.456219448284472695e-01,0.000000000000000000e+00
7.900000000000000000e+01,2.452687209029675575e-01,0.000000000000000000e+00
8.000000000000000000e+01,8.715654479302410718e-02,0.000000000000000000e+00
8.100000000000000000e+01,2.194619668119029143e-01,0.000000000000000000e+00
8.200000000000000000e+01,4.528498694800001806e-02,0.000000000000000000e+00
8.300000000000000000e+01,8.985752475612340806e-02,0.000000000000000000e+00
8.400000000000000000e+01,2.872209517140767998e-01,0.000000000000000000e+00
8.500000000000000000e+01,1.828182626470814087e+00,0.000000000000000000e+00
8.600000000000000000e+01,2.093261724894091458e+00,0.000000000000000000e+00
8.700000000000000000e+01,2.473174631221095154e+00,0.000000000000000000e+00
8.800000000000000000e+01,2.144364882764304259e+00,0.000000000000000000e+00
8.900000000000000000e+01,2.092964098471085777e+00,0.000000000000000000e+00
9.000000000000000000e+01,4.680814921672111772e-01,0.000000000000000000e+00
9.100000000000000000e+01,-1.682714143051110778e+00,1.000000000000000000e+00
9.200000000000000000e+01,-1.828672654361233718e+00,0.000000000000000000e+00
9.300000000000000000e+01,-1.804062322154811993e+00,0.000000000000000000e+00
9.400000000000000000e+01,-1.568739690792094299e+00,0.000000000000000000e+00
9.500000000000000000e+01,-1.483519753461014057e+00,0.000000000000000000e+00
9.600000000000000000e+01,-1.335636897370411580e+00,0.000000000000000000e+00
9.700000000000000000e+01,-1.213067582248997134e+00,0.000000000000000000e+00
9.800000000000000000e+01,-1.119559278157753690e+00,0.000000000000000000e+00
9.900000000000000000e+01,-1.013770422713470731e+00,0.000000000000000000e+00
1.000000000000000000e+02,-8.891201434759153921e-01,0.000000000000000000e+00
1.010000000000000000e+02,-8.129403303035670492e-01,0.000000000000000000e+00
1.020000000000000000e+02,-6.479756431738942224e-01,0.000000000000000000e+00
1.030000000000000000e+02,-3.229188213855525569e-01,0.000000000000000000e+00
1.040000000000000000e+02,-1.210603611261360929e-01,0.000000000000000000e+00
1.050000000000000000e+02,8.405334204410555565e-02,0.000000000000000000e+00
1.060000000000000000e+02,1.288274666175619754e-01,0.000000000000000000e+00
1.070000000000000000e+02,2.565961887432965591e-02,0.000000000000000000e+00
1.080000000000000000e+02,-2.205332098414054809e-02,0.000000000000000000e+00
1.090000000000000000e+02,-7.262401558803037449e-02,0.000000000000000000e+00
1.100000000000000000e+02,-7.376904904990076728e-02,0.000000000000000000e+00
1.110000000000000000e+02,-6.325402347539026138e-02,0.000000000000000000e+00
1.120000000000000000e+02,-2.618337876036838305e-02,0.000000000000000000e+00
1.130000000000000000e+02,-3.055951995766898951e-02,0.000000000000000000e+00
1.140000000000000000e+02,-6.151517456477496870e-02,0.000000000000000000e+00
1.150000000000000000e+02,4.251461305343928743e-02,0.000000000000000000e+00
1.160000000000000000e+02,-1.497055160622018551e-02,0.000000000000000000e+00
1.170000000000000000e+02,1.015723940631930583e-01,0.000000000000000000e+00
1.180000000000000000e+02,5.952967068778809712e-02,0.000000000000000000e+00
1.190000000000000000e+02,1.534292190699120817e-01,0.000000000000000000e+00
1.200000000000000000e+02,1.773880977578268930e-02,0.000000000000000000e+00
1.210000000000000000e+02,2.069863081270451877e-01,0.000000000000000000e+00
1.220000000000000000e+02,6.116283827056290950e-02,0.000000000000000000e+00
1.230000000000000000e+02,1.031211542189865993e-01,0.000000000000000000e+00
1.240000000000000000e+02,1.931336519351225800e-01,0.000000000000000000e+00
1.250000000000000000e+02,3.676872704691433458e-01,0.000000000000000000e+00
1.260000000000000000e+02,2.623903875249956608e-01,0.000000000000000000e+00
1.270000000000000000e+02,2.557959675708776012e-02,0.000000000000000000e+00
1.280000000000000000e+02,-1.880399340950040729e-02,0.000000000000000000e+00
1.290000000000000000e+02,3.125100112819487880e-02,0.000000000000000000e+00
1.300000000000000000e+02,1.029028290437733299e-02,0.000000000000000000e+00
1.310000000000000000e+02,6.803541003585801550e-02,0.000000000000000000e+00
1.320000000000000000e+02,1.443995705542011621e-01,0.000000000000000000e+00
1.330000000000000000e+02,1.286230297585216675e+00,0.000000000000000000e+00
1.340000000000000000e+02,2.132600076031400782e+00,0.000000000000000000e+00
1.350000000000000000e+02,2.591453993333960426e+00,0.000000000000000000e+00
1.360000000000000000e+02,2.518591433676886204e+00,0.000000000000000000e+00
1.370000000000000000e+02,2.170037862172740972e+00,0.000000000000000000e+00
1.380000000000000000e+02,1.195267270170617957e+00,0.000000000000000000e+00
1.390000000000000000e+02,-1.456698211316737934e+00,1.000000000000000000e+00
1.400000000000000000e+02,-1.982393637114757468e+00,0.000000000000000000e+00
1.410000000000000000e+02,-1.989924619252592564e+00,0.000000000000000000e+00
1.420000000000000000e+02,-1.744201301818557370e+00,0.000000000000000000e+00
1.430000000000000000e+02,-1.568401339999240696e+00,0.000000000000000000e+00
1.440000000000000000e+02,-1.356821761926827019e+00,0.000000000000000000e+00
1.450000000000000000e+02,-1.378772167773658852e+00,0.000000000000000000e+00
1.460000000000000000e+02,-1.221939498589126316e+00,0.000000000000000000e+00
1.470000000000000000e+02,-1.021617226886868623e+00,0.000000000000000000e+00
1.480000000000000000e+02,-9.744691585165230485e-01,0.000000000000000000e+00
1.490000000000000000e+02,-7.909216532855800619e-01,0.000000000000000000e+00
1.500000000000000000e+02,-5.222261906562490896e-01,0.000000000000000000e+00
1.510000000000000000e+02,-4.111806256627041911e-01,0.000000000000000000e+00
1.520000000000000000e+02,-4.693688953574761367e-03,0.000000000000000000e+00
1.530000000000000000e+02,2.965885492115189481e-01,0.000000000000000000e+00
1.540000000000000000e+02,3.700952888988994216e-01,0.000000000000000000e+00
1.550000000000000000e+02,2.681516602666885185e-01,0.000000000000000000e+00
1.560000000000000000e+02,2.119916155621645593e-01,0.000000000000000000e+00
1.570000000000000000e+02,1.886719089074287981e-01,0.000000000000000000e+00
1.580000000000000000e+02,1.326752903145220208e-01,0.000000000000000000e+00
1.590000000000000000e+02,1.532190390825483861e-01,0.000000000000000000e+00
1.600000000000000000e+02,1.906166078000745834e-01,0.000000000000000000e+00
1.610000000000000000e+02,2.128086162859560981e-01,0.000000000000000000e+00
1.620000000000000000e+02,8.340501920818980952e-02,0.000000000000000000e+00
1.630000000000000000e+02,2.126086252970107449e-01,0.000000000000000000e+00
1.640000000000000000e+02,1.864772908264542006e-01,0.000000000000000000e+00
1.650000000000000000e+02,2.924310819266501826e-01,0.000000000000000000e+00
1.660000000000000000e+02,2.456295269546583115e-01,0.000000000000000000e+00
1.670000000000000000e+02,2.420970184146381821e-01,0.000000000000000000e+00
1.680000000000000000e+02,2.779977017571574338e-01,0.000000000000000000e+00
1.690000000000000000e+02,2.282167041470014868e-01,0.000000000000000000e+00
1.700000000000000000e+02,3.104948152364296887e-01,0.000000000000000000e+00
1.710000000000000000e+02,2.297542459581682628e-01,0.000000000000000000e+00
1.720000000000000000e+02,2.496858121495746374e-01,0.000000000000000000e+00
1.730000000000000000e+02,2.656915135399065542e-01,0.000000000000000000e+00
1.740000000000000000e+02,3.922249013473826373e-01,0.000000000000000000e+00
1.750000000000000000e+02,4.867482081757583678e-01,0.000000000000000000e+00
1.760000000000000000e+02,2.708775669870776004e-01,0.000000000000000000e+00
1.770000000000000000e+02,5.340961412097161576e-02,0.000000000000000000e+00
1.780000000000000000e+02,1.508635084792451786e-01,0.000000000000000000e+00
1.790000000000000000e+02,3.875411438484942933e-02,0.000000000000000000e+00
1.800000000000000000e+02,-6.698475939246889554e-02,0.000000000000000000e+00
1.810000000000000000e+02,6.479302558285816860e-02,0.000000000000000000e+00
1.820000000000000000e+02,3.704135140006650784e-01,0.000000000000000000e+00
1.830000000000000000e+02,1.691030232272748401e+00,0.000000000000000000e+00
1.840000000000000000e+02,2.460321785431266672e+00,0.000000000000000000e+00
1.850000000000000000e+02,2.772572234666469626e+00,0.000000000000000000e+00
1.860000000000000000e+02,2.356689665543494350e+00,0.000000000000000000e+00
1.870000000000000000e+02,2.178511275725062646e+00,0.000000000000000000e+00
1.880000000000000000e+02,4.125134568930211576e-01,0.000000000000000000e+00
1.890000000000000000e+02,-2.036952234039413945e+00,1.000000000000000000e+00
1.900000000000000000e+02,-2.123792652751807175e+00,0.000000000000000000e+00
1.910000000000000000e+02,-2.109938065308130550e+00,0.000000000000000000e+00
1.920000000000000000e+02,-1.797095707641648499e+00,0.000000000000000000e+00
1.930000000000000000e+02,-1.690193801514468408e+00,0.000000000000000000e+00
1.940000000000000000e+02,-1.546476236061191889e+00,0.000000000000000000e+00
1.950000000000000000e+02,-1.395751495373955375e+00,0.000000000000000000e+00
1.960000000000000000e+02,-1.161789612890953061e+00,0.000000000000000000e+00
1.970000000000000000e+02,-1.065921328829522174e+00,0.000000000000000000e+00
1.980000000000000000e+02,-8.827755787620752415e-01,0.000000000000000000e+00
1.990000000000000000e+02,-8.368885635075643536e-01,0.000000000000000000e+00
2.000000000000000000e+02,-5.773512910537040854e-01,0.000000000000000000e+00
2.010000000000000000e+02,-2.214082672171497346e-01,0.000000000000000000e+00
2.020000000000000000e+02,1.997788174145154541e-02,0.000000000000000000e+00
2.030000000000000000e+02,2.563846650639700075e-01,0.000000000000000000e+00
2.040000000000000000e+02,2.243356784603511844e-01,0.000000000000000000e+00
2.050000000000000000e+02,1.340350785046240945e-01,0.000000000000000000e+00
2.060000000000000000e+02,7.588167175862581271e-03,0.000000000000000000e+00
2.070000000000000000e+02,8.118167695546134321e-02,0.000000000000000000e+00
2.080000000000000000e+02,8.422643965815825029e-02,0.000000000000000000e+00
2.090000000000000000e+02,-2.463332827751607557e-02,0.000000000000000000e+00
2.100000000000000000e+02,1.027817515890515343e-01,0.000000000000000000e+00
2.110000000000000000e+02,-7.925589719762296884e-03,0.000000000000000000e+00
2.120000000000000000e+02,7.871422062387743723e-02,0.000000000000000000e+00
2.130000000000000000e+02,1.587311137446059117e-01,0.000000000000000000e+00
2.140000000000000000e+02,1.472715792447468475e-01,0.000000000000000000e+00
2.150000000000000000e+02,1.829152918024573860e-01,0.000000000000000000e+00
2.160000000000000000e+02,1.544295194972409857e-01,0.000000000000000000e+00
2.170000000000000000e+02,1.367009361450541860e-01,0.000000000000000000e+00
2.180000000000000000e+02,2.408222851459211333e-01,0.000000000000000000e+00
2.190000000000000000e+02,2.325129514963145683e-01,0.000000000000000000e+00
2.200000000000000000e+02,1.781924602124439760e-01,0.000000000000000000e+00
2.210000000000000000e+02,2.747426345790913160e-01,0.000000000000000000e+00
2.220000000000000000e+02,2.835681913039921898e-01,0.000000000000000000e+00
2.230000000000000000e+02,3.332372323025854510e-01,0.000000000000000000e+00
2.240000000000000000e+02,3.954851529994805603e-01,0.000000000000000000e+00
2.250000000000000000e+02,1.246638072355237686e-01,0.000000000000000000e+00
2.260000000000000000e+02,4.599856198746192504e-02,0.000000000000000000e+00
2.270000000000000000e+02,3.289121505918795891e-03,0.000000000000000000e+00
2.280000000000000000e+02,7.260417395005780601e-03,0.000000000000000000e+00
2.290000000000000000e+02,7.471184302824231127e-02,0.000000000000000000e+00
2.300000000000000000e+02,6.079949588476282751e-02,0.000000000000000000e+00
2.310000000000000000e+02,8.248675253647134165e-01,0.000000000000000000e+00
2.320000000000000000e+02,2.012075047913770565e+00,0.000000000000000000e+00
2.330000000000000000e+02,2.097715426248059511e+00,0.000000000000000000e+00
2.340000000000000000e+02,2.492147647797672949e+00,0.000000000000000000e+00
2.350000000000000000e+02,2.041825175058045616e+00,0.000000000000000000e+00
2.360000000000000000e+02,1.884463347577986170e+00,0.000000000000000000e+00
2.370000000000000000e+02,-4.761801452621997055e-01,0.000000000000000000e+00
2.380000000000000000e+02,-1.830792526029479728e+00,1.000000000000000000e+00
2.390000000000000000e+02,-1.827744847561981301e+00,0.000000000000000000e+00
2.400000000000000000e+02,-1.732191681471097366e+00,0.000000000000000000e+00
2.410000000000000000e+02,-1.479868535679878194e+00,0.000000000000000000e+00
2.420000000000000000e+02,-1.378356713994007388e+00,0.000000000000000000e+00
2.430000000000000000e+02,-1.224851446827895263e+00,0.000000000000000000e+00
2.440000000000000000e+02,-1.178725478723964049e+00,0.000000000000000000e+00
2.450000000000000000e+02,-8.674921661956107588e-01,0.000000000000000000e+00
2.460000000000000000e+02,-9.049545740231697000e-01,0.000000000000000000e+00
2.470000000000000000e+02,-7.148076003749710416e-01,0.000000000000000000e+00
2.480000000000000000e+02,-6.358742941209114541e-01,0.000000000000000000e+00
2.490000000000000000e+02,-4.230452009915372513e-01,0.000000000000000000e+00
2.500000000000000000e+02,-1.670202834195120556e-01,0.000000000000000000e+00
2.510000000000000000e+02,8.745316405698544404e-02,0.000000000000000000e+00
2.520000000000000000e+02,1.001275312850826993e-01,0.000000000000000000e+00
2.530000000000000000e+02,2.124631099988320004e-01,0.000000000000000000e+00
2.540000000000000000e+02,9.422696450242458444e-02,0.000000000000000000e+00
2.550000000000000000e+02,-6.045251663891795454e-03,0.000000000000000000e+00
2.560000000000000000e+02,8.971538883154970417e-03,0.000000000000000000e+00
2.570000000000000000e+02,-6.612255945898211362e-02,0.000000000000000000e+00
2.580000000000000000e+02,5.097619190937104083e-02,0.000000000000000000e+00
2.590000000000000000e+02,4.850927269318894286e-02,0.000000000000000000e+00
2.600000000000000000e+02,1.860759029803513848e-02,0.000000000000000000e+00
2.610000000000000000e+02,8.135660792390823903e-02,0.000000000000000000e+00
2.620000000000000000e+02,1.189114302709550625e-01,0.000000000000000000e+00
2.630000000000000000e+02,1.543711035532186471e-01,0.000000000000000000e+00
2.640000000000000000e+02,2.270024161318563161e-01,0.000000000000000000e+00
2.650000000000000000e+02,1.649619879259374700e-01,0.000000000000000000e+00
2.660000000000000000e+02,1.589808642220468249e-01,0.000000000000000000e+00
2.670000000000000000e+02,2.718576661844399611e-01,0.000000000000000000e+00
2.680000000000000000e+02,1.276710772433016783e-01,0.000000000000000000e+00
2.690000000000000000e+02,2.502220782332125193e-01,0.000000000000000000e+00
2.700000000000000000e+02,1.381968505275621151e-01,0.000000000000000000e+00
2.710000000000000000e+02,2.305234017670605151e-01,0.000000000000000000e+00
2.720000000000000000e+02,2.062800481955126830e-01,0.000000000000000000e+00
2.730000000000000000e+02,4.149811567786670929e-01,0.000000000000000000e+00
2.740000000000000000e+02,3.812986292225448715e-01,0.000000000000000000e+00
2.750000000000000000e+02,3.395556956743592952e-02,0.000000000000000000e+00
2.760000000000000000e+02,1.032963579830051548e-01,0.000000000000000000e+00
2.770000000000000000e+02,5.331013721401477515e-03,0.000000000000000000e+00
2.780000000000000000e+02,-5.589700727540736908e-02,0.000000000000000000e+00
2.790000000000000000e+02,-2.961351894250293174e-02,0.000000000000000000e+00
2.800000000000000000e+02,5.282075438510658132e-03,0.000000000000000000e+00
2.810000000000000000e+02,1.026665140787630381e+00,0.000000000000000000e+00
2.820000000000000000e+02,2.101561326399737695e+00,0.000000000000000000e+00
2.830000000000000000e+02,2.576275326791595432e+00,0.000000000000000000e+00
2.840000000000000000e+02,2.542941648887568018e+00,0.000000000000000000e+00
2.850000000000000000e+02,2.247083495794177210e+00,0.000000000000000000e+00
2.860000000000000000e+02,1.535783081139576955e+00,0.000000000000000000e+00
2.870000000000000000e+02,-1.208291737511687058e+00,1.000000000000000000e+00
2.880000000000000000e+02,-2.059932772330284934e+00,0.000000000000000000e+00
2.890000000000000000e+02,-2.113911365105377804e+00,0.000000000000000000e+00
2.900000000000000000e+02,-1.841382289303529207e+00,0.000000000000000000e+00
2.910000000000000000e+02,-1.672188179297130706e+00,0.000000000000000000e+00
2.920000000000000000e+02,-1.586252304802623581e+00,0.000000000000000000e+00
2.930000000000000000e+02,-1.437430376452794256e+00,0.000000000000000000e+00
2.940000000000000000e+02,-1.193889739209864187e+00,0.000000000000000000e+00
2.950000000000000000e+02,-1.123833679437884037e+00,0.000000000000000000e+00
2.960000000000000000e+02,-9.712492392872357216e-01,0.000000000000000000e+00
2.970000000000000000e+02,-8.841857004705305778e-01,0.000000000000000000e+00
2.980000000000000000e+02,-6.857430881978043846e-01,0.000000000000000000e+00
2.990000000000000000e+02,-4.238679625454757072e-01,0.000000000000000000e+00
3.000000000000000000e+02,-9.983789749510807443e-02,0.000000000000000000e+00
3.010000000000000000e+02,2.158621216866086490e-01,0.000000000000000000e+00
3.020000000000000000e+02,3.043538354310711402e-01,0.000000000000000000e+00
3.030000000000000000e+02,2.360783161435701660e-01,0.000000000000000000e+00
3.040000000000000000e+02,2.494515342203401098e-01,0.000000000000000000e+00
3.050000000000000000e+02,1.416486786185977287e-01,0.000000000000000000e+00
3.060000000000000000e+02,2.629005450644261166e-01,0.000000000000000000e+00
3.070000000000000000e+02,1.864312619188308318e-01,0.000000000000000000e+00
3.080000000000000000e+02,1.479550105758637157e-01,0.000000000000000000e+00
3.090000000000000000e+02,2.039485357041055935e-01,0.000000000000000000e+00
3.100000000000000000e+02,1.144727885857761834e-01,0.000000000000000000e+00
3.110000000000000000e+02,1.417384778852756877e-01,0.000000000000000000e+00
3.120000000000000000e+02,2.408893281965047428e-01,0.000000000000000000e+00
3.130000000000000000e+02,1.988893092563389364e-01,0.000000000000000000e+00
3.140000000000000000e+02,3.374315818051931148e-01,0.000000000000000000e+00
3.150000000000000000e+02,2.741827733743254503e-01,0.000000000000000000e+00
3.160000000000000000e+02,2.734229360429603628e-01,0.000000000000000000e+00
3.170000000000000000e+02,2.590804239653066166e-01,0.000000000000000000e+00
3.180000000000000000e+02,2.449764426177906962e-01,0.000000000000000000e+00
3.190000000000000000e+02,3.415088471421062755e-01,0.000000000000000000e+00
3.200000000000000000e+02,2.360960884387150183e-01,0.000000000000000000e+00
3.210000000000000000e+02,3.372872508533452107e-01,0.000000000000000000e+00
3.220000000000000000e+02,2.080475799157569528e-01,0.000000000000000000e+00
3.230000000000000000e+02,4.276835228080725360e-01,0.000000000000000000e+00
3.240000000000000000e+02,3.965571809846950013e-01,0.000000000000000000e+00
3.250000000000000000e+02,2.681842760032155382e-01,0.000000000000000000e+00
3.260000000000000000e+02,7.334102931593340646e-02,0.000000000000000000e+00
3.270000000000000000e+02,8.636758130501268060e-02,0.000000000000000000e+00
3.280000000000000000e+02,3.046782593541271303e-02,0.000000000000000000e+00
3.290000000000000000e+02,1.020292735595653005e-01,0.000000000000000000e+00
3.300000000000000000e+02,7.108155272275481357e-03,0.000000000000000000e+00
3.310000000000000000e+02,6.567846180711004456e-01,0.000000000000000000e+00
3.320000000000000000e+02,1.931671726063239669e+00,0.000000000000000000e+00
3.330000000000000000e+02,2.456961962088231033e+00,0.000000000000000000e+00
3.340000000000000000e+02,2.701777982159604630e+00,0.000000000000000000e+00
3.350000000000000000e+02,2.275111900381641128e+00,0.000000000000000000e+00
3.360000000000000000e+02,1.947345332131157347e+00,0.000000000000000000e+00
3.370000000000000000e+02,-5.251804930549457406e-01,0.000000000000000000e+00
3.380000000000000000e+02,-2.130702599130121833e+00,1.000000000000000000e+00
3.390000000000000000e+02,-2.056831577123018562e+00,0.000000000000000000e+00
3.400000000000000000e+02,-1.916825668223720580e+00,0.000000000000000000e+00
3.410000000000000000e+02,-1.744066896954925339e+00,0.000000000000000000e+00
3.420000000000000000e+02,-1.578740151100386901e+00,0.000000000000000000e+00
3.430000000000000000e+02,-1.447285209079007373e+00,0.000000000000000000e+00
3.440000000000000000e+02,-1.238562541266184480e+00,0.000000000000000000e+00
3.450000000000000000e+02,-1.139966192075251961e+00,0.000000000000000000e+00
3.460000000000000000e+02,-1.055601123850262280e+00,0.000000000000000000e+00
3.470000000000000000e+02,-8.635585444096247620e-01,0.000000000000000000e+00
3.480000000000000000e+02,-7.470154616380421109e-01,0.000000000000000000e+00
3.490000000000000000e+02,-5.547241776108298161e-01,0.000000000000000000e+00
3.500000000000000000e+02,-2.525421139720315233e-01,0.000000000000000000e+00
3.510000000000000000e+02,6.139159046687705373e-02,0.000000000000000000e+00
3.520000000000000000e+02,2.092961632430492547e-01,0.000000000000000000e+00
3.530000000000000000e+02,2.059911125853464697e-01,0.000000000000000000e+00
3.540000000000000000e+02,9.836274923419863897e-03,0.000000000000000000e+00
3.550000000000000000e+02,-1.047895855943625602e-02,0.000000000000000000e+00
3.560000000000000000e+02,-3.465326382736050315e-02,0.000000000000000000e+00
3.570000000000000000e+02,-1.997826484504295827e-02,0.000000000000000000e+00
3.580000000000000000e+02,-1.957141331202873202e-01,0.000000000000000000e+00
3.590000000000000000e+02,-7.242338847826586268e-02,0.000000000000000000e+00
3.600000000000000000e+02,-3.146061940362521181e-02,0.000000000000000000e+00
3.610000000000000000e+02,4.958693150577389228e-03,0.000000000000000000e+00
3.620000000000000000e+02,2.437148762098269306e-02,0.000000000000000000e+00
3.630000000000000000e+02,7.573378857913361240e-02,0.000000000000000000e+00
3.640000000000000000e+02,1.810232944463757154e-01,0.000000000000000000e+00
3.650000000000000000e+02,2.364260099222177947e-01,0.000000000000000000e+00
3.660000000000000000e+02,1.360101767426176722e-01,0.000000000000000000e+00
3.670000000000000000e+02,2.003866629459194193e-01,0.000000000000000000e+00
3.680000000000000000e+02,1.903924517627814672e-01,0.000000000000000000e+00
3.690000000000000000e+02,1.534576564814208177e-01,0.000000000000000000e+00
3.700000000000000000e+02,1.502746388319276816e-01,0.000000000000000000e+00
3.710000000000000000e+02,2.377919999186971223e-01,0.000000000000000000e+00
3.720000000000000000e+02,3.165302859275415104e-01,0.000000000000000000e+00
3.730000000000000000e+02,4.163386854767277545e-01,0.000000000000000000e+00
3.740000000000000000e+02,1.742015710345971580e-01,0.000000000000000000e+00
3.750000000000000000e+02,1.513693854624792445e-01,0.000000000000000000e+00
3.760000000000000000e+02,6.049025370687258207e-02,0.000000000000000000e+00
3.770000000000000000e+02,8.841070382135947370e-02,0.000000000000000000e+00
3.780000000000000000e+02,1.573571481292983243e-01,0.000000000000000000e+00
3.790000000000000000e+02,-1.099261476095434592e-02,0.000000000000000000e+00
3.800000000000000000e+02,8.295423415860672112e-01,0.000000000000000000e+00
3.810000000000000000e+02,1.897892259834088602e+00,0.000000000000000000e+00
3.820000000000000000e+02,1.934274183387843848e+00,0.000000000000000000e+00
3.830000000000000000e+02,2.274222589429557129e+00,0.000000000000000000e+00
3.840000000000000000e+02,1.878529796659492268e+00,0.000000000000000000e+00
3.850000000000000000e+02,1.760966467365163934e+00,0.000000000000000000e+00
3.860000000000000000e+02,-5.045128950158288550e-01,0.000000000000000000e+00
3.870000000000000000e+02,-1.840622140035006682e+00,1.000000000000000000e+00
3.880000000000000000e+02,-1.827898851635668676e+00,0.000000000000000000e+00
3.890000000000000000e+02,-1.625229525032310995e+00,0.000000000000000000e+00
3.900000000000000000e+02,-1.508872668959859942e+00,0.000000000000000000e+00
3.910000000000000000e+02,-1.467156555130903817e+00,0.000000000000000000e+00
3.920000000000000000e+02,-1.216553472217162035e+00,0.000000000000000000e+00
3.930000000000000000e+02,-1.187432461147272189e+00,0.000000000000000000e+00
3.940000000000000000e+02,-9.765799825030576642e-01,0.000000000000000000e+00
3.950000000000000000e+02,-8.510926162728521538e-01,0.000000000000000000e+00
3.960000000000000000e+02,-7.869633583789870102e-01,0.000000000000000000e+00
3.970000000000000000e+02,-5.711972081579592686e-01,0.000000000000000000e+00
3.980000000000000000e+02,-3.866597014594475579e-01,0.000000000000000000e+00
3.990000000000000000e+02,-1.027696246006864073e-01,0.000000000000000000e+00
4.000000000000000000e+02,1.452529277672120478e-01,0.000000000000000000e+00
4.010000000000000000e+02,2.965354008206249059e-01,0.000000000000000000e+00
4.020000000000000000e+02,2.705921207693544051e-01,0.000000000000000000e+00
4.030000000000000000e+02,1.601682566319798662e-01,0.000000000000000000e+00
4.040000000000000000e+02,8.693898175262131101e-02,0.000000000000000000e+00
4.050000000000000000e+02,5.951769422313141211e-02,0.000000000000000000e+00
4.060000000000000000e+02,4.917864686223196585e-02,0.000000000000000000e+00
4.070000000000000000e+02,8.950556196980294366e-02,0.000000000000000000e+00
4.080000000000000000e+02,1.123997032330100176e-01,0.000000000000000000e+00
4.090000000000000000e+02,1.013637703963957692e-01,0.000000000000000000e+00
4.100000000000000000e+02,1.277918513039210668e-01,0.000000000000000000e+00
4.110000000000000000e+02,1.849128304987833760e-01,0.000000000000000000e+00
4.120000000000000000e+02,2.435098908248755079e-01,0.000000000000000000e+00
4.130000000000000000e+02,2.715131107430296398e-01,0.000000000000000000e+00
4.140000000000000000e+02,3.264702996295517634e-01,0.000000000000000000e+00
4.150000000000000000e+02,2.688186287684053433e-01,0.000000000000000000e+00
4.160000000000000000e+02,2.579800937919956016e-01,0.000000000000000000e+00
4.170000000000000000e+02,2.455370791848731360e-01,0.000000000000000000e+00
4.180000000000000000e+02,3.178542141269489751e-01,0.000000000000000000e+00
4.190000000000000000e+02,2.705856714424207388e-01,0.000000000000000000e+00
4.200000000000000000e+02,3.529180371660468607e-01,0.000000000000000000e+00
4.210000000000000000e+02,3.132072690464275388e-01,0.000000000000000000e+00
4.220000000000000000e+02,4.435320169062921258e-01,0.000000000000000000e+00
4.230000000000000000e+02,5.144613791973983163e-01,0.000000000000000000e+00
4.240000000000000000e+02,2.869654217514339134e-01,0.000000000000000000e+00
4.250000000000000000e+02,1.758514326977764775e-01,0.000000000000000000e+00
4.260000000000000000e+02,1.164977262056470647e-01,0.000000000000000000e+00
4.270000000000000000e+02,5.642877837702159338e-02,0.000000000000000000e+00
4.280000000000000000e+02,1.416834379871922678e-01,0.000000000000000000e+00
4.290000000000000000e+02,1.077046003803050073e-01,0.000000000000000000e+00
4.300000000000000000e+02,5.396338346409650377e-01,0.000000000000000000e+00
4.310000000000000000e+02,1.828165457488686085e+00,0.000000000000000000e+00
4.320000000000000000e+02,2.404134158971614532e+00,0.000000000000000000e+00
4.330000000000000000e+02,2.759740822573956809e+00,0.000000000000000000e+00
4.340000000000000000e+02,2.287786369804887698e+00,0.000000000000000000e+00
4.350000000000000000e+02,2.076309080315720479e+00,0.000000000000000000e+00
4.360000000000000000e+02,-1.370316482156178350e-01,0.000000000000000000e+00
4.370000000000000000e+02,-1.977251595584778032e+00,1.000000000000000000e+00
4.380000000000000000e+02,-2.097725448616882815e+00,0.000000000000000000e+00
4.390000000000000000e+02,-1.929183550327058239e+00,0.000000000000000000e+00
4.400000000000000000e+02,-1.734958696306280634e+00,0.000000000000000000e+00
4.410000000000000000e+02,-1.599608204853852911e+00,0.000000000000000000e+00
4.420000000000000000e+02,-1.416649792363920080e+00,0.000000000000000000e+00
4.430000000000000000e+02,-1.316773539609537469e+00,0.000000000000000000e+00
4.440000000000000000e+02,-1.197426905911070039e+00,0.000000000000000000e+00
4.450000000000000000e+02,-1.054326719342622232e+00,0.000000000000000000e+00
4.460000000000000000e+02,-8.712957733434725238e-01,0.000000000000000000e+00
4.470000000000000000e+02,-8.120918464436693851e-01,0.000000000000000000e+00
4.480000000000000000e+02,-6.641583073944536952e-01,0.000000000000000000e+00
4.490000000000000000e+02,-2.631848449091994668e-01,0.000000000000000000e+00
4.500000000000000000e+02,1.135053312781100360e-01,0.000000000000000000e+00
4.510000000000000000e+02,2.024216091118888616e-01,0.000000000000000000e+00
4.520000000000000000e+02,3.150155653802966804e-01,0.000000000000000000e+00
4.530000000000000000e+02,2.279477527319047347e-01,0.000000000000000000e+00
4.540000000000000000e+02,9.729892873463875935e-02,0.000000000000000000e+00
4.550000000000000000e+02,2.038749969905133408e-01,0.000000000000000000e+00
4.560000000000000000e+02,9.068707002004695525e-03,0.000000000000000000e+00
4.570000000000000000e+02,1.857794424650816845e-01,0.000000000000000000e+00
4.580000000000000000e+02,6.693536055519432038e-02,0.000000000000000000e+00
4.590000000000000000e+02,1.067028332519640715e-01,0.000000000000000000e+00
4.600000000000000000e+02,1.390594274071120795e-01,0.000000000000000000e+00
4.610000000000000000e+02,9.247141764399328945e-02,0.000000000000000000e+00
4.620000000000000000e+02,1.033947976701772853e-01,0.000000000000000000e+00
4.630000000000000000e+02,1.904752703344437803e-01,0.000000000000000000e+00
4.640000000000000000e+02,2.047333250523403481e-01,0.000000000000000000e+00
4.650000000000000000e+02,3.202034622546615084e-01,0.000000000000000000e+00
4.660000000000000000e+02,1.680173188304980303e-01,0.000000000000000000e+00
4.670000000000000000e+02,3.312092031758407940e-01,0.000000000000000000e+00
4.680000000000000000e+02,2.103553424999833887e-01,0.000000000000000000e+00
4.690000000000000000e+02,2.240758293673964507e-01,0.000000000000000000e+00
4.700000000000000000e+02,1.877927910244564791e-01,0.000000000000000000e+00
4.710000000000000000e+02,1.656053354121577170e-01,0.000000000000000000e+00
4.720000000000000000e+02,3.119561144848747025e-01,0.000000000000000000e+00
4.730000000000000000e+02,4.656647213102070304e-01,0.000000000000000000e+00
4.740000000000000000e+02,2.132119069732193728e-01,0.000000000000000000e+00
4.750000000000000000e+02,6.187889883331619545e-02,0.000000000000000000e+00
4.760000000000000000e+02,-7.901402336091674361e-02,0.000000000000000000e+00
4.770000000000000000e+02,-3.306543871945630264e-02,0.000000000000000000e+00
4.780000000000000000e+02,-6.825975361603281444e-02,0.000000000000000000e+00
4.790000000000000000e+02,-2.053874352822773405e-02,0.000000000000000000e+00
4.800000000000000000e+02,9.761875770963858445e-02,0.000000000000000000e+00
4.810000000000000000e+02,1.392502665517961535e+00,0.000000000000000000e+00
4.820000000000000000e+02,2.153047194898748184e+00,0.000000000000000000e+00
4.830000000000000000e+02,2.426851507512729267e+00,0.000000000000000000e+00
4.840000000000000000e+02,2.310184927590640314e+00,0.000000000000000000e+00
4.850000000000000000e+02,2.081880071522774323e+00,0.000000000000000000e+00
4.860000000000000000e+02,7.048341307966419222e-01,0.000000000000000000e+00
4.870000000000000000e+02,-1.913742068431393273e+00,1.000000000000000000e+00
4.880000000000000000e+02,-2.006667652206366892e+00,0.000000000000000000e+00
4.890000000000000000e+02,-2.091926429424030509e+00,0.000000000000000000e+00
4.900000000000000000e+02,-1.724983737481976753e+00,0.000000000000000000e+00
4.910000000000000000e+02,-1.706415851482144808e+00,0.000000000000000000e+00
4.920000000000000000e+02,-1.513254532401194119e+00,0.000000000000000000e+00
4.930000000000000000e+02,-1.390052422638437646e+00,0.000000000000000000e+00
4.940000000000000000e+02,-1.172811601965237260e+00,0.000000000000000000e+00
4.950000000000000000e+02,-1.090810754154632800e+00,0.000000000000000000e+00
4.960000000000000000e+02,-9.399645694195448709e-01,0.000000000000000000e+00
4.970000000000000000e+02,-8.361025284057245210e-01,0.000000000000000000e+00
4.980000000000000000e+02,-4.938845379406703318e-01,0.000000000000000000e+00
4.990000000000000000e+02,-3.083678813928206752e-01,0.000000000000000000e+00
5.000000000000000000e+02,-2.255574434225124034e-02,0.000000000000000000e+00
5.010000000000000000e+02,2.030394586079146413e-01,0.000000000000000000e+00
5.020000000000000000e+02,2.473344418369828046e-01,0.000000000000000000e+00
5.030000000000000000e+02,1.295567959518993117e-01,0.000000000000000000e+00
5.040000000000000000e+02,1.530503798942373650e-01,0.000000000000000000e+00
5.050000000000000000e+02,1.250687658753017392e-02,0.000000000000000000e+00
5.060000000000000000e+02,-5.036112612207872125e-02,0.000000000000000000e+00
5.070000000000000000e+02,1.089101331727972306e-02,0.000000000000000000e+00
5.080000000000000000e+02,-4.777245044895708087e-03,0.000000000000000000e+00
5.090000000000000000e+02,6.147874469571817241e-02,0.000000000000000000e+00
5.100000000000000000e+02,3.271177581520635230e-02,0.000000000000000000e+00
5.110000000000000000e+02,8.930575344373227475e-03,0.000000000000000000e+00
5.120000000000000000e+02,1.571243445599816990e-01,0.000000000000000000e+00
5.130000000000000000e+02,8.340151247001484358e-02,0.000000000000000000e+00
5.140000000000000000e+02,2.506813303900510825e-01,0.000000000000000000e+00
5.150000000000000000e+02,1.930716451151773816e-01,0.000000000000000000e+00
5.160000000000000000e+02,1.267631453913286022e-01,0.000000000000000000e+00
5.170000000000000000e+02,1.895450394979972253e-01,0.000000000000000000e+00
5.180000000000000000e+02,2.393511355877449009e-01,0.000000000000000000e+00
5.190000000000000000e+02,1.464424207383009935e-01,0.000000000000000000e+00
5.200000000000000000e+02,3.320588941445815068e-01,0.000000000000000000e+00
5.210000000000000000e+02,2.747139470692253616e-01,0.000000000000000000e+00
5.220000000000000000e+02,5.951259093828088487e-01,0.000000000000000000e+00
5.230000000000000000e+02,2.722255605328864903e-01,0.000000000000000000e+00
5.240000000000000000e+02,2.640994799563333717e-01,0.000000000000000000e+00
5.250000000000000000e+02,2.085470878425983998e-01,0.000000000000000000e+00
5.260000000000000000e+02,2.081959189330516435e-01,0.000000000000000000e+00
5.270000000000000000e+02,1.783012360600308710e-01,0.000000000000000000e+00
5.280000000000000000e+02,2.573576670289434709e-01,0.000000000000000000e+00
5.290000000000000000e+02,3.189609176332343088e-01,0.000000000000000000e+00
5.300000000000000000e+02,1.813601112419661154e+00,0.000000000000000000e+00
5.310000000000000000e+02,2.119364521438470206e+00,0.000000000000000000e+00
5.320000000000000000e+02,2.336692751781169086e+00,0.000000000000000000e+00
5.330000000000000000e+02,2.109988177212400728e+00,0.000000000000000000e+00
5.340000000000000000e+02,2.098658796497243628e+00,0.000000000000000000e+00
5.350000000000000000e+02,6.772094997142188433e-01,0.000000000000000000e+00
5.360000000000000000e+02,-1.463996155093310492e+00,1.000000000000000000e+00
5.370000000000000000e+02,-1.600961824150790358e+00,0.000000000000000000e+00
5.380000000000000000e+02,-1.628097597021251675e+00,0.000000000000000000e+00
5.390000000000000000e+02,-1.409872025052606226e+00,0.000000000000000000e+00
5.400000000000000000e+02,-1.413368711775787379e+00,0.000000000000000000e+00
5.410000000000000000e+02,-1.199042916685439275e+00,0.000000000000000000e+00
5.420000000000000000e+02,-1.101934570005137726e+00,0.000000000000000000e+00
5.430000000000000000e+02,-1.047591102560533782e+00,0.000000000000000000e+00
5.440000000000000000e+02,-9.212823214566033814e-01,0.000000000000000000e+00
5.450000000000000000e+02,-7.808245921226529829e-01,0.000000000000000000e+00
5.460000000000000000e+02,-6.906057406533908649e-01,0.000000000000000000e+00
5.470000000000000000e+02,-4.524778138022766960e-01,0.000000000000000000e+00
5.480000000000000000e+02,-3.697377034986070177e-01,0.000000000000000000e+00
5.490000000000000000e+02,2.824679948401355445e-02,0.000000000000000000e+00
5.500000000000000000e+02,2.152869715894815961e-01,0.000000000000000000e+00
5.510000000000000000e+02,1.844412014224078300e-01,0.000000000000000000e+00
5.520000000000000000e+02,7.302644510432877711e-02,0.000000000000000000e+00
5.530000000000000000e+02,-9.966351890880794512e-03,0.000000000000000000e+00
5.540000000000000000e+02,-1.365686467163465360e-02,0.000000000000000000e+00
5.550000000000000000e+02,-3.988237499290941263e-02,0.000000000000000000e+00
5.560000000000000000e+02,-6.015348207155792049e-02,0.000000000000000000e+00
5.570000000000000000e+02,2.216795826684173770e-02,0.000000000000000000e+00
5.580000000000000000e+02,-1.129371895182125843e-02,0.000000000000000000e+00
5.590000000000000000e+02,-3.910488313002573324e-02,0.000000000000000000e+00
5.600000000000000000e+02,7.215270334522945472e-02,0.000000000000000000e+00
5.610000000000000000e+02,-1.793150744625263658e-03,0.000000000000000000e+00
5.620000000000000000e+02,1.223589284938676053e-01,0.000000000000000000e+00
5.630000000000000000e+02,6.270180424557482424e-02,0.000000000000000000e+00
5.640000000000000000e+02,1.763489105278556457e-01,0.000000000000000000e+00
5.650000000000000000e+02,9.255782039454930887e-02,0.000000000000000000e+00
5.660000000000000000e+02,8.219894561769605645e-02,0.000000000000000000e+00
5.670000000000000000e+02,1.690197897975087293e-01,0.000000000000000000e+00
5.680000000000000000e+02,1.118004030436955398e-01,0.000000000000000000e+00
5.690000000000000000e+02,1.686130085597428996e-01,0.000000000000000000e+00
5.700000000000000000e+02,2.085273755596076528e-01,0.000000000000000000e+00
5.710000000000000000e+02,3.657954785654500829e-01,0.000000000000000000e+00
5.720000000000000000e+02,3.226950589137160263e-01,0.000000000000000000e+00
5.730000000000000000e+02,1.261690675381553495e-01,0.000000000000000000e+00
5.740000000000000000e+02,-3.111209592784233008e-02,0.000000000000000000e+00
5.750000000000000000e+02,5.113311674517158345e-02,0.000000000000000000e+00
5.760000000000000000e+02,3.874268722977471102e-02,0.000000000000000000e+00
5.770000000000000000e+02,5.853639717706027312e-03,0.000000000000000000e+00
5.780000000000000000e+02,-4.631907374377575853e-02,0.000000000000000000e+00
5.790000000000000000e+02,4.283832124792603113e-01,0.000000000000000000e+00
5.800000000000000000e+02,1.866245468982081990e+00,0.000000000000000000e+00
5.810000000000000000e+02,2.170804483441743926e+00,0.000000000000000000e+00
5.820000000000000000e+02,2.557973177084611027e+00,0.000000000000000000e+00
5.830000000000000000e+02,2.135340147638540742e+00,0.000000000000000000e+00
5.840000000000000000e+02,1.858665821817660380e+00,0.000000000000000000e+00
5.850000000000000000e+02,-4.346827422413254149e-01,0.000000000000000000e+00
5.860000000000000000e+02,-2.027958837810371229e+00,1.000000000000000000e+00
5.870000000000000000e+02,-2.078742184273944194e+00,0.000000000000000000e+00
5.880000000000000000e+02,-2.032321122599097585e+00,0.000000000000000000e+00
5.890000000000000000e+02,-1.881252164459498832e+00,0.000000000000000000e+00
5.900000000000000000e+02,-1.640649269006465572e+00,0.000000000000000000e+00
5.910000000000000000e+02,-1.561028612148449790e+00,0.000000000000000000e+00
5.920000000000000000e+02,-1.389510914088833315e+00,0.000000000000000000e+00
5.930000000000000000e+02,-1.272234714422235236e+00,0.000000000000000000e+00
5.940000000000000000e+02,-1.307495066946406714e+00,0.000000000000000000e+00
5.950000000000000000e+02,-1.029677142371501208e+00,0.000000000000000000e+00
5.960000000000000000e+02,-1.018664463321555136e+00,0.000000000000000000e+00
5.970000000000000000e+02,-7.220764928037782804e-01,0.000000000000000000e+00
5.980000000000000000e+02,-5.403306227860463773e-01,0.000000000000000000e+00
5.990000000000000000e+02,-1.718349423343833171e-01,0.000000000000000000e+00
6.000000000000000000e+02,6.244630732182909760e-02,0.000000000000000000e+00
6.010000000000000000e+02,1.659197116895946497e-02,0.000000000000000000e+00
6.020000000000000000e+02,-3.218688872135606893e-02,0.000000000000000000e+00
6.030000000000000000e+02,-7.869316943885792948e-02,0.000000000000000000e+00
6.040000000000000000e+02,-9.406146604969106706e-02,0.000000000000000000e+00
6.050000000000000000e+02,-1.161217187921965432e-01,0.000000000000000000e+00
6.060000000000000000e+02,-2.021711856695002918e-01,0.000000000000000000e+00
6.070000000000000000e+02,-4.997281911417879308e-02,0.000000000000000000e+00
6.080000000000000000e+02,-1.921655259566767138e-01,0.000000000000000000e+00
6.090000000000000000e+02,-5.879533344690544144e-02,0.000000000000000000e+00
6.100000000000000000e+02,-1.077673785579567889e-01,0.000000000000000000e+00
6.110000000000000000e+02,-5.083379894912791463e-02,0.000000000000000000e+00
6.120000000000000000e+02,-1.627456447277454699e-02,0.000000000000000000e+00
6.130000000000000000e+02,-2.210651398263510301e-02,0.000000000000000000e+00
6.140000000000000000e+02,3.555040291348292997e-02,0.000000000000000000e+00
6.150000000000000000e+02,1.029873044987435898e-02,0.000000000000000000e+00
6.160000000000000000e+02,8.324941252089262944e-02,0.000000000000000000e+00
6.170000000000000000e+02,7.410728041343077332e-02,0.000000000000000000e+00
6.180000000000000000e+02,8.461118993761714002e-02,0.000000000000000000e+00
6.190000000000000000e+02,1.826518088109759241e-01,0.000000000000000000e+00
6.200000000000000000e+02,2.331379993243768711e-01,0.000000000000000000e+00
6.210000000000000000e+02,3.192524876790611144e-01,0.000000000000000000e+00
6.220000000000000000e+02,4.819690375231203139e-01,0.000000000000000000e+00
6.230000000000000000e+02,3.880542423317752676e-01,0.000000000000000000e+00
6.240000000000000000e+02,1.742040088628095951e-01,0.000000000000000000e+00
6.250000000000000000e+02,8.827412991078924243e-02,0.000000000000000000e+00
6.260000000000000000e+02,1.791359434116681637e-01,0.000000000000000000e+00
6.270000000000000000e+02,2.544215044573095996e-01,0.000000000000000000e+00
6.280000000000000000e+02,1.825917747540029834e-01,0.000000000000000000e+00
6.290000000000000000e+02,5.689749253585296707e-01,0.000000000000000000e+00
6.300000000000000000e+02,1.888216642611358465e+00,0.000000000000000000e+00
6.310000000000000000e+02,2.578491804044823699e+00,0.000000000000000000e+00
6.320000000000000000e+02,3.063036626437046994e+00,0.000000000000000000e+00
6.330000000000000000e+02,2.539069418469053208e+00,0.000000000000000000e+00
6.340000000000000000e+02,2.416713090723813018e+00,0.000000000000000000e+00
6.350000000000000000e+02,6.342531407246928543e-01,0.000000000000000000e+00
6.360000000000000000e+02,-1.546549178334814423e+00,1.000000000000000000e+00
6.370000000000000000e+02,-1.556195387314788459e+00,0.000000000000000000e+00
6.380000000000000000e+02,-1.450966429268236269e+00,0.000000000000000000e+00
6.390000000000000000e+02,-1.157841031443993529e+00,0.000000000000000000e+00
6.400000000000000000e+02,-1.017072795873549707e+00,0.000000000000000000e+00
6.410000000000000000e+02,-7.919888727378150417e-01,0.000000000000000000e+00
6.420000000000000000e+02,-6.722698739494580300e-01,0.000000000000000000e+00
6.430000000000000000e+02,-4.421243184743183230e-01,0.000000000000000000e+00
6.440000000000000000e+02,-2.880364384732861383e-01,0.000000000000000000e+00
6.450000000000000000e+02,-9.646581550741306632e-02,0.000000000000000000e+00
6.460000000000000000e+02,-2.737511627695792329e-02,0.000000000000000000e+00
6.470000000000000000e+02,3.024727414273272186e-01,0.000000000000000000e+00
6.480000000000000000e+02,5.578885596126595958e-01,0.000000000000000000e+00
6.490000000000000000e+02,9.548309721187930865e-01,0.000000000000000000e+00
6.500000000000000000e+02,1.097562796570501487e+00,0.000000000000000000e+00
6.510000000000000000e+02,1.121027090372558543e+00,0.000000000000000000e+00
6.520000000000000000e+02,1.038970828306375882e+00,0.000000000000000000e+00
6.530000000000000000e+02,9.806377478316949947e-01,0.000000000000000000e+00
6.540000000000000000e+02,9.576626040583529065e-01,0.000000000000000000e+00
6.550000000000000000e+02,9.536708502201540760e-01,0.000000000000000000e+00
6.560000000000000000e+02,8.463992870748030528e-01,0.000000000000000000e+00
6.570000000000000000e+02,8.734209874682651309e-01,0.000000000000000000e+00
6.580000000000000000e+02,7.952454859502068318e-01,0.000000000000000000e+00
6.590000000000000000e+02,8.777213750613778176e-01,0.000000000000000000e+00
6.600000000000000000e+02,7.836085573313413821e-01,0.000000000000000000e+00
6.610000000000000000e+02,7.502738442382473893e-01,0.000000000000000000e+00
6.620000000000000000e+02,7.403280142275131537e-01,0.000000000000000000e+00
6.630000000000000000e+02,7.212490468627162921e-01,0.000000000000000000e+00
6.640000000000000000e+02,7.319051365297989387e-01,0.000000000000000000e+00
6.650000000000000000e+02,5.620965139059403981e-01,0.000000000000000000e+00
6.660000000000000000e+02,5.127309566825154485e-01,0.000000000000000000e+00
6.670000000000000000e+02,5.198902020585889350e-01,0.000000000000000000e+00
6.680000000000000000e+02,5.203860073350706772e-01,0.000000000000000000e+00
6.690000000000000000e+02,3.686387047327298050e-01,0.000000000000000000e+00
6.700000000000000000e+02,3.999480795807758837e-01,0.000000000000000000e+00
6.710000000000000000e+02,3.919424371931012341e-01,0.000000000000000000e+00
6.720000000000000000e+02,4.598576268275986756e-01,0.000000000000000000e+00
6.730000000000000000e+02,4.078148837135358584e-01,0.000000000000000000e+00
6.740000000000000000e+02,1.792756657735289638e-01,0.000000000000000000e+00
6.750000000000000000e+02,-5.440718575978945731e-02,0.000000000000000000e+00
6.760000000000000000e+02,-1.048859156596097103e-01,0.000000000000000000e+00
6.770000000000000000e+02,-2.406417431980382438e-01,0.000000000000000000e+00
6.780000000000000000e+02,-7.604347225431598578e-02,0.000000000000000000e+00
6.790000000000000000e+02,-1.576186398058846139e-01,0.000000000000000000e+00
6.800000000000000000e+02,7.580485666621723517e-01,0.000000000000000000e+00
6.810000000000000000e+02,1.720473708774467925e+00,0.000000000000000000e+00
6.820000000000000000e+02,1.827578015346513540e+00,0.000000000000000000e+00
6.830000000000000000e+02,1.989061884741866404e+00,0.000000000000000000e+00
6.840000000000000000e+02,1.619879735693725342e+00,0.000000000000000000e+00
6.850000000000000000e+02,1.018819251241413815e+00,0.000000000000000000e+00
6.860000000000000000e+02,-1.536287030714925672e+00,0.000000000000000000e+00
6.870000000000000000e+02,-2.470028058478785482e+00,1.000000000000000000e+00
6.880000000000000000e+02,-2.536719987702939605e+00,0.000000000000000000e+00
6.890000000000000000e+02,-2.328001282701692709e+00,0.000000000000000000e+00
6.900000000000000000e+02,-2.226709367871829048e+00,0.000000000000000000e+00
6.910000000000000000e+02,-2.055344075581191809e+00,0.000000000000000000e+00
6.920000000000000000e+02,-1.966919798750569326e+00,0.000000000000000000e+00
6.930000000000000000e+02,-1.767289901401299268e+00,0.000000000000000000e+00
6.940000000000000000e+02,-1.635465962027684572e+00,0.000000000000000000e+00
6.950000000000000000e+02,-1.567690044456901077e+00,0.000000000000000000e+00
6.960000000000000000e+02,-1.419139013615955180e+00,0.000000000000000000e+00
6.970000000000000000e+02,-1.232950471065716869e+00,0.000000000000000000e+00
6.980000000000000000e+02,-1.135765686535424202e+00,0.000000000000000000e+00
6.990000000000000000e+02,-7.449388641998162530e-01,0.000000000000000000e+00
7.000000000000000000e+02,-5.801253895794016291e-01,0.000000000000000000e+00
7.010000000000000000e+02,-5.663065204451344092e-01,0.000000000000000000e+00
7.020000000000000000e+02,-6.154603002797789379e-01,0.000000000000000000e+00
7.030000000000000000e+02,-6.132954410710282911e-01,0.000000000000000000e+00
7.040000000000000000e+02,-7.036204095024976013e-01,0.000000000000000000e+00
7.050000000000000000e+02,-7.023922964198613395e-01,0.000000000000000000e+00
7.060000000000000000e+02,-6.391513792683986006e-01,0.000000000000000000e+00
7.070000000000000000e+02,-6.833813391381783342e-01,0.000000000000000000e+00
7.080000000000000000e+02,-6.375715407725890405e-01,0.000000000000000000e+00
7.090000000000000000e+02,-6.242939408545469249e-01,0.000000000000000000e+00
7.100000000000000000e+02,-6.188911930847404985e-01,0.000000000000000000e+00
7.110000000000000000e+02,-5.630861258513726320e-01,0.000000000000000000e+00
7.120000000000000000e+02,-5.078494596689205887e-01,0.000000000000000000e+00
7.130000000000000000e+02,-4.815042495522637300e-01,0.000000000000000000e+00
7.140000000000000000e+02,-4.389012397957799405e-01,0.000000000000000000e+00
7.150000000000000000e+02,-3.248900492922417449e-01,0.000000000000000000e+00
7.160000000000000000e+02,-3.739880276488409816e-01,0.000000000000000000e+00
7.170000000000000000e+02,-2.598481370665543522e-01,0.000000000000000000e+00
7.180000000000000000e+02,-3.338006453223000825e-01,0.000000000000000000e+00
7.190000000000000000e+02,-1.838840536043303275e-01,0.000000000000000000e+00
7.200000000000000000e+02,-8.804596966941197200e-02,0.000000000000000000e+00
7.210000000000000000e+02,5.840016351849581372e-02,0.000000000000000000e+00
7.220000000000000000e+02,-5.557871915826715498e-02,0.000000000000000000e+00
7.230000000000000000e+02,-2.553018899056253566e-01,0.000000000000000000e+00
7.240000000000000000e+02,-3.005223904557422498e-01,0.000000000000000000e+00
7.250000000000000000e+02,-2.103111769765160510e-01,0.000000000000000000e+00
7.260000000000000000e+02,-3.297072128849203865e-01,0.000000000000000000e+00
7.270000000000000000e+02,-1.721650327069492170e-01,0.000000000000000000e+00
7.280000000000000000e+02,-2.597684916365884944e-01,0.000000000000000000e+00
7.290000000000000000e+02,9.650418819679733584e-01,0.000000000000000000e+00
7.300000000000000000e+02,1.768644335992736849e+00,0.000000000000000000e+00
7.310000000000000000e+02,2.200782386687725189e+00,0.000000000000000000e+00
7.320000000000000000e+02,2.331416314982762028e+00,0.000000000000000000e+00
7.330000000000000000e+02,2.030635724577802392e+00,0.000000000000000000e+00
7.340000000000000000e+02,1.312194129693011080e+00,0.000000000000000000e+00
7.350000000000000000e+02,-1.366423478104103584e+00,1.000000000000000000e+00
7.360000000000000000e+02,-2.026537311163628452e+00,0.000000000000000000e+00
7.370000000000000000e+02,-2.012751010388919681e+00,0.000000000000000000e+00
7.380000000000000000e+02,-1.812658960824714338e+00,0.000000000000000000e+00
7.390000000000000000e+02,-1.536886356201315751e+00,0.000000000000000000e+00
7.400000000000000000e+02,-1.341642563894120732e+00,0.000000000000000000e+00
7.410000000000000000e+02,-1.264974406181258892e+00,0.000000000000000000e+00
7.420000000000000000e+02,-1.090605490855285353e+00,0.000000000000000000e+00
7.430000000000000000e+02,-8.593190231659745271e-01,0.000000000000000000e+00
7.440000000000000000e+02,-7.055307353587347841e-01,0.000000000000000000e+00
7.450000000000000000e+02,-7.066198409359364385e-01,0.000000000000000000e+00
7.460000000000000000e+02,-3.640452529543064530e-01,0.000000000000000000e+00
7.470000000000000000e+02,-2.202418359765344891e-01,0.000000000000000000e+00
7.480000000000000000e+02,1.222980515920442796e-01,0.000000000000000000e+00
7.490000000000000000e+02,4.292538815011973097e-01,0.000000000000000000e+00
7.500000000000000000e+02,6.180621311802751983e-01,0.000000000000000000e+00
7.510000000000000000e+02,4.537283899907543216e-01,0.000000000000000000e+00
7.520000000000000000e+02,4.806336808020376661e-01,0.000000000000000000e+00
7.530000000000000000e+02,3.546763721517219858e-01,0.000000000000000000e+00
7.540000000000000000e+02,4.761758810107845075e-01,0.000000000000000000e+00
7.550000000000000000e+02,4.694310023415282918e-01,0.000000000000000000e+00
7.560000000000000000e+02,4.699200521740194980e-01,0.000000000000000000e+00
7.570000000000000000e+02,4.574108894523607471e-01,0.000000000000000000e+00
7.580000000000000000e+02,5.154418940853991993e-01,0.000000000000000000e+00
7.590000000000000000e+02,5.872093271523637359e-01,0.000000000000000000e+00
7.600000000000000000e+02,6.012361037395173025e-01,0.000000000000000000e+00
7.610000000000000000e+02,6.120410725060669854e-01,0.000000000000000000e+00
7.620000000000000000e+02,6.354005147552063137e-01,0.000000000000000000e+00
7.630000000000000000e+02,7.282188520953720712e-01,0.000000000000000000e+00
7.640000000000000000e+02,7.035041506330591554e-01,0.000000000000000000e+00
7.650000000000000000e+02,7.129667482743620166e-01,0.000000000000000000e+00
7.660000000000000000e+02,7.386628251507822984e-01,0.000000000000000000e+00
7.670000000000000000e+02,5.959361212874507707e-01,0.000000000000000000e+00
7.680000000000000000e+02,6.878978197794738403e-01,0.000000000000000000e+00
7.690000000000000000e+02,7.357420434302924805e-01,0.000000000000000000e+00
7.700000000000000000e+02,6.144368588144620835e-01,0.000000000000000000e+00
7.710000000000000000e+02,8.033019893233074304e-01,0.000000000000000000e+00
7.720000000000000000e+02,7.889198597155412385e-01,0.000000000000000000e+00
7.730000000000000000e+02,6.277426540321213722e-01,0.000000000000000000e+00
7.740000000000000000e+02,4.557698713298419801e-01,0.000000000000000000e+00
7.750000000000000000e+02,3.814243904511165351e-01,0.000000000000000000e+00
7.760000000000000000e+02,3.204623649079851311e-01,0.000000000000000000e+00
7.770000000000000000e+02,4.801988606650609004e-01,0.000000000000000000e+00
7.780000000000000000e+02,3.911992603009883385e-01,0.000000000000000000e+00
7.790000000000000000e+02,7.130817991643926268e-01,0.000000000000000000e+00
7.800000000000000000e+02,2.037158701052879550e+00,0.000000000000000000e+00
7.810000000000000000e+02,2.520527626758890527e+00,0.000000000000000000e+00
7.820000000000000000e+02,2.909429222004340065e+00,0.000000000000000000e+00
7.830000000000000000e+02,2.524391226492520346e+00,0.000000000000000000e+00
7.840000000000000000e+02,2.343889115973698978e+00,0.000000000000000000e+00
7.850000000000000000e+02,5.324579217966913802e-01,0.000000000000000000e+00
7.860000000000000000e+02,-1.644492754412655078e+00,1.000000000000000000e+00
7.870000000000000000e+02,-1.736637348266622860e+00,0.000000000000000000e+00
7.880000000000000000e+02,-1.634659049727881230e+00,0.000000000000000000e+00
7.890000000000000000e+02,-1.551446679419753227e+00,0.000000000000000000e+00
7.900000000000000000e+02,-1.308530300350635223e+00,0.000000000000000000e+00
7.910000000000000000e+02,-1.241925390992605571e+00,0.000000000000000000e+00
7.920000000000000000e+02,-1.091579709518528229e+00,0.000000000000000000e+00
7.930000000000000000e+02,-1.007853472273604556e+00,0.000000000000000000e+00
7.940000000000000000e+02,-8.395871067186658765e-01,0.000000000000000000e+00
7.950000000000000000e+02,-8.281845554319245961e-01,0.000000000000000000e+00
7.960000000000000000e+02,-7.157744021279371927e-01,0.000000000000000000e+00
7.970000000000000000e+02,-5.067236338534696349e-01,0.000000000000000000e+00
7.980000000000000000e+02,-2.812449158560934581e-01,0.000000000000000000e+00
7.990000000000000000e+02,-1.004592007641443539e-02,0.000000000000000000e+00
8.000000000000000000e+02,1.004879151440710300e-01,0.000000000000000000e+00
8.010000000000000000e+02,2.583611018701994708e-02,0.000000000000000000e+00
8.020000000000000000e+02,-1.980246768234951438e-02,0.000000000000000000e+00
8.030000000000000000e+02,-4.637182468311799172e-02,0.000000000000000000e+00
8.040000000000000000e+02,-1.326847866039589652e-01,0.000000000000000000e+00
8.050000000000000000e+02,-8.142763903119486224e-02,0.000000000000000000e+00
8.060000000000000000e+02,-1.751446585184499583e-01,0.000000000000000000e+00
8.070000000000000000e+02,-1.259003524286508857e-01,0.000000000000000000e+00
8.080000000000000000e+02,-1.934368009644886199e-01,0.000000000000000000e+00
8.090000000000000000e+02,-1.637874667642988946e-01,0.000000000000000000e+00
8.100000000000000000e+02,-1.328374421217743406e-01,0.000000000000000000e+00
8.110000000000000000e+02,-2.514231769100594982e-01,0.000000000000000000e+00
8.120000000000000000e+02,-3.515147407652211703e-02,0.000000000000000000e+00
8.130000000000000000e+02,-1.139584576759436751e-01,0.000000000000000000e+00
8.140000000000000000e+02,-7.113014801696064537e-02,0.000000000000000000e+00
8.150000000000000000e+02,-6.914611740306607357e-02,0.000000000000000000e+00
8.160000000000000000e+02,4.454499733705318681e-02,0.000000000000000000e+00
8.170000000000000000e+02,-1.255853669216640267e-01,0.000000000000000000e+00
8.180000000000000000e+02,3.890721640161716802e-03,0.000000000000000000e+00
8.190000000000000000e+02,3.486858160016293590e-02,0.000000000000000000e+00
8.200000000000000000e+02,1.278183859243952336e-01,0.000000000000000000e+00
8.210000000000000000e+02,7.543430409529590375e-02,0.000000000000000000e+00
8.220000000000000000e+02,-7.298621686056078195e-02,0.000000000000000000e+00
8.230000000000000000e+02,-2.498537435454235289e-01,0.000000000000000000e+00
8.240000000000000000e+02,-1.124538166189043842e-01,0.000000000000000000e+00
8.250000000000000000e+02,-1.554605806266801393e-01,0.000000000000000000e+00
8.260000000000000000e+02,-3.462307221200423835e-02,0.000000000000000000e+00
8.270000000000000000e+02,-3.470071170293179824e-02,0.000000000000000000e+00
8.280000000000000000e+02,8.463542908796014563e-01,0.000000000000000000e+00
8.290000000000000000e+02,1.869453684993460651e+00,0.000000000000000000e+00
8.300000000000000000e+02,2.157758684364339263e+00,0.000000000000000000e+00
8.310000000000000000e+02,2.342074945196260582e+00,0.000000000000000000e+00
8.320000000000000000e+02,1.972837990070597236e+00,0.000000000000000000e+00
8.330000000000000000e+02,1.436338577977456232e+00,0.000000000000000000e+00
8.340000000000000000e+02,-1.147632965178897235e+00,1.000000000000000000e+00
8.350000000000000000e+02,-2.059751940757864830e+00,0.000000000000000000e+00
8.360000000000000000e+02,-2.015476006232383988e+00,0.000000000000000000e+00
8.370000000000000000e+02,-1.742201386283886544e+00,0.000000000000000000e+00
8.380000000000000000e+02,-1.714954063446652910e+00,0.000000000000000000e+00
8.390000000000000000e+02,-1.505059309553423708e+00,0.000000000000000000e+00
8.400000000000000000e+02,-1.393387459472734013e+00,0.000000000000000000e+00
8.410000000000000000e+02,-1.121541173930903135e+00,0.000000000000000000e+00
8.420000000000000000e+02,-1.040050745797354237e+00,0.000000000000000000e+00
8.430000000000000000e+02,-9.881312399698256588e-01,0.000000000000000000e+00
8.440000000000000000e+02,-8.917329240409103130e-01,0.000000000000000000e+00
8.450000000000000000e+02,-6.661471162235225174e-01,0.000000000000000000e+00
8.460000000000000000e+02,-5.020332922375535523e-01,0.000000000000000000e+00
8.470000000000000000e+02,-1.396700273719946317e-01,0.000000000000000000e+00
8.480000000000000000e+02,1.111920445825953230e-01,0.000000000000000000e+00
8.490000000000000000e+02,2.156925376833503383e-01,0.000000000000000000e+00
8.500000000000000000e+02,1.953874487715393515e-01,0.000000000000000000e+00
8.510000000000000000e+02,1.664293546911821409e-01,0.000000000000000000e+00
8.520000000000000000e+02,8.015037758909836219e-02,0.000000000000000000e+00
8.530000000000000000e+02,1.588624006075607109e-01,0.000000000000000000e+00
8.540000000000000000e+02,9.199586261281963995e-02,0.000000000000000000e+00
8.550000000000000000e+02,1.131187997934801903e-01,0.000000000000000000e+00
8.560000000000000000e+02,3.899561273798343719e-02,0.000000000000000000e+00
8.570000000000000000e+02,5.848522331823863968e-02,0.000000000000000000e+00
8.580000000000000000e+02,1.822991081513979927e-01,0.000000000000000000e+00
8.590000000000000000e+02,1.995376118187716097e-01,0.000000000000000000e+00
8.600000000000000000e+02,1.524065857716807582e-01,0.000000000000000000e+00
8.610000000000000000e+02,2.922363784754130056e-01,0.000000000000000000e+00
8.620000000000000000e+02,3.204765118628477016e-01,0.000000000000000000e+00
8.630000000000000000e+02,4.065049498751623913e-01,0.000000000000000000e+00
8.640000000000000000e+02,3.177589334629986051e-01,0.000000000000000000e+00
8.650000000000000000e+02,4.046023849290773522e-01,0.000000000000000000e+00
8.660000000000000000e+02,3.992009354022713619e-01,0.000000000000000000e+00
8.670000000000000000e+02,3.570756458324766958e-01,0.000000000000000000e+00
8.680000000000000000e+02,3.974320514736160992e-01,0.000000000000000000e+00
8.690000000000000000e+02,3.400523691548879568e-01,0.000000000000000000e+00
8.700000000000000000e+02,5.050290464112269229e-01,0.000000000000000000e+00
8.710000000000000000e+02,5.239022620915383399e-01,0.000000000000000000e+00
8.720000000000000000e+02,2.750418277044937021e-01,0.000000000000000000e+00
8.730000000000000000e+02,1.644405591147668488e-01,0.000000000000000000e+00
8.740000000000000000e+02,2.824888098719474105e-01,0.000000000000000000e+00
8.750000000000000000e+02,1.859541048945351494e-01,0.000000000000000000e+00
8.760000000000000000e+02,1.575465071413247597e-01,0.000000000000000000e+00
8.770000000000000000e+02,1.250731666703130962e-01,0.000000000000000000e+00
8.780000000000000000e+02,6.676127282066204316e-01,0.000000000000000000e+00
8.790000000000000000e+02,1.869407630135031084e+00,0.000000000000000000e+00
8.800000000000000000e+02,2.523405741731552077e+00,0.000000000000000000e+00
8.810000000000000000e+02,2.738827766097069905e+00,0.000000000000000000e+00
8.820000000000000000e+02,2.317945651771017079e+00,0.000000000000000000e+00
8.830000000000000000e+02,2.025509088836867200e+00,0.000000000000000000e+00
8.840000000000000000e+02,-6.565897308474072380e-02,0.000000000000000000e+00
8.850000000000000000e+02,-1.859895661105572362e+00,1.000000000000000000e+00
8.860000000000000000e+02,-1.935534713611769320e+00,0.000000000000000000e+00
8.870000000000000000e+02,-1.829420874968006538e+00,0.000000000000000000e+00
8.880000000000000000e+02,-1.578190718996526964e+00,0.000000000000000000e+00
8.890000000000000000e+02,-1.498001442580197740e+00,0.000000000000000000e+00
8.900000000000000000e+02,-1.336371305853406133e+00,0.000000000000000000e+00
8.910000000000000000e+02,-1.217524465873595307e+00,0.000000000000000000e+00
8.920000000000000000e+02,-1.155228119716287694e+00,0.000000000000000000e+00
8.930000000000000000e+02,-1.018934243497045866e+00,0.000000000000000000e+00
8.940000000000000000e+02,-8.700059030895457290e-01,0.000000000000000000e+00
8.950000000000000000e+02,-7.021098654777089276e-01,0.000000000000000000e+00
8.960000000000000000e+02,-4.816196339316398678e-01,0.000000000000000000e+00
8.970000000000000000e+02,-1.875709048815863977e-01,0.000000000000000000e+00
8.980000000000000000e+02,1.543007089942241561e-01,0.000000000000000000e+00
8.990000000000000000e+02,3.180250535617493712e-01,0.000000000000000000e+00
9.000000000000000000e+02,2.484050105400047725e-01,0.000000000000000000e+00
9.010000000000000000e+02,1.510889407185223299e-01,0.000000000000000000e+00
9.020000000000000000e+02,8.472270285964908498e-02,0.000000000000000000e+00
9.030000000000000000e+02,6.728405895517820812e-02,0.000000000000000000e+00
9.040000000000000000e+02,5.574524971213482005e-02,0.000000000000000000e+00
9.050000000000000000e+02,6.344352256055794774e-03,0.000000000000000000e+00
9.060000000000000000e+02,-8.389072631889312598e-03,0.000000000000000000e+00
9.070000000000000000e+02,6.217049783790753320e-02,0.000000000000000000e+00
9.080000000000000000e+02,2.125468888983629914e-02,0.000000000000000000e+00
9.090000000000000000e+02,3.567454659351542573e-02,0.000000000000000000e+00
9.100000000000000000e+02,1.101260158287446639e-01,0.000000000000000000e+00
9.110000000000000000e+02,8.289005659555973016e-02,0.000000000000000000e+00
9.120000000000000000e+02,-2.005270044319513653e-02,0.000000000000000000e+00
9.130000000000000000e+02,1.466917633708027247e-01,0.000000000000000000e+00
9.140000000000000000e+02,5.433976045569049312e-02,0.000000000000000000e+00
9.150000000000000000e+02,1.475582650543721952e-01,0.000000000000000000e+00
9.160000000000000000e+02,6.845946159828336652e-02,0.000000000000000000e+00
9.170000000000000000e+02,5.859450112189585474e-02,0.000000000000000000e+00
9.180000000000000000e+02,1.657537703219858771e-01,0.000000000000000000e+00
9.190000000000000000e+02,1.840277664430638171e-01,0.000000000000000000e+00
9.200000000000000000e+02,2.637493904623265939e-01,0.000000000000000000e+00
9.210000000000000000e+02,3.813370275080066873e-01,0.000000000000000000e+00
9.220000000000000000e+02,2.457540778109891799e-01,0.000000000000000000e+00
9.230000000000000000e+02,1.912372237477650838e-01,0.000000000000000000e+00
9.240000000000000000e+02,-7.244224539701211996e-02,0.000000000000000000e+00
9.250000000000000000e+02,6.106545732878968652e-02,0.000000000000000000e+00
9.260000000000000000e+02,-2.769083609370910377e-03,0.000000000000000000e+00
9.270000000000000000e+02,8.922248795707160562e-02,0.000000000000000000e+00
9.280000000000000000e+02,3.409275576813783348e-02,0.000000000000000000e+00
9.290000000000000000e+02,1.061112850535675944e+00,0.000000000000000000e+00
9.300000000000000000e+02,2.139693807560949956e+00,0.000000000000000000e+00
9.310000000000000000e+02,2.396783626692634339e+00,0.000000000000000000e+00
9.320000000000000000e+02,2.687670015605111207e+00,0.000000000000000000e+00
9.330000000000000000e+02,2.176053206180577071e+00,0.000000000000000000e+00
9.340000000000000000e+02,1.782552235070529179e+00,0.000000000000000000e+00
9.350000000000000000e+02,-8.527205174049810044e-01,0.000000000000000000e+00
9.360000000000000000e+02,-1.909941551724662512e+00,1.000000000000000000e+00
9.370000000000000000e+02,-1.848343483854061109e+00,0.000000000000000000e+00
9.380000000000000000e+02,-1.702604239195516955e+00,0.000000000000000000e+00
9.390000000000000000e+02,-1.539198611647403014e+00,0.000000000000000000e+00
9.400000000000000000e+02,-1.413494783791399811e+00,0.000000000000000000e+00
9.410000000000000000e+02,-1.213912628334885557e+00,0.000000000000000000e+00
9.420000000000000000e+02,-1.036604014564251441e+00,0.000000000000000000e+00
9.430000000000000000e+02,-9.494748813788098651e-01,0.000000000000000000e+00
9.440000000000000000e+02,-7.792441542835391033e-01,0.000000000000000000e+00
9.450000000000000000e+02,-6.236346908926114763e-01,0.000000000000000000e+00
9.460000000000000000e+02,-4.971188758909872996e-01,0.000000000000000000e+00
9.470000000000000000e+02,-2.965245517062795044e-01,0.000000000000000000e+00
9.480000000000000000e+02,9.220922845246637412e-02,0.000000000000000000e+00
9.490000000000000000e+02,2.241315049566286466e-01,0.000000000000000000e+00
9.500000000000000000e+02,4.159810559363965599e-01,0.000000000000000000e+00
9.510000000000000000e+02,2.667612650162238808e-01,0.000000000000000000e+00
9.520000000000000000e+02,2.388355954763361766e-01,0.000000000000000000e+00
9.530000000000000000e+02,2.442610679880570512e-01,0.000000000000000000e+00
9.540000000000000000e+02,1.454299258730749056e-01,0.000000000000000000e+00
9.550000000000000000e+02,2.015324401175437319e-01,0.000000000000000000e+00
9.560000000000000000e+02,2.265505457194429695e-01,0.000000000000000000e+00
9.570000000000000000e+02,1.199541642204139114e-01,0.000000000000000000e+00
9.580000000000000000e+02,1.580808980623191751e-01,0.000000000000000000e+00
9.590000000000000000e+02,1.279018165183667399e-01,0.000000000000000000e+00
9.600000000000000000e+02,1.683649869981609370e-01,0.000000000000000000e+00
9.610000000000000000e+02,1.573887198419548217e-01,0.000000000000000000e+00
9.620000000000000000e+02,2.277370781917683329e-01,0.000000000000000000e+00
9.630000000000000000e+02,2.700748859456929551e-01,0.000000000000000000e+00
9.640000000000000000e+02,1.979745450384628180e-01,0.000000000000000000e+00
9.650000000000000000e+02,2.948849940206623166e-01,0.000000000000000000e+00
9.660000000000000000e+02,2.555663013717899834e-01,0.000000000000000000e+00
9.670000000000000000e+02,2.717689567608160273e-01,0.000000000000000000e+00
9.680000000000000000e+02,2.161475272932501523e-01,0.000000000000000000e+00
9.690000000000000000e+02,2.955228458932094848e-01,0.000000000000000000e+00
9.700000000000000000e+02,3.207105971942110778e-01,0.000000000000000000e+00
9.710000000000000000e+02,3.162487562623287896e-01,0.000000000000000000e+00
9.720000000000000000e+02,1.754772484155693868e-01,0.000000000000000000e+00
9.730000000000000000e+02,-3.221779950431074430e-02,0.000000000000000000e+00
9.740000000000000000e+02,-5.887743796946805219e-02,0.000000000000000000e+00
9.750000000000000000e+02,-4.562863826034560533e-02,0.000000000000000000e+00
9.760000000000000000e+02,-1.366690573831784994e-01,0.000000000000000000e+00
9.770000000000000000e+02,-5.504881356527920044e-02,0.000000000000000000e+00
9.780000000000000000e+02,3.640349284350675729e-01,0.000000000000000000e+00
9.790000000000000000e+02,1.737310939389120179e+00,0.000000000000000000e+00
9.800000000000000000e+02,1.835422079243006266e+00,0.000000000000000000e+00
9.810000000000000000e+02,2.161401361748491290e+00,0.000000000000000000e+00
9.820000000000000000e+02,1.830425891489472212e+00,0.000000000000000000e+00
9.830000000000000000e+02,1.675539016696500516e+00,0.000000000000000000e+00
9.840000000000000000e+02,-3.171195751385574857e-01,0.000000000000000000e+00
9.850000000000000000e+02,-1.917955352481057307e+00,1.000000000000000000e+00
9.860000000000000000e+02,-1.941232756361602085e+00,0.000000000000000000e+00
9.870000000000000000e+02,-1.835439330696923443e+00,0.000000000000000000e+00
9.880000000000000000e+02,-1.606614627228230674e+00,0.000000000000000000e+00
9.890000000000000000e+02,-1.564648197698530030e+00,0.000000000000000000e+00
9.900000000000000000e+02,-1.323651436826724925e+00,0.000000000000000000e+00
9.910000000000000000e+02,-1.261233033329517417e+00,0.000000000000000000e+00
9.920000000000000000e+02,-1.032229864688675169e+00,0.000000000000000000e+00
9.930000000000000000e+02,-1.024979247563777118e+00,0.000000000000000000e+00
9.940000000000000000e+02,-8.864277082137538288e-01,0.000000000000000000e+00
9.950000000000000000e+02,-8.066906007298029202e-01,0.000000000000000000e+00
9.960000000000000000e+02,-5.647050930705171945e-01,0.000000000000000000e+00
9.970000000000000000e+02,-3.005328159975219626e-01,0.000000000000000000e+00
9.980000000000000000e+02,7.909935029568918030e-02,0.000000000000000000e+00
9.990000000000000000e+02,8.817501372774823321e-02,0.000000000000000000e+00
1.000000000000000000e+03,1.000391148227677968e-01,0.000000000000000000e+00
1.001000000000000000e+03,4.995997120231470551e-02,0.000000000000000000e+00
1.002000000000000000e+03,1.011573502918298659e-02,0.000000000000000000e+00
1.003000000000000000e+03,-6.501960555726146729e-02,0.000000000000000000e+00
1.004000000000000000e+03,-2.707381924418255162e-02,0.000000000000000000e+00
1.005000000000000000e+03,-4.565242691467569225e-02,0.000000000000000000e+00
1.006000000000000000e+03,2.522632193473036896e-02,0.000000000000000000e+00
1.007000000000000000e+03,1.538927795454791796e-02,0.000000000000000000e+00
1.008000000000000000e+03,-3.969723615224236835e-02,0.000000000000000000e+00
1.009000000000000000e+03,7.381857570246291855e-02,0.000000000000000000e+00
1.010000000000000000e+03,7.147286777091092780e-02,0.000000000000000000e+00
1.011000000000000000e+03,9.599616317259039577e-02,0.000000000000000000e+00
1.012000000000000000e+03,9.552138188116132689e-02,0.000000000000000000e+00
1.013000000000000000e+03,1.718388527675467348e-01,0.000000000000000000e+00
1.014000000000000000e+03,6.109501535297561653e-02,0.000000000000000000e+00
1.015000000000000000e+03,1.118128420576512544e-01,0.000000000000000000e+00
1.016000000000000000e+03,7.662299933848019939e-02,0.000000000000000000e+00
1.017000000000000000e+03,8.483818474638085694e-02,0.000000000000000000e+00
1.018000000000000000e+03,1.098505726058033594e-01,0.000000000000000000e+00
1.019000000000000000e+03,1.351999142087891199e-04,0.000000000000000000e+00
1.020000000000000000e+03,2.371929034775251133e-01,0.000000000000000000e+00
1.021000000000000000e+03,2.791312949803125276e-01,0.000000000000000000e+00
1.022000000000000000e+03,4.297136343044782869e-01,0.000000000000000000e+00
1.023000000000000000e+03,1.333731409135167356e-01,0.000000000000000000e+00
1.024000000000000000e+03,5.539562630106724395e-02,0.000000000000000000e+00
1.025000000000000000e+03,1.067203864203766089e-02,0.000000000000000000e+00
1.026000000000000000e+03,1.071431549062699107e-01,0.000000000000000000e+00
1.027000000000000000e+03,9.363676107683408661e-03,0.000000000000000000e+00
1.028000000000000000e+03,7.203577534974822671e-02,0.000000000000000000e+00
1.029000000000000000e+03,4.275269617797772814e-01,0.000000000000000000e+00
1.030000000000000000e+03,1.651963920151477749e+00,0.000000000000000000e+00
1.031000000000000000e+03,2.392452930697464897e+00,0.000000000000000000e+00
1.032000000000000000e+03,2.693438826396837182e+00,0.000000000000000000e+00
1.033000000000000000e+03,2.223345526872315681e+00,0.000000000000000000e+00
1.034000000000000000e+03,2.044229676726627254e+00,0.000000000000000000e+00
1.035000000000000000e+03,1.211440344879848585e-01,0.000000000000000000e+00
1.036000000000000000e+03,-1.891907370563974178e+00,1.000000000000000000e+00
1.037000000000000000e+03,-1.868103610306989681e+00,0.000000000000000000e+00
1.038000000000000000e+03,-1.861090598051439393e+00,0.000000000000000000e+00
1.039000000000000000e+03,-1.547183752007766699e+00,0.000000000000000000e+00
1.040000000000000000e+03,-1.462603305845032287e+00,0.000000000000000000e+00
1.041000000000000000e+03,-1.308753349059945226e+00,0.000000000000000000e+00
1.042000000000000000e+03,-1.160995761147930461e+00,0.000000000000000000e+00
1.043000000000000000e+03,-9.973366432597078335e-01,0.000000000000000000e+00
1.044000000000000000e+03,-9.407244814563290314e-01,0.000000000000000000e+00
1.045000000000000000e+03,-6.847517415904106342e-01,0.000000000000000000e+00
1.046000000000000000e+03,-6.680405290925263140e-01,0.000000000000000000e+00
1.047000000000000000e+03,-4.306000820427824394e-01,0.000000000000000000e+00
1.048000000000000000e+03,-1.329708684611711489e-01,0.000000000000000000e+00
1.049000000000000000e+03,2.176821646885152284e-01,0.000000000000000000e+00
1.050000000000000000e+03,3.980181149830896437e-01,0.000000000000000000e+00
1.051000000000000000e+03,3.480096799925891937e-01,0.000000000000000000e+00
1.052000000000000000e+03,2.624972769829865826e-01,0.000000000000000000e+00
1.053000000000000000e+03,2.652069016669418300e-01,0.000000000000000000e+00
1.054000000000000000e+03,9.394877584427617501e-02,0.000000000000000000e+00
1.055000000000000000e+03,1.212264192822795628e-01,0.000000000000000000e+00
1.056000000000000000e+03,8.542044081100733099e-02,0.000000000000000000e+00
1.057000000000000000e+03,4.505362215527414227e-02,0.000000000000000000e+00
1.058000000000000000e+03,1.057908557504745606e-01,0.000000000000000000e+00
1.059000000000000000e+03,5.664958748239939945e-02,0.000000000000000000e+00
1.060000000000000000e+03,9.455074800826797354e-02,0.000000000000000000e+00
1.061000000000000000e+03,9.888561051173673511e-02,0.000000000000000000e+00
1.062000000000000000e+03,1.973556014315621665e-01,0.000000000000000000e+00
1.063000000000000000e+03,2.169663759521357760e-01,0.000000000000000000e+00
1.064000000000000000e+03,1.721887847528626447e-01,0.000000000000000000e+00
1.065000000000000000e+03,2.356421367840159375e-01,0.000000000000000000e+00
1.066000000000000000e+03,1.765942874778451133e-01,0.000000000000000000e+00
1.067000000000000000e+03,1.903284188032120794e-01,0.000000000000000000e+00
1.068000000000000000e+03,1.682464914791929611e-01,0.000000000000000000e+00
1.069000000000000000e+03,1.189380933739599827e-01,0.000000000000000000e+00
1.070000000000000000e+03,1.061752967184888263e-01,0.000000000000000000e+00
1.071000000000000000e+03,2.186008901028324292e-01,0.000000000000000000e+00
1.072000000000000000e+03,2.607878397980993856e-01,0.000000000000000000e+00
1.073000000000000000e+03,3.254450818554425751e-01,0.000000000000000000e+00
1.074000000000000000e+03,2.866624070579363859e-01,0.000000000000000000e+00
1.075000000000000000e+03,5.791095025177038502e-02,0.000000000000000000e+00
1.076000000000000000e+03,-8.159805565879009459e-02,0.000000000000000000e+00
1.077000000000000000e+03,4.525859045051146279e-02,0.000000000000000000e+00
1.078000000000000000e+03,-4.862000686289463802e-02,0.000000000000000000e+00
1.079000000000000000e+03,8.728331130780685523e-03,0.000000000000000000e+00
1.080000000000000000e+03,1.477069307857984959e-01,0.000000000000000000e+00
1.081000000000000000e+03,1.319415460347700408e+00,0.000000000000000000e+00
1.082000000000000000e+03,2.135835559809825313e+00,0.000000000000000000e+00
1.083000000000000000e+03,2.500951535416436666e+00,0.000000000000000000e+00
1.084000000000000000e+03,2.350119476953977493e+00,0.000000000000000000e+00
1.085000000000000000e+03,2.076508544335778694e+00,0.000000000000000000e+00
1.086000000000000000e+03,1.109568231082160850e+00,0.000000000000000000e+00
1.087000000000000000e+03,-1.543831637848879224e+00,1.000000000000000000e+00
1.088000000000000000e+03,-2.045577555991432650e+00,0.000000000000000000e+00
1.089000000000000000e+03,-2.004536632582893052e+00,0.000000000000000000e+00
1.090000000000000000e+03,-1.751916283251964135e+00,0.000000000000000000e+00
1.091000000000000000e+03,-1.689902591028664025e+00,0.000000000000000000e+00
1.092000000000000000e+03,-1.511333126255336223e+00,0.000000000000000000e+00
1.093000000000000000e+03,-1.395410626149230282e+00,0.000000000000000000e+00
1.094000000000000000e+03,-1.121215645810221817e+00,0.000000000000000000e+00
1.095000000000000000e+03,-1.018720665593419339e+00,0.000000000000000000e+00
1.096000000000000000e+03,-8.354887643242105977e-01,0.000000000000000000e+00
1.097000000000000000e+03,-6.627243963285781581e-01,0.000000000000000000e+00
1.098000000000000000e+03,-5.370947472434813852e-01,0.000000000000000000e+00
1.099000000000000000e+03,-2.459761680030002617e-01,0.000000000000000000e+00
1.100000000000000000e+03,2.516758905339647190e-02,0.000000000000000000e+00
1.101000000000000000e+03,2.813566588607390728e-01,0.000000000000000000e+00
1.102000000000000000e+03,2.125173209363901417e-01,0.000000000000000000e+00
1.103000000000000000e+03,2.440879363434616811e-01,0.000000000000000000e+00
1.104000000000000000e+03,1.150989880041114605e-01,0.000000000000000000e+00
1.105000000000000000e+03,7.164911116397415514e-02,0.000000000000000000e+00
1.106000000000000000e+03,8.243308641377690427e-02,0.000000000000000000e+00
1.107000000000000000e+03,6.655477041060224586e-02,0.000000000000000000e+00
1.108000000000000000e+03,1.080776363906019305e-01,0.000000000000000000e+00
1.109000000000000000e+03,-7.324765306490411618e-03,0.000000000000000000e+00
1.110000000000000000e+03,1.225396595041837872e-01,0.000000000000000000e+00
1.111000000000000000e+03,4.231185122365745122e-02,0.000000000000000000e+00
1.112000000000000000e+03,1.365109074042399062e-01,0.000000000000000000e+00
1.113000000000000000e+03,9.659560930158389569e-02,0.000000000000000000e+00
1.114000000000000000e+03,1.185431843182223471e-01,0.000000000000000000e+00
1.115000000000000000e+03,1.121437335291344678e-01,0.000000000000000000e+00
1.116000000000000000e+03,1.563622646608785749e-01,0.000000000000000000e+00
1.117000000000000000e+03,1.651371449547938131e-01,0.000000000000000000e+00
1.118000000000000000e+03,1.560797010719205125e-01,0.000000000000000000e+00
1.119000000000000000e+03,1.932213221999905250e-01,0.000000000000000000e+00
1.120000000000000000e+03,1.708313937868758681e-01,0.000000000000000000e+00
1.121000000000000000e+03,2.113880872382105369e-01,0.000000000000000000e+00
1.122000000000000000e+03,3.419367735528373586e-01,0.000000000000000000e+00
1.123000000000000000e+03,4.252528115400120989e-01,0.000000000000000000e+00
1.124000000000000000e+03,2.042511622648639225e-01,0.000000000000000000e+00
1.125000000000000000e+03,-9.230441032630680095e-03,0.000000000000000000e+00
1.126000000000000000e+03,-6.247415110993101081e-03,0.000000000000000000e+00
1.127000000000000000e+03,-5.070630338671126836e-02,0.000000000000000000e+00
1.128000000000000000e+03,-9.659245370880785442e-02,0.000000000000000000e+00
1.129000000000000000e+03,-5.741775344121857055e-02,0.000000000000000000e+00
1.130000000000000000e+03,4.045963913160888215e-02,0.000000000000000000e+00
1.131000000000000000e+03,1.413361445804451666e+00,0.000000000000000000e+00
1.132000000000000000e+03,1.995306509274623830e+00,0.000000000000000000e+00
1.133000000000000000e+03,2.428650516277989890e+00,0.000000000000000000e+00
1.134000000000000000e+03,2.308348967001838670e+00,0.000000000000000000e+00
1.135000000000000000e+03,2.022916575633136649e+00,0.000000000000000000e+00
1.136000000000000000e+03,7.141148625239081005e-01,0.000000000000000000e+00
1.137000000000000000e+03,-1.755528463316393006e+00,1.000000000000000000e+00
1.138000000000000000e+03,-1.981683238174088535e+00,0.000000000000000000e+00
1.139000000000000000e+03,-1.920601999994655529e+00,0.000000000000000000e+00
1.140000000000000000e+03,-1.812728493613321445e+00,0.000000000000000000e+00
1.141000000000000000e+03,-1.602339789497629452e+00,0.000000000000000000e+00
1.142000000000000000e+03,-1.295115462303936704e+00,0.000000000000000000e+00
1.143000000000000000e+03,-1.265288906415810821e+00,0.000000000000000000e+00
1.144000000000000000e+03,-1.075784672310290624e+00,0.000000000000000000e+00
1.145000000000000000e+03,-9.743870701858242667e-01,0.000000000000000000e+00
1.146000000000000000e+03,-8.371085471978479964e-01,0.000000000000000000e+00
1.147000000000000000e+03,-6.938981735509458515e-01,0.000000000000000000e+00
1.148000000000000000e+03,-4.421124015384386707e-01,0.000000000000000000e+00
1.149000000000000000e+03,-2.912351829670235537e-01,0.000000000000000000e+00
1.150000000000000000e+03,6.414234706296741140e-02,0.000000000000000000e+00
1.151000000000000000e+03,3.519988827590669889e-01,0.000000000000000000e+00
1.152000000000000000e+03,4.075007249851386182e-01,0.000000000000000000e+00
1.153000000000000000e+03,2.310884785787663820e-01,0.000000000000000000e+00
1.154000000000000000e+03,2.118385122915701912e-01,0.000000000000000000e+00
1.155000000000000000e+03,8.926315479166357925e-02,0.000000000000000000e+00
1.156000000000000000e+03,2.154412171146073418e-01,0.000000000000000000e+00
1.157000000000000000e+03,1.534241533086167231e-01,0.000000000000000000e+00
1.158000000000000000e+03,1.837192639711245079e-01,0.000000000000000000e+00
1.159000000000000000e+03,1.979171303667561221e-01,0.000000000000000000e+00
1.160000000000000000e+03,1.994612596833699736e-01,0.000000000000000000e+00
1.161000000000000000e+03,2.686834955145943060e-01,0.000000000000000000e+00
1.162000000000000000e+03,3.217269064766724029e-01,0.000000000000000000e+00
1.163000000000000000e+03,2.744545261283298787e-01,0.000000000000000000e+00
1.164000000000000000e+03,3.959076127655863919e-01,0.000000000000000000e+00
1.165000000000000000e+03,2.710245914901284747e-01,0.000000000000000000e+00
1.166000000000000000e+03,2.955655384764659943e-01,0.000000000000000000e+00
1.167000000000000000e+03,2.513098146446330339e-01,0.000000000000000000e+00
1.168000000000000000e+03,2.891377916668478876e-01,0.000000000000000000e+00
1.169000000000000000e+03,2.818030544787708536e-01,0.000000000000000000e+00
1.170000000000000000e+03,2.743998088137578062e-01,0.000000000000000000e+00
1.171000000000000000e+03,2.308428065751564895e-01,0.000000000000000000e+00
1.172000000000000000e+03,3.343232482536859229e-01,0.000000000000000000e+00
1.173000000000000000e+03,2.844913973414378017e-01,0.000000000000000000e+00
1.174000000000000000e+03,5.086542271104828039e-01,0.000000000000000000e+00
1.175000000000000000e+03,3.379907692419228393e-01,0.000000000000000000e+00
1.176000000000000000e+03,1.248086347061332230e-01,0.000000000000000000e+00
1.177000000000000000e+03,-1.706119976075898964e-02,0.000000000000000000e+00
1.178000000000000000e+03,4.299423736251111426e-03,0.000000000000000000e+00
1.179000000000000000e+03,1.617882398733612795e-02,0.000000000000000000e+00
1.180000000000000000e+03,1.553870651792351246e-02,0.000000000000000000e+00
1.181000000000000000e+03,8.712337794939369051e-02,0.000000000000000000e+00
1.182000000000000000e+03,9.882005478499975570e-01,0.000000000000000000e+00
1.183000000000000000e+03,2.010296098868408876e+00,0.000000000000000000e+00
1.184000000000000000e+03,2.671894208140946692e+00,0.000000000000000000e+00
1.185000000000000000e+03,2.640712354195169809e+00,0.000000000000000000e+00
1.186000000000000000e+03,2.321625667561388884e+00,0.000000000000000000e+00
1.187000000000000000e+03,1.482939016807746757e+00,0.000000000000000000e+00
1.188000000000000000e+03,-1.173369869841940361e+00,1.000000000000000000e+00
1.189000000000000000e+03,-2.123820240387611413e+00,0.000000000000000000e+00
1.190000000000000000e+03,-2.005728213076225508e+00,0.000000000000000000e+00
1.191000000000000000e+03,-1.837800354158578564e+00,0.000000000000000000e+00
1.192000000000000000e+03,-1.726138219923053496e+00,0.000000000000000000e+00
1.193000000000000000e+03,-1.552170098110043028e+00,0.000000000000000000e+00
1.194000000000000000e+03,-1.345557724050005399e+00,0.000000000000000000e+00
1.195000000000000000e+03,-1.211779635231037933e+00,0.000000000000000000e+00
1.196000000000000000e+03,-1.048444969690465634e+00,0.000000000000000000e+00
1.197000000000000000e+03,-9.063631208531069960e-01,0.000000000000000000e+00
1.198000000000000000e+03,-7.822811856780254036e-01,0.000000000000000000e+00
1.199000000000000000e+03,-5.827921977447940716e-01,0.000000000000000000e+00
1.200000000000000000e+03,-3.852154522384449997e-01,0.000000000000000000e+00
1.201000000000000000e+03,-8.254261516511392227e-02,0.000000000000000000e+00
1.202000000000000000e+03,2.198832480728822036e-01,0.000000000000000000e+00
1.203000000000000000e+03,2.731477016330012830e-01,0.000000000000000000e+00
1.204000000000000000e+03,1.823003203458204713e-01,0.000000000000000000e+00
1.205000000000000000e+03,1.869023400311941585e-01,0.000000000000000000e+00
1.206000000000000000e+03,2.659666799237718482e-02,0.000000000000000000e+00
1.207000000000000000e+03,2.588741997917839294e-02,0.000000000000000000e+00
1.208000000000000000e+03,1.271287322116743460e-02,0.000000000000000000e+00
1.209000000000000000e+03,-2.670189758502956867e-02,0.000000000000000000e+00
1.210000000000000000e+03,1.392818249585055408e-03,0.000000000000000000e+00
1.211000000000000000e+03,-4.556876618942459073e-02,0.000000000000000000e+00
1.212000000000000000e+03,5.852262237615279972e-02,0.000000000000000000e+00
1.213000000000000000e+03,-2.101236199528159349e-02,0.000000000000000000e+00
1.214000000000000000e+03,6.679009437540919802e-02,0.000000000000000000e+00
1.215000000000000000e+03,1.341402148947874462e-01,0.000000000000000000e+00
1.216000000000000000e+03,8.015382959867833890e-02,0.000000000000000000e+00
1.217000000000000000e+03,1.976061567766321803e-01,0.000000000000000000e+00
1.218000000000000000e+03,1.115517310349700281e-01,0.000000000000000000e+00
1.219000000000000000e+03,1.617459108913825439e-01,0.000000000000000000e+00
1.220000000000000000e+03,1.448361836070773123e-01,0.000000000000000000e+00
1.221000000000000000e+03,1.063940969061640401e-01,0.000000000000000000e+00
1.222000000000000000e+03,4.966237179721209871e-02,0.000000000000000000e+00
1.223000000000000000e+03,2.450320804264213004e-01,0.000000000000000000e+00
1.224000000000000000e+03,2.069598267281756721e-01,0.000000000000000000e+00
1.225000000000000000e+03,3.563151234641648846e-01,0.000000000000000000e+00
1.226000000000000000e+03,8.861109035434119874e-02,0.000000000000000000e+00
1.227000000000000000e+03,-3.263998142746946107e-02,0.000000000000000000e+00
1.228000000000000000e+03,-2.923922766029556867e-03,0.000000000000000000e+00
1.229000000000000000e+03,-2.643017069387930754e-02,0.000000000000000000e+00
1.230000000000000000e+03,4.251862276265060137e-02,0.000000000000000000e+00
1.231000000000000000e+03,-1.370685509672369719e-02,0.000000000000000000e+00
1.232000000000000000e+03,7.485806733246558320e-01,0.000000000000000000e+00
1.233000000000000000e+03,1.951763405199757662e+00,0.000000000000000000e+00
1.234000000000000000e+03,2.161303390115346890e+00,0.000000000000000000e+00
1.235000000000000000e+03,2.503211052874930509e+00,0.000000000000000000e+00
1.236000000000000000e+03,2.178015002800214095e+00,0.000000000000000000e+00
1.237000000000000000e+03,1.926005328516155135e+00,0.000000000000000000e+00
1.238000000000000000e+03,-5.146201069879381418e-01,0.000000000000000000e+00
1.239000000000000000e+03,-2.005237093356285083e+00,1.000000000000000000e+00
1.240000000000000000e+03,-1.917097836968263191e+00,0.000000000000000000e+00
1.241000000000000000e+03,-1.865182768928697277e+00,0.000000000000000000e+00
1.242000000000000000e+03,-1.541617886908243085e+00,0.000000000000000000e+00
1.243000000000000000e+03,-1.492000411617556477e+00,0.000000000000000000e+00
1.244000000000000000e+03,-1.331702207528943749e+00,0.000000000000000000e+00
1.245000000000000000e+03,-1.201727176288836185e+00,0.000000000000000000e+00
1.246000000000000000e+03,-1.042188861942861644e+00,0.000000000000000000e+00
1.247000000000000000e+03,-8.775480177762309264e-01,0.000000000000000000e+00
1.248000000000000000e+03,-6.662121894334445127e-01,0.000000000000000000e+00
1.249000000000000000e+03,-6.280994208811324642e-01,0.000000000000000000e+00
1.250000000000000000e+03,-3.174233594924768531e-01,0.000000000000000000e+00
1.251000000000000000e+03,-8.091799231962486239e-02,0.000000000000000000e+00
1.252000000000000000e+03,3.064826222409115508e-01,0.000000000000000000e+00
1.253000000000000000e+03,3.551647646834921179e-01,0.000000000000000000e+00
1.254000000000000000e+03,3.595724668025016557e-01,0.000000000000000000e+00
1.255000000000000000e+03,2.618192858427757508e-01,0.000000000000000000e+00
1.256000000000000000e+03,3.168135172014998058e-01,0.000000000000000000e+00
1.257000000000000000e+03,1.358257084731617492e-01,0.000000000000000000e+00
1.258000000000000000e+03,2.425331226939122509e-01,0.000000000000000000e+00
1.259000000000000000e+03,1.889899222119792721e-01,0.000000000000000000e+00
1.260000000000000000e+03,2.116954249064915417e-01,0.000000000000000000e+00
1.261000000000000000e+03,1.915952972071889304e-01,0.000000000000000000e+00
1.262000000000000000e+03,1.525850098908869135e-01,0.000000000000000000e+00
1.263000000000000000e+03,1.751476241291475000e-01,0.000000000000000000e+00
1.264000000000000000e+03,2.102311201621336889e-01,0.000000000000000000e+00
1.265000000000000000e+03,2.483779672509827952e-01,0.000000000000000000e+00
1.266000000000000000e+03,1.439609220562493019e-01,0.000000000000000000e+00
1.267000000000000000e+03,2.089608696274656285e-01,0.000000000000000000e+00
1.268000000000000000e+03,2.164839965355096763e-01,0.000000000000000000e+00
1.269000000000000000e+03,8.871355749237604116e-02,0.000000000000000000e+00
1.270000000000000000e+03,1.091161510942077889e-01,0.000000000000000000e+00
1.271000000000000000e+03,7.816845244682150973e-02,0.000000000000000000e+00
1.272000000000000000e+03,1.275405031310811732e-01,0.000000000000000000e+00
1.273000000000000000e+03,1.090719072315998878e-01,0.000000000000000000e+00
1.274000000000000000e+03,1.330309433412869835e-01,0.000000000000000000e+00
1.275000000000000000e+03,1.930995335715236516e-01,0.000000000000000000e+00
1.276000000000000000e+03,2.077083248713439412e-01,0.000000000000000000e+00
1.277000000000000000e+03,1.004945180621190648e-01,0.000000000000000000e+00
1.278000000000000000e+03,-2.109132003679240197e-01,0.000000000000000000e+00
1.279000000000000000e+03,-1.083385643490426681e-01,0.000000000000000000e+00
1.280000000000000000e+03,-2.133803826698709438e-01,0.000000000000000000e+00
1.281000000000000000e+03,-1.304686263401725610e-01,0.000000000000000000e+00
1.282000000000000000e+03,-1.040155159996733469e-01,0.000000000000000000e+00
1.283000000000000000e+03,2.720411800277549030e-01,0.000000000000000000e+00
1.284000000000000000e+03,1.634479380339536547e+00,0.000000000000000000e+00
1.285000000000000000e+03,2.091749145161912793e+00,0.000000000000000000e+00
1.286000000000000000e+03,2.501720524643053611e+00,0.000000000000000000e+00
1.287000000000000000e+03,2.133408078802476737e+00,0.000000000000000000e+00
1.288000000000000000e+03,1.837410740866984638e+00,0.000000000000000000e+00
1.289000000000000000e+03,6.273289063859638359e-02,0.000000000000000000e+00
1.290000000000000000e+03,-2.003522357791014397e+00,1.000000000000000000e+00
1.291000000000000000e+03,-2.070715809523858031e+00,0.000000000000000000e+00
1.292000000000000000e+03,-1.995813458537410989e+00,0.000000000000000000e+00
1.293000000000000000e+03,-1.754178858077445557e+00,0.000000000000000000e+00
1.294000000000000000e+03,-1.576845003495913389e+00,0.000000000000000000e+00
1.295000000000000000e+03,-1.373705821307232178e+00,0.000000000000000000e+00
1.296000000000000000e+03,-1.236551934790400820e+00,0.000000000000000000e+00
1.297000000000000000e+03,-1.088839995813148498e+00,0.000000000000000000e+00
1.298000000000000000e+03,-9.798883959703973412e-01,0.000000000000000000e+00
1.299000000000000000e+03,-8.123118015493856481e-01,0.000000000000000000e+00
1.300000000000000000e+03,-6.830320408243799601e-01,0.000000000000000000e+00
1.301000000000000000e+03,-4.416751405844327460e-01,0.000000000000000000e+00
1.302000000000000000e+03,-2.155466811753630751e-01,0.000000000000000000e+00
1.303000000000000000e+03,2.819768417278475589e-02,0.000000000000000000e+00
1.304000000000000000e+03,2.431997990270462484e-01,0.000000000000000000e+00
1.305000000000000000e+03,1.921285421688229966e-01,0.000000000000000000e+00
1.306000000000000000e+03,1.419017966994073343e-01,0.000000000000000000e+00
1.307000000000000000e+03,3.173634942050327507e-02,0.000000000000000000e+00
1.308000000000000000e+03,9.601294948552186251e-03,0.000000000000000000e+00
1.309000000000000000e+03,8.431202390435000790e-03,0.000000000000000000e+00
1.310000000000000000e+03,1.430352119459987470e-01,0.000000000000000000e+00
1.311000000000000000e+03,7.330823815829967671e-02,0.000000000000000000e+00
1.312000000000000000e+03,1.399807646979761523e-03,0.000000000000000000e+00
1.313000000000000000e+03,6.540417259063767419e-02,0.000000000000000000e+00
1.314000000000000000e+03,1.048188458548319074e-01,0.000000000000000000e+00
1.315000000000000000e+03,1.724758407626633128e-01,0.000000000000000000e+00
1.316000000000000000e+03,2.191285710340141191e-01,0.000000000000000000e+00
1.317000000000000000e+03,3.230907529023204772e-01,0.000000000000000000e+00
1.318000000000000000e+03,2.437787656479989962e-01,0.000000000000000000e+00
1.319000000000000000e+03,3.389523510230780801e-01,0.000000000000000000e+00
1.320000000000000000e+03,2.323084837949092318e-01,0.000000000000000000e+00
1.321000000000000000e+03,3.155256831295057962e-01,0.000000000000000000e+00
1.322000000000000000e+03,2.902408566331884932e-01,0.000000000000000000e+00
1.323000000000000000e+03,3.797501349819251137e-01,0.000000000000000000e+00
1.324000000000000000e+03,4.067554376242912273e-01,0.000000000000000000e+00
1.325000000000000000e+03,5.125741308827944653e-01,0.000000000000000000e+00
1.326000000000000000e+03,2.863805319697694252e-01,0.000000000000000000e+00
1.327000000000000000e+03,1.884847886539151307e-01,0.000000000000000000e+00
1.328000000000000000e+03,5.063403232628767986e-02,0.000000000000000000e+00
1.329000000000000000e+03,1.548734959180992354e-01,0.000000000000000000e+00
1.330000000000000000e+03,1.562370853505012092e-01,0.000000000000000000e+00
1.331000000000000000e+03,1.448839824307917301e-01,0.000000000000000000e+00
1.332000000000000000e+03,5.427371653759129888e-01,0.000000000000000000e+00
1.333000000000000000e+03,1.919447378989267872e+00,0.000000000000000000e+00
1.334000000000000000e+03,2.233353882294971005e+00,0.000000000000000000e+00
1.335000000000000000e+03,2.674462235705044044e+00,0.000000000000000000e+00
1.336000000000000000e+03,2.395669605405602365e+00,0.000000000000000000e+00
1.337000000000000000e+03,2.166306591058843267e+00,0.000000000000000000e+00
1.338000000000000000e+03,1.907545048764739681e-01,0.000000000000000000e+00
1.339000000000000000e+03,-1.729772886803903731e+00,1.000000000000000000e+00
1.340000000000000000e+03,-1.891983994832389104e+00,0.000000000000000000e+00
1.341000000000000000e+03,-1.864414445678748145e+00,0.000000000000000000e+00
1.342000000000000000e+03,-1.599424341198732780e+00,0.000000000000000000e+00
1.343000000000000000e+03,-1.488216137708797016e+00,0.000000000000000000e+00
1.344000000000000000e+03,-1.234728287981843753e+00,0.000000000000000000e+00
1.345000000000000000e+03,-1.210113341960781685e+00,0.000000000000000000e+00
1.346000000000000000e+03,-9.677076520573152374e-01,0.000000000000000000e+00
1.347000000000000000e+03,-8.086806285113736781e-01,0.000000000000000000e+00
1.348000000000000000e+03,-7.419024064455151946e-01,0.000000000000000000e+00
1.349000000000000000e+03,-7.060701964769927619e-01,0.000000000000000000e+00
1.350000000000000000e+03,-3.937551106774453413e-01,0.000000000000000000e+00
1.351000000000000000e+03,-2.098249316565593547e-01,0.000000000000000000e+00
1.352000000000000000e+03,2.126210121128120079e-01,0.000000000000000000e+00
1.353000000000000000e+03,3.389137535943252955e-01,0.000000000000000000e+00
1.354000000000000000e+03,3.095177108461166782e-01,0.000000000000000000e+00
1.355000000000000000e+03,3.441140618484211378e-01,0.000000000000000000e+00
1.356000000000000000e+03,1.869094683204066409e-01,0.000000000000000000e+00
1.357000000000000000e+03,2.337085125677552389e-01,0.000000000000000000e+00
1.358000000000000000e+03,2.073985050264850472e-01,0.000000000000000000e+00
1.359000000000000000e+03,1.802435973103842237e-01,0.000000000000000000e+00
1.360000000000000000e+03,1.794337453617763367e-01,0.000000000000000000e+00
1.361000000000000000e+03,9.897758209596618784e-02,0.000000000000000000e+00
1.362000000000000000e+03,1.776397557637431623e-01,0.000000000000000000e+00
1.363000000000000000e+03,1.018212553160964401e-01,0.000000000000000000e+00
1.364000000000000000e+03,1.761259754059715799e-01,0.000000000000000000e+00
1.365000000000000000e+03,2.603815918050576550e-01,0.000000000000000000e+00
1.366000000000000000e+03,2.634629260458006272e-01,0.000000000000000000e+00
1.367000000000000000e+03,2.322916904022339912e-01,0.000000000000000000e+00
1.368000000000000000e+03,2.081939986020661104e-01,0.000000000000000000e+00
1.369000000000000000e+03,3.009126853821395553e-01,0.000000000000000000e+00
1.370000000000000000e+03,1.730113961396644029e-01,0.000000000000000000e+00
1.371000000000000000e+03,2.006297524563083468e-01,0.000000000000000000e+00
1.372000000000000000e+03,1.367396444871593619e-01,0.000000000000000000e+00
1.373000000000000000e+03,1.715306459923014448e-01,0.000000000000000000e+00
1.374000000000000000e+03,1.283249229087416732e-01,0.000000000000000000e+00
1.375000000000000000e+03,3.107790551847183780e-01,0.000000000000000000e+00
1.376000000000000000e+03,2.316297863097698806e-01,0.000000000000000000e+00
1.377000000000000000e+03,2.144536101571551875e-02,0.000000000000000000e+00
1.378000000000000000e+03,-1.224751974394048398e-01,0.000000000000000000e+00
1.379000000000000000e+03,-1.136654542521388644e-01,0.000000000000000000e+00
1.380000000000000000e+03,-6.759258639368555255e-02,0.000000000000000000e+00
1.381000000000000000e+03,-6.789398238136046260e-02,0.000000000000000000e+00
1.382000000000000000e+03,-1.289350019617689636e-01,0.000000000000000000e+00
1.383000000000000000e+03,7.037470978071668215e-01,0.000000000000000000e+00
1.384000000000000000e+03,1.867521020334217852e+00,0.000000000000000000e+00
1.385000000000000000e+03,2.272321821506008366e+00,0.000000000000000000e+00
1.386000000000000000e+03,2.535568151410147131e+00,0.000000000000000000e+00
1.387000000000000000e+03,2.037653210521267244e+00,0.000000000000000000e+00
1.388000000000000000e+03,1.570061838724572612e+00,0.000000000000000000e+00
1.389000000000000000e+03,-1.030522592558300365e+00,0.000000000000000000e+00
1.390000000000000000e+03,-2.279393682915784147e+00,1.000000000000000000e+00
1.391000000000000000e+03,-2.150725086662866659e+00,0.000000000000000000e+00
1.392000000000000000e+03,-2.114499725738081537e+00,0.000000000000000000e+00
1.393000000000000000e+03,-1.825439274220277408e+00,0.000000000000000000e+00
1.394000000000000000e+03,-1.673503500905475283e+00,0.000000000000000000e+00
1.395000000000000000e+03,-1.528887027540849930e+00,0.000000000000000000e+00
1.396000000000000000e+03,-1.443286037618159323e+00,0.000000000000000000e+00
1.397000000000000000e+03,-1.255750990877417150e+00,0.000000000000000000e+00
1.398000000000000000e+03,-1.029982876833723804e+00,0.000000000000000000e+00
1.399000000000000000e+03,-1.083708854000384969e+00,0.000000000000000000e+00
1.400000000000000000e+03,-7.908615213717220538e-01,0.000000000000000000e+00
1.401000000000000000e+03,-5.625740590793565366e-01,0.000000000000000000e+00
1.402000000000000000e+03,-2.984135371889215516e-01,0.000000000000000000e+00
1.403000000000000000e+03,8.513697247468425544e-02,0.000000000000000000e+00
1.404000000000000000e+03,1.818068256260112758e-01,0.000000000000000000e+00
1.405000000000000000e+03,1.753450345437832514e-01,0.000000000000000000e+00
1.406000000000000000e+03,5.015517088060924417e-02,0.000000000000000000e+00
1.407000000000000000e+03,-3.911085474603143153e-02,0.000000000000000000e+00
1.408000000000000000e+03,1.130515882009782390e-02,0.000000000000000000e+00
1.409000000000000000e+03,-4.552049634126641153e-02,0.000000000000000000e+00
1.410000000000000000e+03,-7.230894121277256503e-02,0.000000000000000000e+00
1.411000000000000000e+03,-6.540113472036455933e-02,0.000000000000000000e+00
1.412000000000000000e+03,-1.344777207758073578e-01,0.000000000000000000e+00
1.413000000000000000e+03,-6.355114671050970943e-02,0.000000000000000000e+00
1.414000000000000000e+03,4.949800721410811677e-02,0.000000000000000000e+00
1.415000000000000000e+03,3.124244723828635550e-02,0.000000000000000000e+00
1.416000000000000000e+03,8.353764432684478158e-02,0.000000000000000000e+00
1.417000000000000000e+03,1.113549362850637658e-01,0.000000000000000000e+00
1.418000000000000000e+03,1.057555726769581206e-01,0.000000000000000000e+00
1.419000000000000000e+03,1.373258717237339499e-01,0.000000000000000000e+00
1.420000000000000000e+03,1.783737468806939064e-01,0.000000000000000000e+00
1.421000000000000000e+03,1.060584322727932544e-01,0.000000000000000000e+00
1.422000000000000000e+03,8.748914512219392592e-02,0.000000000000000000e+00
1.423000000000000000e+03,1.256624999325483549e-01,0.000000000000000000e+00
1.424000000000000000e+03,1.533322337694196236e-01,0.000000000000000000e+00
1.425000000000000000e+03,1.566978734298275500e-01,0.000000000000000000e+00
1.426000000000000000e+03,4.829611340758901972e-01,0.000000000000000000e+00
1.427000000000000000e+03,4.297511872548157585e-01,0.000000000000000000e+00
1.428000000000000000e+03,1.733855128434428350e-01,0.000000000000000000e+00
1.429000000000000000e+03,1.604241781145537143e-02,0.000000000000000000e+00
1.430000000000000000e+03,1.109427069382098174e-01,0.000000000000000000e+00
1.431000000000000000e+03,1.260120810679405678e-01,0.000000000000000000e+00
1.432000000000000000e+03,1.349498273569361417e-01,0.000000000000000000e+00
1.433000000000000000e+03,1.433624381707488127e-01,0.000000000000000000e+00
1.434000000000000000e+03,1.121044156844170470e+00,0.000000000000000000e+00
1.435000000000000000e+03,2.164953208321028555e+00,0.000000000000000000e+00
1.436000000000000000e+03,2.510218939054289056e+00,0.000000000000000000e+00
1.437000000000000000e+03,2.673287231074884751e+00,0.000000000000000000e+00
1.438000000000000000e+03,2.291485336394109673e+00,0.000000000000000000e+00
1.439000000000000000e+03,1.726189216350927147e+00,0.000000000000000000e+00
1.440000000000000000e+03,-8.509477256549109470e-01,1.000000000000000000e+00
1.441000000000000000e+03,-1.886466412663620140e+00,0.000000000000000000e+00
1.442000000000000000e+03,-1.763201529455626249e+00,0.000000000000000000e+00
1.443000000000000000e+03,-1.519767075978362136e+00,0.000000000000000000e+00
1.444000000000000000e+03,-1.462606658978392815e+00,0.000000000000000000e+00
1.445000000000000000e+03,-1.305537996907672360e+00,0.000000000000000000e+00
1.446000000000000000e+03,-1.021301284794456032e+00,0.000000000000000000e+00
1.447000000000000000e+03,-1.025898037673980134e+00,0.000000000000000000e+00
1.448000000000000000e+03,-8.297224046843116874e-01,0.000000000000000000e+00
1.449000000000000000e+03,-7.511995231788490823e-01,0.000000000000000000e+00
1.450000000000000000e+03,-4.923502587767841776e-01,0.000000000000000000e+00
1.451000000000000000e+03,-3.587527583839603129e-01,0.000000000000000000e+00
1.452000000000000000e+03,-1.831115391188143648e-01,0.000000000000000000e+00
1.453000000000000000e+03,1.151799010175645899e-01,0.000000000000000000e+00
1.454000000000000000e+03,3.490664177862734530e-01,0.000000000000000000e+00
1.455000000000000000e+03,4.250569814734417307e-01,0.000000000000000000e+00
1.456000000000000000e+03,3.631793480674459507e-01,0.000000000000000000e+00
1.457000000000000000e+03,2.067765072419081862e-01,0.000000000000000000e+00
1.458000000000000000e+03,1.899612129885163148e-01,0.000000000000000000e+00
1.459000000000000000e+03,2.198872732155948417e-01,0.000000000000000000e+00
1.460000000000000000e+03,1.662092566781197267e-01,0.000000000000000000e+00
1.461000000000000000e+03,1.794258240990853348e-01,0.000000000000000000e+00
1.462000000000000000e+03,2.093059443953043941e-01,0.000000000000000000e+00
1.463000000000000000e+03,1.532480180679787474e-01,0.000000000000000000e+00
1.464000000000000000e+03,2.272739335103093616e-01,0.000000000000000000e+00
1.465000000000000000e+03,2.659149684599128038e-01,0.000000000000000000e+00
1.466000000000000000e+03,3.123611535052564503e-01,0.000000000000000000e+00
1.467000000000000000e+03,2.346505835464391954e-01,0.000000000000000000e+00
1.468000000000000000e+03,2.617514024018241514e-01,0.000000000000000000e+00
1.469000000000000000e+03,2.590448747230885140e-01,0.000000000000000000e+00
1.470000000000000000e+03,3.087057068111707103e-01,0.000000000000000000e+00
1.471000000000000000e+03,3.131097397050021103e-01,0.000000000000000000e+00
1.472000000000000000e+03,1.943405068551044002e-01,0.000000000000000000e+00
1.473000000000000000e+03,2.399013987285224248e-01,0.000000000000000000e+00
1.474000000000000000e+03,2.274147392560363634e-01,0.000000000000000000e+00
1.475000000000000000e+03,4.071932546262567176e-01,0.000000000000000000e+00
1.476000000000000000e+03,4.168997475509322870e-01,0.000000000000000000e+00
1.477000000000000000e+03,2.945688075650105264e-01,0.000000000000000000e+00
1.478000000000000000e+03,1.058119865466320420e-01,0.000000000000000000e+00
1.479000000000000000e+03,4.300756799401876662e-02,0.000000000000000000e+00
1.480000000000000000e+03,3.395695031175173517e-02,0.000000000000000000e+00
1.481000000000000000e+03,1.174153162199849734e-02,0.000000000000000000e+00
1.482000000000000000e+03,7.148653302625858352e-02,0.000000000000000000e+00
1.483000000000000000e+03,3.443288517019450490e-01,0.000000000000000000e+00
1.484000000000000000e+03,1.780696823169443332e+00,0.000000000000000000e+00
1.485000000000000000e+03,1.887005020916396214e+00,0.000000000000000000e+00
1.486000000000000000e+03,2.371062377028244406e+00,0.000000000000000000e+00
1.487000000000000000e+03,2.029935943434035828e+00,0.000000000000000000e+00
1.488000000000000000e+03,2.009912538195964604e+00,0.000000000000000000e+00
1.489000000000000000e+03,2.891481637622135281e-01,0.000000000000000000e+00
1.490000000000000000e+03,-1.760647106981352517e+00,1.000000000000000000e+00
1.491000000000000000e+03,-1.825560630766071446e+00,0.000000000000000000e+00
1.492000000000000000e+03,-1.779391168434473203e+00,0.000000000000000000e+00
1.493000000000000000e+03,-1.593345147448080423e+00,0.000000000000000000e+00
1.494000000000000000e+03,-1.587417788385777850e+00,0.000000000000000000e+00
1.495000000000000000e+03,-1.350095672724589191e+00,0.000000000000000000e+00
1.496000000000000000e+03,-1.329979867208118893e+00,0.000000000000000000e+00
1.497000000000000000e+03,-1.193313397762812311e+00,0.000000000000000000e+00
1.498000000000000000e+03,-1.042669907323126033e+00,0.000000000000000000e+00
1.499000000000000000e+03,-1.037830218466222920e+00,0.000000000000000000e+00
1.500000000000000000e+03,-7.991516547984413021e-01,0.000000000000000000e+00
1.501000000000000000e+03,-5.996457471969437458e-01,0.000000000000000000e+00
1.502000000000000000e+03,-4.907257193928153405e-01,0.000000000000000000e+00
1.503000000000000000e+03,-6.279234403938969977e-02,0.000000000000000000e+00
1.504000000000000000e+03,8.442352207570487030e-03,0.000000000000000000e+00
1.505000000000000000e+03,5.393884684985305461e-02,0.000000000000000000e+00
1.506000000000000000e+03,-3.376202257784496202e-02,0.000000000000000000e+00
1.507000000000000000e+03,-1.542800402277022531e-01,0.000000000000000000e+00
1.508000000000000000e+03,-1.706289827839952700e-01,0.000000000000000000e+00
1.509000000000000000e+03,-1.920739873521206120e-01,0.000000000000000000e+00
1.510000000000000000e+03,-1.336493868158670772e-01,0.000000000000000000e+00
1.511000000000000000e+03,-2.652694426032484731e-01,0.000000000000000000e+00
1.512000000000000000e+03,-1.774401923592428820e-01,0.000000000000000000e+00
1.513000000000000000e+03,-2.975875011373415036e-01,0.000000000000000000e+00
1.514000000000000000e+03,-1.529089634749082049e-01,0.000000000000000000e+00
1.515000000000000000e+03,-1.823581607632176749e-01,0.000000000000000000e+00
1.516000000000000000e+03,-1.004014072302158722e-01,0.000000000000000000e+00
1.517000000000000000e+03,-1.098722552833412275e-01,0.000000000000000000e+00
1.518000000000000000e+03,-1.762493337488141298e-01,0.000000000000000000e+00
1.519000000000000000e+03,-9.521904207866625780e-02,0.000000000000000000e+00
1.520000000000000000e+03,-5.123001993032956503e-02,0.000000000000000000e+00
1.521000000000000000e+03,-8.025761975567642648e-02,0.000000000000000000e+00
1.522000000000000000e+03,-1.166537716176730410e-01,0.000000000000000000e+00
1.523000000000000000e+03,-7.209909376527635916e-02,0.000000000000000000e+00
1.524000000000000000e+03,-2.356259689436104171e-02,0.000000000000000000e+00
1.525000000000000000e+03,8.436835714135436370e-02,0.000000000000000000e+00
1.526000000000000000e+03,1.823155771006018944e-01,0.000000000000000000e+00
1.527000000000000000e+03,9.383104848418606647e-02,0.000000000000000000e+00
1.528000000000000000e+03,-1.007980914530631905e-01,0.000000000000000000e+00
1.529000000000000000e+03,-1.096909404282724182e-01,0.000000000000000000e+00
1.530000000000000000e+03,-5.040779469748621344e-02,0.000000000000000000e+00
1.531000000000000000e+03,-3.824764894869286946e-02,0.000000000000000000e+00
1.532000000000000000e+03,-4.944339436155724410e-02,0.000000000000000000e+00
1.533000000000000000e+03,1.110043911974383235e-01,0.000000000000000000e+00
1.534000000000000000e+03,1.277538355440732909e+00,0.000000000000000000e+00
1.535000000000000000e+03,2.127615950549891277e+00,0.000000000000000000e+00
1.536000000000000000e+03,2.642852048808530085e+00,0.000000000000000000e+00
1.537000000000000000e+03,2.347042183231432766e+00,0.000000000000000000e+00
1.538000000000000000e+03,2.250256217399986713e+00,0.000000000000000000e+00
1.539000000000000000e+03,1.018168725567798916e+00,0.000000000000000000e+00
1.540000000000000000e+03,-1.566739032334821369e+00,1.000000000000000000e+00
1.541000000000000000e+03,-1.791822265741375819e+00,0.000000000000000000e+00
1.542000000000000000e+03,-1.860593039060967291e+00,0.000000000000000000e+00
1.543000000000000000e+03,-1.548473648226104116e+00,0.000000000000000000e+00
1.544000000000000000e+03,-1.395856985603944000e+00,0.000000000000000000e+00
1.545000000000000000e+03,-1.224516925215279217e+00,0.000000000000000000e+00
1.546000000000000000e+03,-1.023389377163943514e+00,0.000000000000000000e+00
1.547000000000000000e+03,-9.406608789973813778e-01,0.000000000000000000e+00
1.548000000000000000e+03,-7.856193287298579575e-01,0.000000000000000000e+00
1.549000000000000000e+03,-6.684069891178509026e-01,0.000000000000000000e+00
1.550000000000000000e+03,-4.962292674030537865e-01,0.000000000000000000e+00
1.551000000000000000e+03,-2.088748626270812425e-01,0.000000000000000000e+00
1.552000000000000000e+03,-7.145181608455332574e-03,0.000000000000000000e+00
1.553000000000000000e+03,4.889349285417000646e-01,0.000000000000000000e+00
1.554000000000000000e+03,7.501624467600870316e-01,0.000000000000000000e+00
1.555000000000000000e+03,8.029973769682630103e-01,0.000000000000000000e+00
1.556000000000000000e+03,6.779611976974052601e-01,0.000000000000000000e+00
1.557000000000000000e+03,5.734911510276424762e-01,0.000000000000000000e+00
1.558000000000000000e+03,5.277387693065054286e-01,0.000000000000000000e+00
1.559000000000000000e+03,5.961048085319199386e-01,0.000000000000000000e+00
1.560000000000000000e+03,5.153592912220567035e-01,0.000000000000000000e+00
1.561000000000000000e+03,5.149162130666209425e-01,0.000000000000000000e+00
1.562000000000000000e+03,5.509249102086013483e-01,0.000000000000000000e+00
1.563000000000000000e+03,5.932817569532206070e-01,0.000000000000000000e+00
1.564000000000000000e+03,5.272892377788496177e-01,0.000000000000000000e+00
1.565000000000000000e+03,6.149853898277516384e-01,0.000000000000000000e+00
1.566000000000000000e+03,5.552669484046472981e-01,0.000000000000000000e+00
1.567000000000000000e+03,6.345017261337907444e-01,0.000000000000000000e+00
1.568000000000000000e+03,5.910271468586103527e-01,0.000000000000000000e+00
1.569000000000000000e+03,5.830472254726495329e-01,0.000000000000000000e+00
1.570000000000000000e+03,5.813633310608837812e-01,0.000000000000000000e+00
1.571000000000000000e+03,5.781897432583554819e-01,0.000000000000000000e+00
1.572000000000000000e+03,4.259588254446282085e-01,0.000000000000000000e+00
1.573000000000000000e+03,5.125301197253243624e-01,0.000000000000000000e+00
1.574000000000000000e+03,3.998049853536225773e-01,0.000000000000000000e+00
1.575000000000000000e+03,4.401073174801783949e-01,0.000000000000000000e+00
1.576000000000000000e+03,5.062966761740722577e-01,0.000000000000000000e+00
1.577000000000000000e+03,6.617136908754590596e-01,0.000000000000000000e+00
1.578000000000000000e+03,4.976162350892109898e-01,0.000000000000000000e+00
1.579000000000000000e+03,2.759990348152766004e-01,0.000000000000000000e+00
1.580000000000000000e+03,1.932262271745592841e-01,0.000000000000000000e+00
1.581000000000000000e+03,1.622741242418903329e-01,0.000000000000000000e+00
1.582000000000000000e+03,1.095296997408438805e-01,0.000000000000000000e+00
1.583000000000000000e+03,1.009245119253906198e-01,0.000000000000000000e+00
1.584000000000000000e+03,1.128621997441499464e-01,0.000000000000000000e+00
1.585000000000000000e+03,1.257516128086963336e+00,0.000000000000000000e+00
1.586000000000000000e+03,2.161285598390374041e+00,0.000000000000000000e+00
1.587000000000000000e+03,2.403435421626512358e+00,0.000000000000000000e+00
1.588000000000000000e+03,2.365778878389506623e+00,0.000000000000000000e+00
1.589000000000000000e+03,2.044077235123987091e+00,0.000000000000000000e+00
1.590000000000000000e+03,9.725317778078669262e-01,0.000000000000000000e+00
