timestamp,ecg_measurement,qrs_detected
0.000000000000000000e+00,-1.517813841429286048e-01,0.000000000000000000e+00
1.000000000000000000e+00,-2.657088279779811768e-01,0.000000000000000000e+00
2.000000000000000000e+00,7.074303778631235717e-01,0.000000000000000000e+00
3.000000000000000000e+00,7.690915459782761143e-01,0.000000000000000000e+00
4.000000000000000000e+00,7.552380317522505715e-01,0.000000000000000000e+00
5.000000000000000000e+00,1.360319921061311277e+00,0.000000000000000000e+00
6.000000000000000000e+00,7.513448885769812291e-01,0.000000000000000000e+00
7.000000000000000000e+00,-3.746991098986557911e-01,0.000000000000000000e+00
8.000000000000000000e+00,-9.748627612571834078e-01,1.000000000000000000e+00
9.000000000000000000e+00,-1.387792524978836983e+00,0.000000000000000000e+00
1.000000000000000000e+01,-9.716207771455543929e-01,0.000000000000000000e+00
1.100000000000000000e+01,-1.104608355051315716e+00,0.000000000000000000e+00
1.200000000000000000e+01,-9.306012519958618556e-01,0.000000000000000000e+00
1.300000000000000000e+01,-9.985091578112067490e-01,0.000000000000000000e+00
1.400000000000000000e+01,-6.464028358971427579e-01,0.000000000000000000e+00
1.500000000000000000e+01,-5.645180869736137197e-01,0.000000000000000000e+00
1.600000000000000000e+01,-3.729120632286437864e-01,0.000000000000000000e+00
1.700000000000000000e+01,-5.687606178460533624e-01,0.000000000000000000e+00
1.800000000000000000e+01,-3.818134476198739025e-01,0.000000000000000000e+00
1.900000000000000000e+01,-2.143409513570908309e-01,0.000000000000000000e+00
2.000000000000000000e+01,-2.384224639553975955e-01,0.000000000000000000e+00
2.100000000000000000e+01,-1.682939825619887142e-01,0.000000000000000000e+00
2.200000000000000000e+01,-1.928509717835980852e-01,0.000000000000000000e+00
2.300000000000000000e+01,-5.280672565245562999e-02,0.000000000000000000e+00
2.400000000000000000e+01,2.387379335867874722e-02,0.000000000000000000e+00
2.500000000000000000e+01,4.429205976625109897e-02,0.000000000000000000e+00
2.600000000000000000e+01,1.089741248789764527e-01,0.000000000000000000e+00
2.700000000000000000e+01,3.138764211295902440e-01,0.000000000000000000e+00
2.800000000000000000e+01,2.550415436595117047e-01,0.000000000000000000e+00
2.900000000000000000e+01,4.141577863789151492e-01,0.000000000000000000e+00
3.000000000000000000e+01,3.213750074152309510e-01,0.000000000000000000e+00
3.100000000000000000e+01,9.984356861076982073e-03,0.000000000000000000e+00
3.200000000000000000e+01,1.005584957374166116e-01,0.000000000000000000e+00
3.300000000000000000e+01,-1.076105913579427503e-01,0.000000000000000000e+00
3.400000000000000000e+01,2.546882558356676207e-01,0.000000000000000000e+00
3.500000000000000000e+01,-4.698981022378104222e-02,0.000000000000000000e+00
3.600000000000000000e+01,1.834132195233281637e+00,0.000000000000000000e+00
3.700000000000000000e+01,4.511164862547126120e+00,0.000000000000000000e+00
3.800000000000000000e+01,7.645870083081671709e-01,1.000000000000000000e+00
3.900000000000000000e+01,-2.612358481296377377e-01,0.000000000000000000e+00
4.000000000000000000e+01,-7.048733476560866684e-01,0.000000000000000000e+00
4.100000000000000000e+01,-6.998629113859486939e-01,0.000000000000000000e+00
4.200000000000000000e+01,-4.504155387537723820e-01,0.000000000000000000e+00
4.300000000000000000e+01,-2.823359365651055830e-01,0.000000000000000000e+00
4.400000000000000000e+01,-2.853565367019018084e-01,0.000000000000000000e+00
4.500000000000000000e+01,2.284432015870071619e-03,0.000000000000000000e+00
4.600000000000000000e+01,3.552104089710297896e-02,0.000000000000000000e+00
4.700000000000000000e+01,6.470232299680244159e-01,0.000000000000000000e+00
4.800000000000000000e+01,6.239304706805640643e-01,0.000000000000000000e+00
4.900000000000000000e+01,1.270603588679489526e+00,0.000000000000000000e+00
5.000000000000000000e+01,1.291906378218182994e+00,0.000000000000000000e+00
5.100000000000000000e+01,8.506682538774085200e-01,0.000000000000000000e+00
5.200000000000000000e+01,-3.443539601144581241e-01,0.000000000000000000e+00
5.300000000000000000e+01,-1.057332366962703496e+00,0.000000000000000000e+00
5.400000000000000000e+01,-1.437219687314864158e+00,0.000000000000000000e+00
5.500000000000000000e+01,-1.077204515508382032e+00,0.000000000000000000e+00
5.600000000000000000e+01,-1.239711078137322398e+00,0.000000000000000000e+00
5.700000000000000000e+01,-1.026715659702186922e+00,0.000000000000000000e+00
5.800000000000000000e+01,-9.429637824239170962e-01,0.000000000000000000e+00
5.900000000000000000e+01,-8.161406459032605198e-01,0.000000000000000000e+00
6.000000000000000000e+01,-6.585160207193606619e-01,0.000000000000000000e+00
6.100000000000000000e+01,-5.988671742294014999e-01,0.000000000000000000e+00
6.200000000000000000e+01,-4.830501684181594535e-01,0.000000000000000000e+00
6.300000000000000000e+01,-4.156177648544051029e-01,0.000000000000000000e+00
6.400000000000000000e+01,-3.521963033937263732e-01,0.000000000000000000e+00
6.500000000000000000e+01,-2.049505734917839439e-01,0.000000000000000000e+00
6.600000000000000000e+01,-3.922279449639475835e-01,0.000000000000000000e+00
6.700000000000000000e+01,-1.692175341271588696e-01,0.000000000000000000e+00
6.800000000000000000e+01,-1.201209901070605240e-02,0.000000000000000000e+00
6.900000000000000000e+01,-2.322075571492404344e-01,0.000000000000000000e+00
7.000000000000000000e+01,4.143803693923785864e-02,0.000000000000000000e+00
7.100000000000000000e+01,-4.881538531646070767e-02,0.000000000000000000e+00
7.200000000000000000e+01,4.583856251301803297e-01,0.000000000000000000e+00
7.300000000000000000e+01,2.813095259312241581e-01,0.000000000000000000e+00
7.400000000000000000e+01,2.622750363532266316e-01,0.000000000000000000e+00
7.500000000000000000e+01,8.308226023767108226e-02,0.000000000000000000e+00
7.600000000000000000e+01,-4.609925231620045499e-02,0.000000000000000000e+00
7.700000000000000000e+01,1.374617401276433393e-01,0.000000000000000000e+00
7.800000000000000000e+01,2.060825307083316849e-01,0.000000000000000000e+00
7.900000000000000000e+01,1.018710978856846305e-01,0.000000000000000000e+00
8.000000000000000000e+01,4.013390658152034551e-01,0.000000000000000000e+00
8.100000000000000000e+01,4.268545307777218412e+00,0.000000000000000000e+00
8.200000000000000000e+01,2.934722594878294455e+00,1.000000000000000000e+00
8.300000000000000000e+01,-1.631793744632735188e-01,0.000000000000000000e+00
8.400000000000000000e+01,-2.397682649786945508e-01,0.000000000000000000e+00
8.500000000000000000e+01,-7.802773738861459307e-01,0.000000000000000000e+00
8.600000000000000000e+01,-3.822228246151624376e-01,0.000000000000000000e+00
8.700000000000000000e+01,-1.857331148301744617e-01,0.000000000000000000e+00
8.800000000000000000e+01,-2.916442322832274447e-01,0.000000000000000000e+00
8.900000000000000000e+01,-1.018947914056578530e-01,0.000000000000000000e+00
9.000000000000000000e+01,3.059191030901746156e-01,0.000000000000000000e+00
9.100000000000000000e+01,2.499904214999928431e-01,0.000000000000000000e+00
9.200000000000000000e+01,7.662755545309563043e-01,0.000000000000000000e+00
9.300000000000000000e+01,1.037257159607337442e+00,0.000000000000000000e+00
9.400000000000000000e+01,1.283262723294322782e+00,0.000000000000000000e+00
9.500000000000000000e+01,1.231147934369786867e+00,0.000000000000000000e+00
9.600000000000000000e+01,5.090575563840951112e-01,0.000000000000000000e+00
9.700000000000000000e+01,-7.092067537664290544e-01,0.000000000000000000e+00
9.800000000000000000e+01,-1.319428764118197650e+00,0.000000000000000000e+00
9.900000000000000000e+01,-1.194365749776332253e+00,0.000000000000000000e+00
1.000000000000000000e+02,-1.054598882601831100e+00,0.000000000000000000e+00
1.010000000000000000e+02,-1.173994369162203899e+00,0.000000000000000000e+00
1.020000000000000000e+02,-6.980874169639870175e-01,0.000000000000000000e+00
1.030000000000000000e+02,-8.806517686687534985e-01,0.000000000000000000e+00
1.040000000000000000e+02,-7.156143643783968722e-01,0.000000000000000000e+00
1.050000000000000000e+02,-4.151423404689568164e-01,0.000000000000000000e+00
1.060000000000000000e+02,-5.859979028263109235e-01,0.000000000000000000e+00
1.070000000000000000e+02,-2.302131686776186792e-01,0.000000000000000000e+00
1.080000000000000000e+02,-3.058095021733795438e-01,0.000000000000000000e+00
1.090000000000000000e+02,-5.913628760390061689e-01,0.000000000000000000e+00
1.100000000000000000e+02,4.975817898753429752e-02,0.000000000000000000e+00
1.110000000000000000e+02,-5.607957296836224570e-02,0.000000000000000000e+00
1.120000000000000000e+02,-2.829914589576912332e-01,0.000000000000000000e+00
1.130000000000000000e+02,-4.156923041958711651e-01,0.000000000000000000e+00
1.140000000000000000e+02,3.242166444851440898e-01,0.000000000000000000e+00
1.150000000000000000e+02,3.233981660846310668e-01,0.000000000000000000e+00
1.160000000000000000e+02,3.728924370502450514e-01,0.000000000000000000e+00
1.170000000000000000e+02,2.125781941568224698e-01,0.000000000000000000e+00
1.180000000000000000e+02,-1.391985867980499031e-02,0.000000000000000000e+00
1.190000000000000000e+02,2.706748396662895240e-01,0.000000000000000000e+00
1.200000000000000000e+02,-2.328875551393180462e-02,0.000000000000000000e+00
1.210000000000000000e+02,4.378059745428157512e-02,0.000000000000000000e+00
1.220000000000000000e+02,2.895588514996473295e-01,0.000000000000000000e+00
1.230000000000000000e+02,-9.792080873243546799e-03,0.000000000000000000e+00
1.240000000000000000e+02,2.747403225187148301e+00,0.000000000000000000e+00
1.250000000000000000e+02,3.933027924490130722e+00,0.000000000000000000e+00
1.260000000000000000e+02,5.123311985586493922e-01,1.000000000000000000e+00
1.270000000000000000e+02,-3.532966708114851362e-01,0.000000000000000000e+00
1.280000000000000000e+02,-3.965009983006897998e-01,0.000000000000000000e+00
1.290000000000000000e+02,-6.486425732266047905e-01,0.000000000000000000e+00
1.300000000000000000e+02,-3.132671440302284283e-01,0.000000000000000000e+00
1.310000000000000000e+02,-2.003975116157720726e-01,0.000000000000000000e+00
1.320000000000000000e+02,-3.282276307367362755e-01,0.000000000000000000e+00
1.330000000000000000e+02,5.557168766307458291e-02,0.000000000000000000e+00
1.340000000000000000e+02,5.538099383705834960e-02,0.000000000000000000e+00
1.350000000000000000e+02,5.946559560395339172e-01,0.000000000000000000e+00
1.360000000000000000e+02,5.971422414511067256e-01,0.000000000000000000e+00
1.370000000000000000e+02,1.216222805781695504e+00,0.000000000000000000e+00
1.380000000000000000e+02,1.234577114631955075e+00,0.000000000000000000e+00
1.390000000000000000e+02,6.997735824335500343e-01,0.000000000000000000e+00
1.400000000000000000e+02,-6.744568481651642688e-01,0.000000000000000000e+00
1.410000000000000000e+02,-9.738468454773375749e-01,0.000000000000000000e+00
1.420000000000000000e+02,-1.404174988072850017e+00,0.000000000000000000e+00
1.430000000000000000e+02,-1.329615852053672054e+00,0.000000000000000000e+00
1.440000000000000000e+02,-1.272658060682794856e+00,0.000000000000000000e+00
1.450000000000000000e+02,-1.028048334243982564e+00,0.000000000000000000e+00
1.460000000000000000e+02,-9.303424356141023477e-01,0.000000000000000000e+00
1.470000000000000000e+02,-9.746024220645483904e-01,0.000000000000000000e+00
1.480000000000000000e+02,-6.652058934743031449e-01,0.000000000000000000e+00
1.490000000000000000e+02,-9.142515299136786400e-01,0.000000000000000000e+00
1.500000000000000000e+02,-3.778175867393136489e-01,0.000000000000000000e+00
1.510000000000000000e+02,-4.171051116684956761e-01,0.000000000000000000e+00
1.520000000000000000e+02,-4.487477298701675332e-01,0.000000000000000000e+00
1.530000000000000000e+02,-2.324926038717218812e-01,0.000000000000000000e+00
1.540000000000000000e+02,-2.035654656873453205e-01,0.000000000000000000e+00
1.550000000000000000e+02,-9.113215858646006584e-02,0.000000000000000000e+00
1.560000000000000000e+02,-3.182549928401944839e-01,0.000000000000000000e+00
1.570000000000000000e+02,-6.669893937935575390e-02,0.000000000000000000e+00
1.580000000000000000e+02,1.864880464520617120e-01,0.000000000000000000e+00
1.590000000000000000e+02,2.154128676528331010e-01,0.000000000000000000e+00
1.600000000000000000e+02,2.889877561672145045e-01,0.000000000000000000e+00
1.610000000000000000e+02,1.607307534735277765e-01,0.000000000000000000e+00
1.620000000000000000e+02,-1.938974554853747923e-01,0.000000000000000000e+00
1.630000000000000000e+02,1.445375076832857708e-01,0.000000000000000000e+00
1.640000000000000000e+02,6.949530115501421565e-03,0.000000000000000000e+00
1.650000000000000000e+02,-7.193584183394047260e-02,0.000000000000000000e+00
1.660000000000000000e+02,7.614296799825833600e-03,0.000000000000000000e+00
1.670000000000000000e+02,5.130653268030932468e-01,0.000000000000000000e+00
1.680000000000000000e+02,3.801682835275349781e+00,0.000000000000000000e+00
1.690000000000000000e+02,1.984859412852091554e+00,1.000000000000000000e+00
1.700000000000000000e+02,-5.872906514770424857e-02,0.000000000000000000e+00
1.710000000000000000e+02,-5.151562519374988103e-01,0.000000000000000000e+00
1.720000000000000000e+02,-6.325429251742774595e-01,0.000000000000000000e+00
1.730000000000000000e+02,-2.930744358738830990e-01,0.000000000000000000e+00
1.740000000000000000e+02,-4.464469681222331121e-01,0.000000000000000000e+00
1.750000000000000000e+02,-1.274869881146009076e-01,0.000000000000000000e+00
1.760000000000000000e+02,-2.248392380307207283e-01,0.000000000000000000e+00
1.770000000000000000e+02,5.063547226921537303e-02,0.000000000000000000e+00
1.780000000000000000e+02,5.402976192066587524e-01,0.000000000000000000e+00
1.790000000000000000e+02,4.967179887905974756e-01,0.000000000000000000e+00
1.800000000000000000e+02,1.089041098358316750e+00,0.000000000000000000e+00
1.810000000000000000e+02,1.112979858123197996e+00,0.000000000000000000e+00
1.820000000000000000e+02,1.172954767711958945e+00,0.000000000000000000e+00
1.830000000000000000e+02,1.069476940163526374e-01,0.000000000000000000e+00
1.840000000000000000e+02,-8.356262657747949296e-01,0.000000000000000000e+00
1.850000000000000000e+02,-1.317371037545101320e+00,0.000000000000000000e+00
1.860000000000000000e+02,-1.252444611375125527e+00,0.000000000000000000e+00
1.870000000000000000e+02,-1.150647508049826628e+00,0.000000000000000000e+00
1.880000000000000000e+02,-9.825776008849343990e-01,0.000000000000000000e+00
1.890000000000000000e+02,-9.005948048704026654e-01,0.000000000000000000e+00
1.900000000000000000e+02,-8.342269391162130399e-01,0.000000000000000000e+00
1.910000000000000000e+02,-4.446712365113640875e-01,0.000000000000000000e+00
1.920000000000000000e+02,-6.433059740731950082e-01,0.000000000000000000e+00
1.930000000000000000e+02,-3.041752593501093060e-01,0.000000000000000000e+00
1.940000000000000000e+02,-3.965091129973662976e-01,0.000000000000000000e+00
1.950000000000000000e+02,-3.339228801959642778e-01,0.000000000000000000e+00
1.960000000000000000e+02,-3.317328822688365292e-02,0.000000000000000000e+00
1.970000000000000000e+02,-3.849668952630152519e-01,0.000000000000000000e+00
1.980000000000000000e+02,-1.226304645937182497e-02,0.000000000000000000e+00
1.990000000000000000e+02,-6.895415516750674767e-02,0.000000000000000000e+00
2.000000000000000000e+02,-4.104394518359972266e-01,0.000000000000000000e+00
2.010000000000000000e+02,4.225944424454412540e-01,0.000000000000000000e+00
2.020000000000000000e+02,1.137057719011028006e-01,0.000000000000000000e+00
2.030000000000000000e+02,2.578152139914744456e-01,0.000000000000000000e+00
2.040000000000000000e+02,4.365867540964257221e-01,0.000000000000000000e+00
2.050000000000000000e+02,2.021996247138001801e-01,0.000000000000000000e+00
2.060000000000000000e+02,-1.011385326754972863e-01,0.000000000000000000e+00
2.070000000000000000e+02,3.067014418809984044e-01,0.000000000000000000e+00
2.080000000000000000e+02,-1.216507230350832164e-01,0.000000000000000000e+00
2.090000000000000000e+02,2.316563073575705067e-01,0.000000000000000000e+00
2.100000000000000000e+02,2.776083379561692932e-01,0.000000000000000000e+00
2.110000000000000000e+02,3.566445969011582395e+00,0.000000000000000000e+00
2.120000000000000000e+02,2.683101517790765111e+00,1.000000000000000000e+00
2.130000000000000000e+02,7.341847066233930102e-03,0.000000000000000000e+00
2.140000000000000000e+02,-3.547505087428396986e-01,0.000000000000000000e+00
2.150000000000000000e+02,-4.968962964795566872e-01,0.000000000000000000e+00
2.160000000000000000e+02,-4.114859141549009891e-01,0.000000000000000000e+00
2.170000000000000000e+02,-3.314980355289517400e-01,0.000000000000000000e+00
2.180000000000000000e+02,-2.187082520345333403e-01,0.000000000000000000e+00
2.190000000000000000e+02,-5.005744694368215175e-02,0.000000000000000000e+00
2.200000000000000000e+02,4.697786717924264804e-02,0.000000000000000000e+00
2.210000000000000000e+02,3.363893065380960112e-01,0.000000000000000000e+00
2.220000000000000000e+02,4.782847546357686941e-01,0.000000000000000000e+00
2.230000000000000000e+02,9.056447480135852990e-01,0.000000000000000000e+00
2.240000000000000000e+02,1.165890429947851192e+00,0.000000000000000000e+00
2.250000000000000000e+02,1.148861694254882382e+00,0.000000000000000000e+00
2.260000000000000000e+02,3.886473007942056745e-01,0.000000000000000000e+00
2.270000000000000000e+02,-7.425522429707488437e-01,0.000000000000000000e+00
2.280000000000000000e+02,-1.037033824804628690e+00,0.000000000000000000e+00
2.290000000000000000e+02,-1.231155662571753684e+00,0.000000000000000000e+00
2.300000000000000000e+02,-1.130344480270469854e+00,0.000000000000000000e+00
2.310000000000000000e+02,-1.022120267625495238e+00,0.000000000000000000e+00
2.320000000000000000e+02,-7.612480311543875500e-01,0.000000000000000000e+00
2.330000000000000000e+02,-9.718683748056388128e-01,0.000000000000000000e+00
2.340000000000000000e+02,-4.226673146561455985e-01,0.000000000000000000e+00
2.350000000000000000e+02,-2.679032777000059928e-01,0.000000000000000000e+00
2.360000000000000000e+02,-6.916645645885709515e-01,0.000000000000000000e+00
2.370000000000000000e+02,4.046210255777357712e-02,0.000000000000000000e+00
2.380000000000000000e+02,-1.449729163316960667e-01,0.000000000000000000e+00
2.390000000000000000e+02,-3.574769771219565850e-01,0.000000000000000000e+00
2.400000000000000000e+02,5.722506931423109594e-02,0.000000000000000000e+00
2.410000000000000000e+02,7.584705529365484700e-02,0.000000000000000000e+00
2.420000000000000000e+02,-4.408235359505293105e-01,0.000000000000000000e+00
2.430000000000000000e+02,-4.794794925909002387e-02,0.000000000000000000e+00
2.440000000000000000e+02,6.484357795918845035e-02,0.000000000000000000e+00
2.450000000000000000e+02,9.329292858849982939e-02,0.000000000000000000e+00
2.460000000000000000e+02,3.653398366501512950e-01,0.000000000000000000e+00
2.470000000000000000e+02,3.728189631032730600e-01,0.000000000000000000e+00
2.480000000000000000e+02,-5.216882358898761868e-02,0.000000000000000000e+00
2.490000000000000000e+02,6.105136241218064169e-02,0.000000000000000000e+00
2.500000000000000000e+02,2.284671114474139397e-01,0.000000000000000000e+00
2.510000000000000000e+02,-8.676644433718973259e-02,0.000000000000000000e+00
2.520000000000000000e+02,7.259085394109540679e-02,0.000000000000000000e+00
2.530000000000000000e+02,1.579357314895838693e-01,0.000000000000000000e+00
2.540000000000000000e+02,7.810004704153803434e-01,0.000000000000000000e+00
2.550000000000000000e+02,4.658280574561692866e+00,0.000000000000000000e+00
2.560000000000000000e+02,2.220790779185195074e+00,1.000000000000000000e+00
2.570000000000000000e+02,-2.930138740617380666e-01,0.000000000000000000e+00
2.580000000000000000e+02,-3.515802407671856922e-01,0.000000000000000000e+00
2.590000000000000000e+02,-7.662607247576513902e-01,0.000000000000000000e+00
2.600000000000000000e+02,-2.977794894196438835e-01,0.000000000000000000e+00
2.610000000000000000e+02,-4.272294691966763702e-01,0.000000000000000000e+00
2.620000000000000000e+02,-1.736479107663936039e-01,0.000000000000000000e+00
2.630000000000000000e+02,-1.223307530592147307e-01,0.000000000000000000e+00
2.640000000000000000e+02,2.106000056531550091e-01,0.000000000000000000e+00
2.650000000000000000e+02,4.203220054015521234e-01,0.000000000000000000e+00
2.660000000000000000e+02,5.109668538292416740e-01,0.000000000000000000e+00
2.670000000000000000e+02,1.187010909072275577e+00,0.000000000000000000e+00
2.680000000000000000e+02,1.288682013601594400e+00,0.000000000000000000e+00
2.690000000000000000e+02,1.138715318539969878e+00,0.000000000000000000e+00
2.700000000000000000e+02,7.464152450853953069e-02,0.000000000000000000e+00
2.710000000000000000e+02,-7.888979676022791487e-01,0.000000000000000000e+00
2.720000000000000000e+02,-1.422544258137067086e+00,0.000000000000000000e+00
2.730000000000000000e+02,-1.248273018616979035e+00,0.000000000000000000e+00
2.740000000000000000e+02,-1.030708353217116180e+00,0.000000000000000000e+00
2.750000000000000000e+02,-1.093844155508657101e+00,0.000000000000000000e+00
2.760000000000000000e+02,-7.511553127197194701e-01,0.000000000000000000e+00
2.770000000000000000e+02,-8.229277853146071964e-01,0.000000000000000000e+00
2.780000000000000000e+02,-7.029210726610090054e-01,0.000000000000000000e+00
2.790000000000000000e+02,-5.469150783981218122e-01,0.000000000000000000e+00
2.800000000000000000e+02,-4.467851109171934176e-01,0.000000000000000000e+00
2.810000000000000000e+02,-3.425293351030567202e-01,0.000000000000000000e+00
2.820000000000000000e+02,-2.489833592685060104e-01,0.000000000000000000e+00
2.830000000000000000e+02,-3.987929640360901584e-01,0.000000000000000000e+00
2.840000000000000000e+02,-2.075900643558735992e-01,0.000000000000000000e+00
2.850000000000000000e+02,-8.925590197547578208e-02,0.000000000000000000e+00
2.860000000000000000e+02,-3.209201541844555194e-01,0.000000000000000000e+00
2.870000000000000000e+02,2.556435347652813994e-01,0.000000000000000000e+00
2.880000000000000000e+02,-1.197822645881823911e-01,0.000000000000000000e+00
2.890000000000000000e+02,8.667183036006301244e-02,0.000000000000000000e+00
2.900000000000000000e+02,3.665062062558240852e-01,0.000000000000000000e+00
2.910000000000000000e+02,5.451867647728163568e-01,0.000000000000000000e+00
2.920000000000000000e+02,1.735930803843297454e-01,0.000000000000000000e+00
2.930000000000000000e+02,2.377883197911803415e-01,0.000000000000000000e+00
2.940000000000000000e+02,-1.790807993816720955e-01,0.000000000000000000e+00
2.950000000000000000e+02,1.174686064645494299e-01,0.000000000000000000e+00
2.960000000000000000e+02,-1.123992508925153594e-01,0.000000000000000000e+00
2.970000000000000000e+02,1.225103389902333778e-01,0.000000000000000000e+00
2.980000000000000000e+02,-1.031224431433974270e-01,0.000000000000000000e+00
2.990000000000000000e+02,3.905894752939852665e+00,0.000000000000000000e+00
3.000000000000000000e+02,3.191521462519115726e+00,0.000000000000000000e+00
3.010000000000000000e+02,-9.245568493157464707e-02,1.000000000000000000e+00
3.020000000000000000e+02,-6.157772165276476084e-01,0.000000000000000000e+00
3.030000000000000000e+02,-6.844841144254302234e-01,0.000000000000000000e+00
3.040000000000000000e+02,-5.603252935263702827e-01,0.000000000000000000e+00
3.050000000000000000e+02,-7.505479307600013694e-01,0.000000000000000000e+00
3.060000000000000000e+02,-2.278369273300018816e-01,0.000000000000000000e+00
3.070000000000000000e+02,-3.031456045010113010e-01,0.000000000000000000e+00
3.080000000000000000e+02,-3.332415035211479942e-02,0.000000000000000000e+00
3.090000000000000000e+02,2.544505642077072444e-02,0.000000000000000000e+00
3.100000000000000000e+02,5.581482707532371412e-01,0.000000000000000000e+00
3.110000000000000000e+02,6.390850075178388101e-01,0.000000000000000000e+00
3.120000000000000000e+02,1.233919467461350727e+00,0.000000000000000000e+00
3.130000000000000000e+02,1.295403321620480108e+00,0.000000000000000000e+00
3.140000000000000000e+02,3.583884901564623471e-01,0.000000000000000000e+00
3.150000000000000000e+02,-7.536710006386171390e-01,0.000000000000000000e+00
3.160000000000000000e+02,-1.177433490150230577e+00,0.000000000000000000e+00
3.170000000000000000e+02,-1.372950626414068287e+00,0.000000000000000000e+00
3.180000000000000000e+02,-1.087570382010861758e+00,0.000000000000000000e+00
3.190000000000000000e+02,-1.109818008749803298e+00,0.000000000000000000e+00
3.200000000000000000e+02,-8.676849233316219490e-01,0.000000000000000000e+00
3.210000000000000000e+02,-9.590080194394601243e-01,0.000000000000000000e+00
3.220000000000000000e+02,-6.980429429620818027e-01,0.000000000000000000e+00
3.230000000000000000e+02,-6.953511382022249387e-01,0.000000000000000000e+00
3.240000000000000000e+02,-5.561646083557475473e-01,0.000000000000000000e+00
3.250000000000000000e+02,-3.256595441803743496e-01,0.000000000000000000e+00
3.260000000000000000e+02,-5.023335981302398112e-01,0.000000000000000000e+00
3.270000000000000000e+02,-3.709071775743078558e-01,0.000000000000000000e+00
3.280000000000000000e+02,-2.664558297156880418e-01,0.000000000000000000e+00
3.290000000000000000e+02,-1.752453896841242864e-01,0.000000000000000000e+00
3.300000000000000000e+02,-9.595367517495681509e-02,0.000000000000000000e+00
3.310000000000000000e+02,-1.896213873582649756e-01,0.000000000000000000e+00
3.320000000000000000e+02,-1.569080894141711979e-01,0.000000000000000000e+00
3.330000000000000000e+02,-5.467920243225227531e-03,0.000000000000000000e+00
3.340000000000000000e+02,2.535474284585235161e-01,0.000000000000000000e+00
3.350000000000000000e+02,3.781005390045615866e-01,0.000000000000000000e+00
3.360000000000000000e+02,6.413740406776052838e-02,0.000000000000000000e+00
3.370000000000000000e+02,2.137876612316081115e-01,0.000000000000000000e+00
3.380000000000000000e+02,-4.212650218922543016e-02,0.000000000000000000e+00
3.390000000000000000e+02,1.472274072640508136e-01,0.000000000000000000e+00
3.400000000000000000e+02,-1.297233440793327947e-02,0.000000000000000000e+00
3.410000000000000000e+02,1.702677066296099384e-01,0.000000000000000000e+00
3.420000000000000000e+02,1.859584851747330889e-02,0.000000000000000000e+00
3.430000000000000000e+02,3.565710131712716446e+00,0.000000000000000000e+00
3.440000000000000000e+02,3.197047797233360189e+00,1.000000000000000000e+00
3.450000000000000000e+02,-8.315646756712161136e-02,0.000000000000000000e+00
3.460000000000000000e+02,-1.798709671784815833e-01,0.000000000000000000e+00
3.470000000000000000e+02,-6.928524866068888066e-01,0.000000000000000000e+00
3.480000000000000000e+02,-3.687777214724620722e-01,0.000000000000000000e+00
3.490000000000000000e+02,-4.884830763276738486e-01,0.000000000000000000e+00
3.500000000000000000e+02,-2.628483661716401673e-02,0.000000000000000000e+00
3.510000000000000000e+02,-3.536189598980257753e-01,0.000000000000000000e+00
3.520000000000000000e+02,1.581843553867814112e-01,0.000000000000000000e+00
3.530000000000000000e+02,2.568422705530885586e-01,0.000000000000000000e+00
3.540000000000000000e+02,4.553012347153193029e-01,0.000000000000000000e+00
3.550000000000000000e+02,9.536995383091156908e-01,0.000000000000000000e+00
3.560000000000000000e+02,1.439408910102894179e+00,0.000000000000000000e+00
3.570000000000000000e+02,1.010673859041582023e+00,0.000000000000000000e+00
3.580000000000000000e+02,7.199198975355585173e-01,0.000000000000000000e+00
3.590000000000000000e+02,-6.912197232125654178e-01,0.000000000000000000e+00
3.600000000000000000e+02,-1.079382615140048740e+00,0.000000000000000000e+00
3.610000000000000000e+02,-1.144621798215443853e+00,0.000000000000000000e+00
3.620000000000000000e+02,-1.263187634828912609e+00,0.000000000000000000e+00
3.630000000000000000e+02,-1.033385171084179710e+00,0.000000000000000000e+00
3.640000000000000000e+02,-9.183002109753708453e-01,0.000000000000000000e+00
3.650000000000000000e+02,-8.449129670769813805e-01,0.000000000000000000e+00
3.660000000000000000e+02,-4.469477529504955471e-01,0.000000000000000000e+00
3.670000000000000000e+02,-7.400206493618850523e-01,0.000000000000000000e+00
3.680000000000000000e+02,-3.445021843613046419e-01,0.000000000000000000e+00
3.690000000000000000e+02,-2.684902533263041069e-01,0.000000000000000000e+00
3.700000000000000000e+02,-2.779251345555616148e-01,0.000000000000000000e+00
3.710000000000000000e+02,-2.332463358088949223e-01,0.000000000000000000e+00
3.720000000000000000e+02,1.827489548594625826e-02,0.000000000000000000e+00
3.730000000000000000e+02,-3.971243069089842592e-01,0.000000000000000000e+00
3.740000000000000000e+02,-1.099328732778114687e-01,0.000000000000000000e+00
3.750000000000000000e+02,6.080834849508478558e-03,0.000000000000000000e+00
3.760000000000000000e+02,-1.952370715365056020e-01,0.000000000000000000e+00
3.770000000000000000e+02,3.217133060576818915e-01,0.000000000000000000e+00
3.780000000000000000e+02,4.523982275187832247e-01,0.000000000000000000e+00
3.790000000000000000e+02,-7.006196298278405399e-02,0.000000000000000000e+00
3.800000000000000000e+02,2.663610543603238123e-01,0.000000000000000000e+00
3.810000000000000000e+02,-1.208094508734211814e-01,0.000000000000000000e+00
3.820000000000000000e+02,2.405707455513668991e-01,0.000000000000000000e+00
3.830000000000000000e+02,-1.501144871733875452e-01,0.000000000000000000e+00
3.840000000000000000e+02,3.951861904477482756e-02,0.000000000000000000e+00
3.850000000000000000e+02,-1.603817447034905919e-01,0.000000000000000000e+00
3.860000000000000000e+02,3.019299361905615431e+00,0.000000000000000000e+00
3.870000000000000000e+02,3.562050687316824060e+00,0.000000000000000000e+00
3.880000000000000000e+02,-7.753106683212326877e-02,1.000000000000000000e+00
3.890000000000000000e+02,-1.721161522244672726e-01,0.000000000000000000e+00
3.900000000000000000e+02,-6.373117705864411731e-01,0.000000000000000000e+00
3.910000000000000000e+02,-5.532311992890819319e-01,0.000000000000000000e+00
3.920000000000000000e+02,-3.683545090828825863e-01,0.000000000000000000e+00
3.930000000000000000e+02,-2.977938465213893493e-01,0.000000000000000000e+00
3.940000000000000000e+02,-1.938235489626903563e-01,0.000000000000000000e+00
3.950000000000000000e+02,6.045670926163857622e-02,0.000000000000000000e+00
3.960000000000000000e+02,4.100107070146632830e-03,0.000000000000000000e+00
3.970000000000000000e+02,5.783394546296755090e-01,0.000000000000000000e+00
3.980000000000000000e+02,8.471171903318337471e-01,0.000000000000000000e+00
3.990000000000000000e+02,1.308924255370035317e+00,0.000000000000000000e+00
4.000000000000000000e+02,1.144131000808115584e+00,0.000000000000000000e+00
4.010000000000000000e+02,6.582294373317481018e-01,0.000000000000000000e+00
4.020000000000000000e+02,-4.067056957095240843e-01,0.000000000000000000e+00
4.030000000000000000e+02,-9.666686715742098812e-01,0.000000000000000000e+00
4.040000000000000000e+02,-1.227423754149252977e+00,0.000000000000000000e+00
4.050000000000000000e+02,-1.025316900861019009e+00,0.000000000000000000e+00
4.060000000000000000e+02,-9.899936777720299563e-01,0.000000000000000000e+00
4.070000000000000000e+02,-8.910943467918688299e-01,0.000000000000000000e+00
4.080000000000000000e+02,-6.844118654281373670e-01,0.000000000000000000e+00
4.090000000000000000e+02,-5.994304047983812778e-01,0.000000000000000000e+00
4.100000000000000000e+02,-6.252552451775511555e-01,0.000000000000000000e+00
4.110000000000000000e+02,-3.207008327632137057e-01,0.000000000000000000e+00
4.120000000000000000e+02,-5.121472018034010087e-01,0.000000000000000000e+00
4.130000000000000000e+02,-2.662181727736561698e-01,0.000000000000000000e+00
4.140000000000000000e+02,-3.080913700653585274e-01,0.000000000000000000e+00
4.150000000000000000e+02,-1.011602765051871078e-01,0.000000000000000000e+00
4.160000000000000000e+02,-5.533815202237767766e-02,0.000000000000000000e+00
4.170000000000000000e+02,-4.331715423222171069e-02,0.000000000000000000e+00
4.180000000000000000e+02,-2.259395956554673818e-02,0.000000000000000000e+00
4.190000000000000000e+02,1.367178437477859117e-02,0.000000000000000000e+00
4.200000000000000000e+02,1.632634564810010736e-01,0.000000000000000000e+00
4.210000000000000000e+02,5.468852759536512176e-01,0.000000000000000000e+00
4.220000000000000000e+02,5.229563773017722461e-01,0.000000000000000000e+00
4.230000000000000000e+02,6.294393780161494645e-02,0.000000000000000000e+00
4.240000000000000000e+02,3.144444077679244276e-01,0.000000000000000000e+00
4.250000000000000000e+02,-2.318984305397270573e-01,0.000000000000000000e+00
4.260000000000000000e+02,2.313708215579288185e-01,0.000000000000000000e+00
4.270000000000000000e+02,2.831564655924898380e-02,0.000000000000000000e+00
4.280000000000000000e+02,4.259274696100960600e-02,0.000000000000000000e+00
4.290000000000000000e+02,3.553595444269527226e-01,0.000000000000000000e+00
4.300000000000000000e+02,4.132316886961776348e+00,0.000000000000000000e+00
4.310000000000000000e+02,2.732674418222869051e+00,1.000000000000000000e+00
4.320000000000000000e+02,-2.963898689866356628e-01,0.000000000000000000e+00
4.330000000000000000e+02,-5.121139699008783186e-01,0.000000000000000000e+00
4.340000000000000000e+02,-8.059289653356921379e-01,0.000000000000000000e+00
4.350000000000000000e+02,-3.651541242603941750e-01,0.000000000000000000e+00
4.360000000000000000e+02,-8.307984205647834797e-01,0.000000000000000000e+00
4.370000000000000000e+02,-3.382490815429957387e-02,0.000000000000000000e+00
4.380000000000000000e+02,-3.857782826432505363e-01,0.000000000000000000e+00
4.390000000000000000e+02,-3.515222371420538561e-02,0.000000000000000000e+00
4.400000000000000000e+02,2.942090932476953968e-01,0.000000000000000000e+00
4.410000000000000000e+02,2.087563097480733265e-01,0.000000000000000000e+00
4.420000000000000000e+02,1.194788828336775355e+00,0.000000000000000000e+00
4.430000000000000000e+02,1.231003692510474590e+00,0.000000000000000000e+00
4.440000000000000000e+02,1.186348788623142525e+00,0.000000000000000000e+00
4.450000000000000000e+02,8.275492784294237458e-02,0.000000000000000000e+00
4.460000000000000000e+02,-8.055480485934561896e-01,0.000000000000000000e+00
4.470000000000000000e+02,-9.483279511206760271e-01,0.000000000000000000e+00
4.480000000000000000e+02,-1.607561376590337154e+00,0.000000000000000000e+00
4.490000000000000000e+02,-1.477795145208886884e+00,0.000000000000000000e+00
4.500000000000000000e+02,-7.865488571493214343e-01,0.000000000000000000e+00
4.510000000000000000e+02,-9.317124833425327601e-01,0.000000000000000000e+00
4.520000000000000000e+02,-9.066822883465220917e-01,0.000000000000000000e+00
4.530000000000000000e+02,-6.405547899454089311e-01,0.000000000000000000e+00
4.540000000000000000e+02,-8.399194459204597507e-01,0.000000000000000000e+00
4.550000000000000000e+02,-4.687613824133076701e-01,0.000000000000000000e+00
4.560000000000000000e+02,-3.449137892319624199e-01,0.000000000000000000e+00
4.570000000000000000e+02,-2.415849451975100592e-01,0.000000000000000000e+00
4.580000000000000000e+02,-3.014591576332807943e-01,0.000000000000000000e+00
4.590000000000000000e+02,-9.582450176545567744e-02,0.000000000000000000e+00
4.600000000000000000e+02,-4.264367103012663418e-01,0.000000000000000000e+00
4.610000000000000000e+02,1.324272626071049674e-01,0.000000000000000000e+00
4.620000000000000000e+02,-4.748522167895713464e-02,0.000000000000000000e+00
4.630000000000000000e+02,-6.911154037370902115e-02,0.000000000000000000e+00
4.640000000000000000e+02,3.406482538749178168e-01,0.000000000000000000e+00
4.650000000000000000e+02,3.888153232293785067e-01,0.000000000000000000e+00
4.660000000000000000e+02,1.863533222167943204e-01,0.000000000000000000e+00
4.670000000000000000e+02,2.697076370320804495e-01,0.000000000000000000e+00
4.680000000000000000e+02,-2.591781208938905290e-01,0.000000000000000000e+00
4.690000000000000000e+02,8.089769665496375495e-02,0.000000000000000000e+00
4.700000000000000000e+02,-1.024626971449466989e-01,0.000000000000000000e+00
4.710000000000000000e+02,2.284105228186464887e-01,0.000000000000000000e+00
4.720000000000000000e+02,-1.693340991286078068e-01,0.000000000000000000e+00
4.730000000000000000e+02,2.792399715841897390e+00,0.000000000000000000e+00
4.740000000000000000e+02,4.281929115116275497e+00,0.000000000000000000e+00
4.750000000000000000e+02,2.215419884592895461e-01,1.000000000000000000e+00
4.760000000000000000e+02,-1.122192299677292476e-01,0.000000000000000000e+00
4.770000000000000000e+02,-6.888766688683536366e-01,0.000000000000000000e+00
4.780000000000000000e+02,-5.217561336587653864e-01,0.000000000000000000e+00
4.790000000000000000e+02,-2.913153081288198387e-01,0.000000000000000000e+00
4.800000000000000000e+02,-2.873746448384241758e-01,0.000000000000000000e+00
4.810000000000000000e+02,-3.135665168693336224e-01,0.000000000000000000e+00
4.820000000000000000e+02,6.886091307978108034e-02,0.000000000000000000e+00
4.830000000000000000e+02,2.224465034687545251e-01,0.000000000000000000e+00
4.840000000000000000e+02,4.346444263652191609e-01,0.000000000000000000e+00
4.850000000000000000e+02,8.004829159277973005e-01,0.000000000000000000e+00
4.860000000000000000e+02,1.282146391951768827e+00,0.000000000000000000e+00
4.870000000000000000e+02,1.220750905084948990e+00,0.000000000000000000e+00
4.880000000000000000e+02,7.190929636152245674e-01,0.000000000000000000e+00
4.890000000000000000e+02,-4.416938835529830021e-01,0.000000000000000000e+00
4.900000000000000000e+02,-1.312418774086150153e+00,0.000000000000000000e+00
4.910000000000000000e+02,-1.140528393426255338e+00,0.000000000000000000e+00
4.920000000000000000e+02,-1.289026486927615345e+00,0.000000000000000000e+00
4.930000000000000000e+02,-1.206875976447392196e+00,0.000000000000000000e+00
4.940000000000000000e+02,-1.032038773790312058e+00,0.000000000000000000e+00
4.950000000000000000e+02,-9.465764976417396781e-01,0.000000000000000000e+00
4.960000000000000000e+02,-6.662626300707209515e-01,0.000000000000000000e+00
4.970000000000000000e+02,-8.148457341529751208e-01,0.000000000000000000e+00
4.980000000000000000e+02,-4.889552534827976138e-01,0.000000000000000000e+00
4.990000000000000000e+02,-5.244113496406188624e-01,0.000000000000000000e+00
5.000000000000000000e+02,-3.870671789064978885e-01,0.000000000000000000e+00
5.010000000000000000e+02,-3.047505190797507035e-01,0.000000000000000000e+00
5.020000000000000000e+02,-4.978962081144583385e-01,0.000000000000000000e+00
5.030000000000000000e+02,6.976300297002070716e-02,0.000000000000000000e+00
5.040000000000000000e+02,-2.397742377689189575e-01,0.000000000000000000e+00
5.050000000000000000e+02,-8.997027773691995689e-02,0.000000000000000000e+00
5.060000000000000000e+02,1.665594152409233808e-01,0.000000000000000000e+00
5.070000000000000000e+02,3.225774018377094432e-01,0.000000000000000000e+00
5.080000000000000000e+02,2.469441966148727685e-01,0.000000000000000000e+00
5.090000000000000000e+02,-1.542293294443340679e-02,0.000000000000000000e+00
5.100000000000000000e+02,-2.100906152810118332e-01,0.000000000000000000e+00
5.110000000000000000e+02,2.099496890903226609e-01,0.000000000000000000e+00
5.120000000000000000e+02,-3.757670903145130525e-01,0.000000000000000000e+00
5.130000000000000000e+02,4.541410425897738357e-01,0.000000000000000000e+00
5.140000000000000000e+02,-2.722966593626128806e-01,0.000000000000000000e+00
5.150000000000000000e+02,1.938509113967578967e+00,0.000000000000000000e+00
5.160000000000000000e+02,4.002735319723647933e+00,0.000000000000000000e+00
5.170000000000000000e+02,4.361799662650428511e-01,1.000000000000000000e+00
5.180000000000000000e+02,-2.087291541671304484e-01,0.000000000000000000e+00
5.190000000000000000e+02,-6.972806679610833447e-01,0.000000000000000000e+00
5.200000000000000000e+02,-5.966432428889146822e-01,0.000000000000000000e+00
5.210000000000000000e+02,-1.857990860134903777e-01,0.000000000000000000e+00
5.220000000000000000e+02,-4.418641721645141240e-01,0.000000000000000000e+00
5.230000000000000000e+02,-2.959586592950242453e-03,0.000000000000000000e+00
5.240000000000000000e+02,1.663163287501557008e-01,0.000000000000000000e+00
5.250000000000000000e+02,5.322059490253148312e-02,0.000000000000000000e+00
5.260000000000000000e+02,6.319421408689895880e-01,0.000000000000000000e+00
5.270000000000000000e+02,6.527950813237914929e-01,0.000000000000000000e+00
5.280000000000000000e+02,1.234579338111416069e+00,0.000000000000000000e+00
5.290000000000000000e+02,1.381471399879016015e+00,0.000000000000000000e+00
5.300000000000000000e+02,8.020497837882406555e-01,0.000000000000000000e+00
5.310000000000000000e+02,-2.265186219839945003e-01,0.000000000000000000e+00
5.320000000000000000e+02,-1.173061371675027775e+00,0.000000000000000000e+00
5.330000000000000000e+02,-1.073432463934465897e+00,0.000000000000000000e+00
5.340000000000000000e+02,-1.233603325245107518e+00,0.000000000000000000e+00
5.350000000000000000e+02,-9.946619418540167956e-01,0.000000000000000000e+00
5.360000000000000000e+02,-8.923842194844063824e-01,0.000000000000000000e+00
5.370000000000000000e+02,-8.051774214192184420e-01,0.000000000000000000e+00
5.380000000000000000e+02,-5.282607624478737884e-01,0.000000000000000000e+00
5.390000000000000000e+02,-8.244678872646086232e-01,0.000000000000000000e+00
5.400000000000000000e+02,-4.098203275407722446e-01,0.000000000000000000e+00
5.410000000000000000e+02,-2.534135223333918163e-01,0.000000000000000000e+00
5.420000000000000000e+02,-4.866032872240585450e-01,0.000000000000000000e+00
5.430000000000000000e+02,-9.984386351476838561e-02,0.000000000000000000e+00
5.440000000000000000e+02,-2.615438434234696463e-01,0.000000000000000000e+00
5.450000000000000000e+02,-1.776174563720421540e-01,0.000000000000000000e+00
5.460000000000000000e+02,1.420141914379949473e-02,0.000000000000000000e+00
5.470000000000000000e+02,-2.136260648240716382e-03,0.000000000000000000e+00
5.480000000000000000e+02,3.590209388993840234e-01,0.000000000000000000e+00
5.490000000000000000e+02,4.102261827041763786e-01,0.000000000000000000e+00
5.500000000000000000e+02,-5.099574203149959128e-02,0.000000000000000000e+00
5.510000000000000000e+02,2.701585550351424114e-01,0.000000000000000000e+00
5.520000000000000000e+02,-6.172865373512085446e-02,0.000000000000000000e+00
5.530000000000000000e+02,2.613126474068225291e-01,0.000000000000000000e+00
5.540000000000000000e+02,-1.118594509890026012e-01,0.000000000000000000e+00
5.550000000000000000e+02,3.236096168662268013e-01,0.000000000000000000e+00
5.560000000000000000e+02,-3.059421588702894261e-03,0.000000000000000000e+00
5.570000000000000000e+02,3.240617588962204643e+00,0.000000000000000000e+00
5.580000000000000000e+02,3.390095477760393550e+00,0.000000000000000000e+00
5.590000000000000000e+02,2.024317293452056743e-01,1.000000000000000000e+00
5.600000000000000000e+02,-2.048636229400259967e-01,0.000000000000000000e+00
5.610000000000000000e+02,-6.284128420587091757e-01,0.000000000000000000e+00
5.620000000000000000e+02,-3.965636197500531090e-01,0.000000000000000000e+00
5.630000000000000000e+02,-2.574032824225581662e-01,0.000000000000000000e+00
5.640000000000000000e+02,-7.727172913512554697e-02,0.000000000000000000e+00
5.650000000000000000e+02,-1.042714326809967840e-01,0.000000000000000000e+00
5.660000000000000000e+02,1.035046230046496180e-01,0.000000000000000000e+00
5.670000000000000000e+02,3.174019642237982386e-01,0.000000000000000000e+00
5.680000000000000000e+02,6.609721386816171940e-01,0.000000000000000000e+00
5.690000000000000000e+02,8.848553704306353351e-01,0.000000000000000000e+00
5.700000000000000000e+02,1.436095325346941287e+00,0.000000000000000000e+00
5.710000000000000000e+02,1.366170939025159514e+00,0.000000000000000000e+00
5.720000000000000000e+02,5.142632805114835115e-01,0.000000000000000000e+00
5.730000000000000000e+02,-4.794329225480791212e-01,0.000000000000000000e+00
5.740000000000000000e+02,-1.065701186397312261e+00,0.000000000000000000e+00
5.750000000000000000e+02,-1.325170688647264727e+00,0.000000000000000000e+00
5.760000000000000000e+02,-1.068982835609513016e+00,0.000000000000000000e+00
5.770000000000000000e+02,-9.046335223575916462e-01,0.000000000000000000e+00
5.780000000000000000e+02,-1.121403903634817789e+00,0.000000000000000000e+00
5.790000000000000000e+02,-6.503637318664096112e-01,0.000000000000000000e+00
5.800000000000000000e+02,-9.822759121267868876e-01,0.000000000000000000e+00
5.810000000000000000e+02,-5.358242498124722308e-01,0.000000000000000000e+00
5.820000000000000000e+02,-2.199882470075500973e-01,0.000000000000000000e+00
5.830000000000000000e+02,-7.518877797689303977e-01,0.000000000000000000e+00
5.840000000000000000e+02,-5.953285952769482581e-01,0.000000000000000000e+00
5.850000000000000000e+02,1.269571763311296009e-01,0.000000000000000000e+00
5.860000000000000000e+02,-4.563338334286282105e-01,0.000000000000000000e+00
5.870000000000000000e+02,-3.067874899047905446e-01,0.000000000000000000e+00
5.880000000000000000e+02,7.406623217703306970e-03,0.000000000000000000e+00
5.890000000000000000e+02,-1.975433644518048149e-01,0.000000000000000000e+00
5.900000000000000000e+02,2.927224317884831728e-01,0.000000000000000000e+00
5.910000000000000000e+02,2.869040928841888327e-01,0.000000000000000000e+00
5.920000000000000000e+02,-3.678351398795653288e-02,0.000000000000000000e+00
5.930000000000000000e+02,1.272696767218774692e-02,0.000000000000000000e+00
5.940000000000000000e+02,-2.934195666897014276e-01,0.000000000000000000e+00
5.950000000000000000e+02,2.512358208957353178e-01,0.000000000000000000e+00
5.960000000000000000e+02,-1.079826308489430786e-01,0.000000000000000000e+00
5.970000000000000000e+02,-3.703550735401917038e-02,0.000000000000000000e+00
5.980000000000000000e+02,3.241676891353565404e-01,0.000000000000000000e+00
5.990000000000000000e+02,4.029730794955117545e+00,0.000000000000000000e+00
6.000000000000000000e+02,2.751719059813715340e+00,1.000000000000000000e+00
6.010000000000000000e+02,-1.404797263626521575e-01,0.000000000000000000e+00
6.020000000000000000e+02,-3.318458680628549318e-01,0.000000000000000000e+00
6.030000000000000000e+02,-8.716537703495714773e-01,0.000000000000000000e+00
6.040000000000000000e+02,-3.198944914046428778e-01,0.000000000000000000e+00
6.050000000000000000e+02,-4.497123469567042009e-01,0.000000000000000000e+00
6.060000000000000000e+02,-4.248251844080273010e-01,0.000000000000000000e+00
6.070000000000000000e+02,-1.049630588691866928e-01,0.000000000000000000e+00
6.080000000000000000e+02,1.703751850464119838e-02,0.000000000000000000e+00
6.090000000000000000e+02,3.525512158508183891e-01,0.000000000000000000e+00
6.100000000000000000e+02,6.553401321612303265e-01,0.000000000000000000e+00
6.110000000000000000e+02,8.581580143026764640e-01,0.000000000000000000e+00
6.120000000000000000e+02,1.328702828838476124e+00,0.000000000000000000e+00
6.130000000000000000e+02,1.177580758894560153e+00,0.000000000000000000e+00
6.140000000000000000e+02,2.305207523580004303e-01,0.000000000000000000e+00
6.150000000000000000e+02,-6.543547050230672513e-01,0.000000000000000000e+00
6.160000000000000000e+02,-1.377384119796228434e+00,0.000000000000000000e+00
6.170000000000000000e+02,-1.261839435364614292e+00,0.000000000000000000e+00
6.180000000000000000e+02,-1.089223146310584811e+00,0.000000000000000000e+00
6.190000000000000000e+02,-1.241124667479168053e+00,0.000000000000000000e+00
6.200000000000000000e+02,-9.488684357373183831e-01,0.000000000000000000e+00
6.210000000000000000e+02,-8.149639672924768874e-01,0.000000000000000000e+00
6.220000000000000000e+02,-6.331904936343151213e-01,0.000000000000000000e+00
6.230000000000000000e+02,-7.586303669557635798e-01,0.000000000000000000e+00
6.240000000000000000e+02,-3.164807523062312944e-01,0.000000000000000000e+00
6.250000000000000000e+02,-4.258570199160885417e-01,0.000000000000000000e+00
6.260000000000000000e+02,-2.498585673231280002e-01,0.000000000000000000e+00
6.270000000000000000e+02,-2.647640342632825994e-01,0.000000000000000000e+00
6.280000000000000000e+02,-2.336882404612310449e-01,0.000000000000000000e+00
6.290000000000000000e+02,-8.468873531971406188e-02,0.000000000000000000e+00
6.300000000000000000e+02,5.017718634019649286e-03,0.000000000000000000e+00
6.310000000000000000e+02,-5.075920375586318728e-02,0.000000000000000000e+00
6.320000000000000000e+02,3.050415811051322978e-01,0.000000000000000000e+00
6.330000000000000000e+02,3.820548423570301333e-01,0.000000000000000000e+00
6.340000000000000000e+02,8.047730940619064743e-02,0.000000000000000000e+00
6.350000000000000000e+02,-2.918942593614053116e-02,0.000000000000000000e+00
6.360000000000000000e+02,1.762189364586120022e-01,0.000000000000000000e+00
6.370000000000000000e+02,-4.269212378236745403e-02,0.000000000000000000e+00
6.380000000000000000e+02,-1.436389616741545472e-01,0.000000000000000000e+00
6.390000000000000000e+02,6.815375191393470422e-02,0.000000000000000000e+00
6.400000000000000000e+02,1.596232861469107644e-01,0.000000000000000000e+00
6.410000000000000000e+02,4.550977435569329543e+00,0.000000000000000000e+00
6.420000000000000000e+02,2.730818599270450342e+00,1.000000000000000000e+00
6.430000000000000000e+02,-6.134268031492031703e-01,0.000000000000000000e+00
6.440000000000000000e+02,-1.650618740724688061e-01,0.000000000000000000e+00
6.450000000000000000e+02,-9.008279791619163701e-01,0.000000000000000000e+00
6.460000000000000000e+02,-6.786932948973020130e-01,0.000000000000000000e+00
6.470000000000000000e+02,-3.168136167213395082e-01,0.000000000000000000e+00
6.480000000000000000e+02,-2.388614988108396509e-01,0.000000000000000000e+00
6.490000000000000000e+02,-2.114958118465947445e-01,0.000000000000000000e+00
6.500000000000000000e+02,2.014089245622647795e-01,0.000000000000000000e+00
6.510000000000000000e+02,2.941540768068934830e-01,0.000000000000000000e+00
6.520000000000000000e+02,6.912975560467319314e-01,0.000000000000000000e+00
6.530000000000000000e+02,1.147850338919309765e+00,0.000000000000000000e+00
6.540000000000000000e+02,1.242793048227761599e+00,0.000000000000000000e+00
6.550000000000000000e+02,1.239088696034035042e+00,0.000000000000000000e+00
6.560000000000000000e+02,4.433576633329590622e-01,0.000000000000000000e+00
6.570000000000000000e+02,-7.990812061391847632e-01,0.000000000000000000e+00
6.580000000000000000e+02,-1.141665503368952006e+00,0.000000000000000000e+00
6.590000000000000000e+02,-1.387681060220314899e+00,0.000000000000000000e+00
6.600000000000000000e+02,-9.538119282089133621e-01,0.000000000000000000e+00
6.610000000000000000e+02,-1.118653966107232334e+00,0.000000000000000000e+00
6.620000000000000000e+02,-8.508537140150729261e-01,0.000000000000000000e+00
6.630000000000000000e+02,-7.578620064790505539e-01,0.000000000000000000e+00
6.640000000000000000e+02,-8.054741484381114924e-01,0.000000000000000000e+00
6.650000000000000000e+02,-5.455328355930264550e-01,0.000000000000000000e+00
6.660000000000000000e+02,-5.017371106733882202e-01,0.000000000000000000e+00
6.670000000000000000e+02,-3.085477384766143749e-01,0.000000000000000000e+00
6.680000000000000000e+02,-2.106012727822221542e-01,0.000000000000000000e+00
6.690000000000000000e+02,-4.153825179712590243e-01,0.000000000000000000e+00
6.700000000000000000e+02,-6.512622249819621789e-02,0.000000000000000000e+00
6.710000000000000000e+02,-2.256604546804846234e-01,0.000000000000000000e+00
6.720000000000000000e+02,-1.719295095158942382e-02,0.000000000000000000e+00
6.730000000000000000e+02,1.213869779854803710e-01,0.000000000000000000e+00
6.740000000000000000e+02,3.211694708411664267e-01,0.000000000000000000e+00
6.750000000000000000e+02,3.308886642070413830e-01,0.000000000000000000e+00
6.760000000000000000e+02,2.379944034386943796e-01,0.000000000000000000e+00
6.770000000000000000e+02,-6.187639399789799516e-02,0.000000000000000000e+00
6.780000000000000000e+02,-6.007860439654294504e-02,0.000000000000000000e+00
6.790000000000000000e+02,-1.881306174148822397e-02,0.000000000000000000e+00
6.800000000000000000e+02,3.967509994245035725e-04,0.000000000000000000e+00
6.810000000000000000e+02,1.315391380269567700e-01,0.000000000000000000e+00
6.820000000000000000e+02,5.832167386478095406e-01,0.000000000000000000e+00
6.830000000000000000e+02,4.553549902296182061e+00,0.000000000000000000e+00
6.840000000000000000e+02,2.026376005884838349e+00,1.000000000000000000e+00
6.850000000000000000e+02,-1.886476412891858745e-01,0.000000000000000000e+00
6.860000000000000000e+02,-4.867246522075440174e-01,0.000000000000000000e+00
6.870000000000000000e+02,-7.540911905804362769e-01,0.000000000000000000e+00
6.880000000000000000e+02,-5.445692361316267771e-01,0.000000000000000000e+00
6.890000000000000000e+02,-3.870414855664067733e-01,0.000000000000000000e+00
6.900000000000000000e+02,-2.153739100896284175e-01,0.000000000000000000e+00
6.910000000000000000e+02,-2.086796743329364934e-01,0.000000000000000000e+00
6.920000000000000000e+02,1.903657370677301897e-01,0.000000000000000000e+00
6.930000000000000000e+02,2.168790223675167717e-01,0.000000000000000000e+00
6.940000000000000000e+02,6.302957608671000411e-01,0.000000000000000000e+00
6.950000000000000000e+02,9.978466299771662218e-01,0.000000000000000000e+00
6.960000000000000000e+02,1.377166562669751348e+00,0.000000000000000000e+00
6.970000000000000000e+02,1.032308445256654883e+00,0.000000000000000000e+00
6.980000000000000000e+02,6.252635123414150564e-02,0.000000000000000000e+00
6.990000000000000000e+02,-1.078438284771532585e+00,0.000000000000000000e+00
7.000000000000000000e+02,-1.328991727128798317e+00,0.000000000000000000e+00
7.010000000000000000e+02,-1.417567457528468911e+00,0.000000000000000000e+00
7.020000000000000000e+02,-1.176191628549423385e+00,0.000000000000000000e+00
7.030000000000000000e+02,-1.332234190404432139e+00,0.000000000000000000e+00
7.040000000000000000e+02,-8.502921267450471721e-01,0.000000000000000000e+00
7.050000000000000000e+02,-8.580614426163301056e-01,0.000000000000000000e+00
7.060000000000000000e+02,-8.212085495767806886e-01,0.000000000000000000e+00
7.070000000000000000e+02,-6.486498037772007175e-01,0.000000000000000000e+00
7.080000000000000000e+02,-6.977515778215597209e-01,0.000000000000000000e+00
7.090000000000000000e+02,-2.562190853800861978e-01,0.000000000000000000e+00
7.100000000000000000e+02,-3.502934230855366815e-01,0.000000000000000000e+00
7.110000000000000000e+02,-3.732355521813814359e-01,0.000000000000000000e+00
7.120000000000000000e+02,1.283775157929839712e-02,0.000000000000000000e+00
7.130000000000000000e+02,-3.254645393825475463e-01,0.000000000000000000e+00
7.140000000000000000e+02,1.300874967796888659e-01,0.000000000000000000e+00
7.150000000000000000e+02,3.211539690284993531e-01,0.000000000000000000e+00
7.160000000000000000e+02,2.793552207998802883e-01,0.000000000000000000e+00
7.170000000000000000e+02,7.906563972306689114e-02,0.000000000000000000e+00
7.180000000000000000e+02,8.219998976034190163e-04,0.000000000000000000e+00
7.190000000000000000e+02,5.121608438478587183e-02,0.000000000000000000e+00
7.200000000000000000e+02,9.607578877433978204e-02,0.000000000000000000e+00
7.210000000000000000e+02,2.705092942351168886e-02,0.000000000000000000e+00
7.220000000000000000e+02,2.013988320328070070e-01,0.000000000000000000e+00
7.230000000000000000e+02,3.541248354913956176e-01,0.000000000000000000e+00
7.240000000000000000e+02,3.929743557987692260e+00,0.000000000000000000e+00
7.250000000000000000e+02,2.460357145162271220e+00,1.000000000000000000e+00
7.260000000000000000e+02,-1.104006374966377685e-01,0.000000000000000000e+00
7.270000000000000000e+02,-3.095153837472900404e-01,0.000000000000000000e+00
7.280000000000000000e+02,-6.336799551880681891e-01,0.000000000000000000e+00
7.290000000000000000e+02,-2.930538343983654093e-01,0.000000000000000000e+00
7.300000000000000000e+02,-3.115610807349142308e-01,0.000000000000000000e+00
7.310000000000000000e+02,-1.000445341899088986e-01,0.000000000000000000e+00
7.320000000000000000e+02,5.075587247552684408e-03,0.000000000000000000e+00
7.330000000000000000e+02,1.740498341467568433e-01,0.000000000000000000e+00
7.340000000000000000e+02,3.377827637843304753e-01,0.000000000000000000e+00
7.350000000000000000e+02,9.040389873548075883e-01,0.000000000000000000e+00
7.360000000000000000e+02,1.048997480107743741e+00,0.000000000000000000e+00
7.370000000000000000e+02,1.464350949082473763e+00,0.000000000000000000e+00
7.380000000000000000e+02,1.155539589438415504e+00,0.000000000000000000e+00
7.390000000000000000e+02,2.870454571445203995e-01,0.000000000000000000e+00
7.400000000000000000e+02,-8.211674545868218322e-01,0.000000000000000000e+00
7.410000000000000000e+02,-9.579082291612553979e-01,0.000000000000000000e+00
7.420000000000000000e+02,-1.205023576796260931e+00,0.000000000000000000e+00
7.430000000000000000e+02,-1.109216405728362220e+00,0.000000000000000000e+00
7.440000000000000000e+02,-1.009713572434261408e+00,0.000000000000000000e+00
7.450000000000000000e+02,-8.128284320962465559e-01,0.000000000000000000e+00
7.460000000000000000e+02,-8.368875510271328588e-01,0.000000000000000000e+00
7.470000000000000000e+02,-4.639904535174981248e-01,0.000000000000000000e+00
7.480000000000000000e+02,-6.044672653239512305e-01,0.000000000000000000e+00
7.490000000000000000e+02,-4.090529438331337309e-01,0.000000000000000000e+00
7.500000000000000000e+02,-2.525702773136863089e-01,0.000000000000000000e+00
7.510000000000000000e+02,-4.061671784186455247e-01,0.000000000000000000e+00
7.520000000000000000e+02,-1.549661389415406543e-01,0.000000000000000000e+00
7.530000000000000000e+02,-2.238748889399383990e-01,0.000000000000000000e+00
7.540000000000000000e+02,-2.849068671295311161e-01,0.000000000000000000e+00
7.550000000000000000e+02,2.657050564787893920e-01,0.000000000000000000e+00
7.560000000000000000e+02,7.036226999758084244e-02,0.000000000000000000e+00
7.570000000000000000e+02,3.642803276146444613e-01,0.000000000000000000e+00
7.580000000000000000e+02,-6.853664639504110367e-02,0.000000000000000000e+00
7.590000000000000000e+02,1.459532763904711032e-02,0.000000000000000000e+00
7.600000000000000000e+02,5.282997463268584298e-02,0.000000000000000000e+00
7.610000000000000000e+02,-1.562963755074358030e-01,0.000000000000000000e+00
7.620000000000000000e+02,-6.901443579661623029e-02,0.000000000000000000e+00
7.630000000000000000e+02,1.902128827360309027e-01,0.000000000000000000e+00
7.640000000000000000e+02,1.412665179665659188e-01,0.000000000000000000e+00
7.650000000000000000e+02,3.635765096634878457e+00,0.000000000000000000e+00
7.660000000000000000e+02,3.104496149799767846e+00,1.000000000000000000e+00
7.670000000000000000e+02,-1.863744448031261769e-01,0.000000000000000000e+00
7.680000000000000000e+02,-2.804473940356334571e-01,0.000000000000000000e+00
7.690000000000000000e+02,-5.029790419928380496e-01,0.000000000000000000e+00
7.700000000000000000e+02,-5.514373101610579031e-01,0.000000000000000000e+00
7.710000000000000000e+02,-4.439665837194047837e-01,0.000000000000000000e+00
7.720000000000000000e+02,-2.574116968712612287e-03,0.000000000000000000e+00
7.730000000000000000e+02,-4.012813866592137568e-01,0.000000000000000000e+00
7.740000000000000000e+02,2.163867714542389853e-01,0.000000000000000000e+00
7.750000000000000000e+02,2.735461019835327967e-01,0.000000000000000000e+00
7.760000000000000000e+02,3.691987994996243083e-01,0.000000000000000000e+00
7.770000000000000000e+02,1.031264087030001386e+00,0.000000000000000000e+00
7.780000000000000000e+02,1.211497448412328870e+00,0.000000000000000000e+00
7.790000000000000000e+02,1.080101073210989027e+00,0.000000000000000000e+00
7.800000000000000000e+02,4.424403594391493333e-01,0.000000000000000000e+00
7.810000000000000000e+02,-8.400800837038930879e-01,0.000000000000000000e+00
7.820000000000000000e+02,-1.110108120409551091e+00,0.000000000000000000e+00
7.830000000000000000e+02,-1.289780817220609554e+00,0.000000000000000000e+00
7.840000000000000000e+02,-1.207037269815148361e+00,0.000000000000000000e+00
7.850000000000000000e+02,-1.053409721152235745e+00,0.000000000000000000e+00
7.860000000000000000e+02,-1.002241448964736437e+00,0.000000000000000000e+00
7.870000000000000000e+02,-8.839365787778680206e-01,0.000000000000000000e+00
7.880000000000000000e+02,-6.697927839051032173e-01,0.000000000000000000e+00
7.890000000000000000e+02,-7.749242794643692589e-01,0.000000000000000000e+00
7.900000000000000000e+02,-3.040292319833629575e-01,0.000000000000000000e+00
7.910000000000000000e+02,-5.289999957196173108e-01,0.000000000000000000e+00
7.920000000000000000e+02,-2.828907837704959238e-01,0.000000000000000000e+00
7.930000000000000000e+02,-3.463595616767323193e-01,0.000000000000000000e+00
7.940000000000000000e+02,-2.808480020202572258e-01,0.000000000000000000e+00
7.950000000000000000e+02,2.715195197526311388e-02,0.000000000000000000e+00
7.960000000000000000e+02,-2.553571743542046857e-01,0.000000000000000000e+00
7.970000000000000000e+02,-3.915491560769310264e-02,0.000000000000000000e+00
7.980000000000000000e+02,5.603907385218086512e-01,0.000000000000000000e+00
7.990000000000000000e+02,1.359378281839956036e-02,0.000000000000000000e+00
8.000000000000000000e+02,-4.806385100605482102e-02,0.000000000000000000e+00
8.010000000000000000e+02,2.306993361872110015e-01,0.000000000000000000e+00
8.020000000000000000e+02,3.307978871931934600e-02,0.000000000000000000e+00
8.030000000000000000e+02,-3.262464388934049886e-01,0.000000000000000000e+00
8.040000000000000000e+02,1.576615258928721897e-01,0.000000000000000000e+00
8.050000000000000000e+02,1.728322200557399213e-01,0.000000000000000000e+00
8.060000000000000000e+02,7.990605224671067930e-01,0.000000000000000000e+00
8.070000000000000000e+02,4.857365224473832122e+00,0.000000000000000000e+00
8.080000000000000000e+02,1.481926829321059902e+00,1.000000000000000000e+00
8.090000000000000000e+02,-1.971780903633379434e-01,0.000000000000000000e+00
8.100000000000000000e+02,-5.825886011995147218e-01,0.000000000000000000e+00
8.110000000000000000e+02,-6.883249526095405191e-01,0.000000000000000000e+00
8.120000000000000000e+02,-2.588020493064079885e-01,0.000000000000000000e+00
8.130000000000000000e+02,-7.907340307623990094e-01,0.000000000000000000e+00
8.140000000000000000e+02,-1.213207085770404321e-02,0.000000000000000000e+00
8.150000000000000000e+02,5.312999495947972467e-02,0.000000000000000000e+00
8.160000000000000000e+02,-4.854300856033012812e-02,0.000000000000000000e+00
8.170000000000000000e+02,4.787332904272150191e-01,0.000000000000000000e+00
8.180000000000000000e+02,8.760716942892905479e-01,0.000000000000000000e+00
8.190000000000000000e+02,8.526984245165587506e-01,0.000000000000000000e+00
8.200000000000000000e+02,1.602410514288201027e+00,0.000000000000000000e+00
8.210000000000000000e+02,1.145750814067357570e+00,0.000000000000000000e+00
8.220000000000000000e+02,-1.204934856115914693e-01,0.000000000000000000e+00
8.230000000000000000e+02,-8.263821916694200631e-01,0.000000000000000000e+00
8.240000000000000000e+02,-1.367000334208797740e+00,0.000000000000000000e+00
8.250000000000000000e+02,-1.150717590994298156e+00,0.000000000000000000e+00
8.260000000000000000e+02,-1.202823452723811304e+00,0.000000000000000000e+00
8.270000000000000000e+02,-9.657216096843511677e-01,0.000000000000000000e+00
8.280000000000000000e+02,-8.137182114557448553e-01,0.000000000000000000e+00
8.290000000000000000e+02,-8.075658018513062197e-01,0.000000000000000000e+00
8.300000000000000000e+02,-6.757355815224129758e-01,0.000000000000000000e+00
8.310000000000000000e+02,-4.553093947337040759e-01,0.000000000000000000e+00
8.320000000000000000e+02,-2.532014540451005824e-01,0.000000000000000000e+00
8.330000000000000000e+02,-4.124088972157204935e-01,0.000000000000000000e+00
8.340000000000000000e+02,-1.667932854161893741e-01,0.000000000000000000e+00
8.350000000000000000e+02,-2.804966823256735964e-01,0.000000000000000000e+00
8.360000000000000000e+02,-1.452551054624205140e-01,0.000000000000000000e+00
8.370000000000000000e+02,-1.429525906720748203e-02,0.000000000000000000e+00
8.380000000000000000e+02,-1.755640462448305184e-01,0.000000000000000000e+00
8.390000000000000000e+02,2.026263107465259006e-01,0.000000000000000000e+00
8.400000000000000000e+02,5.201411323646327745e-01,0.000000000000000000e+00
8.410000000000000000e+02,3.579902284278888014e-01,0.000000000000000000e+00
8.420000000000000000e+02,1.766404147740566893e-02,0.000000000000000000e+00
8.430000000000000000e+02,-7.838108120837751144e-03,0.000000000000000000e+00
8.440000000000000000e+02,1.262362334836809874e-01,0.000000000000000000e+00
8.450000000000000000e+02,9.472295797598898059e-02,0.000000000000000000e+00
8.460000000000000000e+02,1.721156646172936622e-01,0.000000000000000000e+00
8.470000000000000000e+02,-1.052060752782994768e-01,0.000000000000000000e+00
8.480000000000000000e+02,1.288075609227355312e+00,0.000000000000000000e+00
8.490000000000000000e+02,4.729471885101637518e+00,0.000000000000000000e+00
8.500000000000000000e+02,1.269903657618644210e+00,1.000000000000000000e+00
8.510000000000000000e+02,-1.893765295663211168e-01,0.000000000000000000e+00
8.520000000000000000e+02,-5.804133256160306509e-01,0.000000000000000000e+00
8.530000000000000000e+02,-6.330632959907491752e-01,0.000000000000000000e+00
8.540000000000000000e+02,-4.903390190603135745e-01,0.000000000000000000e+00
8.550000000000000000e+02,-2.971880080498848775e-01,0.000000000000000000e+00
8.560000000000000000e+02,-1.364663890965627790e-01,0.000000000000000000e+00
8.570000000000000000e+02,7.828457216224271598e-02,0.000000000000000000e+00
8.580000000000000000e+02,2.034440064486905675e-01,0.000000000000000000e+00
8.590000000000000000e+02,3.745265817656444618e-01,0.000000000000000000e+00
8.600000000000000000e+02,8.156955612650128584e-01,0.000000000000000000e+00
8.610000000000000000e+02,1.259544464201158176e+00,0.000000000000000000e+00
8.620000000000000000e+02,1.351073499034556757e+00,0.000000000000000000e+00
8.630000000000000000e+02,9.162908472860197273e-01,0.000000000000000000e+00
8.640000000000000000e+02,-3.129317035996562885e-02,0.000000000000000000e+00
8.650000000000000000e+02,-1.111935826630670698e+00,0.000000000000000000e+00
8.660000000000000000e+02,-1.162542137676568332e+00,0.000000000000000000e+00
8.670000000000000000e+02,-1.175362711015854433e+00,0.000000000000000000e+00
8.680000000000000000e+02,-1.371503635665384024e+00,0.000000000000000000e+00
8.690000000000000000e+02,-1.051811606635187468e+00,0.000000000000000000e+00
8.700000000000000000e+02,-9.127424495488748457e-01,0.000000000000000000e+00
8.710000000000000000e+02,-6.587565043273971854e-01,0.000000000000000000e+00
8.720000000000000000e+02,-8.805891788919891772e-01,0.000000000000000000e+00
8.730000000000000000e+02,-4.330619113205977921e-01,0.000000000000000000e+00
8.740000000000000000e+02,-5.206924204156987424e-01,0.000000000000000000e+00
8.750000000000000000e+02,-5.150873530464216143e-01,0.000000000000000000e+00
8.760000000000000000e+02,-2.222434408879860601e-01,0.000000000000000000e+00
8.770000000000000000e+02,-2.765167012355951304e-01,0.000000000000000000e+00
8.780000000000000000e+02,-1.999474784522978221e-01,0.000000000000000000e+00
8.790000000000000000e+02,-1.357030799913606645e-01,0.000000000000000000e+00
8.800000000000000000e+02,-2.337003813211209202e-01,0.000000000000000000e+00
8.810000000000000000e+02,1.550647839035015352e-01,0.000000000000000000e+00
8.820000000000000000e+02,2.787187524295384744e-01,0.000000000000000000e+00
8.830000000000000000e+02,1.891150254044569878e-01,0.000000000000000000e+00
8.840000000000000000e+02,3.300285279193179017e-02,0.000000000000000000e+00
8.850000000000000000e+02,-1.785498661177530866e-01,0.000000000000000000e+00
8.860000000000000000e+02,8.751377184286344285e-03,0.000000000000000000e+00
8.870000000000000000e+02,4.022867939203830789e-02,0.000000000000000000e+00
8.880000000000000000e+02,-9.988462773743989054e-02,0.000000000000000000e+00
8.890000000000000000e+02,1.251582578567027038e-01,0.000000000000000000e+00
8.900000000000000000e+02,7.571511561636070642e-01,0.000000000000000000e+00
8.910000000000000000e+02,4.149090288894715428e+00,0.000000000000000000e+00
8.920000000000000000e+02,1.575846074691091392e+00,1.000000000000000000e+00
8.930000000000000000e+02,-3.816997308371880560e-01,0.000000000000000000e+00
8.940000000000000000e+02,-3.765844948939923720e-01,0.000000000000000000e+00
8.950000000000000000e+02,-6.881017616989321128e-01,0.000000000000000000e+00
8.960000000000000000e+02,-6.321795795001626805e-01,0.000000000000000000e+00
8.970000000000000000e+02,-2.634612174142073604e-01,0.000000000000000000e+00
8.980000000000000000e+02,-2.144524480799854249e-01,0.000000000000000000e+00
8.990000000000000000e+02,-1.675128946055597368e-01,0.000000000000000000e+00
9.000000000000000000e+02,1.404765082234437357e-01,0.000000000000000000e+00
9.010000000000000000e+02,1.415923518788229085e-01,0.000000000000000000e+00
9.020000000000000000e+02,6.627642664118325033e-01,0.000000000000000000e+00
9.030000000000000000e+02,1.213760781740633732e+00,0.000000000000000000e+00
9.040000000000000000e+02,1.032728425045453813e+00,0.000000000000000000e+00
9.050000000000000000e+02,1.247885058090295596e+00,0.000000000000000000e+00
9.060000000000000000e+02,-1.368781495425867578e-01,0.000000000000000000e+00
9.070000000000000000e+02,-1.082715955760444215e+00,0.000000000000000000e+00
9.080000000000000000e+02,-1.119124284648769452e+00,0.000000000000000000e+00
9.090000000000000000e+02,-1.231924343506482611e+00,0.000000000000000000e+00
9.100000000000000000e+02,-1.108599069920948699e+00,0.000000000000000000e+00
9.110000000000000000e+02,-1.106068238039116469e+00,0.000000000000000000e+00
9.120000000000000000e+02,-9.467347464121019796e-01,0.000000000000000000e+00
9.130000000000000000e+02,-8.624305581845823632e-01,0.000000000000000000e+00
9.140000000000000000e+02,-6.587759422402932330e-01,0.000000000000000000e+00
9.150000000000000000e+02,-6.357223528572168991e-01,0.000000000000000000e+00
9.160000000000000000e+02,-4.291293422658422618e-01,0.000000000000000000e+00
9.170000000000000000e+02,-3.583300699463109473e-01,0.000000000000000000e+00
9.180000000000000000e+02,-2.615026558177066529e-01,0.000000000000000000e+00
9.190000000000000000e+02,-2.793958829890003104e-01,0.000000000000000000e+00
9.200000000000000000e+02,-4.090963663280642870e-01,0.000000000000000000e+00
9.210000000000000000e+02,-3.889085080559748914e-02,0.000000000000000000e+00
9.220000000000000000e+02,-2.942227418851064979e-01,0.000000000000000000e+00
9.230000000000000000e+02,-1.241958067282127216e-02,0.000000000000000000e+00
9.240000000000000000e+02,4.182870365158823933e-01,0.000000000000000000e+00
9.250000000000000000e+02,2.929091442862261085e-01,0.000000000000000000e+00
9.260000000000000000e+02,1.051210921730841297e-01,0.000000000000000000e+00
9.270000000000000000e+02,7.755184620949892235e-03,0.000000000000000000e+00
9.280000000000000000e+02,-1.827747399549873031e-01,0.000000000000000000e+00
9.290000000000000000e+02,1.179066583923922412e-01,0.000000000000000000e+00
9.300000000000000000e+02,2.209366327842769359e-02,0.000000000000000000e+00
9.310000000000000000e+02,1.263048677591857849e-01,0.000000000000000000e+00
9.320000000000000000e+02,6.578876594113056697e-01,0.000000000000000000e+00
9.330000000000000000e+02,4.603645869718210548e+00,0.000000000000000000e+00
9.340000000000000000e+02,1.942340885605751133e+00,1.000000000000000000e+00
9.350000000000000000e+02,-2.352727736725289676e-01,0.000000000000000000e+00
9.360000000000000000e+02,-4.971602827320119600e-01,0.000000000000000000e+00
9.370000000000000000e+02,-5.878872734274815937e-01,0.000000000000000000e+00
9.380000000000000000e+02,-4.191742371040531046e-01,0.000000000000000000e+00
9.390000000000000000e+02,-4.417595401480196582e-01,0.000000000000000000e+00
9.400000000000000000e+02,6.987327091694461867e-02,0.000000000000000000e+00
9.410000000000000000e+02,-1.086345214097749340e-01,0.000000000000000000e+00
9.420000000000000000e+02,2.145142529061626890e-01,0.000000000000000000e+00
9.430000000000000000e+02,4.816908852233559024e-01,0.000000000000000000e+00
9.440000000000000000e+02,5.075781533320359307e-01,0.000000000000000000e+00
9.450000000000000000e+02,1.473299958369800100e+00,0.000000000000000000e+00
9.460000000000000000e+02,1.249690743717676522e+00,0.000000000000000000e+00
9.470000000000000000e+02,1.204519831906654348e+00,0.000000000000000000e+00
9.480000000000000000e+02,4.496399139664112310e-01,0.000000000000000000e+00
9.490000000000000000e+02,-1.192303928511134981e+00,0.000000000000000000e+00
9.500000000000000000e+02,-1.093027420874506328e+00,0.000000000000000000e+00
9.510000000000000000e+02,-8.989912518984539691e-01,0.000000000000000000e+00
9.520000000000000000e+02,-1.434647337803288902e+00,0.000000000000000000e+00
9.530000000000000000e+02,-9.209731532627248862e-01,0.000000000000000000e+00
9.540000000000000000e+02,-5.937771644744024302e-01,0.000000000000000000e+00
9.550000000000000000e+02,-8.992554369844351081e-01,0.000000000000000000e+00
9.560000000000000000e+02,-7.062267067223534367e-01,0.000000000000000000e+00
9.570000000000000000e+02,-3.443088444684454519e-01,0.000000000000000000e+00
9.580000000000000000e+02,-6.071330459265040780e-01,0.000000000000000000e+00
9.590000000000000000e+02,-2.397692244762675839e-01,0.000000000000000000e+00
9.600000000000000000e+02,-2.714230408226230296e-01,0.000000000000000000e+00
9.610000000000000000e+02,-1.171201062332247050e-01,0.000000000000000000e+00
9.620000000000000000e+02,-3.752881170315973680e-01,0.000000000000000000e+00
9.630000000000000000e+02,9.182981508369032417e-03,0.000000000000000000e+00
9.640000000000000000e+02,-1.892613944815435267e-01,0.000000000000000000e+00
9.650000000000000000e+02,8.887099661479792856e-02,0.000000000000000000e+00
9.660000000000000000e+02,4.350046098757927027e-01,0.000000000000000000e+00
9.670000000000000000e+02,3.714929214501684340e-01,0.000000000000000000e+00
9.680000000000000000e+02,1.542239384803421876e-01,0.000000000000000000e+00
9.690000000000000000e+02,1.033702353932801216e-01,0.000000000000000000e+00
9.700000000000000000e+02,-2.804275202082234242e-01,0.000000000000000000e+00
9.710000000000000000e+02,4.692794761226720124e-01,0.000000000000000000e+00
9.720000000000000000e+02,-1.862031943776604193e-01,0.000000000000000000e+00
9.730000000000000000e+02,1.711766420758015217e-01,0.000000000000000000e+00
9.740000000000000000e+02,-8.582883086642349724e-02,0.000000000000000000e+00
9.750000000000000000e+02,3.785897348339296808e+00,0.000000000000000000e+00
9.760000000000000000e+02,3.652592734914529071e+00,0.000000000000000000e+00
9.770000000000000000e+02,8.979497674598561907e-02,1.000000000000000000e+00
9.780000000000000000e+02,-8.254344614476551989e-01,0.000000000000000000e+00
9.790000000000000000e+02,-5.656474476862528578e-01,0.000000000000000000e+00
9.800000000000000000e+02,-5.552167344777002578e-01,0.000000000000000000e+00
9.810000000000000000e+02,-7.434022557283368471e-01,0.000000000000000000e+00
9.820000000000000000e+02,1.637587988831615826e-01,0.000000000000000000e+00
9.830000000000000000e+02,-2.817319249166265749e-01,0.000000000000000000e+00
9.840000000000000000e+02,-2.123555852282983658e-01,0.000000000000000000e+00
9.850000000000000000e+02,4.110870813259314138e-01,0.000000000000000000e+00
9.860000000000000000e+02,7.169397936254126025e-01,0.000000000000000000e+00
9.870000000000000000e+02,9.471385507360881029e-01,0.000000000000000000e+00
9.880000000000000000e+02,1.333303274634327629e+00,0.000000000000000000e+00
9.890000000000000000e+02,1.414181147393695159e+00,0.000000000000000000e+00
9.900000000000000000e+02,4.976099714280621811e-01,0.000000000000000000e+00
9.910000000000000000e+02,-7.289591383115899825e-01,0.000000000000000000e+00
9.920000000000000000e+02,-1.173910241720240721e+00,0.000000000000000000e+00
9.930000000000000000e+02,-1.490834214381020484e+00,0.000000000000000000e+00
9.940000000000000000e+02,-1.103002024425599137e+00,0.000000000000000000e+00
9.950000000000000000e+02,-1.174859817873690648e+00,0.000000000000000000e+00
9.960000000000000000e+02,-1.184870073450834393e+00,0.000000000000000000e+00
9.970000000000000000e+02,-8.018998147538174415e-01,0.000000000000000000e+00
9.980000000000000000e+02,-9.724956147837768849e-01,0.000000000000000000e+00
9.990000000000000000e+02,-4.723983701488022047e-01,0.000000000000000000e+00
1.000000000000000000e+03,-5.967804729147857534e-01,0.000000000000000000e+00
1.001000000000000000e+03,-5.817852464584901684e-01,0.000000000000000000e+00
1.002000000000000000e+03,-3.530574980016285558e-01,0.000000000000000000e+00
1.003000000000000000e+03,-3.217610341236241123e-01,0.000000000000000000e+00
1.004000000000000000e+03,-3.920162432797604790e-01,0.000000000000000000e+00
1.005000000000000000e+03,3.811723024709581104e-02,0.000000000000000000e+00
1.006000000000000000e+03,-2.913919410504658969e-01,0.000000000000000000e+00
1.007000000000000000e+03,-2.555947814963242457e-02,0.000000000000000000e+00
1.008000000000000000e+03,1.483327540748272944e-01,0.000000000000000000e+00
1.009000000000000000e+03,4.754480788664690594e-01,0.000000000000000000e+00
1.010000000000000000e+03,2.238467806000796478e-01,0.000000000000000000e+00
1.011000000000000000e+03,-5.330047972391380173e-02,0.000000000000000000e+00
1.012000000000000000e+03,1.866269248715270515e-02,0.000000000000000000e+00
1.013000000000000000e+03,1.839955388787496704e-02,0.000000000000000000e+00
1.014000000000000000e+03,-5.777514415149059834e-02,0.000000000000000000e+00
1.015000000000000000e+03,4.039213765375216925e-01,0.000000000000000000e+00
1.016000000000000000e+03,-1.447339549070617015e-01,0.000000000000000000e+00
1.017000000000000000e+03,2.815242727548700419e+00,0.000000000000000000e+00
1.018000000000000000e+03,4.211897842820446769e+00,0.000000000000000000e+00
1.019000000000000000e+03,3.173824966713504336e-01,1.000000000000000000e+00
1.020000000000000000e+03,-3.980739521722025942e-01,0.000000000000000000e+00
1.021000000000000000e+03,-5.724538325049139953e-01,0.000000000000000000e+00
1.022000000000000000e+03,-4.499486821718637342e-01,0.000000000000000000e+00
1.023000000000000000e+03,-4.055790037355047617e-01,0.000000000000000000e+00
1.024000000000000000e+03,-1.501852463029899887e-01,0.000000000000000000e+00
1.025000000000000000e+03,-1.724328559612094969e-01,0.000000000000000000e+00
1.026000000000000000e+03,-3.198422861431637204e-02,0.000000000000000000e+00
1.027000000000000000e+03,1.210934413476402738e-01,0.000000000000000000e+00
1.028000000000000000e+03,6.554873359790390763e-01,0.000000000000000000e+00
1.029000000000000000e+03,9.291122287623115872e-01,0.000000000000000000e+00
1.030000000000000000e+03,1.304121334496527895e+00,0.000000000000000000e+00
1.031000000000000000e+03,1.257389261971197714e+00,0.000000000000000000e+00
1.032000000000000000e+03,8.417490425325983017e-01,0.000000000000000000e+00
1.033000000000000000e+03,-3.054203899370443454e-01,0.000000000000000000e+00
1.034000000000000000e+03,-9.964350887501595144e-01,0.000000000000000000e+00
1.035000000000000000e+03,-1.261288675966813821e+00,0.000000000000000000e+00
1.036000000000000000e+03,-1.227934343783282145e+00,0.000000000000000000e+00
1.037000000000000000e+03,-1.075266278942234255e+00,0.000000000000000000e+00
1.038000000000000000e+03,-8.486475860242231883e-01,0.000000000000000000e+00
1.039000000000000000e+03,-8.429926612595414204e-01,0.000000000000000000e+00
1.040000000000000000e+03,-7.377883847840084330e-01,0.000000000000000000e+00
1.041000000000000000e+03,-6.811683528395695575e-01,0.000000000000000000e+00
1.042000000000000000e+03,-5.162690695252694084e-01,0.000000000000000000e+00
1.043000000000000000e+03,-3.020693125766574783e-01,0.000000000000000000e+00
1.044000000000000000e+03,-3.229111207405014894e-01,0.000000000000000000e+00
1.045000000000000000e+03,-3.394186492589934545e-01,0.000000000000000000e+00
1.046000000000000000e+03,-3.188027087101331092e-01,0.000000000000000000e+00
1.047000000000000000e+03,8.453058142182746926e-02,0.000000000000000000e+00
1.048000000000000000e+03,-3.446987402627106900e-01,0.000000000000000000e+00
1.049000000000000000e+03,9.037050628373739791e-02,0.000000000000000000e+00
1.050000000000000000e+03,2.735264496877334861e-01,0.000000000000000000e+00
1.051000000000000000e+03,1.355022276971328543e-01,0.000000000000000000e+00
1.052000000000000000e+03,3.266861185286408786e-01,0.000000000000000000e+00
1.053000000000000000e+03,-8.508864991741553474e-02,0.000000000000000000e+00
1.054000000000000000e+03,9.398993200593014352e-02,0.000000000000000000e+00
1.055000000000000000e+03,-7.439994884154958743e-02,0.000000000000000000e+00
1.056000000000000000e+03,-2.398569554157501116e-01,0.000000000000000000e+00
1.057000000000000000e+03,2.284600325528032827e-01,0.000000000000000000e+00
1.058000000000000000e+03,1.913434559103455723e-01,0.000000000000000000e+00
1.059000000000000000e+03,3.932696461007410882e+00,0.000000000000000000e+00
1.060000000000000000e+03,2.374677311172172622e+00,1.000000000000000000e+00
1.061000000000000000e+03,-4.003651616103497818e-02,0.000000000000000000e+00
1.062000000000000000e+03,-4.917075104181870548e-01,0.000000000000000000e+00
1.063000000000000000e+03,-7.156790867727682581e-01,0.000000000000000000e+00
1.064000000000000000e+03,-4.131380709066685419e-01,0.000000000000000000e+00
1.065000000000000000e+03,-5.151754609350533975e-01,0.000000000000000000e+00
1.066000000000000000e+03,-1.620016481151570209e-01,0.000000000000000000e+00
1.067000000000000000e+03,-3.102977321818925494e-01,0.000000000000000000e+00
1.068000000000000000e+03,-1.904338445763766388e-02,0.000000000000000000e+00
1.069000000000000000e+03,3.024714827280609586e-01,0.000000000000000000e+00
1.070000000000000000e+03,4.427670433912116454e-01,0.000000000000000000e+00
1.071000000000000000e+03,1.014547274289320455e+00,0.000000000000000000e+00
1.072000000000000000e+03,1.224396139099395597e+00,0.000000000000000000e+00
1.073000000000000000e+03,1.098471109595738682e+00,0.000000000000000000e+00
1.074000000000000000e+03,2.963010464208972738e-01,0.000000000000000000e+00
1.075000000000000000e+03,-8.929475893907987682e-01,0.000000000000000000e+00
1.076000000000000000e+03,-9.562080906023097127e-01,0.000000000000000000e+00
1.077000000000000000e+03,-1.430073632054698285e+00,0.000000000000000000e+00
1.078000000000000000e+03,-8.492676251064307236e-01,0.000000000000000000e+00
1.079000000000000000e+03,-9.573218703953915165e-01,0.000000000000000000e+00
1.080000000000000000e+03,-8.636522761026087514e-01,0.000000000000000000e+00
1.081000000000000000e+03,-7.795164136811787436e-01,0.000000000000000000e+00
1.082000000000000000e+03,-7.232258545280273454e-01,0.000000000000000000e+00
1.083000000000000000e+03,-4.390625490621330451e-01,0.000000000000000000e+00
1.084000000000000000e+03,-4.130524339322928506e-01,0.000000000000000000e+00
1.085000000000000000e+03,-4.745701274787270663e-01,0.000000000000000000e+00
1.086000000000000000e+03,-3.075099564892475046e-01,0.000000000000000000e+00
1.087000000000000000e+03,-2.497994181116481791e-02,0.000000000000000000e+00
1.088000000000000000e+03,-3.201258999565642083e-01,0.000000000000000000e+00
1.089000000000000000e+03,-1.609732414256106747e-01,0.000000000000000000e+00
1.090000000000000000e+03,-2.302170667044193819e-01,0.000000000000000000e+00
1.091000000000000000e+03,-5.503757376842753624e-02,0.000000000000000000e+00
1.092000000000000000e+03,4.915627117437833538e-01,0.000000000000000000e+00
1.093000000000000000e+03,2.930336490695685803e-01,0.000000000000000000e+00
1.094000000000000000e+03,1.370944136320112750e-01,0.000000000000000000e+00
1.095000000000000000e+03,-4.559284005243449678e-02,0.000000000000000000e+00
1.096000000000000000e+03,-1.358475871336566887e-01,0.000000000000000000e+00
1.097000000000000000e+03,-3.796389414538548640e-02,0.000000000000000000e+00
1.098000000000000000e+03,-1.442846255506327058e-01,0.000000000000000000e+00
1.099000000000000000e+03,1.634775437357144090e-01,0.000000000000000000e+00
1.100000000000000000e+03,8.583941728346822231e-02,0.000000000000000000e+00
1.101000000000000000e+03,3.891421161259162709e+00,0.000000000000000000e+00
1.102000000000000000e+03,2.773177376096692903e+00,1.000000000000000000e+00
1.103000000000000000e+03,-1.101472661030836603e-01,0.000000000000000000e+00
1.104000000000000000e+03,-4.262721497274796767e-01,0.000000000000000000e+00
1.105000000000000000e+03,-6.856103764030905268e-01,0.000000000000000000e+00
1.106000000000000000e+03,-3.577827332428847873e-01,0.000000000000000000e+00
1.107000000000000000e+03,-4.223572240177382309e-01,0.000000000000000000e+00
1.108000000000000000e+03,-2.629497835724204924e-01,0.000000000000000000e+00
1.109000000000000000e+03,-5.797042705347829616e-02,0.000000000000000000e+00
1.110000000000000000e+03,1.144071808805161711e-01,0.000000000000000000e+00
1.111000000000000000e+03,3.075103478698043569e-01,0.000000000000000000e+00
1.112000000000000000e+03,5.856849677211389826e-01,0.000000000000000000e+00
1.113000000000000000e+03,9.008714537201821804e-01,0.000000000000000000e+00
1.114000000000000000e+03,1.261335657759058426e+00,0.000000000000000000e+00
1.115000000000000000e+03,1.313938622438782122e+00,0.000000000000000000e+00
1.116000000000000000e+03,4.041469754446217477e-01,0.000000000000000000e+00
1.117000000000000000e+03,-7.882202316996924640e-01,0.000000000000000000e+00
1.118000000000000000e+03,-1.146170730851657993e+00,0.000000000000000000e+00
1.119000000000000000e+03,-1.337038940265806053e+00,0.000000000000000000e+00
1.120000000000000000e+03,-1.180512301300984834e+00,0.000000000000000000e+00
1.121000000000000000e+03,-9.754385010412341961e-01,0.000000000000000000e+00
1.122000000000000000e+03,-9.750595337446539279e-01,0.000000000000000000e+00
1.123000000000000000e+03,-7.955519175847461932e-01,0.000000000000000000e+00
1.124000000000000000e+03,-7.180771098766864924e-01,0.000000000000000000e+00
1.125000000000000000e+03,-3.946101545728810112e-01,0.000000000000000000e+00
1.126000000000000000e+03,-4.491608478215017297e-01,0.000000000000000000e+00
1.127000000000000000e+03,-4.369997581970810341e-01,0.000000000000000000e+00
1.128000000000000000e+03,-9.100028062151727104e-02,0.000000000000000000e+00
1.129000000000000000e+03,-5.585673390779311021e-01,0.000000000000000000e+00
1.130000000000000000e+03,-1.304319966881271609e-01,0.000000000000000000e+00
1.131000000000000000e+03,-1.250967046035109387e-01,0.000000000000000000e+00
1.132000000000000000e+03,-1.792060346818291350e-01,0.000000000000000000e+00
1.133000000000000000e+03,-3.050635709317428557e-02,0.000000000000000000e+00
1.134000000000000000e+03,4.086870678530146184e-01,0.000000000000000000e+00
1.135000000000000000e+03,2.302022205202255700e-01,0.000000000000000000e+00
1.136000000000000000e+03,3.332694619309047868e-01,0.000000000000000000e+00
1.137000000000000000e+03,2.394617911499925811e-02,0.000000000000000000e+00
1.138000000000000000e+03,-1.484080238902510951e-01,0.000000000000000000e+00
1.139000000000000000e+03,1.774677228406503771e-01,0.000000000000000000e+00
1.140000000000000000e+03,-1.045485761740803932e-01,0.000000000000000000e+00
1.141000000000000000e+03,2.734959546164048572e-01,0.000000000000000000e+00
1.142000000000000000e+03,-2.368018746478737502e-01,0.000000000000000000e+00
1.143000000000000000e+03,3.264381081665205464e+00,0.000000000000000000e+00
1.144000000000000000e+03,3.885135053574370723e+00,0.000000000000000000e+00
1.145000000000000000e+03,1.181920033180141744e-01,1.000000000000000000e+00
1.146000000000000000e+03,-4.528597076824980028e-01,0.000000000000000000e+00
1.147000000000000000e+03,-6.655303163502074293e-01,0.000000000000000000e+00
1.148000000000000000e+03,-4.007197066082070491e-01,0.000000000000000000e+00
1.149000000000000000e+03,-6.463540989302241080e-01,0.000000000000000000e+00
1.150000000000000000e+03,-5.875758851397593768e-02,0.000000000000000000e+00
1.151000000000000000e+03,-4.225609873408816552e-01,0.000000000000000000e+00
1.152000000000000000e+03,1.080978763191452335e-01,0.000000000000000000e+00
1.153000000000000000e+03,1.983442638627335164e-01,0.000000000000000000e+00
1.154000000000000000e+03,4.224493836645995537e-01,0.000000000000000000e+00
1.155000000000000000e+03,8.959336603957938072e-01,0.000000000000000000e+00
1.156000000000000000e+03,1.127887849928236541e+00,0.000000000000000000e+00
1.157000000000000000e+03,1.417451101538446778e+00,0.000000000000000000e+00
1.158000000000000000e+03,8.614027320153327949e-01,0.000000000000000000e+00
1.159000000000000000e+03,-8.583378803840042703e-01,0.000000000000000000e+00
1.160000000000000000e+03,-7.606394145388549743e-01,0.000000000000000000e+00
1.161000000000000000e+03,-1.344495471271617060e+00,0.000000000000000000e+00
1.162000000000000000e+03,-1.470834250670604471e+00,0.000000000000000000e+00
1.163000000000000000e+03,-8.376515801045898435e-01,0.000000000000000000e+00
1.164000000000000000e+03,-9.396083231275990100e-01,0.000000000000000000e+00
1.165000000000000000e+03,-9.847192032660511130e-01,0.000000000000000000e+00
1.166000000000000000e+03,-8.529200048463961847e-01,0.000000000000000000e+00
1.167000000000000000e+03,-5.973970735907223606e-01,0.000000000000000000e+00
1.168000000000000000e+03,-4.544437636858307261e-01,0.000000000000000000e+00
1.169000000000000000e+03,-4.663678184663925808e-01,0.000000000000000000e+00
1.170000000000000000e+03,-2.893480736916344553e-01,0.000000000000000000e+00
1.171000000000000000e+03,-3.135366388563267104e-01,0.000000000000000000e+00
1.172000000000000000e+03,-2.137709073446291685e-01,0.000000000000000000e+00
1.173000000000000000e+03,-1.095309805596385161e-01,0.000000000000000000e+00
1.174000000000000000e+03,-1.497467044954554349e-01,0.000000000000000000e+00
1.175000000000000000e+03,-2.527812934690701341e-01,0.000000000000000000e+00
1.176000000000000000e+03,1.080055485663092146e-01,0.000000000000000000e+00
1.177000000000000000e+03,3.269988441429341752e-01,0.000000000000000000e+00
1.178000000000000000e+03,5.306292315588236885e-01,0.000000000000000000e+00
1.179000000000000000e+03,-2.306203205215681326e-02,0.000000000000000000e+00
1.180000000000000000e+03,1.080248548536512365e-01,0.000000000000000000e+00
1.181000000000000000e+03,-8.741809000643571692e-02,0.000000000000000000e+00
1.182000000000000000e+03,1.549548829623315360e-01,0.000000000000000000e+00
1.183000000000000000e+03,-1.244058234034700443e-02,0.000000000000000000e+00
1.184000000000000000e+03,1.137763923722601850e-01,0.000000000000000000e+00
1.185000000000000000e+03,5.023638158845117330e-01,0.000000000000000000e+00
1.186000000000000000e+03,4.183091431449230235e+00,0.000000000000000000e+00
1.187000000000000000e+03,2.352799630932454367e+00,1.000000000000000000e+00
1.188000000000000000e+03,-2.160259342619862133e-01,0.000000000000000000e+00
1.189000000000000000e+03,-3.002967101827243579e-01,0.000000000000000000e+00
1.190000000000000000e+03,-5.276367145660733060e-01,0.000000000000000000e+00
1.191000000000000000e+03,-4.409723207977976345e-01,0.000000000000000000e+00
1.192000000000000000e+03,-3.068976575528416517e-01,0.000000000000000000e+00
1.193000000000000000e+03,-1.846266962909289266e-01,0.000000000000000000e+00
1.194000000000000000e+03,3.767269095247052779e-02,0.000000000000000000e+00
1.195000000000000000e+03,1.320235196617947082e-01,0.000000000000000000e+00
1.196000000000000000e+03,4.496595538452123897e-01,0.000000000000000000e+00
1.197000000000000000e+03,5.555059761438698729e-01,0.000000000000000000e+00
1.198000000000000000e+03,1.132051434634175235e+00,0.000000000000000000e+00
1.199000000000000000e+03,1.108881851029274612e+00,0.000000000000000000e+00
1.200000000000000000e+03,1.488119174585015969e+00,0.000000000000000000e+00
1.201000000000000000e+03,7.244511346359903243e-05,0.000000000000000000e+00
1.202000000000000000e+03,-8.764591424064148706e-01,0.000000000000000000e+00
1.203000000000000000e+03,-9.334417978564377716e-01,0.000000000000000000e+00
1.204000000000000000e+03,-1.414327610679115166e+00,0.000000000000000000e+00
1.205000000000000000e+03,-1.196680747372374398e+00,0.000000000000000000e+00
1.206000000000000000e+03,-8.448046465097150959e-01,0.000000000000000000e+00
1.207000000000000000e+03,-1.136199152807130242e+00,0.000000000000000000e+00
1.208000000000000000e+03,-6.315224705514860259e-01,0.000000000000000000e+00
1.209000000000000000e+03,-5.796984421363304829e-01,0.000000000000000000e+00
1.210000000000000000e+03,-8.137112371001054001e-01,0.000000000000000000e+00
1.211000000000000000e+03,-3.497096456521761598e-01,0.000000000000000000e+00
1.212000000000000000e+03,-4.045972147534128704e-01,0.000000000000000000e+00
1.213000000000000000e+03,-4.399730451860214275e-01,0.000000000000000000e+00
1.214000000000000000e+03,1.056993991406809802e-01,0.000000000000000000e+00
1.215000000000000000e+03,-2.643856601024486275e-01,0.000000000000000000e+00
1.216000000000000000e+03,-2.818088018885617219e-01,0.000000000000000000e+00
1.217000000000000000e+03,-7.530136431895453203e-04,0.000000000000000000e+00
1.218000000000000000e+03,-4.155882516686153910e-02,0.000000000000000000e+00
1.219000000000000000e+03,2.519425911470442592e-01,0.000000000000000000e+00
1.220000000000000000e+03,5.704963422093584091e-01,0.000000000000000000e+00
1.221000000000000000e+03,-1.725263144691580736e-02,0.000000000000000000e+00
1.222000000000000000e+03,1.874781436515071398e-01,0.000000000000000000e+00
1.223000000000000000e+03,-3.786995384050231839e-01,0.000000000000000000e+00
1.224000000000000000e+03,3.057982038984882189e-01,0.000000000000000000e+00
1.225000000000000000e+03,1.652654863097438240e-02,0.000000000000000000e+00
1.226000000000000000e+03,2.261327506592638037e-01,0.000000000000000000e+00
1.227000000000000000e+03,-1.209685426649982631e-01,0.000000000000000000e+00
1.228000000000000000e+03,3.123385353075001092e+00,0.000000000000000000e+00
1.229000000000000000e+03,3.111440522984444623e+00,0.000000000000000000e+00
1.230000000000000000e+03,4.332258157814086741e-01,1.000000000000000000e+00
1.231000000000000000e+03,-2.830208718091170028e-01,0.000000000000000000e+00
1.232000000000000000e+03,-6.526583376012273785e-01,0.000000000000000000e+00
1.233000000000000000e+03,-1.100875815913326117e-01,0.000000000000000000e+00
1.234000000000000000e+03,-3.953957716473456840e-01,0.000000000000000000e+00
1.235000000000000000e+03,-2.060048670072406329e-01,0.000000000000000000e+00
1.236000000000000000e+03,1.800948774087551135e-02,0.000000000000000000e+00
1.237000000000000000e+03,-2.654727215031103538e-01,0.000000000000000000e+00
1.238000000000000000e+03,3.750144345561166603e-01,0.000000000000000000e+00
1.239000000000000000e+03,4.921221908284899027e-01,0.000000000000000000e+00
1.240000000000000000e+03,7.496550176381635566e-01,0.000000000000000000e+00
1.241000000000000000e+03,1.289284911540978573e+00,0.000000000000000000e+00
1.242000000000000000e+03,1.295046394724520544e+00,0.000000000000000000e+00
1.243000000000000000e+03,6.249987373384238154e-01,0.000000000000000000e+00
1.244000000000000000e+03,-7.111050844175185182e-01,0.000000000000000000e+00
1.245000000000000000e+03,-1.077537666480300915e+00,0.000000000000000000e+00
1.246000000000000000e+03,-1.479060137394127672e+00,0.000000000000000000e+00
1.247000000000000000e+03,-1.107570659015025827e+00,0.000000000000000000e+00
1.248000000000000000e+03,-1.171545422680938309e+00,0.000000000000000000e+00
1.249000000000000000e+03,-1.157197940906828704e+00,0.000000000000000000e+00
1.250000000000000000e+03,-7.260567501696006953e-01,0.000000000000000000e+00
1.251000000000000000e+03,-8.330092499080169466e-01,0.000000000000000000e+00
1.252000000000000000e+03,-7.372147944996639835e-01,0.000000000000000000e+00
1.253000000000000000e+03,-5.604164888006980538e-01,0.000000000000000000e+00
1.254000000000000000e+03,-5.903771375140552946e-01,0.000000000000000000e+00
1.255000000000000000e+03,-2.265024855681703753e-01,0.000000000000000000e+00
1.256000000000000000e+03,-2.380400486980024100e-01,0.000000000000000000e+00
1.257000000000000000e+03,-2.523567465206056903e-01,0.000000000000000000e+00
1.258000000000000000e+03,-9.909843853053090790e-02,0.000000000000000000e+00
1.259000000000000000e+03,-3.308595087925915168e-01,0.000000000000000000e+00
1.260000000000000000e+03,-5.727574117766030815e-02,0.000000000000000000e+00
1.261000000000000000e+03,1.450653149207618287e-01,0.000000000000000000e+00
1.262000000000000000e+03,2.295405707721658584e-01,0.000000000000000000e+00
1.263000000000000000e+03,3.432055290839995387e-01,0.000000000000000000e+00
1.264000000000000000e+03,-8.145611565799808218e-02,0.000000000000000000e+00
1.265000000000000000e+03,-1.923327875927366704e-01,0.000000000000000000e+00
1.266000000000000000e+03,-1.617484676310346550e-02,0.000000000000000000e+00
1.267000000000000000e+03,-6.146230353598416962e-02,0.000000000000000000e+00
1.268000000000000000e+03,7.496941387095051867e-02,0.000000000000000000e+00
1.269000000000000000e+03,-1.879276653418836263e-01,0.000000000000000000e+00
1.270000000000000000e+03,1.251604954852870488e+00,0.000000000000000000e+00
1.271000000000000000e+03,4.482639671561678973e+00,0.000000000000000000e+00
1.272000000000000000e+03,1.084149414389015575e+00,1.000000000000000000e+00
1.273000000000000000e+03,-3.111924207129403430e-01,0.000000000000000000e+00
1.274000000000000000e+03,-6.818665246209678621e-01,0.000000000000000000e+00
1.275000000000000000e+03,-5.195814495554128554e-01,0.000000000000000000e+00
1.276000000000000000e+03,-6.276642395898258675e-01,0.000000000000000000e+00
1.277000000000000000e+03,-4.714727663252650802e-01,0.000000000000000000e+00
1.278000000000000000e+03,-1.946293752186547543e-01,0.000000000000000000e+00
1.279000000000000000e+03,-8.146993656606500711e-02,0.000000000000000000e+00
1.280000000000000000e+03,-1.786879843767983853e-02,0.000000000000000000e+00
1.281000000000000000e+03,5.014427872048350388e-01,0.000000000000000000e+00
1.282000000000000000e+03,6.493753758714441160e-01,0.000000000000000000e+00
1.283000000000000000e+03,1.369726384596286817e+00,0.000000000000000000e+00
1.284000000000000000e+03,1.152797561179935926e+00,0.000000000000000000e+00
1.285000000000000000e+03,9.818180908720707256e-01,0.000000000000000000e+00
1.286000000000000000e+03,2.327717469027797692e-01,0.000000000000000000e+00
1.287000000000000000e+03,-9.925838651211200681e-01,0.000000000000000000e+00
1.288000000000000000e+03,-1.349238438765645087e+00,0.000000000000000000e+00
1.289000000000000000e+03,-1.210354076790206568e+00,0.000000000000000000e+00
1.290000000000000000e+03,-8.517411023722196717e-01,0.000000000000000000e+00
1.291000000000000000e+03,-1.166220669802129128e+00,0.000000000000000000e+00
1.292000000000000000e+03,-7.819158172195329604e-01,0.000000000000000000e+00
1.293000000000000000e+03,-1.215995388392462795e+00,0.000000000000000000e+00
1.294000000000000000e+03,-2.581529866507761284e-01,0.000000000000000000e+00
1.295000000000000000e+03,-1.488853155048915633e-01,0.000000000000000000e+00
1.296000000000000000e+03,-4.723378706174560238e-01,0.000000000000000000e+00
1.297000000000000000e+03,-3.376171191837810115e-01,0.000000000000000000e+00
1.298000000000000000e+03,-3.919501763762352486e-01,0.000000000000000000e+00
1.299000000000000000e+03,-1.266117240570736047e-01,0.000000000000000000e+00
1.300000000000000000e+03,-6.627409656950958294e-02,0.000000000000000000e+00
1.301000000000000000e+03,-2.356558170145290065e-01,0.000000000000000000e+00
1.302000000000000000e+03,-1.708993736553272164e-02,0.000000000000000000e+00
1.303000000000000000e+03,-1.635704693317085179e-01,0.000000000000000000e+00
1.304000000000000000e+03,1.449025995178488679e-01,0.000000000000000000e+00
1.305000000000000000e+03,5.111461813986315494e-01,0.000000000000000000e+00
1.306000000000000000e+03,4.484306332688460794e-01,0.000000000000000000e+00
1.307000000000000000e+03,2.401572119018203777e-01,0.000000000000000000e+00
1.308000000000000000e+03,2.249859935456682836e-01,0.000000000000000000e+00
1.309000000000000000e+03,7.375660274552310602e-02,0.000000000000000000e+00
1.310000000000000000e+03,8.539842350075911581e-02,0.000000000000000000e+00
1.311000000000000000e+03,1.137657225607990874e-01,0.000000000000000000e+00
1.312000000000000000e+03,1.025146128403320173e-01,0.000000000000000000e+00
1.313000000000000000e+03,5.931224419427257866e-01,0.000000000000000000e+00
1.314000000000000000e+03,4.666456534772290610e+00,0.000000000000000000e+00
1.315000000000000000e+03,2.580381452456542490e+00,1.000000000000000000e+00
1.316000000000000000e+03,-2.848676216949844187e-01,0.000000000000000000e+00
1.317000000000000000e+03,-3.921378089613504203e-01,0.000000000000000000e+00
1.318000000000000000e+03,-7.033062640668583665e-01,0.000000000000000000e+00
1.319000000000000000e+03,-3.251548452031879921e-01,0.000000000000000000e+00
1.320000000000000000e+03,-5.610824000033416414e-01,0.000000000000000000e+00
1.321000000000000000e+03,-4.483709432763244990e-02,0.000000000000000000e+00
1.322000000000000000e+03,-2.697273905628304047e-01,0.000000000000000000e+00
1.323000000000000000e+03,1.640142925485033043e-01,0.000000000000000000e+00
1.324000000000000000e+03,3.716517644048390467e-01,0.000000000000000000e+00
1.325000000000000000e+03,5.928689046034785193e-01,0.000000000000000000e+00
1.326000000000000000e+03,1.167449029843625086e+00,0.000000000000000000e+00
1.327000000000000000e+03,1.274588283974944725e+00,0.000000000000000000e+00
1.328000000000000000e+03,1.114408770513606095e+00,0.000000000000000000e+00
1.329000000000000000e+03,4.685041427307313766e-01,0.000000000000000000e+00
1.330000000000000000e+03,-9.929169507192200372e-01,0.000000000000000000e+00
1.331000000000000000e+03,-1.266874980147879137e+00,0.000000000000000000e+00
1.332000000000000000e+03,-1.293350767423691927e+00,0.000000000000000000e+00
1.333000000000000000e+03,-1.223382745581154118e+00,0.000000000000000000e+00
1.334000000000000000e+03,-1.187054798733243155e+00,0.000000000000000000e+00
1.335000000000000000e+03,-9.009038284493474658e-01,0.000000000000000000e+00
1.336000000000000000e+03,-8.486436338471899932e-01,0.000000000000000000e+00
1.337000000000000000e+03,-6.739241736849199693e-01,0.000000000000000000e+00
1.338000000000000000e+03,-7.378761473411802330e-01,0.000000000000000000e+00
1.339000000000000000e+03,-4.313613656562919063e-01,0.000000000000000000e+00
1.340000000000000000e+03,-3.405402344877090925e-01,0.000000000000000000e+00
1.341000000000000000e+03,-4.381333813691506429e-01,0.000000000000000000e+00
1.342000000000000000e+03,-1.290439481818253797e-01,0.000000000000000000e+00
1.343000000000000000e+03,-2.960022925404711680e-01,0.000000000000000000e+00
1.344000000000000000e+03,-2.538969039536187466e-01,0.000000000000000000e+00
1.345000000000000000e+03,-5.494044372225034834e-02,0.000000000000000000e+00
1.346000000000000000e+03,-2.015334870397436084e-01,0.000000000000000000e+00
1.347000000000000000e+03,1.302313389197672089e-01,0.000000000000000000e+00
1.348000000000000000e+03,1.416870278608284850e-01,0.000000000000000000e+00
1.349000000000000000e+03,4.595962761003096197e-01,0.000000000000000000e+00
1.350000000000000000e+03,1.564243371525301518e-01,0.000000000000000000e+00
1.351000000000000000e+03,3.695141438970934306e-02,0.000000000000000000e+00
1.352000000000000000e+03,4.022885619053711420e-02,0.000000000000000000e+00
1.353000000000000000e+03,3.743474125408460806e-02,0.000000000000000000e+00
1.354000000000000000e+03,-1.256162493600528757e-02,0.000000000000000000e+00
1.355000000000000000e+03,2.263442178186789167e-01,0.000000000000000000e+00
1.356000000000000000e+03,1.550220660939222173e-01,0.000000000000000000e+00
1.357000000000000000e+03,4.118593494567565294e+00,0.000000000000000000e+00
1.358000000000000000e+03,2.683645500150665608e+00,1.000000000000000000e+00
1.359000000000000000e+03,-2.985338139613054054e-01,0.000000000000000000e+00
1.360000000000000000e+03,-3.279729861598752461e-01,0.000000000000000000e+00
1.361000000000000000e+03,-6.341341019032069592e-01,0.000000000000000000e+00
1.362000000000000000e+03,-5.077233675833772164e-01,0.000000000000000000e+00
1.363000000000000000e+03,-4.350983487566749131e-01,0.000000000000000000e+00
1.364000000000000000e+03,-1.259341862033996617e-01,0.000000000000000000e+00
1.365000000000000000e+03,1.860502350277928874e-02,0.000000000000000000e+00
1.366000000000000000e+03,7.383129610460531511e-02,0.000000000000000000e+00
1.367000000000000000e+03,3.187389915301375720e-01,0.000000000000000000e+00
1.368000000000000000e+03,5.338004797176236771e-01,0.000000000000000000e+00
1.369000000000000000e+03,8.832540283818401949e-01,0.000000000000000000e+00
1.370000000000000000e+03,1.403846632974494080e+00,0.000000000000000000e+00
1.371000000000000000e+03,1.284753283020336312e+00,0.000000000000000000e+00
1.372000000000000000e+03,3.474505118131637205e-01,0.000000000000000000e+00
1.373000000000000000e+03,-7.075146290516560743e-01,0.000000000000000000e+00
1.374000000000000000e+03,-1.367995556714966865e+00,0.000000000000000000e+00
1.375000000000000000e+03,-1.231431478731159546e+00,0.000000000000000000e+00
1.376000000000000000e+03,-1.150451121257751508e+00,0.000000000000000000e+00
1.377000000000000000e+03,-1.041611594606312918e+00,0.000000000000000000e+00
1.378000000000000000e+03,-1.022167147859632363e+00,0.000000000000000000e+00
1.379000000000000000e+03,-8.574681754059958472e-01,0.000000000000000000e+00
1.380000000000000000e+03,-7.349606963083062938e-01,0.000000000000000000e+00
1.381000000000000000e+03,-5.979619819985904083e-01,0.000000000000000000e+00
1.382000000000000000e+03,-5.113671109650032021e-01,0.000000000000000000e+00
1.383000000000000000e+03,-4.214078782090890929e-01,0.000000000000000000e+00
1.384000000000000000e+03,-4.008545791180658791e-01,0.000000000000000000e+00
1.385000000000000000e+03,-2.175233654063450928e-01,0.000000000000000000e+00
1.386000000000000000e+03,-2.601405389634902088e-01,0.000000000000000000e+00
1.387000000000000000e+03,-1.836743757588594761e-01,0.000000000000000000e+00
1.388000000000000000e+03,-1.352466416936165816e-01,0.000000000000000000e+00
1.389000000000000000e+03,7.970766023703385050e-02,0.000000000000000000e+00
1.390000000000000000e+03,4.292400341544754250e-01,0.000000000000000000e+00
1.391000000000000000e+03,2.216149717468773872e-01,0.000000000000000000e+00
1.392000000000000000e+03,7.650075039244877417e-02,0.000000000000000000e+00
1.393000000000000000e+03,9.238278029250628076e-02,0.000000000000000000e+00
1.394000000000000000e+03,9.450603739407131831e-02,0.000000000000000000e+00
1.395000000000000000e+03,-3.543396810566842164e-02,0.000000000000000000e+00
1.396000000000000000e+03,9.487366600864705068e-02,0.000000000000000000e+00
1.397000000000000000e+03,6.862665398612614875e-02,0.000000000000000000e+00
1.398000000000000000e+03,3.313745363382621378e-01,0.000000000000000000e+00
1.399000000000000000e+03,3.851496160610608843e+00,0.000000000000000000e+00
1.400000000000000000e+03,2.440206116808315340e+00,1.000000000000000000e+00
1.401000000000000000e+03,-1.618708160184722800e-01,0.000000000000000000e+00
1.402000000000000000e+03,-2.873491588797493779e-01,0.000000000000000000e+00
1.403000000000000000e+03,-6.322451432914507619e-01,0.000000000000000000e+00
1.404000000000000000e+03,-3.296892537819132163e-01,0.000000000000000000e+00
1.405000000000000000e+03,-4.058296542138299379e-01,0.000000000000000000e+00
1.406000000000000000e+03,-1.488320535316185189e-01,0.000000000000000000e+00
1.407000000000000000e+03,-1.328620774618740619e-01,0.000000000000000000e+00
1.408000000000000000e+03,1.934147113990218048e-01,0.000000000000000000e+00
1.409000000000000000e+03,2.732237699261075292e-01,0.000000000000000000e+00
1.410000000000000000e+03,6.724274437239383673e-01,0.000000000000000000e+00
1.411000000000000000e+03,9.123448769847523065e-01,0.000000000000000000e+00
1.412000000000000000e+03,1.312248061329877036e+00,0.000000000000000000e+00
1.413000000000000000e+03,1.149216440990860955e+00,0.000000000000000000e+00
1.414000000000000000e+03,3.968777775112179995e-01,0.000000000000000000e+00
1.415000000000000000e+03,-7.451846938507050710e-01,0.000000000000000000e+00
1.416000000000000000e+03,-1.412420134399423821e+00,0.000000000000000000e+00
1.417000000000000000e+03,-1.157518558016167320e+00,0.000000000000000000e+00
1.418000000000000000e+03,-1.193188353623518605e+00,0.000000000000000000e+00
1.419000000000000000e+03,-1.076171358885011031e+00,0.000000000000000000e+00
1.420000000000000000e+03,-9.461122275825776251e-01,0.000000000000000000e+00
1.421000000000000000e+03,-8.748978825755768796e-01,0.000000000000000000e+00
1.422000000000000000e+03,-7.679305977307575581e-01,0.000000000000000000e+00
1.423000000000000000e+03,-7.030277495098606888e-01,0.000000000000000000e+00
1.424000000000000000e+03,-1.819338580096029612e-01,0.000000000000000000e+00
1.425000000000000000e+03,-6.215494307567180909e-01,0.000000000000000000e+00
1.426000000000000000e+03,-3.152731209252440658e-01,0.000000000000000000e+00
1.427000000000000000e+03,-2.894656162466200944e-01,0.000000000000000000e+00
1.428000000000000000e+03,-3.146401170091243094e-01,0.000000000000000000e+00
1.429000000000000000e+03,-2.787068334791770186e-01,0.000000000000000000e+00
1.430000000000000000e+03,7.595803672289422326e-02,0.000000000000000000e+00
1.431000000000000000e+03,4.583775846081482308e-02,0.000000000000000000e+00
1.432000000000000000e+03,2.658438207735193126e-01,0.000000000000000000e+00
1.433000000000000000e+03,1.913527952243773145e-01,0.000000000000000000e+00
1.434000000000000000e+03,1.527593998775726991e-01,0.000000000000000000e+00
1.435000000000000000e+03,-1.409952064679502182e-01,0.000000000000000000e+00
1.436000000000000000e+03,-3.085907053652929902e-02,0.000000000000000000e+00
1.437000000000000000e+03,3.563342393480012360e-02,0.000000000000000000e+00
1.438000000000000000e+03,-4.211543742645306593e-02,0.000000000000000000e+00
1.439000000000000000e+03,3.202690499258527973e-02,0.000000000000000000e+00
1.440000000000000000e+03,6.267674666922522508e-01,0.000000000000000000e+00
1.441000000000000000e+03,3.997816943189214989e+00,0.000000000000000000e+00
1.442000000000000000e+03,1.811379750124888055e+00,1.000000000000000000e+00
1.443000000000000000e+03,-3.213534859513629272e-01,0.000000000000000000e+00
1.444000000000000000e+03,-3.244094497220340600e-01,0.000000000000000000e+00
1.445000000000000000e+03,-5.692089893350745777e-01,0.000000000000000000e+00
1.446000000000000000e+03,-3.333284286883804737e-01,0.000000000000000000e+00
1.447000000000000000e+03,-4.292040009844711457e-01,0.000000000000000000e+00
1.448000000000000000e+03,-1.767762879516737440e-01,0.000000000000000000e+00
1.449000000000000000e+03,-9.554640137929687471e-02,0.000000000000000000e+00
1.450000000000000000e+03,1.891703580963567943e-01,0.000000000000000000e+00
1.451000000000000000e+03,3.128177287401635032e-01,0.000000000000000000e+00
1.452000000000000000e+03,6.504014235981252501e-01,0.000000000000000000e+00
1.453000000000000000e+03,9.084910011877482816e-01,0.000000000000000000e+00
1.454000000000000000e+03,1.453205366560121004e+00,0.000000000000000000e+00
1.455000000000000000e+03,1.160080082530351442e+00,0.000000000000000000e+00
1.456000000000000000e+03,2.613890140356722180e-01,0.000000000000000000e+00
1.457000000000000000e+03,-9.341438925736228471e-01,0.000000000000000000e+00
1.458000000000000000e+03,-1.001225535359672403e+00,0.000000000000000000e+00
1.459000000000000000e+03,-1.234963633340507627e+00,0.000000000000000000e+00
1.460000000000000000e+03,-1.085090842696216251e+00,0.000000000000000000e+00
1.461000000000000000e+03,-1.121284815724505890e+00,0.000000000000000000e+00
1.462000000000000000e+03,-7.648639652047807269e-01,0.000000000000000000e+00
1.463000000000000000e+03,-9.033828724417963807e-01,0.000000000000000000e+00
1.464000000000000000e+03,-5.120140644145254605e-01,0.000000000000000000e+00
1.465000000000000000e+03,-5.342170868498299363e-01,0.000000000000000000e+00
1.466000000000000000e+03,-5.405665456569969107e-01,0.000000000000000000e+00
1.467000000000000000e+03,-3.487211257856380198e-01,0.000000000000000000e+00
1.468000000000000000e+03,-2.092461250292016739e-01,0.000000000000000000e+00
1.469000000000000000e+03,-2.144398793745724285e-01,0.000000000000000000e+00
1.470000000000000000e+03,-2.194422809144467856e-01,0.000000000000000000e+00
1.471000000000000000e+03,-8.894450538100166781e-02,0.000000000000000000e+00
1.472000000000000000e+03,-1.843969986013573314e-01,0.000000000000000000e+00
1.473000000000000000e+03,-1.280889725284597991e-01,0.000000000000000000e+00
1.474000000000000000e+03,3.417742025488493818e-01,0.000000000000000000e+00
1.475000000000000000e+03,3.401948997405747077e-01,0.000000000000000000e+00
1.476000000000000000e+03,2.427593142771331536e-01,0.000000000000000000e+00
1.477000000000000000e+03,7.083414143666527663e-02,0.000000000000000000e+00
1.478000000000000000e+03,-4.926881504235514075e-02,0.000000000000000000e+00
1.479000000000000000e+03,2.304022267671769209e-01,0.000000000000000000e+00
1.480000000000000000e+03,-1.043536562333256257e-01,0.000000000000000000e+00
1.481000000000000000e+03,1.432365910560050859e-01,0.000000000000000000e+00
1.482000000000000000e+03,-1.320969597390055927e-01,0.000000000000000000e+00
1.483000000000000000e+03,2.865779061121017879e+00,0.000000000000000000e+00
1.484000000000000000e+03,4.071342177061766598e+00,0.000000000000000000e+00
1.485000000000000000e+03,1.639618956273093398e-01,1.000000000000000000e+00
1.486000000000000000e+03,-6.289708631736667943e-02,0.000000000000000000e+00
1.487000000000000000e+03,-7.647297031936454159e-01,0.000000000000000000e+00
1.488000000000000000e+03,-3.948472814824510180e-01,0.000000000000000000e+00
1.489000000000000000e+03,-4.975657241539657161e-01,0.000000000000000000e+00
1.490000000000000000e+03,-8.327178840390733749e-02,0.000000000000000000e+00
1.491000000000000000e+03,-1.063573691307217600e-01,0.000000000000000000e+00
1.492000000000000000e+03,3.866799127350491194e-02,0.000000000000000000e+00
1.493000000000000000e+03,1.898956418083097564e-01,0.000000000000000000e+00
1.494000000000000000e+03,6.192348058521206511e-01,0.000000000000000000e+00
1.495000000000000000e+03,7.685188007281974487e-01,0.000000000000000000e+00
1.496000000000000000e+03,1.162144198182091692e+00,0.000000000000000000e+00
1.497000000000000000e+03,1.223637482605702154e+00,0.000000000000000000e+00
1.498000000000000000e+03,8.115312524618053525e-01,0.000000000000000000e+00
1.499000000000000000e+03,-3.112360600924060083e-01,0.000000000000000000e+00
1.500000000000000000e+03,-1.035041142391587288e+00,0.000000000000000000e+00
1.501000000000000000e+03,-1.266114426357586753e+00,0.000000000000000000e+00
1.502000000000000000e+03,-1.143113523341296345e+00,0.000000000000000000e+00
1.503000000000000000e+03,-1.216703329400649070e+00,0.000000000000000000e+00
1.504000000000000000e+03,-8.599555879977066608e-01,0.000000000000000000e+00
1.505000000000000000e+03,-1.085010789281768862e+00,0.000000000000000000e+00
1.506000000000000000e+03,-6.163428131576835778e-01,0.000000000000000000e+00
1.507000000000000000e+03,-7.503473079489050290e-01,0.000000000000000000e+00
1.508000000000000000e+03,-4.508190946545800881e-01,0.000000000000000000e+00
1.509000000000000000e+03,-5.147657751818263128e-01,0.000000000000000000e+00
1.510000000000000000e+03,-3.407726232495336682e-01,0.000000000000000000e+00
1.511000000000000000e+03,-4.388031021337582271e-01,0.000000000000000000e+00
1.512000000000000000e+03,-3.277046867797643870e-01,0.000000000000000000e+00
1.513000000000000000e+03,-3.163098494912686687e-01,0.000000000000000000e+00
1.514000000000000000e+03,-1.054068012053223508e-01,0.000000000000000000e+00
1.515000000000000000e+03,-1.582265586618685771e-01,0.000000000000000000e+00
1.516000000000000000e+03,-1.606134299671140298e-01,0.000000000000000000e+00
1.517000000000000000e+03,3.712939818650327073e-01,0.000000000000000000e+00
1.518000000000000000e+03,4.294911732988317410e-01,0.000000000000000000e+00
1.519000000000000000e+03,-1.456333439464420065e-01,0.000000000000000000e+00
1.520000000000000000e+03,-5.895779869964563186e-02,0.000000000000000000e+00
1.521000000000000000e+03,1.126217348202296353e-01,0.000000000000000000e+00
1.522000000000000000e+03,-1.679623632799888411e-01,0.000000000000000000e+00
1.523000000000000000e+03,-4.729814812957617437e-02,0.000000000000000000e+00
1.524000000000000000e+03,1.625304764663993151e-01,0.000000000000000000e+00
1.525000000000000000e+03,4.675990900534451322e-01,0.000000000000000000e+00
1.526000000000000000e+03,4.372182258237775621e+00,0.000000000000000000e+00
1.527000000000000000e+03,2.494932111213471693e+00,1.000000000000000000e+00
1.528000000000000000e+03,-2.682787333613972924e-01,0.000000000000000000e+00
1.529000000000000000e+03,-4.061876858731854889e-01,0.000000000000000000e+00
1.530000000000000000e+03,-6.229732079229295394e-01,0.000000000000000000e+00
1.531000000000000000e+03,-3.574116238220725883e-01,0.000000000000000000e+00
1.532000000000000000e+03,-5.083035384560511405e-01,0.000000000000000000e+00
1.533000000000000000e+03,-2.365793564760428347e-01,0.000000000000000000e+00
1.534000000000000000e+03,-2.919366133596865490e-02,0.000000000000000000e+00
1.535000000000000000e+03,-6.217021572562259416e-03,0.000000000000000000e+00
1.536000000000000000e+03,4.580482585754813152e-01,0.000000000000000000e+00
1.537000000000000000e+03,5.810314713291148125e-01,0.000000000000000000e+00
1.538000000000000000e+03,1.117025255217924284e+00,0.000000000000000000e+00
1.539000000000000000e+03,1.343902702668834825e+00,0.000000000000000000e+00
1.540000000000000000e+03,1.434421901520225084e+00,0.000000000000000000e+00
1.541000000000000000e+03,4.065740865487550981e-01,0.000000000000000000e+00
1.542000000000000000e+03,-6.750162182194322513e-01,0.000000000000000000e+00
1.543000000000000000e+03,-1.160543483009011556e+00,0.000000000000000000e+00
1.544000000000000000e+03,-1.166062830463090894e+00,0.000000000000000000e+00
1.545000000000000000e+03,-1.236437066781056027e+00,0.000000000000000000e+00
1.546000000000000000e+03,-9.159715651571866957e-01,0.000000000000000000e+00
1.547000000000000000e+03,-8.614251953964160435e-01,0.000000000000000000e+00
1.548000000000000000e+03,-8.737238909102350570e-01,0.000000000000000000e+00
1.549000000000000000e+03,-6.869997032428187822e-01,0.000000000000000000e+00
1.550000000000000000e+03,-5.108838642012089037e-01,0.000000000000000000e+00
1.551000000000000000e+03,-4.819233681863900887e-01,0.000000000000000000e+00
1.552000000000000000e+03,-3.212046490632639029e-01,0.000000000000000000e+00
1.553000000000000000e+03,-3.120781551758871064e-01,0.000000000000000000e+00
1.554000000000000000e+03,-2.058365089206712351e-01,0.000000000000000000e+00
1.555000000000000000e+03,-3.521181414493393946e-01,0.000000000000000000e+00
1.556000000000000000e+03,-9.999183036548801862e-02,0.000000000000000000e+00
1.557000000000000000e+03,-5.874969879311002507e-02,0.000000000000000000e+00
1.558000000000000000e+03,2.328743057302749223e-03,0.000000000000000000e+00
1.559000000000000000e+03,4.458754336387117934e-01,0.000000000000000000e+00
1.560000000000000000e+03,1.161297031087466097e-01,0.000000000000000000e+00
1.561000000000000000e+03,2.992654081893459869e-02,0.000000000000000000e+00
1.562000000000000000e+03,-2.830352440523036407e-03,0.000000000000000000e+00
1.563000000000000000e+03,-9.157940745875248201e-02,0.000000000000000000e+00
1.564000000000000000e+03,6.286475041768241345e-02,0.000000000000000000e+00
1.565000000000000000e+03,-1.302652794201396569e-01,0.000000000000000000e+00
1.566000000000000000e+03,3.420765615141405785e-02,0.000000000000000000e+00
1.567000000000000000e+03,5.403369646936885262e-01,0.000000000000000000e+00
1.568000000000000000e+03,4.037008918182485750e+00,0.000000000000000000e+00
1.569000000000000000e+03,2.018670995117123557e+00,1.000000000000000000e+00
1.570000000000000000e+03,-2.250040570512829297e-01,0.000000000000000000e+00
1.571000000000000000e+03,-3.981013657455276800e-01,0.000000000000000000e+00
1.572000000000000000e+03,-6.366812975226247007e-01,0.000000000000000000e+00
1.573000000000000000e+03,-4.607385034231976650e-01,0.000000000000000000e+00
1.574000000000000000e+03,-2.633084941041137772e-01,0.000000000000000000e+00
1.575000000000000000e+03,-1.541401079800431562e-01,0.000000000000000000e+00
1.576000000000000000e+03,-7.139466726747380199e-02,0.000000000000000000e+00
1.577000000000000000e+03,8.796364465685321821e-02,0.000000000000000000e+00
1.578000000000000000e+03,2.464942100545361170e-01,0.000000000000000000e+00
1.579000000000000000e+03,6.636399679556395093e-01,0.000000000000000000e+00
1.580000000000000000e+03,1.046418328066464731e+00,0.000000000000000000e+00
1.581000000000000000e+03,1.263373972299668413e+00,0.000000000000000000e+00
1.582000000000000000e+03,1.275922921037622171e+00,0.000000000000000000e+00
1.583000000000000000e+03,2.632722326184145367e-01,0.000000000000000000e+00
1.584000000000000000e+03,-8.277512864714496876e-01,0.000000000000000000e+00
1.585000000000000000e+03,-8.779251640655446609e-01,0.000000000000000000e+00
