timestamp,ecg_measurement,qrs_detected
0.000000000000000000e+00,8.021508252240368286e-02,0.000000000000000000e+00
1.000000000000000000e+00,3.034246143819109842e-01,0.000000000000000000e+00
2.000000000000000000e+00,1.252007523090881980e-01,0.000000000000000000e+00
3.000000000000000000e+00,1.300148148346583488e-01,0.000000000000000000e+00
4.000000000000000000e+00,4.325131181267698882e-02,0.000000000000000000e+00
5.000000000000000000e+00,-1.658977705286104054e-01,0.000000000000000000e+00
6.000000000000000000e+00,1.748591688447830028e-01,0.000000000000000000e+00
7.000000000000000000e+00,6.666289234851111023e-02,0.000000000000000000e+00
8.000000000000000000e+00,2.160428418615613355e-01,0.000000000000000000e+00
9.000000000000000000e+00,8.254736657723950322e-02,0.000000000000000000e+00
1.000000000000000000e+01,3.202784509355307563e-01,0.000000000000000000e+00
1.100000000000000000e+01,1.167166757290464929e+00,0.000000000000000000e+00
1.200000000000000000e+01,1.219340933520634218e+00,0.000000000000000000e+00
1.300000000000000000e+01,1.686815959389021291e+00,0.000000000000000000e+00
1.400000000000000000e+01,3.327461913175365993e+00,0.000000000000000000e+00
1.500000000000000000e+01,3.503666420466800879e+00,0.000000000000000000e+00
1.600000000000000000e+01,8.548757299995189962e-01,0.000000000000000000e+00
1.700000000000000000e+01,-1.700520372600781815e+00,1.000000000000000000e+00
1.800000000000000000e+01,-1.531176191131360831e+00,0.000000000000000000e+00
1.900000000000000000e+01,-1.695043235980378427e+00,0.000000000000000000e+00
2.000000000000000000e+01,-1.839269446478235981e+00,0.000000000000000000e+00
2.100000000000000000e+01,-1.508457248915849425e+00,0.000000000000000000e+00
2.200000000000000000e+01,-9.793936628024709767e-01,0.000000000000000000e+00
2.300000000000000000e+01,-1.507902724396313454e+00,0.000000000000000000e+00
2.400000000000000000e+01,-1.253002736754484481e+00,0.000000000000000000e+00
2.500000000000000000e+01,-9.658896534712928528e-01,0.000000000000000000e+00
2.600000000000000000e+01,-5.329042221147599623e-01,0.000000000000000000e+00
2.700000000000000000e+01,-9.679046770131121136e-01,0.000000000000000000e+00
2.800000000000000000e+01,-9.483063499316071177e-01,0.000000000000000000e+00
2.900000000000000000e+01,-5.257042557579044706e-01,0.000000000000000000e+00
3.000000000000000000e+01,-5.489524843630964046e-01,0.000000000000000000e+00
3.100000000000000000e+01,-6.308338979488375964e-01,0.000000000000000000e+00
3.200000000000000000e+01,-1.288176348731156495e-01,0.000000000000000000e+00
3.300000000000000000e+01,2.417144588141136585e-01,0.000000000000000000e+00
3.400000000000000000e+01,5.582851536366058125e-03,0.000000000000000000e+00
3.500000000000000000e+01,3.809443658944321465e-01,0.000000000000000000e+00
3.600000000000000000e+01,1.576779407318327220e-01,0.000000000000000000e+00
3.700000000000000000e+01,1.335539514241466386e-01,0.000000000000000000e+00
3.800000000000000000e+01,3.696777759284854831e-02,0.000000000000000000e+00
3.900000000000000000e+01,9.409198175638704142e-02,0.000000000000000000e+00
4.000000000000000000e+01,-1.538951912246144527e-01,0.000000000000000000e+00
4.100000000000000000e+01,2.190152099290780807e-01,0.000000000000000000e+00
4.200000000000000000e+01,1.153721664787887985e-01,0.000000000000000000e+00
4.300000000000000000e+01,2.624260340576409778e-01,0.000000000000000000e+00
4.400000000000000000e+01,-4.019510469734750846e-02,0.000000000000000000e+00
4.500000000000000000e+01,1.719974422464748687e-01,0.000000000000000000e+00
4.600000000000000000e+01,-7.146805847606711726e-02,0.000000000000000000e+00
4.700000000000000000e+01,3.013340206933726728e-01,0.000000000000000000e+00
4.800000000000000000e+01,-3.928037319522433707e-02,0.000000000000000000e+00
4.900000000000000000e+01,9.976166287908901087e-02,0.000000000000000000e+00
5.000000000000000000e+01,6.379274218503939997e-02,0.000000000000000000e+00
5.100000000000000000e+01,5.526780650771372788e-02,0.000000000000000000e+00
5.200000000000000000e+01,1.848084386417609692e-01,0.000000000000000000e+00
5.300000000000000000e+01,1.378479180378750467e-02,0.000000000000000000e+00
5.400000000000000000e+01,1.245586017904217330e-01,0.000000000000000000e+00
5.500000000000000000e+01,2.136457375455703689e-01,0.000000000000000000e+00
5.600000000000000000e+01,1.111782643571851588e-02,0.000000000000000000e+00
5.700000000000000000e+01,2.994082229002688611e-01,0.000000000000000000e+00
5.800000000000000000e+01,2.456358069204730432e-01,0.000000000000000000e+00
5.900000000000000000e+01,2.596761342062146039e-01,0.000000000000000000e+00
6.000000000000000000e+01,1.045755755593094083e-01,0.000000000000000000e+00
6.100000000000000000e+01,-6.871855658495587549e-02,0.000000000000000000e+00
6.200000000000000000e+01,3.380466338246800873e-01,0.000000000000000000e+00
6.300000000000000000e+01,-5.397543200880364211e-02,0.000000000000000000e+00
6.400000000000000000e+01,1.422829439882589489e-02,0.000000000000000000e+00
6.500000000000000000e+01,1.229830917919187833e-01,0.000000000000000000e+00
6.600000000000000000e+01,-6.091030246352138050e-02,0.000000000000000000e+00
6.700000000000000000e+01,-1.506642787890571378e-01,0.000000000000000000e+00
6.800000000000000000e+01,5.651506583364367398e-01,0.000000000000000000e+00
6.900000000000000000e+01,1.355375880935309196e-01,0.000000000000000000e+00
7.000000000000000000e+01,2.560092644490443714e-01,0.000000000000000000e+00
7.100000000000000000e+01,1.876735125656237457e+00,0.000000000000000000e+00
7.200000000000000000e+01,1.865610982763752368e+00,0.000000000000000000e+00
7.300000000000000000e+01,2.220560089288468930e+00,0.000000000000000000e+00
7.400000000000000000e+01,3.938367202523414878e+00,0.000000000000000000e+00
7.500000000000000000e+01,3.527278488172933546e+00,0.000000000000000000e+00
7.600000000000000000e+01,-5.272457254511572211e-01,0.000000000000000000e+00
7.700000000000000000e+01,-1.796482026298605206e+00,1.000000000000000000e+00
7.800000000000000000e+01,-2.036308294481878001e+00,0.000000000000000000e+00
7.900000000000000000e+01,-2.386075471394191183e+00,0.000000000000000000e+00
8.000000000000000000e+01,-1.690616858090312480e+00,0.000000000000000000e+00
8.100000000000000000e+01,-1.486720705674503762e+00,0.000000000000000000e+00
8.200000000000000000e+01,-1.688054697433532203e+00,0.000000000000000000e+00
8.300000000000000000e+01,-1.443401289378500207e+00,0.000000000000000000e+00
8.400000000000000000e+01,-1.210590399184847676e+00,0.000000000000000000e+00
8.500000000000000000e+01,-1.068921947316919363e+00,0.000000000000000000e+00
8.600000000000000000e+01,-1.085574840912770567e+00,0.000000000000000000e+00
8.700000000000000000e+01,-7.540360976131366133e-01,0.000000000000000000e+00
8.800000000000000000e+01,-9.067941210582655120e-01,0.000000000000000000e+00
8.900000000000000000e+01,-8.781987368800439064e-01,0.000000000000000000e+00
9.000000000000000000e+01,-5.405839592524659398e-01,0.000000000000000000e+00
9.100000000000000000e+01,-4.847203536800693824e-01,0.000000000000000000e+00
9.200000000000000000e+01,-4.891649885699016209e-02,0.000000000000000000e+00
9.300000000000000000e+01,2.973732418128013366e-01,0.000000000000000000e+00
9.400000000000000000e+01,3.752408749179965142e-01,0.000000000000000000e+00
9.500000000000000000e+01,3.593430574696483970e-01,0.000000000000000000e+00
9.600000000000000000e+01,4.652553844544817241e-01,0.000000000000000000e+00
9.700000000000000000e+01,8.187052040415508658e-02,0.000000000000000000e+00
9.800000000000000000e+01,2.051103570852849389e-01,0.000000000000000000e+00
9.900000000000000000e+01,4.645535650206279454e-01,0.000000000000000000e+00
1.000000000000000000e+02,1.046231945710132116e-01,0.000000000000000000e+00
1.010000000000000000e+02,-1.142064045323776776e-02,0.000000000000000000e+00
1.020000000000000000e+02,5.569044209629619990e-01,0.000000000000000000e+00
1.030000000000000000e+02,2.334970818752635513e-01,0.000000000000000000e+00
1.040000000000000000e+02,4.734955228228810570e-02,0.000000000000000000e+00
1.050000000000000000e+02,5.899003999755491473e-02,0.000000000000000000e+00
1.060000000000000000e+02,4.529755971865717656e-01,0.000000000000000000e+00
1.070000000000000000e+02,-5.081737265854478769e-02,0.000000000000000000e+00
1.080000000000000000e+02,-1.824839515743626947e-02,0.000000000000000000e+00
1.090000000000000000e+02,2.486360633781203311e-01,0.000000000000000000e+00
1.100000000000000000e+02,2.707979180194907687e-01,0.000000000000000000e+00
1.110000000000000000e+02,2.836337014472160578e-01,0.000000000000000000e+00
1.120000000000000000e+02,-9.628619683473725599e-02,0.000000000000000000e+00
1.130000000000000000e+02,2.736975517065186048e-01,0.000000000000000000e+00
1.140000000000000000e+02,2.311179168660756622e-01,0.000000000000000000e+00
1.150000000000000000e+02,2.949829640027057942e-01,0.000000000000000000e+00
1.160000000000000000e+02,1.770599762499216467e-01,0.000000000000000000e+00
1.170000000000000000e+02,2.616224473660955230e-01,0.000000000000000000e+00
1.180000000000000000e+02,4.162066975739883157e-01,0.000000000000000000e+00
1.190000000000000000e+02,1.059809387225126714e-01,0.000000000000000000e+00
1.200000000000000000e+02,2.238348349567659823e-01,0.000000000000000000e+00
1.210000000000000000e+02,2.186260299555986830e-01,0.000000000000000000e+00
1.220000000000000000e+02,-4.908144963840391922e-02,0.000000000000000000e+00
1.230000000000000000e+02,1.981649675316375925e-01,0.000000000000000000e+00
1.240000000000000000e+02,1.412063356865460029e-01,0.000000000000000000e+00
1.250000000000000000e+02,-4.853380028228622411e-02,0.000000000000000000e+00
1.260000000000000000e+02,7.044961678987296527e-02,0.000000000000000000e+00
1.270000000000000000e+02,2.330574529109139814e-01,0.000000000000000000e+00
1.280000000000000000e+02,2.009422737607255427e-01,0.000000000000000000e+00
1.290000000000000000e+02,2.062501325339647917e-01,0.000000000000000000e+00
1.300000000000000000e+02,8.633435411371978008e-01,0.000000000000000000e+00
1.310000000000000000e+02,1.404946552700649720e+00,0.000000000000000000e+00
1.320000000000000000e+02,1.809090636290228371e+00,0.000000000000000000e+00
1.330000000000000000e+02,2.648878501265203855e+00,0.000000000000000000e+00
1.340000000000000000e+02,3.850101604789492704e+00,0.000000000000000000e+00
1.350000000000000000e+02,3.048625372938873035e+00,0.000000000000000000e+00
1.360000000000000000e+02,-6.840646547828678203e-01,0.000000000000000000e+00
1.370000000000000000e+02,-1.968128420800349332e+00,1.000000000000000000e+00
1.380000000000000000e+02,-1.979066581925846169e+00,0.000000000000000000e+00
1.390000000000000000e+02,-1.854978542916438267e+00,0.000000000000000000e+00
1.400000000000000000e+02,-2.074982648276504360e+00,0.000000000000000000e+00
1.410000000000000000e+02,-1.575478499785374575e+00,0.000000000000000000e+00
1.420000000000000000e+02,-1.441426969441756967e+00,0.000000000000000000e+00
1.430000000000000000e+02,-1.359960127047331380e+00,0.000000000000000000e+00
1.440000000000000000e+02,-1.232275767180629478e+00,0.000000000000000000e+00
1.450000000000000000e+02,-1.122878071928996579e+00,0.000000000000000000e+00
1.460000000000000000e+02,-1.126387112534046109e+00,0.000000000000000000e+00
1.470000000000000000e+02,-6.529035421775409853e-01,0.000000000000000000e+00
1.480000000000000000e+02,-9.361728690628939864e-01,0.000000000000000000e+00
1.490000000000000000e+02,-7.902851170723730334e-01,0.000000000000000000e+00
1.500000000000000000e+02,-6.967449449587493904e-01,0.000000000000000000e+00
1.510000000000000000e+02,-2.773847985191346122e-01,0.000000000000000000e+00
1.520000000000000000e+02,-1.425875967620093276e-01,0.000000000000000000e+00
1.530000000000000000e+02,3.076220354304861071e-01,0.000000000000000000e+00
1.540000000000000000e+02,2.511434996832005440e-01,0.000000000000000000e+00
1.550000000000000000e+02,4.641116077085675751e-01,0.000000000000000000e+00
1.560000000000000000e+02,2.357740458872132905e-01,0.000000000000000000e+00
1.570000000000000000e+02,-6.275305890643513573e-02,0.000000000000000000e+00
1.580000000000000000e+02,3.045969312664796314e-01,0.000000000000000000e+00
1.590000000000000000e+02,2.179221323889414530e-01,0.000000000000000000e+00
1.600000000000000000e+02,1.207479980874521935e-01,0.000000000000000000e+00
1.610000000000000000e+02,4.792531773130109113e-02,0.000000000000000000e+00
1.620000000000000000e+02,3.094784847843841669e-01,0.000000000000000000e+00
1.630000000000000000e+02,8.582492811267079802e-02,0.000000000000000000e+00
1.640000000000000000e+02,1.485904189384789631e-01,0.000000000000000000e+00
1.650000000000000000e+02,5.295549554267017095e-02,0.000000000000000000e+00
1.660000000000000000e+02,-1.285638052577761925e-01,0.000000000000000000e+00
1.670000000000000000e+02,1.644303666602743297e-01,0.000000000000000000e+00
1.680000000000000000e+02,6.932810109530290754e-02,0.000000000000000000e+00
1.690000000000000000e+02,2.159471973745605289e-01,0.000000000000000000e+00
1.700000000000000000e+02,1.130643156732357990e-01,0.000000000000000000e+00
1.710000000000000000e+02,1.310526943173819514e-01,0.000000000000000000e+00
1.720000000000000000e+02,1.428134021832396239e-01,0.000000000000000000e+00
1.730000000000000000e+02,2.996420523756030962e-01,0.000000000000000000e+00
1.740000000000000000e+02,2.442500856339095416e-01,0.000000000000000000e+00
1.750000000000000000e+02,1.586707576606004588e-01,0.000000000000000000e+00
1.760000000000000000e+02,4.364677418688025501e-01,0.000000000000000000e+00
1.770000000000000000e+02,8.751540605543796369e-02,0.000000000000000000e+00
1.780000000000000000e+02,3.216251966773855386e-01,0.000000000000000000e+00
1.790000000000000000e+02,3.863324715657043273e-01,0.000000000000000000e+00
1.800000000000000000e+02,2.611872108074966836e-01,0.000000000000000000e+00
1.810000000000000000e+02,-1.477876454770502279e-01,0.000000000000000000e+00
1.820000000000000000e+02,3.705589620779956017e-01,0.000000000000000000e+00
1.830000000000000000e+02,2.515777523424963524e-01,0.000000000000000000e+00
1.840000000000000000e+02,-2.746393975501720819e-01,0.000000000000000000e+00
1.850000000000000000e+02,6.789070826585875962e-02,0.000000000000000000e+00
1.860000000000000000e+02,7.201873729429726645e-02,0.000000000000000000e+00
1.870000000000000000e+02,2.245758863544728423e-01,0.000000000000000000e+00
1.880000000000000000e+02,1.449791644088163911e-01,0.000000000000000000e+00
1.890000000000000000e+02,4.290525667907532648e-02,0.000000000000000000e+00
1.900000000000000000e+02,6.933816631221497717e-01,0.000000000000000000e+00
1.910000000000000000e+02,1.404425919945362367e+00,0.000000000000000000e+00
1.920000000000000000e+02,1.032855676624150565e+00,0.000000000000000000e+00
1.930000000000000000e+02,2.166821949737907538e+00,0.000000000000000000e+00
1.940000000000000000e+02,3.168783643932685301e+00,0.000000000000000000e+00
1.950000000000000000e+02,3.041499171247108890e+00,0.000000000000000000e+00
1.960000000000000000e+02,-3.220118930614860459e-02,0.000000000000000000e+00
1.970000000000000000e+02,-1.559433270261478599e+00,1.000000000000000000e+00
1.980000000000000000e+02,-1.869043788255366545e+00,0.000000000000000000e+00
1.990000000000000000e+02,-1.583112044125116524e+00,0.000000000000000000e+00
2.000000000000000000e+02,-1.389896143967426889e+00,0.000000000000000000e+00
2.010000000000000000e+02,-1.380810348239969398e+00,0.000000000000000000e+00
2.020000000000000000e+02,-1.329346001488739715e+00,0.000000000000000000e+00
2.030000000000000000e+02,-1.146215747544436780e+00,0.000000000000000000e+00
2.040000000000000000e+02,-1.114871410413725616e+00,0.000000000000000000e+00
2.050000000000000000e+02,-5.721148751049897063e-01,0.000000000000000000e+00
2.060000000000000000e+02,-9.348673058556351556e-01,0.000000000000000000e+00
2.070000000000000000e+02,-1.018667566350090148e+00,0.000000000000000000e+00
2.080000000000000000e+02,-6.092229897670077277e-01,0.000000000000000000e+00
2.090000000000000000e+02,-2.614675832155428647e-01,0.000000000000000000e+00
2.100000000000000000e+02,-7.897701337416568323e-01,0.000000000000000000e+00
2.110000000000000000e+02,-4.213593625287866407e-01,0.000000000000000000e+00
2.120000000000000000e+02,-1.096912157842328678e-01,0.000000000000000000e+00
2.130000000000000000e+02,6.190085427259612860e-01,0.000000000000000000e+00
2.140000000000000000e+02,-9.611919245376689472e-03,0.000000000000000000e+00
2.150000000000000000e+02,1.025249531801493003e-01,0.000000000000000000e+00
2.160000000000000000e+02,5.127016230819870790e-01,0.000000000000000000e+00
2.170000000000000000e+02,-2.135852445421735357e-01,0.000000000000000000e+00
2.180000000000000000e+02,2.422213190029945951e-01,0.000000000000000000e+00
2.190000000000000000e+02,-1.594532406707601102e-01,0.000000000000000000e+00
2.200000000000000000e+02,9.076520519888862937e-02,0.000000000000000000e+00
2.210000000000000000e+02,-2.370900261823283631e-02,0.000000000000000000e+00
2.220000000000000000e+02,1.951964603251676589e-01,0.000000000000000000e+00
2.230000000000000000e+02,-1.114395256542860674e-01,0.000000000000000000e+00
2.240000000000000000e+02,1.189010819068694047e-01,0.000000000000000000e+00
2.250000000000000000e+02,3.014601443253708910e-03,0.000000000000000000e+00
2.260000000000000000e+02,-5.667638525297526847e-02,0.000000000000000000e+00
2.270000000000000000e+02,9.285653961607141793e-02,0.000000000000000000e+00
2.280000000000000000e+02,-2.765805128244162858e-02,0.000000000000000000e+00
2.290000000000000000e+02,-2.840668317969841095e-01,0.000000000000000000e+00
2.300000000000000000e+02,1.858110010544272717e-01,0.000000000000000000e+00
2.310000000000000000e+02,1.943409910175115107e-01,0.000000000000000000e+00
2.320000000000000000e+02,-2.940340569534847237e-01,0.000000000000000000e+00
2.330000000000000000e+02,1.251259611095528190e-01,0.000000000000000000e+00
2.340000000000000000e+02,2.317502960358350517e-01,0.000000000000000000e+00
2.350000000000000000e+02,4.430621848067788082e-02,0.000000000000000000e+00
2.360000000000000000e+02,1.148952755662182718e-01,0.000000000000000000e+00
2.370000000000000000e+02,9.876082322705022343e-02,0.000000000000000000e+00
2.380000000000000000e+02,4.473145513385839989e-01,0.000000000000000000e+00
2.390000000000000000e+02,-2.639520271182985156e-01,0.000000000000000000e+00
2.400000000000000000e+02,1.909801445169453660e-01,0.000000000000000000e+00
2.410000000000000000e+02,1.522950202600488745e-01,0.000000000000000000e+00
2.420000000000000000e+02,-1.348113077825000700e-02,0.000000000000000000e+00
2.430000000000000000e+02,-1.197296341436758643e-01,0.000000000000000000e+00
2.440000000000000000e+02,2.083311298976103787e-01,0.000000000000000000e+00
2.450000000000000000e+02,5.703180315636193626e-02,0.000000000000000000e+00
2.460000000000000000e+02,-6.214653611089959034e-02,0.000000000000000000e+00
2.470000000000000000e+02,1.600789116422956793e-01,0.000000000000000000e+00
2.480000000000000000e+02,1.324956670564023387e-01,0.000000000000000000e+00
2.490000000000000000e+02,1.981087607904400971e-01,0.000000000000000000e+00
2.500000000000000000e+02,1.244362284008694974e+00,0.000000000000000000e+00
2.510000000000000000e+02,2.070461572215613444e+00,0.000000000000000000e+00
2.520000000000000000e+02,1.623027206181026250e+00,0.000000000000000000e+00
2.530000000000000000e+02,2.898486732280281863e+00,0.000000000000000000e+00
2.540000000000000000e+02,3.974087804632247423e+00,0.000000000000000000e+00
2.550000000000000000e+02,2.348442719515902333e+00,0.000000000000000000e+00
2.560000000000000000e+02,-1.175964083980813202e+00,0.000000000000000000e+00
2.570000000000000000e+02,-2.124151411385926114e+00,1.000000000000000000e+00
2.580000000000000000e+02,-2.187461156135628748e+00,0.000000000000000000e+00
2.590000000000000000e+02,-1.930355654342724270e+00,0.000000000000000000e+00
2.600000000000000000e+02,-1.796942204010230082e+00,0.000000000000000000e+00
2.610000000000000000e+02,-1.567652234553629453e+00,0.000000000000000000e+00
2.620000000000000000e+02,-1.403771453249058165e+00,0.000000000000000000e+00
2.630000000000000000e+02,-1.277719807606526592e+00,0.000000000000000000e+00
2.640000000000000000e+02,-1.078070375308407991e+00,0.000000000000000000e+00
2.650000000000000000e+02,-1.197626164233646984e+00,0.000000000000000000e+00
2.660000000000000000e+02,-8.828625504852575245e-01,0.000000000000000000e+00
2.670000000000000000e+02,-8.507934745292220491e-01,0.000000000000000000e+00
2.680000000000000000e+02,-7.930123327992291138e-01,0.000000000000000000e+00
2.690000000000000000e+02,-6.842622332790125883e-01,0.000000000000000000e+00
2.700000000000000000e+02,-4.336647824507640636e-01,0.000000000000000000e+00
2.710000000000000000e+02,-6.378570443218898323e-01,0.000000000000000000e+00
2.720000000000000000e+02,2.967256686722796744e-01,0.000000000000000000e+00
2.730000000000000000e+02,4.807158271945142780e-01,0.000000000000000000e+00
2.740000000000000000e+02,3.509545563238425925e-01,0.000000000000000000e+00
2.750000000000000000e+02,4.610274912128381475e-01,0.000000000000000000e+00
2.760000000000000000e+02,2.851021720366944123e-01,0.000000000000000000e+00
2.770000000000000000e+02,3.012977140919255725e-01,0.000000000000000000e+00
2.780000000000000000e+02,2.805218331173012780e-01,0.000000000000000000e+00
2.790000000000000000e+02,2.226740352590020622e-01,0.000000000000000000e+00
2.800000000000000000e+02,1.585520506129280416e-01,0.000000000000000000e+00
2.810000000000000000e+02,4.405081619181903663e-01,0.000000000000000000e+00
2.820000000000000000e+02,2.071107348850262375e-01,0.000000000000000000e+00
2.830000000000000000e+02,1.354990304131945544e-01,0.000000000000000000e+00
2.840000000000000000e+02,2.255026066758811232e-01,0.000000000000000000e+00
2.850000000000000000e+02,2.540576208789627199e-01,0.000000000000000000e+00
2.860000000000000000e+02,1.721430612676909389e-01,0.000000000000000000e+00
2.870000000000000000e+02,1.441634703376368232e-01,0.000000000000000000e+00
2.880000000000000000e+02,7.527558264048163361e-02,0.000000000000000000e+00
2.890000000000000000e+02,1.289308955333204332e-01,0.000000000000000000e+00
2.900000000000000000e+02,1.808119796369827559e-01,0.000000000000000000e+00
2.910000000000000000e+02,-9.732698639943730690e-02,0.000000000000000000e+00
2.920000000000000000e+02,4.862887690681136355e-01,0.000000000000000000e+00
2.930000000000000000e+02,1.077900943763431402e-01,0.000000000000000000e+00
2.940000000000000000e+02,3.872627880103796105e-02,0.000000000000000000e+00
2.950000000000000000e+02,4.243237772234433880e-01,0.000000000000000000e+00
2.960000000000000000e+02,1.476757304210204458e-01,0.000000000000000000e+00
2.970000000000000000e+02,3.573918979939919027e-01,0.000000000000000000e+00
2.980000000000000000e+02,1.281488758037846176e-01,0.000000000000000000e+00
2.990000000000000000e+02,2.371831965701999001e-01,0.000000000000000000e+00
3.000000000000000000e+02,6.715867054874333220e-02,0.000000000000000000e+00
3.010000000000000000e+02,1.287813470854091702e-01,0.000000000000000000e+00
3.020000000000000000e+02,1.975419554849155157e-01,0.000000000000000000e+00
3.030000000000000000e+02,-9.055319495663140261e-02,0.000000000000000000e+00
3.040000000000000000e+02,4.444455967527810580e-02,0.000000000000000000e+00
3.050000000000000000e+02,6.587953832022330758e-02,0.000000000000000000e+00
3.060000000000000000e+02,1.251395641002757408e-01,0.000000000000000000e+00
3.070000000000000000e+02,8.275806347493683268e-02,0.000000000000000000e+00
3.080000000000000000e+02,1.893270128299282262e-01,0.000000000000000000e+00
3.090000000000000000e+02,2.368794717524401183e-01,0.000000000000000000e+00
3.100000000000000000e+02,1.381275167176743146e+00,0.000000000000000000e+00
3.110000000000000000e+02,1.530721672633561958e+00,0.000000000000000000e+00
3.120000000000000000e+02,2.226851320404468648e+00,0.000000000000000000e+00
3.130000000000000000e+02,3.150363272510011470e+00,0.000000000000000000e+00
3.140000000000000000e+02,3.935956476197841170e+00,0.000000000000000000e+00
3.150000000000000000e+02,1.548023447363062965e+00,0.000000000000000000e+00
3.160000000000000000e+02,-1.507666198214471898e+00,1.000000000000000000e+00
3.170000000000000000e+02,-1.960877166638552493e+00,0.000000000000000000e+00
3.180000000000000000e+02,-2.369953079438658072e+00,0.000000000000000000e+00
3.190000000000000000e+02,-1.996308278963533134e+00,0.000000000000000000e+00
3.200000000000000000e+02,-1.795113795482073726e+00,0.000000000000000000e+00
3.210000000000000000e+02,-1.525265096843181567e+00,0.000000000000000000e+00
3.220000000000000000e+02,-1.503320229862481261e+00,0.000000000000000000e+00
3.230000000000000000e+02,-1.250254942600649288e+00,0.000000000000000000e+00
3.240000000000000000e+02,-1.226820295845312048e+00,0.000000000000000000e+00
3.250000000000000000e+02,-1.082232202516784758e+00,0.000000000000000000e+00
3.260000000000000000e+02,-9.909289878521618800e-01,0.000000000000000000e+00
3.270000000000000000e+02,-8.233641391285316802e-01,0.000000000000000000e+00
3.280000000000000000e+02,-8.427812997538782769e-01,0.000000000000000000e+00
3.290000000000000000e+02,-6.453653834829343738e-01,0.000000000000000000e+00
3.300000000000000000e+02,-7.026255609948376391e-01,0.000000000000000000e+00
3.310000000000000000e+02,-1.158808363393320495e-01,0.000000000000000000e+00
3.320000000000000000e+02,-8.742127282032437219e-02,0.000000000000000000e+00
3.330000000000000000e+02,4.312562294318220690e-01,0.000000000000000000e+00
3.340000000000000000e+02,3.189613619180491355e-01,0.000000000000000000e+00
3.350000000000000000e+02,2.843597172648553162e-01,0.000000000000000000e+00
3.360000000000000000e+02,1.077141511870387258e-01,0.000000000000000000e+00
3.370000000000000000e+02,3.262676845006541870e-01,0.000000000000000000e+00
3.380000000000000000e+02,-9.127197929534179577e-02,0.000000000000000000e+00
3.390000000000000000e+02,4.001745493782685736e-01,0.000000000000000000e+00
3.400000000000000000e+02,-5.115159474733448064e-02,0.000000000000000000e+00
3.410000000000000000e+02,1.493350044282046041e-01,0.000000000000000000e+00
3.420000000000000000e+02,1.558070696535438504e-01,0.000000000000000000e+00
3.430000000000000000e+02,2.221779504033190578e-01,0.000000000000000000e+00
3.440000000000000000e+02,7.485444245496515603e-02,0.000000000000000000e+00
3.450000000000000000e+02,1.274955405119920782e-01,0.000000000000000000e+00
3.460000000000000000e+02,2.835052111930353586e-02,0.000000000000000000e+00
3.470000000000000000e+02,1.707160258807621511e-01,0.000000000000000000e+00
3.480000000000000000e+02,4.157757801061021108e-02,0.000000000000000000e+00
3.490000000000000000e+02,1.932159261273856954e-01,0.000000000000000000e+00
3.500000000000000000e+02,2.000184619250117146e-01,0.000000000000000000e+00
3.510000000000000000e+02,1.155729503520399465e-01,0.000000000000000000e+00
3.520000000000000000e+02,2.651465566990851563e-01,0.000000000000000000e+00
3.530000000000000000e+02,2.072223784087847132e-01,0.000000000000000000e+00
3.540000000000000000e+02,1.039787642389936595e-01,0.000000000000000000e+00
3.550000000000000000e+02,3.791418693128288386e-01,0.000000000000000000e+00
3.560000000000000000e+02,2.942932452081016836e-01,0.000000000000000000e+00
3.570000000000000000e+02,3.433043822554575630e-01,0.000000000000000000e+00
3.580000000000000000e+02,1.566778377004740819e-01,0.000000000000000000e+00
3.590000000000000000e+02,3.326720096433639640e-01,0.000000000000000000e+00
3.600000000000000000e+02,1.354909508502150917e-01,0.000000000000000000e+00
3.610000000000000000e+02,1.625820153121112777e-01,0.000000000000000000e+00
3.620000000000000000e+02,2.224585050881622006e-01,0.000000000000000000e+00
3.630000000000000000e+02,3.123469250107698339e-02,0.000000000000000000e+00
3.640000000000000000e+02,9.773424776723858842e-02,0.000000000000000000e+00
3.650000000000000000e+02,4.720824149111769313e-02,0.000000000000000000e+00
3.660000000000000000e+02,2.450128150307052666e-01,0.000000000000000000e+00
3.670000000000000000e+02,1.502137069038410877e-01,0.000000000000000000e+00
3.680000000000000000e+02,1.696575522659252155e-01,0.000000000000000000e+00
3.690000000000000000e+02,2.127315750757072244e-01,0.000000000000000000e+00
3.700000000000000000e+02,1.221436652793279176e+00,0.000000000000000000e+00
3.710000000000000000e+02,1.214045704174444129e+00,0.000000000000000000e+00
3.720000000000000000e+02,1.422827832631779366e+00,0.000000000000000000e+00
3.730000000000000000e+02,2.807194211031358133e+00,0.000000000000000000e+00
3.740000000000000000e+02,3.749719035728607430e+00,0.000000000000000000e+00
3.750000000000000000e+02,1.222873881425300180e+00,0.000000000000000000e+00
3.760000000000000000e+02,-8.979286144444010853e-01,1.000000000000000000e+00
3.770000000000000000e+02,-1.767411302559018349e+00,0.000000000000000000e+00
3.780000000000000000e+02,-1.637566978223793601e+00,0.000000000000000000e+00
3.790000000000000000e+02,-1.490799490510491099e+00,0.000000000000000000e+00
3.800000000000000000e+02,-1.683524620002175176e+00,0.000000000000000000e+00
3.810000000000000000e+02,-1.091319963027182594e+00,0.000000000000000000e+00
3.820000000000000000e+02,-1.163732461703679277e+00,0.000000000000000000e+00
3.830000000000000000e+02,-1.089617902144855099e+00,0.000000000000000000e+00
3.840000000000000000e+02,-9.971329936376296388e-01,0.000000000000000000e+00
3.850000000000000000e+02,-9.008118357135311838e-01,0.000000000000000000e+00
3.860000000000000000e+02,-7.382679497552093739e-01,0.000000000000000000e+00
3.870000000000000000e+02,-6.762459635824917825e-01,0.000000000000000000e+00
3.880000000000000000e+02,-7.801671901541772369e-01,0.000000000000000000e+00
3.890000000000000000e+02,-5.503788129360218662e-01,0.000000000000000000e+00
3.900000000000000000e+02,-5.318898718268333381e-01,0.000000000000000000e+00
3.910000000000000000e+02,-3.184981705255260365e-01,0.000000000000000000e+00
3.920000000000000000e+02,2.562193993067179987e-01,0.000000000000000000e+00
3.930000000000000000e+02,1.499081913832004398e-01,0.000000000000000000e+00
3.940000000000000000e+02,3.235953463603878921e-01,0.000000000000000000e+00
3.950000000000000000e+02,1.515679489032543403e-01,0.000000000000000000e+00
3.960000000000000000e+02,5.106471994607283266e-02,0.000000000000000000e+00
3.970000000000000000e+02,2.641959105752528930e-02,0.000000000000000000e+00
3.980000000000000000e+02,-2.613468577783622723e-02,0.000000000000000000e+00
3.990000000000000000e+02,1.088494256349107070e-01,0.000000000000000000e+00
4.000000000000000000e+02,1.251984508472782087e-01,0.000000000000000000e+00
4.010000000000000000e+02,3.909633558989901447e-02,0.000000000000000000e+00
4.020000000000000000e+02,6.656805281766849103e-02,0.000000000000000000e+00
4.030000000000000000e+02,1.235965278700712350e-01,0.000000000000000000e+00
4.040000000000000000e+02,2.193400561597350917e-01,0.000000000000000000e+00
4.050000000000000000e+02,-9.234897279021192507e-02,0.000000000000000000e+00
4.060000000000000000e+02,-4.881472208339552449e-02,0.000000000000000000e+00
4.070000000000000000e+02,1.255620000865609598e-01,0.000000000000000000e+00
4.080000000000000000e+02,-1.247201071016860868e-01,0.000000000000000000e+00
4.090000000000000000e+02,1.907063781243099609e-01,0.000000000000000000e+00
4.100000000000000000e+02,-1.366824720211666788e-01,0.000000000000000000e+00
4.110000000000000000e+02,8.622691902210752324e-02,0.000000000000000000e+00
4.120000000000000000e+02,1.962897600650497301e-02,0.000000000000000000e+00
4.130000000000000000e+02,8.378094220608041376e-02,0.000000000000000000e+00
4.140000000000000000e+02,5.692904369023633893e-02,0.000000000000000000e+00
4.150000000000000000e+02,1.732808506619903099e-01,0.000000000000000000e+00
4.160000000000000000e+02,1.300731311371448595e-01,0.000000000000000000e+00
4.170000000000000000e+02,2.401712443823414700e-01,0.000000000000000000e+00
4.180000000000000000e+02,2.495834592024978940e-02,0.000000000000000000e+00
4.190000000000000000e+02,-1.062055640828695087e-02,0.000000000000000000e+00
4.200000000000000000e+02,2.223380940363093028e-01,0.000000000000000000e+00
4.210000000000000000e+02,9.879233758021765954e-02,0.000000000000000000e+00
4.220000000000000000e+02,-5.837048069952071455e-02,0.000000000000000000e+00
4.230000000000000000e+02,-1.601432602671817862e-01,0.000000000000000000e+00
4.240000000000000000e+02,5.641253309238281055e-02,0.000000000000000000e+00
4.250000000000000000e+02,4.785861474270572402e-02,0.000000000000000000e+00
4.260000000000000000e+02,-5.072327983817201402e-02,0.000000000000000000e+00
4.270000000000000000e+02,1.566205997414336637e-01,0.000000000000000000e+00
4.280000000000000000e+02,1.720128956217575056e-01,0.000000000000000000e+00
4.290000000000000000e+02,5.835102268876565246e-01,0.000000000000000000e+00
4.300000000000000000e+02,1.458262942419026986e+00,0.000000000000000000e+00
4.310000000000000000e+02,1.615378169752512916e+00,0.000000000000000000e+00
4.320000000000000000e+02,2.399356165521569828e+00,0.000000000000000000e+00
4.330000000000000000e+02,3.521848305054065431e+00,0.000000000000000000e+00
4.340000000000000000e+02,3.719815996819818782e+00,0.000000000000000000e+00
4.350000000000000000e+02,5.673319759701702658e-01,0.000000000000000000e+00
4.360000000000000000e+02,-1.784850039842087233e+00,1.000000000000000000e+00
4.370000000000000000e+02,-2.171456683532936527e+00,0.000000000000000000e+00
4.380000000000000000e+02,-2.156508682438467162e+00,0.000000000000000000e+00
4.390000000000000000e+02,-1.984694567019793077e+00,0.000000000000000000e+00
4.400000000000000000e+02,-1.456690198458107988e+00,0.000000000000000000e+00
4.410000000000000000e+02,-1.615789961678262943e+00,0.000000000000000000e+00
4.420000000000000000e+02,-1.633870032700659003e+00,0.000000000000000000e+00
4.430000000000000000e+02,-1.196770731203171678e+00,0.000000000000000000e+00
4.440000000000000000e+02,-1.188417339578740295e+00,0.000000000000000000e+00
4.450000000000000000e+02,-9.005302960682459723e-01,0.000000000000000000e+00
4.460000000000000000e+02,-8.343254521195879736e-01,0.000000000000000000e+00
4.470000000000000000e+02,-9.104371104143892390e-01,0.000000000000000000e+00
4.480000000000000000e+02,-6.410299684255995611e-01,0.000000000000000000e+00
4.490000000000000000e+02,-7.091660342669070527e-01,0.000000000000000000e+00
4.500000000000000000e+02,-6.499269714860427261e-01,0.000000000000000000e+00
4.510000000000000000e+02,3.820977982183477312e-02,0.000000000000000000e+00
4.520000000000000000e+02,6.493400992453077225e-02,0.000000000000000000e+00
4.530000000000000000e+02,4.390395847513941519e-01,0.000000000000000000e+00
4.540000000000000000e+02,5.510873789521341104e-01,0.000000000000000000e+00
4.550000000000000000e+02,2.347184611551511313e-01,0.000000000000000000e+00
4.560000000000000000e+02,3.083909025134821680e-01,0.000000000000000000e+00
4.570000000000000000e+02,2.178605261986798491e-01,0.000000000000000000e+00
4.580000000000000000e+02,1.872298473035378108e-01,0.000000000000000000e+00
4.590000000000000000e+02,3.253313991603983268e-01,0.000000000000000000e+00
4.600000000000000000e+02,1.875327026679602660e-01,0.000000000000000000e+00
4.610000000000000000e+02,2.078219392442887670e-01,0.000000000000000000e+00
4.620000000000000000e+02,2.555977742175606915e-01,0.000000000000000000e+00
4.630000000000000000e+02,4.310230787649130813e-01,0.000000000000000000e+00
4.640000000000000000e+02,1.372708028911645284e-01,0.000000000000000000e+00
4.650000000000000000e+02,1.733852294548836048e-01,0.000000000000000000e+00
4.660000000000000000e+02,1.750246342345024297e-02,0.000000000000000000e+00
4.670000000000000000e+02,2.628831901012122496e-01,0.000000000000000000e+00
4.680000000000000000e+02,1.102617042982085988e-01,0.000000000000000000e+00
4.690000000000000000e+02,-2.659657945878335025e-03,0.000000000000000000e+00
4.700000000000000000e+02,1.204295338039485241e-01,0.000000000000000000e+00
4.710000000000000000e+02,2.121065793225561935e-01,0.000000000000000000e+00
4.720000000000000000e+02,2.129439882327286704e-01,0.000000000000000000e+00
4.730000000000000000e+02,3.099859653995776232e-01,0.000000000000000000e+00
4.740000000000000000e+02,1.745106417909579322e-01,0.000000000000000000e+00
4.750000000000000000e+02,2.540266929407115071e-01,0.000000000000000000e+00
4.760000000000000000e+02,3.177713163463647406e-01,0.000000000000000000e+00
4.770000000000000000e+02,3.134462239114418347e-01,0.000000000000000000e+00
4.780000000000000000e+02,2.123478702881671232e-01,0.000000000000000000e+00
4.790000000000000000e+02,2.681131543839512243e-01,0.000000000000000000e+00
4.800000000000000000e+02,8.845864505310735426e-02,0.000000000000000000e+00
4.810000000000000000e+02,3.603332294651866857e-02,0.000000000000000000e+00
4.820000000000000000e+02,2.929083161831873006e-01,0.000000000000000000e+00
4.830000000000000000e+02,3.013352345906061824e-01,0.000000000000000000e+00
4.840000000000000000e+02,-3.586941600601616376e-01,0.000000000000000000e+00
4.850000000000000000e+02,2.269952487671927366e-01,0.000000000000000000e+00
4.860000000000000000e+02,3.327100142044451814e-01,0.000000000000000000e+00
4.870000000000000000e+02,2.753294277809060775e-01,0.000000000000000000e+00
4.880000000000000000e+02,-1.082405785823390698e-01,0.000000000000000000e+00
4.890000000000000000e+02,8.460403570649441818e-01,0.000000000000000000e+00
4.900000000000000000e+02,1.623533059198477346e+00,0.000000000000000000e+00
4.910000000000000000e+02,1.721318571172376632e+00,0.000000000000000000e+00
4.920000000000000000e+02,2.635729810887429636e+00,0.000000000000000000e+00
4.930000000000000000e+02,3.630099402620524884e+00,0.000000000000000000e+00
4.940000000000000000e+02,3.284940578385518339e+00,0.000000000000000000e+00
4.950000000000000000e+02,-2.631716270763569954e-01,0.000000000000000000e+00
4.960000000000000000e+02,-1.867932550728041319e+00,1.000000000000000000e+00
4.970000000000000000e+02,-2.206429297838495618e+00,0.000000000000000000e+00
4.980000000000000000e+02,-2.010911110361993437e+00,0.000000000000000000e+00
4.990000000000000000e+02,-1.889815861720662404e+00,0.000000000000000000e+00
5.000000000000000000e+02,-1.697083357478647025e+00,0.000000000000000000e+00
5.010000000000000000e+02,-1.642368585005594683e+00,0.000000000000000000e+00
5.020000000000000000e+02,-1.468560222185394171e+00,0.000000000000000000e+00
5.030000000000000000e+02,-1.276694978661779833e+00,0.000000000000000000e+00
5.040000000000000000e+02,-1.051051545148219635e+00,0.000000000000000000e+00
5.050000000000000000e+02,-1.081937121496899579e+00,0.000000000000000000e+00
5.060000000000000000e+02,-8.985862307228765777e-01,0.000000000000000000e+00
5.070000000000000000e+02,-9.482358053905416417e-01,0.000000000000000000e+00
5.080000000000000000e+02,-9.132156950926826333e-01,0.000000000000000000e+00
5.090000000000000000e+02,-5.658109068508943018e-01,0.000000000000000000e+00
5.100000000000000000e+02,-4.232080279108456633e-01,0.000000000000000000e+00
5.110000000000000000e+02,-1.412419654658450541e-01,0.000000000000000000e+00
5.120000000000000000e+02,2.035666798202276084e-01,0.000000000000000000e+00
5.130000000000000000e+02,3.584149229022017824e-01,0.000000000000000000e+00
5.140000000000000000e+02,1.631037179624998112e-01,0.000000000000000000e+00
5.150000000000000000e+02,3.335527664140733317e-01,0.000000000000000000e+00
5.160000000000000000e+02,5.297073746879822978e-03,0.000000000000000000e+00
5.170000000000000000e+02,2.159766395312648635e-01,0.000000000000000000e+00
5.180000000000000000e+02,4.953506608574632236e-02,0.000000000000000000e+00
5.190000000000000000e+02,1.985980246713180131e-01,0.000000000000000000e+00
5.200000000000000000e+02,7.079202103534350254e-02,0.000000000000000000e+00
5.210000000000000000e+02,3.046761038446899050e-01,0.000000000000000000e+00
5.220000000000000000e+02,1.966108967204440172e-01,0.000000000000000000e+00
5.230000000000000000e+02,3.304724652020508274e-02,0.000000000000000000e+00
5.240000000000000000e+02,3.554393409366821827e-02,0.000000000000000000e+00
5.250000000000000000e+02,2.763871876903156166e-01,0.000000000000000000e+00
5.260000000000000000e+02,-3.622522183269530349e-02,0.000000000000000000e+00
5.270000000000000000e+02,2.886556400072856285e-02,0.000000000000000000e+00
5.280000000000000000e+02,1.981083641986128852e-01,0.000000000000000000e+00
5.290000000000000000e+02,3.461838674241538710e-02,0.000000000000000000e+00
5.300000000000000000e+02,2.721033845905840298e-01,0.000000000000000000e+00
5.310000000000000000e+02,2.080671136880907768e-01,0.000000000000000000e+00
5.320000000000000000e+02,1.249773221874998924e-01,0.000000000000000000e+00
5.330000000000000000e+02,2.763397956771943553e-01,0.000000000000000000e+00
5.340000000000000000e+02,3.497789096682495380e-01,0.000000000000000000e+00
5.350000000000000000e+02,1.590106607883330636e-01,0.000000000000000000e+00
5.360000000000000000e+02,4.213537380615094974e-01,0.000000000000000000e+00
5.370000000000000000e+02,1.903518244342527754e-01,0.000000000000000000e+00
5.380000000000000000e+02,2.291094177121126008e-01,0.000000000000000000e+00
5.390000000000000000e+02,2.238660027644270578e-01,0.000000000000000000e+00
5.400000000000000000e+02,3.574095670035054573e-01,0.000000000000000000e+00
5.410000000000000000e+02,9.857029136673876868e-02,0.000000000000000000e+00
5.420000000000000000e+02,2.674466014030289496e-01,0.000000000000000000e+00
5.430000000000000000e+02,-9.195603770358025397e-02,0.000000000000000000e+00
5.440000000000000000e+02,1.557878237728325399e-01,0.000000000000000000e+00
5.450000000000000000e+02,1.457842986896978887e-01,0.000000000000000000e+00
5.460000000000000000e+02,1.396364960358510154e-01,0.000000000000000000e+00
5.470000000000000000e+02,4.573083588767291596e-01,0.000000000000000000e+00
5.480000000000000000e+02,5.750381146046900510e-02,0.000000000000000000e+00
5.490000000000000000e+02,3.824073519029523305e-01,0.000000000000000000e+00
5.500000000000000000e+02,1.563923909882356744e+00,0.000000000000000000e+00
5.510000000000000000e+02,1.377711468341537904e+00,0.000000000000000000e+00
5.520000000000000000e+02,1.831012476623899321e+00,0.000000000000000000e+00
5.530000000000000000e+02,3.255698548582417029e+00,0.000000000000000000e+00
5.540000000000000000e+02,3.296179978014845968e+00,0.000000000000000000e+00
5.550000000000000000e+02,4.483176894558458803e-01,0.000000000000000000e+00
5.560000000000000000e+02,-1.791739418904074510e+00,1.000000000000000000e+00
5.570000000000000000e+02,-1.825978934346591531e+00,0.000000000000000000e+00
5.580000000000000000e+02,-1.414174912418907137e+00,0.000000000000000000e+00
5.590000000000000000e+02,-1.347617221709032753e+00,0.000000000000000000e+00
5.600000000000000000e+02,-1.911625456223891462e+00,0.000000000000000000e+00
5.610000000000000000e+02,-1.003337519696241298e+00,0.000000000000000000e+00
5.620000000000000000e+02,-1.228990539196597176e+00,0.000000000000000000e+00
5.630000000000000000e+02,-1.274300157961141489e+00,0.000000000000000000e+00
5.640000000000000000e+02,-8.816960598266049276e-01,0.000000000000000000e+00
5.650000000000000000e+02,-7.204347630898941812e-01,0.000000000000000000e+00
5.660000000000000000e+02,-1.026108406110929128e+00,0.000000000000000000e+00
5.670000000000000000e+02,-6.280183977592689315e-01,0.000000000000000000e+00
5.680000000000000000e+02,-7.903240753778632000e-01,0.000000000000000000e+00
5.690000000000000000e+02,-7.331114212896496785e-01,0.000000000000000000e+00
5.700000000000000000e+02,-2.764281044236953089e-01,0.000000000000000000e+00
5.710000000000000000e+02,1.837596344085903541e-02,0.000000000000000000e+00
5.720000000000000000e+02,-5.459740577063660130e-04,0.000000000000000000e+00
5.730000000000000000e+02,3.777646450925889465e-01,0.000000000000000000e+00
5.740000000000000000e+02,2.805101320618729743e-01,0.000000000000000000e+00
5.750000000000000000e+02,9.015693665556831840e-03,0.000000000000000000e+00
5.760000000000000000e+02,4.112052033978884358e-02,0.000000000000000000e+00
5.770000000000000000e+02,2.594912416397531785e-01,0.000000000000000000e+00
5.780000000000000000e+02,-3.747029135909790698e-02,0.000000000000000000e+00
5.790000000000000000e+02,-4.784627850858084314e-02,0.000000000000000000e+00
5.800000000000000000e+02,9.774055750781927843e-02,0.000000000000000000e+00
5.810000000000000000e+02,1.921146261098464758e-01,0.000000000000000000e+00
5.820000000000000000e+02,-7.078627212057356233e-02,0.000000000000000000e+00
5.830000000000000000e+02,1.865648677176328096e-01,0.000000000000000000e+00
5.840000000000000000e+02,1.306556072908397204e-01,0.000000000000000000e+00
5.850000000000000000e+02,1.927412253454582197e-02,0.000000000000000000e+00
5.860000000000000000e+02,1.850360698056911501e-01,0.000000000000000000e+00
5.870000000000000000e+02,-2.020990947130943405e-01,0.000000000000000000e+00
5.880000000000000000e+02,2.178151279252488748e-01,0.000000000000000000e+00
5.890000000000000000e+02,6.254481866125438660e-02,0.000000000000000000e+00
5.900000000000000000e+02,-8.580641634446223298e-02,0.000000000000000000e+00
5.910000000000000000e+02,2.552928921541177676e-01,0.000000000000000000e+00
5.920000000000000000e+02,-9.598773722319603463e-02,0.000000000000000000e+00
5.930000000000000000e+02,1.936025651268151460e-01,0.000000000000000000e+00
5.940000000000000000e+02,4.980583416865832364e-02,0.000000000000000000e+00
5.950000000000000000e+02,5.820393671694019944e-02,0.000000000000000000e+00
5.960000000000000000e+02,4.470692528006000033e-01,0.000000000000000000e+00
5.970000000000000000e+02,-1.414017589195353808e-01,0.000000000000000000e+00
5.980000000000000000e+02,7.246032407932613550e-02,0.000000000000000000e+00
5.990000000000000000e+02,1.793704627555583464e-01,0.000000000000000000e+00
6.000000000000000000e+02,-2.866323305188551562e-03,0.000000000000000000e+00
6.010000000000000000e+02,1.092095751942105814e-01,0.000000000000000000e+00
6.020000000000000000e+02,-1.556790186288638245e-01,0.000000000000000000e+00
6.030000000000000000e+02,-5.968601298794758148e-02,0.000000000000000000e+00
6.040000000000000000e+02,1.846979277344681092e-01,0.000000000000000000e+00
6.050000000000000000e+02,-1.549657234229318004e-01,0.000000000000000000e+00
6.060000000000000000e+02,-6.056441770201639527e-03,0.000000000000000000e+00
6.070000000000000000e+02,2.981146560816199664e-01,0.000000000000000000e+00
6.080000000000000000e+02,2.300761047273216231e-01,0.000000000000000000e+00
6.090000000000000000e+02,7.158029559877476800e-01,0.000000000000000000e+00
6.100000000000000000e+02,1.616493431729627117e+00,0.000000000000000000e+00
6.110000000000000000e+02,1.900025635727674800e+00,0.000000000000000000e+00
6.120000000000000000e+02,2.570573223675061136e+00,0.000000000000000000e+00
6.130000000000000000e+02,3.790934156410253220e+00,0.000000000000000000e+00
6.140000000000000000e+02,2.534027386472164967e+00,0.000000000000000000e+00
6.150000000000000000e+02,-5.044816593424142903e-01,0.000000000000000000e+00
6.160000000000000000e+02,-1.963698297963810013e+00,1.000000000000000000e+00
6.170000000000000000e+02,-2.132359231773846453e+00,0.000000000000000000e+00
6.180000000000000000e+02,-2.250092203937681834e+00,0.000000000000000000e+00
6.190000000000000000e+02,-1.527527145755054772e+00,0.000000000000000000e+00
6.200000000000000000e+02,-1.859096740101956247e+00,0.000000000000000000e+00
6.210000000000000000e+02,-1.302269167099504132e+00,0.000000000000000000e+00
6.220000000000000000e+02,-1.200699853409525897e+00,0.000000000000000000e+00
6.230000000000000000e+02,-1.511308461988227325e+00,0.000000000000000000e+00
6.240000000000000000e+02,-1.015898213263765948e+00,0.000000000000000000e+00
6.250000000000000000e+02,-7.346269904063270628e-01,0.000000000000000000e+00
6.260000000000000000e+02,-1.130366944116887318e+00,0.000000000000000000e+00
6.270000000000000000e+02,-6.610919443553638919e-01,0.000000000000000000e+00
6.280000000000000000e+02,-6.075808182150682635e-01,0.000000000000000000e+00
6.290000000000000000e+02,-9.036606832436565595e-01,0.000000000000000000e+00
6.300000000000000000e+02,-2.513270294277484829e-01,0.000000000000000000e+00
6.310000000000000000e+02,1.039374221695699152e-01,0.000000000000000000e+00
6.320000000000000000e+02,2.900260073803068162e-01,0.000000000000000000e+00
6.330000000000000000e+02,4.031419742336794232e-01,0.000000000000000000e+00
6.340000000000000000e+02,4.413415952014212440e-01,0.000000000000000000e+00
6.350000000000000000e+02,3.786323807281506415e-01,0.000000000000000000e+00
6.360000000000000000e+02,1.290957141135250057e-02,0.000000000000000000e+00
6.370000000000000000e+02,3.138926858762764449e-01,0.000000000000000000e+00
6.380000000000000000e+02,4.380558409186101620e-01,0.000000000000000000e+00
6.390000000000000000e+02,3.298904554138156198e-01,0.000000000000000000e+00
6.400000000000000000e+02,-1.448983583816001730e-01,0.000000000000000000e+00
6.410000000000000000e+02,4.168008814895847181e-01,0.000000000000000000e+00
6.420000000000000000e+02,1.012249347791134152e-01,0.000000000000000000e+00
6.430000000000000000e+02,5.750230251203753973e-01,0.000000000000000000e+00
6.440000000000000000e+02,-9.694426120753066312e-02,0.000000000000000000e+00
6.450000000000000000e+02,2.009432152606486222e-01,0.000000000000000000e+00
6.460000000000000000e+02,1.394737981375444510e-02,0.000000000000000000e+00
6.470000000000000000e+02,2.933934452586883790e-01,0.000000000000000000e+00
6.480000000000000000e+02,2.163691603645770400e-01,0.000000000000000000e+00
6.490000000000000000e+02,1.666044664112364959e-01,0.000000000000000000e+00
6.500000000000000000e+02,-9.811000835761626848e-03,0.000000000000000000e+00
6.510000000000000000e+02,2.904595713413065106e-01,0.000000000000000000e+00
6.520000000000000000e+02,1.540938211042111317e-01,0.000000000000000000e+00
6.530000000000000000e+02,1.716135420741139450e-01,0.000000000000000000e+00
6.540000000000000000e+02,4.994636858008873470e-01,0.000000000000000000e+00
6.550000000000000000e+02,3.216533560171292438e-01,0.000000000000000000e+00
6.560000000000000000e+02,2.134652111519973749e-01,0.000000000000000000e+00
6.570000000000000000e+02,2.714963236765530197e-01,0.000000000000000000e+00
6.580000000000000000e+02,2.404546643250241311e-01,0.000000000000000000e+00
6.590000000000000000e+02,1.667677093350465045e-01,0.000000000000000000e+00
6.600000000000000000e+02,2.110399847322076972e-01,0.000000000000000000e+00
6.610000000000000000e+02,1.187892573013818870e-01,0.000000000000000000e+00
6.620000000000000000e+02,6.602800215415714769e-02,0.000000000000000000e+00
6.630000000000000000e+02,2.093725770004297437e-01,0.000000000000000000e+00
6.640000000000000000e+02,-1.120050800594018514e-01,0.000000000000000000e+00
6.650000000000000000e+02,3.089818114488465106e-01,0.000000000000000000e+00
6.660000000000000000e+02,-1.067117797385266770e-01,0.000000000000000000e+00
6.670000000000000000e+02,3.983003972139193549e-01,0.000000000000000000e+00
6.680000000000000000e+02,1.586781927771596101e-01,0.000000000000000000e+00
6.690000000000000000e+02,1.328007035828952187e+00,0.000000000000000000e+00
6.700000000000000000e+02,1.659462130661630397e+00,0.000000000000000000e+00
6.710000000000000000e+02,2.021333515542335757e+00,0.000000000000000000e+00
6.720000000000000000e+02,2.963247261200768090e+00,0.000000000000000000e+00
6.730000000000000000e+02,4.157216791924657429e+00,0.000000000000000000e+00
6.740000000000000000e+02,1.963175948378503843e+00,0.000000000000000000e+00
6.750000000000000000e+02,-1.058605829885472804e+00,0.000000000000000000e+00
6.760000000000000000e+02,-2.242563039749210674e+00,1.000000000000000000e+00
6.770000000000000000e+02,-2.224452234491533176e+00,0.000000000000000000e+00
6.780000000000000000e+02,-1.892211883026619912e+00,0.000000000000000000e+00
6.790000000000000000e+02,-1.909698754705431600e+00,0.000000000000000000e+00
6.800000000000000000e+02,-1.734915255068309348e+00,0.000000000000000000e+00
6.810000000000000000e+02,-1.270124165720887266e+00,0.000000000000000000e+00
6.820000000000000000e+02,-1.361091454395852551e+00,0.000000000000000000e+00
6.830000000000000000e+02,-1.651878220855712343e+00,0.000000000000000000e+00
6.840000000000000000e+02,-9.293247868855183391e-01,0.000000000000000000e+00
6.850000000000000000e+02,-7.509066892460430909e-01,0.000000000000000000e+00
6.860000000000000000e+02,-1.195306820694754357e+00,0.000000000000000000e+00
6.870000000000000000e+02,-7.654135101608119385e-01,0.000000000000000000e+00
6.880000000000000000e+02,-7.709744300355890756e-01,0.000000000000000000e+00
6.890000000000000000e+02,-8.055559991075783577e-01,0.000000000000000000e+00
6.900000000000000000e+02,-1.725857851923374431e-01,0.000000000000000000e+00
6.910000000000000000e+02,-7.283534642618171018e-02,0.000000000000000000e+00
6.920000000000000000e+02,3.649589831089533609e-01,0.000000000000000000e+00
6.930000000000000000e+02,3.015498619903682065e-01,0.000000000000000000e+00
6.940000000000000000e+02,2.813731215337576530e-01,0.000000000000000000e+00
6.950000000000000000e+02,2.353176001278725615e-01,0.000000000000000000e+00
6.960000000000000000e+02,1.234019651684344077e-01,0.000000000000000000e+00
6.970000000000000000e+02,2.357442157202139510e-01,0.000000000000000000e+00
6.980000000000000000e+02,3.528083125454359315e-02,0.000000000000000000e+00
6.990000000000000000e+02,3.415475646376663899e-01,0.000000000000000000e+00
7.000000000000000000e+02,-3.432498910115061586e-02,0.000000000000000000e+00
7.010000000000000000e+02,2.549287165365581864e-01,0.000000000000000000e+00
7.020000000000000000e+02,2.569445433111111621e-01,0.000000000000000000e+00
7.030000000000000000e+02,-5.197788879287830455e-02,0.000000000000000000e+00
7.040000000000000000e+02,4.960870006954936073e-01,0.000000000000000000e+00
7.050000000000000000e+02,-1.682370687085336380e-01,0.000000000000000000e+00
7.060000000000000000e+02,4.893932368566683566e-02,0.000000000000000000e+00
7.070000000000000000e+02,7.700235971437255356e-02,0.000000000000000000e+00
7.080000000000000000e+02,1.841369606198241804e-01,0.000000000000000000e+00
7.090000000000000000e+02,1.443618054147383645e-01,0.000000000000000000e+00
7.100000000000000000e+02,1.768139274545658668e-01,0.000000000000000000e+00
7.110000000000000000e+02,1.661365439103463792e-01,0.000000000000000000e+00
7.120000000000000000e+02,1.400963844286166049e-01,0.000000000000000000e+00
7.130000000000000000e+02,2.444532233102535979e-01,0.000000000000000000e+00
7.140000000000000000e+02,2.953700990708330587e-01,0.000000000000000000e+00
7.150000000000000000e+02,4.332075670258279665e-01,0.000000000000000000e+00
7.160000000000000000e+02,-1.806221525139821166e-03,0.000000000000000000e+00
7.170000000000000000e+02,2.310200278014916397e-01,0.000000000000000000e+00
7.180000000000000000e+02,1.302609878062582216e-01,0.000000000000000000e+00
7.190000000000000000e+02,3.006978460147607390e-01,0.000000000000000000e+00
7.200000000000000000e+02,4.247782226375345499e-02,0.000000000000000000e+00
7.210000000000000000e+02,1.778950685167862700e-01,0.000000000000000000e+00
7.220000000000000000e+02,7.849708647498972180e-02,0.000000000000000000e+00
7.230000000000000000e+02,-3.790591722863956899e-03,0.000000000000000000e+00
7.240000000000000000e+02,1.777731569533519684e-01,0.000000000000000000e+00
7.250000000000000000e+02,2.102918588333885508e-01,0.000000000000000000e+00
7.260000000000000000e+02,1.579594872375993109e-01,0.000000000000000000e+00
7.270000000000000000e+02,3.709343905765453697e-01,0.000000000000000000e+00
7.280000000000000000e+02,9.288215760410618860e-02,0.000000000000000000e+00
7.290000000000000000e+02,1.208614614920284991e+00,0.000000000000000000e+00
7.300000000000000000e+02,1.393377479481041625e+00,0.000000000000000000e+00
7.310000000000000000e+02,1.872687753651986808e+00,0.000000000000000000e+00
7.320000000000000000e+02,4.573564767681958187e+00,0.000000000000000000e+00
7.330000000000000000e+02,2.160646387857113382e+00,0.000000000000000000e+00
7.340000000000000000e+02,-1.023938348633511408e+00,0.000000000000000000e+00
7.350000000000000000e+02,-1.317190329670892668e+00,1.000000000000000000e+00
7.360000000000000000e+02,-1.559650587502654950e+00,0.000000000000000000e+00
7.370000000000000000e+02,-1.397771488814772534e+00,0.000000000000000000e+00
7.380000000000000000e+02,-1.384070123947015007e+00,0.000000000000000000e+00
7.390000000000000000e+02,-9.719726352464841401e-01,0.000000000000000000e+00
7.400000000000000000e+02,-1.263470671130183742e+00,0.000000000000000000e+00
7.410000000000000000e+02,-8.920068454731988616e-01,0.000000000000000000e+00
7.420000000000000000e+02,-8.067775914531213344e-01,0.000000000000000000e+00
7.430000000000000000e+02,-8.486406864000183292e-01,0.000000000000000000e+00
7.440000000000000000e+02,-6.727151310341142887e-01,0.000000000000000000e+00
7.450000000000000000e+02,-4.241655269229053782e-01,0.000000000000000000e+00
7.460000000000000000e+02,-7.807485403093810117e-01,0.000000000000000000e+00
7.470000000000000000e+02,-1.820642883412275925e-01,0.000000000000000000e+00
7.480000000000000000e+02,-3.489115387180655725e-01,0.000000000000000000e+00
7.490000000000000000e+02,-2.775085423394491602e-01,0.000000000000000000e+00
7.500000000000000000e+02,2.154432201032654426e-01,0.000000000000000000e+00
7.510000000000000000e+02,2.472974052632544439e-01,0.000000000000000000e+00
7.520000000000000000e+02,-1.022824600799789457e-01,0.000000000000000000e+00
7.530000000000000000e+02,-3.679213782270614186e-02,0.000000000000000000e+00
7.540000000000000000e+02,3.609441562081301402e-01,0.000000000000000000e+00
7.550000000000000000e+02,-3.524762617664467523e-01,0.000000000000000000e+00
7.560000000000000000e+02,-1.800764775696599984e-01,0.000000000000000000e+00
7.570000000000000000e+02,3.045197854148914279e-03,0.000000000000000000e+00
7.580000000000000000e+02,3.773645323716840611e-02,0.000000000000000000e+00
7.590000000000000000e+02,-1.201471230897832587e-01,0.000000000000000000e+00
7.600000000000000000e+02,-1.711145540332615067e-01,0.000000000000000000e+00
7.610000000000000000e+02,4.960939459175208593e-02,0.000000000000000000e+00
7.620000000000000000e+02,-8.173849046211292824e-02,0.000000000000000000e+00
7.630000000000000000e+02,2.718778754161721434e-02,0.000000000000000000e+00
7.640000000000000000e+02,1.055343695443323876e-01,0.000000000000000000e+00
7.650000000000000000e+02,-1.773796234102328617e-01,0.000000000000000000e+00
7.660000000000000000e+02,4.409504487861741484e-02,0.000000000000000000e+00
7.670000000000000000e+02,1.625011709566022977e-01,0.000000000000000000e+00
7.680000000000000000e+02,-1.195819851260040700e-01,0.000000000000000000e+00
7.690000000000000000e+02,2.657991191695752153e-01,0.000000000000000000e+00
7.700000000000000000e+02,-1.998507058121881674e-01,0.000000000000000000e+00
7.710000000000000000e+02,1.539810002278786949e-01,0.000000000000000000e+00
7.720000000000000000e+02,3.142955127198501231e-01,0.000000000000000000e+00
7.730000000000000000e+02,-6.266171390295872945e-03,0.000000000000000000e+00
7.740000000000000000e+02,2.976111214818792997e-03,0.000000000000000000e+00
7.750000000000000000e+02,4.451827727995752992e-01,0.000000000000000000e+00
7.760000000000000000e+02,-6.343835447907775205e-02,0.000000000000000000e+00
7.770000000000000000e+02,5.126754810186730932e-03,0.000000000000000000e+00
7.780000000000000000e+02,1.858803107421804629e-02,0.000000000000000000e+00
7.790000000000000000e+02,3.259975487494518598e-01,0.000000000000000000e+00
7.800000000000000000e+02,-1.630348536898442169e-01,0.000000000000000000e+00
7.810000000000000000e+02,-2.938191758475747206e-01,0.000000000000000000e+00
7.820000000000000000e+02,1.721742054642976805e-01,0.000000000000000000e+00
7.830000000000000000e+02,7.712059362792765549e-02,0.000000000000000000e+00
7.840000000000000000e+02,2.367552557267826874e-02,0.000000000000000000e+00
7.850000000000000000e+02,-8.672115297398745593e-02,0.000000000000000000e+00
7.860000000000000000e+02,2.282058271334958255e-01,0.000000000000000000e+00
7.870000000000000000e+02,-7.406555071269715906e-02,0.000000000000000000e+00
7.880000000000000000e+02,5.211870237397082661e-01,0.000000000000000000e+00
7.890000000000000000e+02,1.271629117245972829e+00,0.000000000000000000e+00
7.900000000000000000e+02,1.487416308838367618e+00,0.000000000000000000e+00
7.910000000000000000e+02,3.234102157492499963e+00,0.000000000000000000e+00
7.920000000000000000e+02,4.351668115065651321e+00,0.000000000000000000e+00
7.930000000000000000e+02,1.013158043779032846e+00,1.000000000000000000e+00
7.940000000000000000e+02,-1.563202054159171794e+00,0.000000000000000000e+00
7.950000000000000000e+02,-1.583959176677326441e+00,0.000000000000000000e+00
7.960000000000000000e+02,-1.634084041584535241e+00,0.000000000000000000e+00
7.970000000000000000e+02,-1.714469377825949659e+00,0.000000000000000000e+00
7.980000000000000000e+02,-1.393484210103147714e+00,0.000000000000000000e+00
7.990000000000000000e+02,-1.132436665565965228e+00,0.000000000000000000e+00
8.000000000000000000e+02,-1.245851686656686663e+00,0.000000000000000000e+00
8.010000000000000000e+02,-1.043583653666247058e+00,0.000000000000000000e+00
8.020000000000000000e+02,-9.900358609366517459e-01,0.000000000000000000e+00
8.030000000000000000e+02,-6.341064471632089639e-01,0.000000000000000000e+00
8.040000000000000000e+02,-8.505202384983748809e-01,0.000000000000000000e+00
8.050000000000000000e+02,-5.804181323144144145e-01,0.000000000000000000e+00
8.060000000000000000e+02,-3.854938123336726363e-01,0.000000000000000000e+00
8.070000000000000000e+02,-4.636728104960269325e-01,0.000000000000000000e+00
8.080000000000000000e+02,-1.402760794791100274e-01,0.000000000000000000e+00
8.090000000000000000e+02,7.051699473333368495e-02,0.000000000000000000e+00
8.100000000000000000e+02,-8.151027298892969675e-02,0.000000000000000000e+00
8.110000000000000000e+02,1.764704022600227240e-01,0.000000000000000000e+00
8.120000000000000000e+02,3.731816168497069652e-01,0.000000000000000000e+00
8.130000000000000000e+02,7.345403921922821766e-02,0.000000000000000000e+00
8.140000000000000000e+02,-1.406398090881964547e-01,0.000000000000000000e+00
8.150000000000000000e+02,1.166090988869244449e-01,0.000000000000000000e+00
8.160000000000000000e+02,2.027457359941891024e-01,0.000000000000000000e+00
8.170000000000000000e+02,-2.813659872361813363e-01,0.000000000000000000e+00
8.180000000000000000e+02,1.426362668624353292e-01,0.000000000000000000e+00
8.190000000000000000e+02,-4.285959337051867962e-02,0.000000000000000000e+00
8.200000000000000000e+02,3.936984559763703206e-01,0.000000000000000000e+00
8.210000000000000000e+02,1.076931429251456324e-02,0.000000000000000000e+00
8.220000000000000000e+02,-1.028568832564697583e-01,0.000000000000000000e+00
8.230000000000000000e+02,1.250165772456636980e-02,0.000000000000000000e+00
8.240000000000000000e+02,6.788945736155919952e-02,0.000000000000000000e+00
8.250000000000000000e+02,1.175201306254087807e-01,0.000000000000000000e+00
8.260000000000000000e+02,1.724850572160298301e-01,0.000000000000000000e+00
8.270000000000000000e+02,-4.272355384808172035e-02,0.000000000000000000e+00
8.280000000000000000e+02,3.786100621093280248e-04,0.000000000000000000e+00
8.290000000000000000e+02,2.913083686511656056e-01,0.000000000000000000e+00
8.300000000000000000e+02,3.826846971719154861e-02,0.000000000000000000e+00
8.310000000000000000e+02,2.464419452132722010e-01,0.000000000000000000e+00
8.320000000000000000e+02,2.553565967836580741e-01,0.000000000000000000e+00
8.330000000000000000e+02,2.536093844339674108e-01,0.000000000000000000e+00
8.340000000000000000e+02,2.587102473297461236e-01,0.000000000000000000e+00
8.350000000000000000e+02,2.119305324168612170e-01,0.000000000000000000e+00
8.360000000000000000e+02,1.233642105451065590e-01,0.000000000000000000e+00
8.370000000000000000e+02,3.511363803844211318e-01,0.000000000000000000e+00
8.380000000000000000e+02,1.486042011170472521e-01,0.000000000000000000e+00
8.390000000000000000e+02,2.572804225172047390e-02,0.000000000000000000e+00
8.400000000000000000e+02,1.954880611273068503e-01,0.000000000000000000e+00
8.410000000000000000e+02,-1.027309890877309007e-01,0.000000000000000000e+00
8.420000000000000000e+02,1.803001093875666316e-01,0.000000000000000000e+00
8.430000000000000000e+02,-6.432203037990390226e-02,0.000000000000000000e+00
8.440000000000000000e+02,2.319265797705439835e-01,0.000000000000000000e+00
8.450000000000000000e+02,4.037296225670501393e-01,0.000000000000000000e+00
8.460000000000000000e+02,2.531271219208302767e-02,0.000000000000000000e+00
8.470000000000000000e+02,5.678580148059844679e-02,0.000000000000000000e+00
8.480000000000000000e+02,9.517836765920525410e-01,0.000000000000000000e+00
8.490000000000000000e+02,1.711218559109492610e+00,0.000000000000000000e+00
8.500000000000000000e+02,1.358556596772284353e+00,0.000000000000000000e+00
8.510000000000000000e+02,4.002598001830109276e+00,0.000000000000000000e+00
8.520000000000000000e+02,4.327210966171015194e+00,0.000000000000000000e+00
8.530000000000000000e+02,4.575344635827081619e-01,1.000000000000000000e+00
8.540000000000000000e+02,-1.973769475752767288e+00,0.000000000000000000e+00
8.550000000000000000e+02,-1.712601792199647699e+00,0.000000000000000000e+00
8.560000000000000000e+02,-1.771963349246258757e+00,0.000000000000000000e+00
8.570000000000000000e+02,-1.176401460440494207e+00,0.000000000000000000e+00
8.580000000000000000e+02,-1.724135213147703682e+00,0.000000000000000000e+00
8.590000000000000000e+02,-1.380030351976687886e+00,0.000000000000000000e+00
8.600000000000000000e+02,-1.135232969820367588e+00,0.000000000000000000e+00
8.610000000000000000e+02,-9.568789018739375374e-01,0.000000000000000000e+00
8.620000000000000000e+02,-9.567238448538392115e-01,0.000000000000000000e+00
8.630000000000000000e+02,-8.421198696641309933e-01,0.000000000000000000e+00
8.640000000000000000e+02,-8.352368083183910885e-01,0.000000000000000000e+00
8.650000000000000000e+02,-6.577489164129035615e-01,0.000000000000000000e+00
8.660000000000000000e+02,-4.187357776386459451e-01,0.000000000000000000e+00
8.670000000000000000e+02,-2.586080750274591944e-01,0.000000000000000000e+00
8.680000000000000000e+02,-4.519556369047867395e-01,0.000000000000000000e+00
8.690000000000000000e+02,1.595358061213538944e-02,0.000000000000000000e+00
8.700000000000000000e+02,1.882869393493626364e-01,0.000000000000000000e+00
8.710000000000000000e+02,2.107439092100049927e-01,0.000000000000000000e+00
8.720000000000000000e+02,3.716130755054323220e-01,0.000000000000000000e+00
8.730000000000000000e+02,-1.047936385899320699e-01,0.000000000000000000e+00
8.740000000000000000e+02,-2.685809962155662547e-02,0.000000000000000000e+00
8.750000000000000000e+02,-7.428489363052978578e-02,0.000000000000000000e+00
8.760000000000000000e+02,2.300895060365752975e-01,0.000000000000000000e+00
8.770000000000000000e+02,8.807875829128788969e-02,0.000000000000000000e+00
8.780000000000000000e+02,-7.280390883831241999e-02,0.000000000000000000e+00
8.790000000000000000e+02,6.020451896578572770e-02,0.000000000000000000e+00
8.800000000000000000e+02,5.330387186380707715e-02,0.000000000000000000e+00
8.810000000000000000e+02,-4.373516963389102036e-02,0.000000000000000000e+00
8.820000000000000000e+02,1.070114436917973255e-01,0.000000000000000000e+00
8.830000000000000000e+02,-1.140246281349230756e-01,0.000000000000000000e+00
8.840000000000000000e+02,7.699257297352404827e-02,0.000000000000000000e+00
8.850000000000000000e+02,1.671863788735383494e-01,0.000000000000000000e+00
8.860000000000000000e+02,-2.939116653202815746e-02,0.000000000000000000e+00
8.870000000000000000e+02,-1.818604061812719441e-01,0.000000000000000000e+00
8.880000000000000000e+02,3.374464473338834591e-01,0.000000000000000000e+00
8.890000000000000000e+02,6.319751560310990501e-02,0.000000000000000000e+00
8.900000000000000000e+02,1.316613369204377992e-01,0.000000000000000000e+00
8.910000000000000000e+02,7.861289448013018821e-02,0.000000000000000000e+00
8.920000000000000000e+02,1.796480171607357235e-01,0.000000000000000000e+00
8.930000000000000000e+02,1.714454239939553482e-01,0.000000000000000000e+00
8.940000000000000000e+02,2.961872051612027823e-01,0.000000000000000000e+00
8.950000000000000000e+02,2.357566446279812655e-01,0.000000000000000000e+00
8.960000000000000000e+02,8.349168240026136334e-02,0.000000000000000000e+00
8.970000000000000000e+02,8.609798981755162339e-02,0.000000000000000000e+00
8.980000000000000000e+02,1.055994912146109299e-01,0.000000000000000000e+00
8.990000000000000000e+02,4.863955888101066660e-02,0.000000000000000000e+00
9.000000000000000000e+02,9.981056750663074018e-02,0.000000000000000000e+00
9.010000000000000000e+02,-5.009873398885960477e-03,0.000000000000000000e+00
9.020000000000000000e+02,9.227942995875139387e-02,0.000000000000000000e+00
9.030000000000000000e+02,-2.692975551118722503e-03,0.000000000000000000e+00
9.040000000000000000e+02,2.563393170015032529e-01,0.000000000000000000e+00
9.050000000000000000e+02,-5.631871787983155908e-02,0.000000000000000000e+00
9.060000000000000000e+02,4.657847575827954167e-01,0.000000000000000000e+00
9.070000000000000000e+02,-3.581373141373208821e-03,0.000000000000000000e+00
9.080000000000000000e+02,5.793112174344406951e-01,0.000000000000000000e+00
9.090000000000000000e+02,1.472283583797506346e+00,0.000000000000000000e+00
9.100000000000000000e+02,1.236144171683865478e+00,0.000000000000000000e+00
9.110000000000000000e+02,3.940909084460698875e+00,0.000000000000000000e+00
9.120000000000000000e+02,3.752957332347670594e+00,0.000000000000000000e+00
9.130000000000000000e+02,6.215418546196360174e-03,1.000000000000000000e+00
9.140000000000000000e+02,-1.268113644624862868e+00,0.000000000000000000e+00
9.150000000000000000e+02,-1.673973101792819218e+00,0.000000000000000000e+00
9.160000000000000000e+02,-1.474336376083296374e+00,0.000000000000000000e+00
9.170000000000000000e+02,-1.390902808780467570e+00,0.000000000000000000e+00
9.180000000000000000e+02,-1.613779811395660069e+00,0.000000000000000000e+00
9.190000000000000000e+02,-8.734794931920607519e-01,0.000000000000000000e+00
9.200000000000000000e+02,-9.928346478741817416e-01,0.000000000000000000e+00
9.210000000000000000e+02,-1.054213395689859833e+00,0.000000000000000000e+00
9.220000000000000000e+02,-9.094036795002995444e-01,0.000000000000000000e+00
9.230000000000000000e+02,-5.671619170547573807e-01,0.000000000000000000e+00
9.240000000000000000e+02,-7.192939425900717332e-01,0.000000000000000000e+00
9.250000000000000000e+02,-6.134053814279760708e-01,0.000000000000000000e+00
9.260000000000000000e+02,-4.917204696094354399e-01,0.000000000000000000e+00
9.270000000000000000e+02,-1.721242081504069377e-01,0.000000000000000000e+00
9.280000000000000000e+02,-2.599499222089672879e-01,0.000000000000000000e+00
9.290000000000000000e+02,-1.134139285461244900e-01,0.000000000000000000e+00
9.300000000000000000e+02,2.445246337394023639e-01,0.000000000000000000e+00
9.310000000000000000e+02,2.461473483962501110e-02,0.000000000000000000e+00
9.320000000000000000e+02,2.199992507233391736e-01,0.000000000000000000e+00
9.330000000000000000e+02,-5.964855219550733306e-02,0.000000000000000000e+00
9.340000000000000000e+02,-2.738982606929249441e-02,0.000000000000000000e+00
9.350000000000000000e+02,1.504094235015669689e-02,0.000000000000000000e+00
9.360000000000000000e+02,1.961004657457972311e-01,0.000000000000000000e+00
9.370000000000000000e+02,-1.763083118078336842e-01,0.000000000000000000e+00
9.380000000000000000e+02,2.636857638097062084e-02,0.000000000000000000e+00
9.390000000000000000e+02,1.076151914292944600e-01,0.000000000000000000e+00
9.400000000000000000e+02,5.249336712671599098e-02,0.000000000000000000e+00
9.410000000000000000e+02,-3.372013544183335293e-02,0.000000000000000000e+00
9.420000000000000000e+02,1.456554284981377012e-01,0.000000000000000000e+00
9.430000000000000000e+02,-1.349277760050213992e-01,0.000000000000000000e+00
9.440000000000000000e+02,5.169431090141612950e-02,0.000000000000000000e+00
9.450000000000000000e+02,2.414390223357169851e-01,0.000000000000000000e+00
9.460000000000000000e+02,5.191612758169227709e-02,0.000000000000000000e+00
9.470000000000000000e+02,-1.314340985662421774e-02,0.000000000000000000e+00
9.480000000000000000e+02,1.881917131194725534e-01,0.000000000000000000e+00
9.490000000000000000e+02,2.594004920823286264e-01,0.000000000000000000e+00
9.500000000000000000e+02,4.860878654603765364e-02,0.000000000000000000e+00
9.510000000000000000e+02,2.690134138814940790e-01,0.000000000000000000e+00
9.520000000000000000e+02,3.544177923767878879e-01,0.000000000000000000e+00
9.530000000000000000e+02,8.048567768747554030e-02,0.000000000000000000e+00
9.540000000000000000e+02,1.758764546623187985e-01,0.000000000000000000e+00
9.550000000000000000e+02,3.172796177438134690e-01,0.000000000000000000e+00
9.560000000000000000e+02,2.153177798539975540e-01,0.000000000000000000e+00
9.570000000000000000e+02,2.059813415121979907e-01,0.000000000000000000e+00
9.580000000000000000e+02,5.378014070240009353e-02,0.000000000000000000e+00
9.590000000000000000e+02,2.070208114153417045e-02,0.000000000000000000e+00
9.600000000000000000e+02,1.550115097396293773e-01,0.000000000000000000e+00
9.610000000000000000e+02,9.331468130862937554e-03,0.000000000000000000e+00
9.620000000000000000e+02,-6.215003339272253541e-02,0.000000000000000000e+00
9.630000000000000000e+02,1.573635766878624942e-01,0.000000000000000000e+00
9.640000000000000000e+02,2.253483211090007710e-01,0.000000000000000000e+00
9.650000000000000000e+02,-2.409738062351914414e-02,0.000000000000000000e+00
9.660000000000000000e+02,2.977425613796674253e-01,0.000000000000000000e+00
9.670000000000000000e+02,1.083720373458784275e-01,0.000000000000000000e+00
9.680000000000000000e+02,7.759183942193493833e-01,0.000000000000000000e+00
9.690000000000000000e+02,1.492095427685645292e+00,0.000000000000000000e+00
9.700000000000000000e+02,1.602337322958738097e+00,0.000000000000000000e+00
9.710000000000000000e+02,4.011653277272594131e+00,0.000000000000000000e+00
9.720000000000000000e+02,3.611476661601872529e+00,0.000000000000000000e+00
9.730000000000000000e+02,-4.356069668483128488e-01,1.000000000000000000e+00
9.740000000000000000e+02,-1.667854973616744063e+00,0.000000000000000000e+00
9.750000000000000000e+02,-1.822717109641904143e+00,0.000000000000000000e+00
9.760000000000000000e+02,-1.714118971497480270e+00,0.000000000000000000e+00
9.770000000000000000e+02,-1.458492242725118127e+00,0.000000000000000000e+00
9.780000000000000000e+02,-1.428059185381400198e+00,0.000000000000000000e+00
9.790000000000000000e+02,-1.317716661578997028e+00,0.000000000000000000e+00
9.800000000000000000e+02,-1.354262418767193221e+00,0.000000000000000000e+00
9.810000000000000000e+02,-9.267353971627784182e-01,0.000000000000000000e+00
9.820000000000000000e+02,-9.722575651227699511e-01,0.000000000000000000e+00
9.830000000000000000e+02,-8.062300241263233858e-01,0.000000000000000000e+00
9.840000000000000000e+02,-5.878336257730187864e-01,0.000000000000000000e+00
9.850000000000000000e+02,-6.402079096411034120e-01,0.000000000000000000e+00
9.860000000000000000e+02,-4.481857791325468687e-01,0.000000000000000000e+00
9.870000000000000000e+02,-4.720360612794114452e-01,0.000000000000000000e+00
9.880000000000000000e+02,-2.475489131558801514e-01,0.000000000000000000e+00
9.890000000000000000e+02,1.080399705356319684e-01,0.000000000000000000e+00
9.900000000000000000e+02,-1.150222876616118460e-02,0.000000000000000000e+00
9.910000000000000000e+02,3.929592919719934185e-01,0.000000000000000000e+00
9.920000000000000000e+02,-1.190051085256797758e-01,0.000000000000000000e+00
9.930000000000000000e+02,-1.749560030249140696e-01,0.000000000000000000e+00
9.940000000000000000e+02,1.409484123710765258e-01,0.000000000000000000e+00
9.950000000000000000e+02,-1.287984685699549749e-02,0.000000000000000000e+00
9.960000000000000000e+02,-2.340763937930075145e-01,0.000000000000000000e+00
9.970000000000000000e+02,1.028967452840873348e-01,0.000000000000000000e+00
9.980000000000000000e+02,1.862379746484446041e-01,0.000000000000000000e+00
9.990000000000000000e+02,-3.253250211164593342e-01,0.000000000000000000e+00
1.000000000000000000e+03,2.702234670946670331e-02,0.000000000000000000e+00
1.001000000000000000e+03,3.277288628842330853e-01,0.000000000000000000e+00
1.002000000000000000e+03,-1.082644187103775496e-01,0.000000000000000000e+00
1.003000000000000000e+03,-1.369474849864122656e-01,0.000000000000000000e+00
1.004000000000000000e+03,2.539864759054784593e-01,0.000000000000000000e+00
1.005000000000000000e+03,1.465243927515151867e-01,0.000000000000000000e+00
1.006000000000000000e+03,-2.891277656643440608e-01,0.000000000000000000e+00
1.007000000000000000e+03,3.050972806086252875e-01,0.000000000000000000e+00
1.008000000000000000e+03,1.203485764297559935e-01,0.000000000000000000e+00
1.009000000000000000e+03,-4.741119016462354979e-02,0.000000000000000000e+00
1.010000000000000000e+03,1.076638149095626440e-01,0.000000000000000000e+00
1.011000000000000000e+03,2.789347170959368682e-01,0.000000000000000000e+00
1.012000000000000000e+03,1.500456554179487555e-02,0.000000000000000000e+00
1.013000000000000000e+03,4.299988075772284701e-01,0.000000000000000000e+00
1.014000000000000000e+03,-2.492307837880374053e-03,0.000000000000000000e+00
1.015000000000000000e+03,2.601947085304292528e-01,0.000000000000000000e+00
1.016000000000000000e+03,1.536553922565091768e-01,0.000000000000000000e+00
1.017000000000000000e+03,2.536199499806934821e-01,0.000000000000000000e+00
1.018000000000000000e+03,6.847655900877427926e-02,0.000000000000000000e+00
1.019000000000000000e+03,4.941991640004660125e-02,0.000000000000000000e+00
1.020000000000000000e+03,9.566121389973009093e-02,0.000000000000000000e+00
1.021000000000000000e+03,8.586644510129282093e-02,0.000000000000000000e+00
1.022000000000000000e+03,9.033414720929808239e-02,0.000000000000000000e+00
1.023000000000000000e+03,1.629930251814978859e-01,0.000000000000000000e+00
1.024000000000000000e+03,1.079889689361667043e-01,0.000000000000000000e+00
1.025000000000000000e+03,1.428224922743393244e-01,0.000000000000000000e+00
1.026000000000000000e+03,3.005285928962644348e-01,0.000000000000000000e+00
1.027000000000000000e+03,2.363787313915651223e-01,0.000000000000000000e+00
1.028000000000000000e+03,1.221592713366363325e+00,0.000000000000000000e+00
1.029000000000000000e+03,1.733625340197208820e+00,0.000000000000000000e+00
1.030000000000000000e+03,2.103542948496894383e+00,0.000000000000000000e+00
1.031000000000000000e+03,4.858848122222296340e+00,0.000000000000000000e+00
1.032000000000000000e+03,2.861700195671540659e+00,0.000000000000000000e+00
1.033000000000000000e+03,-8.855963532884816303e-01,0.000000000000000000e+00
1.034000000000000000e+03,-1.483866347791340523e+00,1.000000000000000000e+00
1.035000000000000000e+03,-1.976997677610109028e+00,0.000000000000000000e+00
1.036000000000000000e+03,-1.745755534664707342e+00,0.000000000000000000e+00
1.037000000000000000e+03,-1.369241275882532971e+00,0.000000000000000000e+00
1.038000000000000000e+03,-1.493748612729961289e+00,0.000000000000000000e+00
1.039000000000000000e+03,-1.255280411503379101e+00,0.000000000000000000e+00
1.040000000000000000e+03,-9.668012068211330190e-01,0.000000000000000000e+00
1.041000000000000000e+03,-1.218992142524015110e+00,0.000000000000000000e+00
1.042000000000000000e+03,-7.478997635356454676e-01,0.000000000000000000e+00
1.043000000000000000e+03,-7.880176413957266091e-01,0.000000000000000000e+00
1.044000000000000000e+03,-8.708739527100853861e-01,0.000000000000000000e+00
1.045000000000000000e+03,-3.623792593272661677e-01,0.000000000000000000e+00
1.046000000000000000e+03,-4.361124312416378435e-01,0.000000000000000000e+00
1.047000000000000000e+03,-4.686931457636610010e-01,0.000000000000000000e+00
1.048000000000000000e+03,-2.036989011978051489e-01,0.000000000000000000e+00
1.049000000000000000e+03,1.731208091959263173e-01,0.000000000000000000e+00
1.050000000000000000e+03,8.500784854804886714e-02,0.000000000000000000e+00
1.051000000000000000e+03,1.825051052262899043e-01,0.000000000000000000e+00
1.052000000000000000e+03,3.532018451126914260e-01,0.000000000000000000e+00
1.053000000000000000e+03,6.738858778056797116e-02,0.000000000000000000e+00
1.054000000000000000e+03,-9.450382556080721974e-02,0.000000000000000000e+00
1.055000000000000000e+03,2.566946370377919465e-02,0.000000000000000000e+00
1.056000000000000000e+03,8.376754812983683296e-02,0.000000000000000000e+00
1.057000000000000000e+03,-1.015656594826951364e-01,0.000000000000000000e+00
1.058000000000000000e+03,1.430952750073357094e-01,0.000000000000000000e+00
1.059000000000000000e+03,1.673221729239000866e-01,0.000000000000000000e+00
1.060000000000000000e+03,-7.683888130766138025e-02,0.000000000000000000e+00
1.061000000000000000e+03,1.908288223240233172e-01,0.000000000000000000e+00
1.062000000000000000e+03,-9.303113203473556414e-02,0.000000000000000000e+00
1.063000000000000000e+03,-6.156865543539943170e-02,0.000000000000000000e+00
1.064000000000000000e+03,1.496023046275581359e-01,0.000000000000000000e+00
1.065000000000000000e+03,-1.125800188228677223e-01,0.000000000000000000e+00
1.066000000000000000e+03,1.935422126969495726e-01,0.000000000000000000e+00
1.067000000000000000e+03,-7.400044038618980302e-02,0.000000000000000000e+00
1.068000000000000000e+03,1.037428361229564971e-01,0.000000000000000000e+00
1.069000000000000000e+03,5.326201795883413886e-02,0.000000000000000000e+00
1.070000000000000000e+03,2.125892759532571896e-01,0.000000000000000000e+00
1.071000000000000000e+03,2.278247901933734831e-01,0.000000000000000000e+00
1.072000000000000000e+03,2.028090895523083637e-01,0.000000000000000000e+00
1.073000000000000000e+03,3.903570386889952393e-01,0.000000000000000000e+00
1.074000000000000000e+03,4.586983001475414268e-02,0.000000000000000000e+00
1.075000000000000000e+03,2.764386037096553395e-01,0.000000000000000000e+00
1.076000000000000000e+03,1.270732377461825380e-01,0.000000000000000000e+00
1.077000000000000000e+03,1.715893395220392526e-01,0.000000000000000000e+00
1.078000000000000000e+03,2.279415582262740991e-01,0.000000000000000000e+00
1.079000000000000000e+03,5.119119185535345173e-02,0.000000000000000000e+00
1.080000000000000000e+03,-1.780101261734405027e-01,0.000000000000000000e+00
1.081000000000000000e+03,5.626188634596714783e-02,0.000000000000000000e+00
1.082000000000000000e+03,1.029596575480433013e-01,0.000000000000000000e+00
1.083000000000000000e+03,7.562319116207449551e-03,0.000000000000000000e+00
1.084000000000000000e+03,3.680825423185835610e-01,0.000000000000000000e+00
1.085000000000000000e+03,-2.537462175966489000e-02,0.000000000000000000e+00
1.086000000000000000e+03,4.267712638312425311e-01,0.000000000000000000e+00
1.087000000000000000e+03,-3.911424773852503062e-02,0.000000000000000000e+00
1.088000000000000000e+03,1.155876498828508625e+00,0.000000000000000000e+00
1.089000000000000000e+03,1.437357833028957588e+00,0.000000000000000000e+00
1.090000000000000000e+03,2.150824374259062921e+00,0.000000000000000000e+00
1.091000000000000000e+03,4.618151198160048487e+00,0.000000000000000000e+00
1.092000000000000000e+03,2.173482657680574803e+00,0.000000000000000000e+00
1.093000000000000000e+03,-1.046309579646185206e+00,0.000000000000000000e+00
1.094000000000000000e+03,-1.384897581007507483e+00,1.000000000000000000e+00
1.095000000000000000e+03,-1.595123569383411821e+00,0.000000000000000000e+00
1.096000000000000000e+03,-1.454319103348313602e+00,0.000000000000000000e+00
1.097000000000000000e+03,-1.442463818006850307e+00,0.000000000000000000e+00
1.098000000000000000e+03,-1.023872380545346017e+00,0.000000000000000000e+00
1.099000000000000000e+03,-1.185200618893614166e+00,0.000000000000000000e+00
1.100000000000000000e+03,-9.613830307869959402e-01,0.000000000000000000e+00
1.101000000000000000e+03,-9.522398954487685252e-01,0.000000000000000000e+00
1.102000000000000000e+03,-7.657889059115615682e-01,0.000000000000000000e+00
1.103000000000000000e+03,-6.477465133357128702e-01,0.000000000000000000e+00
1.104000000000000000e+03,-5.223504930803234414e-01,0.000000000000000000e+00
1.105000000000000000e+03,-3.816534170951004223e-01,0.000000000000000000e+00
1.106000000000000000e+03,-6.046631180185205734e-01,0.000000000000000000e+00
1.107000000000000000e+03,-1.359720851675969011e-01,0.000000000000000000e+00
1.108000000000000000e+03,-1.091887136968414801e-01,0.000000000000000000e+00
1.109000000000000000e+03,-8.165374472168131226e-02,0.000000000000000000e+00
1.110000000000000000e+03,4.574430294899312077e-01,0.000000000000000000e+00
1.111000000000000000e+03,-6.410999233791632446e-02,0.000000000000000000e+00
1.112000000000000000e+03,2.564626114625023767e-01,0.000000000000000000e+00
1.113000000000000000e+03,-2.036537180238508493e-01,0.000000000000000000e+00
1.114000000000000000e+03,-2.208871427896243189e-01,0.000000000000000000e+00
1.115000000000000000e+03,3.242472166038951609e-01,0.000000000000000000e+00
1.116000000000000000e+03,2.999746654902256046e-02,0.000000000000000000e+00
1.117000000000000000e+03,-2.652389252883125548e-01,0.000000000000000000e+00
1.118000000000000000e+03,1.125014132708808401e-01,0.000000000000000000e+00
1.119000000000000000e+03,5.292426009547080389e-03,0.000000000000000000e+00
1.120000000000000000e+03,4.637244117452523837e-03,0.000000000000000000e+00
1.121000000000000000e+03,1.325413829080494266e-01,0.000000000000000000e+00
1.122000000000000000e+03,-1.069471158160058277e-01,0.000000000000000000e+00
1.123000000000000000e+03,-1.857983175658857178e-01,0.000000000000000000e+00
1.124000000000000000e+03,3.914619110584650064e-01,0.000000000000000000e+00
1.125000000000000000e+03,-3.593897054949916070e-01,0.000000000000000000e+00
1.126000000000000000e+03,7.726645576426686979e-02,0.000000000000000000e+00
1.127000000000000000e+03,2.879885013959786466e-01,0.000000000000000000e+00
1.128000000000000000e+03,-1.885201469492931436e-01,0.000000000000000000e+00
1.129000000000000000e+03,2.747375546711106065e-01,0.000000000000000000e+00
1.130000000000000000e+03,-4.006523895133774771e-02,0.000000000000000000e+00
1.131000000000000000e+03,9.552675186833231580e-02,0.000000000000000000e+00
1.132000000000000000e+03,2.096515007009527309e-01,0.000000000000000000e+00
1.133000000000000000e+03,2.599743327673232351e-01,0.000000000000000000e+00
1.134000000000000000e+03,6.164060556555965575e-02,0.000000000000000000e+00
1.135000000000000000e+03,2.147242283111151506e-01,0.000000000000000000e+00
1.136000000000000000e+03,3.258210730729124149e-01,0.000000000000000000e+00
1.137000000000000000e+03,-1.677978043006925768e-01,0.000000000000000000e+00
1.138000000000000000e+03,2.963846554592853844e-01,0.000000000000000000e+00
1.139000000000000000e+03,1.883549732267398302e-01,0.000000000000000000e+00
1.140000000000000000e+03,-2.743227111240323368e-01,0.000000000000000000e+00
1.141000000000000000e+03,-6.279760490695258934e-02,0.000000000000000000e+00
1.142000000000000000e+03,3.302181321144180837e-01,0.000000000000000000e+00
1.143000000000000000e+03,3.875719172593684037e-01,0.000000000000000000e+00
1.144000000000000000e+03,-4.526052240552234096e-01,0.000000000000000000e+00
1.145000000000000000e+03,2.606040892533748599e-01,0.000000000000000000e+00
1.146000000000000000e+03,1.913149386167710408e-01,0.000000000000000000e+00
1.147000000000000000e+03,6.231188846101183287e-01,0.000000000000000000e+00
1.148000000000000000e+03,8.871569657962429245e-01,0.000000000000000000e+00
1.149000000000000000e+03,1.195653574225050697e+00,0.000000000000000000e+00
1.150000000000000000e+03,2.345335054586848322e+00,0.000000000000000000e+00
1.151000000000000000e+03,4.571251821485912359e+00,0.000000000000000000e+00
1.152000000000000000e+03,2.024430727870648816e+00,0.000000000000000000e+00
1.153000000000000000e+03,-1.013867450576092066e+00,0.000000000000000000e+00
1.154000000000000000e+03,-1.705510275415283994e+00,1.000000000000000000e+00
1.155000000000000000e+03,-1.654543381045350925e+00,0.000000000000000000e+00
1.156000000000000000e+03,-1.478421729831251419e+00,0.000000000000000000e+00
1.157000000000000000e+03,-1.431772701480816590e+00,0.000000000000000000e+00
1.158000000000000000e+03,-1.287899389952833484e+00,0.000000000000000000e+00
1.159000000000000000e+03,-1.194719338841400580e+00,0.000000000000000000e+00
1.160000000000000000e+03,-9.749845989851768646e-01,0.000000000000000000e+00
1.161000000000000000e+03,-1.001674040824346301e+00,0.000000000000000000e+00
1.162000000000000000e+03,-1.021591666394316977e+00,0.000000000000000000e+00
1.163000000000000000e+03,-5.994277352749864951e-01,0.000000000000000000e+00
1.164000000000000000e+03,-7.305045767087275932e-01,0.000000000000000000e+00
1.165000000000000000e+03,-3.473393315233896939e-01,0.000000000000000000e+00
1.166000000000000000e+03,-4.931466992474775046e-01,0.000000000000000000e+00
1.167000000000000000e+03,-4.955875046799198547e-01,0.000000000000000000e+00
1.168000000000000000e+03,-8.716838884198958165e-03,0.000000000000000000e+00
1.169000000000000000e+03,5.660322757633238361e-02,0.000000000000000000e+00
1.170000000000000000e+03,8.309630601102464820e-02,0.000000000000000000e+00
1.171000000000000000e+03,3.533429819627333934e-01,0.000000000000000000e+00
1.172000000000000000e+03,-3.265033099202114264e-01,0.000000000000000000e+00
1.173000000000000000e+03,2.065716062018982391e-01,0.000000000000000000e+00
1.174000000000000000e+03,-1.029888068539190349e-01,0.000000000000000000e+00
1.175000000000000000e+03,-1.796579685742064891e-01,0.000000000000000000e+00
1.176000000000000000e+03,1.074373989362472082e-01,0.000000000000000000e+00
1.177000000000000000e+03,-1.157683825181207021e-01,0.000000000000000000e+00
1.178000000000000000e+03,2.022807611027100608e-03,0.000000000000000000e+00
1.179000000000000000e+03,1.335733449529666050e-01,0.000000000000000000e+00
1.180000000000000000e+03,-1.324799201085337386e-01,0.000000000000000000e+00
1.181000000000000000e+03,8.255445228002303293e-02,0.000000000000000000e+00
1.182000000000000000e+03,1.801770834073726513e-01,0.000000000000000000e+00
1.183000000000000000e+03,-6.978965416671178978e-02,0.000000000000000000e+00
1.184000000000000000e+03,7.093812669426988182e-02,0.000000000000000000e+00
1.185000000000000000e+03,2.384843609566600076e-01,0.000000000000000000e+00
1.186000000000000000e+03,9.036782532537311272e-03,0.000000000000000000e+00
1.187000000000000000e+03,5.156534547385936001e-02,0.000000000000000000e+00
1.188000000000000000e+03,2.135149453707973132e-04,0.000000000000000000e+00
1.189000000000000000e+03,2.662967133542728515e-01,0.000000000000000000e+00
1.190000000000000000e+03,2.669083423921549819e-02,0.000000000000000000e+00
1.191000000000000000e+03,2.189238624103143072e-01,0.000000000000000000e+00
1.192000000000000000e+03,1.670908089609773328e-01,0.000000000000000000e+00
1.193000000000000000e+03,1.135709685905430949e-01,0.000000000000000000e+00
1.194000000000000000e+03,2.390662233907332457e-01,0.000000000000000000e+00
1.195000000000000000e+03,6.110066080136270505e-01,0.000000000000000000e+00
1.196000000000000000e+03,-1.156453898512331963e-01,0.000000000000000000e+00
1.197000000000000000e+03,3.159253075519244391e-02,0.000000000000000000e+00
1.198000000000000000e+03,8.531143251146723616e-02,0.000000000000000000e+00
1.199000000000000000e+03,5.492136538705401083e-01,0.000000000000000000e+00
1.200000000000000000e+03,-8.162889602806752687e-02,0.000000000000000000e+00
1.201000000000000000e+03,-1.638323418356322225e-01,0.000000000000000000e+00
1.202000000000000000e+03,1.622371649110556854e-02,0.000000000000000000e+00
1.203000000000000000e+03,2.301767755065049770e-01,0.000000000000000000e+00
1.204000000000000000e+03,3.778836254050804699e-01,0.000000000000000000e+00
1.205000000000000000e+03,-2.069638610229439790e-01,0.000000000000000000e+00
1.206000000000000000e+03,2.212629229579529122e-01,0.000000000000000000e+00
1.207000000000000000e+03,5.513272443384845678e-01,0.000000000000000000e+00
1.208000000000000000e+03,1.488891298230763827e+00,0.000000000000000000e+00
1.209000000000000000e+03,1.825023252557453235e+00,0.000000000000000000e+00
1.210000000000000000e+03,2.445101951989737454e+00,0.000000000000000000e+00
1.211000000000000000e+03,3.374687701812509655e+00,0.000000000000000000e+00
1.212000000000000000e+03,4.151267247322532050e+00,0.000000000000000000e+00
1.213000000000000000e+03,3.489668768773247498e-01,0.000000000000000000e+00
1.214000000000000000e+03,-1.894810627696922101e+00,1.000000000000000000e+00
1.215000000000000000e+03,-1.931049454777505003e+00,0.000000000000000000e+00
1.216000000000000000e+03,-2.291127425323244982e+00,0.000000000000000000e+00
1.217000000000000000e+03,-1.811547969345117526e+00,0.000000000000000000e+00
1.218000000000000000e+03,-1.516625885295892706e+00,0.000000000000000000e+00
1.219000000000000000e+03,-1.644466656495530144e+00,0.000000000000000000e+00
1.220000000000000000e+03,-1.515727849916830516e+00,0.000000000000000000e+00
1.221000000000000000e+03,-1.008706578020956979e+00,0.000000000000000000e+00
1.222000000000000000e+03,-1.231992365790688160e+00,0.000000000000000000e+00
1.223000000000000000e+03,-1.001179126276293907e+00,0.000000000000000000e+00
1.224000000000000000e+03,-8.749342716007562082e-01,0.000000000000000000e+00
1.225000000000000000e+03,-8.524213424739877087e-01,0.000000000000000000e+00
1.226000000000000000e+03,-8.041944739417106192e-01,0.000000000000000000e+00
1.227000000000000000e+03,-8.152009547700997949e-01,0.000000000000000000e+00
1.228000000000000000e+03,-4.011931515696704476e-01,0.000000000000000000e+00
1.229000000000000000e+03,-2.561108778753036219e-01,0.000000000000000000e+00
1.230000000000000000e+03,2.777469656373843798e-01,0.000000000000000000e+00
1.231000000000000000e+03,5.619871321537630582e-01,0.000000000000000000e+00
1.232000000000000000e+03,1.014106777991400921e-01,0.000000000000000000e+00
1.233000000000000000e+03,5.307615236420628602e-01,0.000000000000000000e+00
1.234000000000000000e+03,2.424192225956072477e-01,0.000000000000000000e+00
1.235000000000000000e+03,3.264160584116096997e-01,0.000000000000000000e+00
1.236000000000000000e+03,2.046543976973292656e-01,0.000000000000000000e+00
1.237000000000000000e+03,2.890048987537267022e-01,0.000000000000000000e+00
1.238000000000000000e+03,1.240698972392333815e-01,0.000000000000000000e+00
1.239000000000000000e+03,3.692948469794199995e-01,0.000000000000000000e+00
1.240000000000000000e+03,2.601798915510156740e-01,0.000000000000000000e+00
1.241000000000000000e+03,1.124901544516102858e-01,0.000000000000000000e+00
1.242000000000000000e+03,3.478277336479850268e-01,0.000000000000000000e+00
1.243000000000000000e+03,7.381256490408612259e-02,0.000000000000000000e+00
1.244000000000000000e+03,6.838407099415115542e-02,0.000000000000000000e+00
1.245000000000000000e+03,2.479558257422460332e-01,0.000000000000000000e+00
1.246000000000000000e+03,-1.002425839930041057e-01,0.000000000000000000e+00
1.247000000000000000e+03,1.669446497052573808e-01,0.000000000000000000e+00
1.248000000000000000e+03,1.889906202077826780e-01,0.000000000000000000e+00
1.249000000000000000e+03,1.082673751918062366e-01,0.000000000000000000e+00
1.250000000000000000e+03,1.888769093811316080e-01,0.000000000000000000e+00
1.251000000000000000e+03,1.653018986363665455e-01,0.000000000000000000e+00
1.252000000000000000e+03,2.107172473513465316e-01,0.000000000000000000e+00
1.253000000000000000e+03,2.459326550652143617e-01,0.000000000000000000e+00
1.254000000000000000e+03,3.594562094301170796e-01,0.000000000000000000e+00
1.255000000000000000e+03,3.108109728649270376e-01,0.000000000000000000e+00
1.256000000000000000e+03,6.557817461625234379e-02,0.000000000000000000e+00
1.257000000000000000e+03,1.521738872831334966e-01,0.000000000000000000e+00
1.258000000000000000e+03,1.918916120135593373e-01,0.000000000000000000e+00
1.259000000000000000e+03,1.151104979664115818e-01,0.000000000000000000e+00
1.260000000000000000e+03,5.349871813059050435e-02,0.000000000000000000e+00
1.261000000000000000e+03,8.545528135458595881e-03,0.000000000000000000e+00
1.262000000000000000e+03,-1.090911005270466527e-01,0.000000000000000000e+00
1.263000000000000000e+03,2.809730508094313017e-02,0.000000000000000000e+00
1.264000000000000000e+03,1.105809971804253972e-01,0.000000000000000000e+00
1.265000000000000000e+03,1.281007742913597702e-01,0.000000000000000000e+00
1.266000000000000000e+03,2.044312113031158951e-01,0.000000000000000000e+00
1.267000000000000000e+03,1.838195548724394779e-01,0.000000000000000000e+00
1.268000000000000000e+03,1.507093710411141041e+00,0.000000000000000000e+00
1.269000000000000000e+03,1.317366579417378558e+00,0.000000000000000000e+00
1.270000000000000000e+03,2.032464818630860925e+00,0.000000000000000000e+00
1.271000000000000000e+03,3.465864176730347967e+00,0.000000000000000000e+00
1.272000000000000000e+03,3.498138183993040773e+00,0.000000000000000000e+00
1.273000000000000000e+03,3.054612946017304376e-01,0.000000000000000000e+00
1.274000000000000000e+03,-1.464720141419282307e+00,1.000000000000000000e+00
1.275000000000000000e+03,-1.826106148137569329e+00,0.000000000000000000e+00
1.276000000000000000e+03,-1.862236325637564027e+00,0.000000000000000000e+00
1.277000000000000000e+03,-1.706838859394402386e+00,0.000000000000000000e+00
1.278000000000000000e+03,-1.497480315544369667e+00,0.000000000000000000e+00
1.279000000000000000e+03,-1.371926959414330849e+00,0.000000000000000000e+00
1.280000000000000000e+03,-1.293853086568037325e+00,0.000000000000000000e+00
1.281000000000000000e+03,-1.058914811295448510e+00,0.000000000000000000e+00
1.282000000000000000e+03,-1.066701883111512483e+00,0.000000000000000000e+00
1.283000000000000000e+03,-9.382740958249653485e-01,0.000000000000000000e+00
1.284000000000000000e+03,-6.719963018973299507e-01,0.000000000000000000e+00
1.285000000000000000e+03,-8.995674077043689376e-01,0.000000000000000000e+00
1.286000000000000000e+03,-7.677740054518765733e-01,0.000000000000000000e+00
1.287000000000000000e+03,-4.770180761845909667e-01,0.000000000000000000e+00
1.288000000000000000e+03,-4.205307887376435461e-01,0.000000000000000000e+00
1.289000000000000000e+03,-2.400159311312310972e-01,0.000000000000000000e+00
1.290000000000000000e+03,1.540716039758688594e-01,0.000000000000000000e+00
1.291000000000000000e+03,4.236558245555185342e-01,0.000000000000000000e+00
1.292000000000000000e+03,2.954204649847868569e-01,0.000000000000000000e+00
1.293000000000000000e+03,4.579528958280968953e-01,0.000000000000000000e+00
1.294000000000000000e+03,-8.994828310373506608e-02,0.000000000000000000e+00
1.295000000000000000e+03,2.054143817742423717e-01,0.000000000000000000e+00
1.296000000000000000e+03,5.187767374604272674e-02,0.000000000000000000e+00
1.297000000000000000e+03,1.103756506936190568e-01,0.000000000000000000e+00
1.298000000000000000e+03,1.891497130925686998e-01,0.000000000000000000e+00
1.299000000000000000e+03,1.828418451272527945e-01,0.000000000000000000e+00
1.300000000000000000e+03,1.267161749068660692e-01,0.000000000000000000e+00
1.301000000000000000e+03,9.430236174109307701e-02,0.000000000000000000e+00
1.302000000000000000e+03,5.536228594231508426e-02,0.000000000000000000e+00
1.303000000000000000e+03,8.446404383892612555e-02,0.000000000000000000e+00
1.304000000000000000e+03,1.288665656296544559e-01,0.000000000000000000e+00
1.305000000000000000e+03,-4.531784391281819951e-02,0.000000000000000000e+00
1.306000000000000000e+03,4.246562846410763953e-02,0.000000000000000000e+00
1.307000000000000000e+03,3.163790900816037394e-02,0.000000000000000000e+00
1.308000000000000000e+03,3.578354086413729901e-02,0.000000000000000000e+00
1.309000000000000000e+03,3.511893301786501165e-01,0.000000000000000000e+00
1.310000000000000000e+03,-5.023688832826216782e-02,0.000000000000000000e+00
1.311000000000000000e+03,9.082654784043481255e-02,0.000000000000000000e+00
1.312000000000000000e+03,2.193138468180904355e-01,0.000000000000000000e+00
1.313000000000000000e+03,1.985497770523562133e-01,0.000000000000000000e+00
1.314000000000000000e+03,1.696956728771608913e-01,0.000000000000000000e+00
1.315000000000000000e+03,4.077623020825534295e-01,0.000000000000000000e+00
1.316000000000000000e+03,-6.361520851667427402e-03,0.000000000000000000e+00
1.317000000000000000e+03,2.431792638897980474e-01,0.000000000000000000e+00
1.318000000000000000e+03,-5.212664419958534801e-02,0.000000000000000000e+00
1.319000000000000000e+03,1.359089216867238603e-01,0.000000000000000000e+00
1.320000000000000000e+03,1.214908803166672852e-01,0.000000000000000000e+00
1.321000000000000000e+03,4.947372469971293707e-02,0.000000000000000000e+00
1.322000000000000000e+03,-5.641601181739151760e-02,0.000000000000000000e+00
1.323000000000000000e+03,6.758588906599777291e-02,0.000000000000000000e+00
1.324000000000000000e+03,1.047403566372221845e-01,0.000000000000000000e+00
1.325000000000000000e+03,2.983949182233697206e-01,0.000000000000000000e+00
1.326000000000000000e+03,1.101817662309437368e-01,0.000000000000000000e+00
1.327000000000000000e+03,4.751330420763410500e-01,0.000000000000000000e+00
1.328000000000000000e+03,1.575739426187621417e+00,0.000000000000000000e+00
1.329000000000000000e+03,1.139136429315358967e+00,0.000000000000000000e+00
1.330000000000000000e+03,2.348643701989265864e+00,0.000000000000000000e+00
1.331000000000000000e+03,3.314707865463388803e+00,0.000000000000000000e+00
1.332000000000000000e+03,3.390892228343025394e+00,0.000000000000000000e+00
1.333000000000000000e+03,4.700052728114123557e-01,0.000000000000000000e+00
1.334000000000000000e+03,-2.023945456065883608e+00,1.000000000000000000e+00
1.335000000000000000e+03,-1.823103103665637104e+00,0.000000000000000000e+00
1.336000000000000000e+03,-1.931713331638388764e+00,0.000000000000000000e+00
1.337000000000000000e+03,-1.907233138181299692e+00,0.000000000000000000e+00
1.338000000000000000e+03,-1.205255402032749501e+00,0.000000000000000000e+00
1.339000000000000000e+03,-1.843204934048107591e+00,0.000000000000000000e+00
1.340000000000000000e+03,-1.313367064475958301e+00,0.000000000000000000e+00
1.341000000000000000e+03,-1.137556803219621715e+00,0.000000000000000000e+00
1.342000000000000000e+03,-1.093213776696866368e+00,0.000000000000000000e+00
1.343000000000000000e+03,-1.141223157300274016e+00,0.000000000000000000e+00
1.344000000000000000e+03,-5.607665588487367181e-01,0.000000000000000000e+00
1.345000000000000000e+03,-9.139053823133507226e-01,0.000000000000000000e+00
1.346000000000000000e+03,-1.036708010128743362e+00,0.000000000000000000e+00
1.347000000000000000e+03,-5.107550089855518172e-01,0.000000000000000000e+00
1.348000000000000000e+03,-3.727454110720896385e-01,0.000000000000000000e+00
1.349000000000000000e+03,-1.711498013237418570e-01,0.000000000000000000e+00
1.350000000000000000e+03,2.283156676643768521e-02,0.000000000000000000e+00
1.351000000000000000e+03,4.857942668243523943e-01,0.000000000000000000e+00
1.352000000000000000e+03,1.874864443724335861e-01,0.000000000000000000e+00
1.353000000000000000e+03,1.899539128079365535e-01,0.000000000000000000e+00
1.354000000000000000e+03,3.150245506943247231e-01,0.000000000000000000e+00
1.355000000000000000e+03,1.213422957165177785e-01,0.000000000000000000e+00
1.356000000000000000e+03,-7.350036302227271751e-03,0.000000000000000000e+00
1.357000000000000000e+03,2.645471659628504946e-01,0.000000000000000000e+00
1.358000000000000000e+03,9.799380565782436769e-02,0.000000000000000000e+00
1.359000000000000000e+03,4.341267621248906527e-02,0.000000000000000000e+00
1.360000000000000000e+03,4.291242716390684109e-01,0.000000000000000000e+00
1.361000000000000000e+03,2.307867606640660041e-01,0.000000000000000000e+00
1.362000000000000000e+03,-1.176214896947975069e-01,0.000000000000000000e+00
1.363000000000000000e+03,3.282829950616977244e-01,0.000000000000000000e+00
1.364000000000000000e+03,-7.902993956914926288e-02,0.000000000000000000e+00
1.365000000000000000e+03,-8.184418789219176371e-02,0.000000000000000000e+00
1.366000000000000000e+03,1.905151325390856409e-01,0.000000000000000000e+00
1.367000000000000000e+03,2.738217674906553989e-01,0.000000000000000000e+00
1.368000000000000000e+03,-1.514660540595174631e-01,0.000000000000000000e+00
1.369000000000000000e+03,1.373992716308442552e-01,0.000000000000000000e+00
1.370000000000000000e+03,3.287431025181949962e-01,0.000000000000000000e+00
1.371000000000000000e+03,-1.579019723442486589e-01,0.000000000000000000e+00
1.372000000000000000e+03,3.154089570942384402e-01,0.000000000000000000e+00
1.373000000000000000e+03,2.913071356667471523e-01,0.000000000000000000e+00
1.374000000000000000e+03,5.491297923708662182e-02,0.000000000000000000e+00
1.375000000000000000e+03,3.871882878457478805e-01,0.000000000000000000e+00
1.376000000000000000e+03,2.819153390228166245e-01,0.000000000000000000e+00
1.377000000000000000e+03,-1.642060874820641114e-01,0.000000000000000000e+00
1.378000000000000000e+03,1.366976083409301435e-01,0.000000000000000000e+00
1.379000000000000000e+03,3.417748235795712297e-01,0.000000000000000000e+00
1.380000000000000000e+03,2.250432191182603903e-01,0.000000000000000000e+00
1.381000000000000000e+03,-1.105865104509596575e-01,0.000000000000000000e+00
1.382000000000000000e+03,-2.755940562407265815e-01,0.000000000000000000e+00
1.383000000000000000e+03,1.587524295460205070e-01,0.000000000000000000e+00
1.384000000000000000e+03,2.495036834239770240e-01,0.000000000000000000e+00
1.385000000000000000e+03,6.159940862189515753e-01,0.000000000000000000e+00
1.386000000000000000e+03,-2.098687140537316975e-01,0.000000000000000000e+00
1.387000000000000000e+03,9.496390671923542470e-01,0.000000000000000000e+00
1.388000000000000000e+03,1.666577731627903125e+00,0.000000000000000000e+00
1.389000000000000000e+03,1.912872721079981631e+00,0.000000000000000000e+00
1.390000000000000000e+03,2.737740080184881908e+00,0.000000000000000000e+00
1.391000000000000000e+03,4.048259266810610768e+00,0.000000000000000000e+00
1.392000000000000000e+03,2.905413153025218964e+00,0.000000000000000000e+00
1.393000000000000000e+03,-7.392269992164213210e-01,0.000000000000000000e+00
1.394000000000000000e+03,-2.066223276599143510e+00,1.000000000000000000e+00
1.395000000000000000e+03,-2.248567171662774644e+00,0.000000000000000000e+00
1.396000000000000000e+03,-1.993186395340864170e+00,0.000000000000000000e+00
1.397000000000000000e+03,-1.824482381072450865e+00,0.000000000000000000e+00
1.398000000000000000e+03,-1.728215251606772584e+00,0.000000000000000000e+00
1.399000000000000000e+03,-1.592931364037768027e+00,0.000000000000000000e+00
1.400000000000000000e+03,-1.416340837633969230e+00,0.000000000000000000e+00
1.401000000000000000e+03,-1.187363914161167155e+00,0.000000000000000000e+00
1.402000000000000000e+03,-9.978598836930843152e-01,0.000000000000000000e+00
1.403000000000000000e+03,-1.094207327483348147e+00,0.000000000000000000e+00
1.404000000000000000e+03,-7.630170392844187743e-01,0.000000000000000000e+00
1.405000000000000000e+03,-9.652945967594338539e-01,0.000000000000000000e+00
1.406000000000000000e+03,-8.521115463430168901e-01,0.000000000000000000e+00
1.407000000000000000e+03,-6.076878375979000158e-01,0.000000000000000000e+00
1.408000000000000000e+03,-4.163263509520821470e-01,0.000000000000000000e+00
1.409000000000000000e+03,-6.300781009184762416e-02,0.000000000000000000e+00
1.410000000000000000e+03,3.853449851556919881e-01,0.000000000000000000e+00
1.411000000000000000e+03,5.076753835915938096e-01,0.000000000000000000e+00
1.412000000000000000e+03,3.797694681650373161e-01,0.000000000000000000e+00
1.413000000000000000e+03,2.584191595157411814e-01,0.000000000000000000e+00
1.414000000000000000e+03,4.555246336532596807e-01,0.000000000000000000e+00
1.415000000000000000e+03,1.668414516331890862e-01,0.000000000000000000e+00
1.416000000000000000e+03,3.659254212635349446e-01,0.000000000000000000e+00
1.417000000000000000e+03,4.073617354648467193e-01,0.000000000000000000e+00
1.418000000000000000e+03,4.337897827271253171e-02,0.000000000000000000e+00
1.419000000000000000e+03,4.162281036361223929e-01,0.000000000000000000e+00
1.420000000000000000e+03,3.163592687756666688e-01,0.000000000000000000e+00
1.421000000000000000e+03,2.112570896253076480e-01,0.000000000000000000e+00
1.422000000000000000e+03,2.861065264576272971e-01,0.000000000000000000e+00
1.423000000000000000e+03,1.429004613083842967e-01,0.000000000000000000e+00
1.424000000000000000e+03,-6.787529010977269572e-02,0.000000000000000000e+00
1.425000000000000000e+03,2.653730899947415733e-01,0.000000000000000000e+00
1.426000000000000000e+03,2.208554331585737274e-01,0.000000000000000000e+00
1.427000000000000000e+03,7.768405326933927602e-02,0.000000000000000000e+00
1.428000000000000000e+03,1.999061869409524128e-01,0.000000000000000000e+00
1.429000000000000000e+03,1.629731615039423376e-01,0.000000000000000000e+00
1.430000000000000000e+03,3.083996937458816645e-01,0.000000000000000000e+00
1.431000000000000000e+03,1.586644683561439506e-01,0.000000000000000000e+00
1.432000000000000000e+03,3.778684263835665469e-01,0.000000000000000000e+00
1.433000000000000000e+03,2.098993895195565562e-01,0.000000000000000000e+00
1.434000000000000000e+03,1.093132883666507738e-01,0.000000000000000000e+00
1.435000000000000000e+03,1.722018132661919665e-01,0.000000000000000000e+00
1.436000000000000000e+03,6.992739775571728267e-02,0.000000000000000000e+00
1.437000000000000000e+03,2.761502892958043187e-01,0.000000000000000000e+00
1.438000000000000000e+03,-1.138376334602287238e-01,0.000000000000000000e+00
1.439000000000000000e+03,1.011237657113785854e-01,0.000000000000000000e+00
1.440000000000000000e+03,5.841211493004164201e-03,0.000000000000000000e+00
1.441000000000000000e+03,8.976767176390755554e-02,0.000000000000000000e+00
1.442000000000000000e+03,1.553168558593134296e-01,0.000000000000000000e+00
1.443000000000000000e+03,2.032455949851550148e-01,0.000000000000000000e+00
1.444000000000000000e+03,7.725315707075183780e-02,0.000000000000000000e+00
1.445000000000000000e+03,1.853912922730841517e-01,0.000000000000000000e+00
1.446000000000000000e+03,3.109353892572291889e-01,0.000000000000000000e+00
1.447000000000000000e+03,8.477378034374086768e-01,0.000000000000000000e+00
1.448000000000000000e+03,1.533044719813607459e+00,0.000000000000000000e+00
1.449000000000000000e+03,1.999149531754542908e+00,0.000000000000000000e+00
1.450000000000000000e+03,4.714148502936107654e+00,0.000000000000000000e+00
1.451000000000000000e+03,2.735201152732187335e+00,0.000000000000000000e+00
1.452000000000000000e+03,-9.976088863157543951e-01,1.000000000000000000e+00
1.453000000000000000e+03,-1.449700588523426648e+00,0.000000000000000000e+00
1.454000000000000000e+03,-1.541767668679765668e+00,0.000000000000000000e+00
1.455000000000000000e+03,-1.646106088599907036e+00,0.000000000000000000e+00
1.456000000000000000e+03,-1.492755421278509020e+00,0.000000000000000000e+00
1.457000000000000000e+03,-1.100624309215387564e+00,0.000000000000000000e+00
1.458000000000000000e+03,-1.205643057342518309e+00,0.000000000000000000e+00
1.459000000000000000e+03,-9.613389316388891714e-01,0.000000000000000000e+00
1.460000000000000000e+03,-9.008575835889608419e-01,0.000000000000000000e+00
1.461000000000000000e+03,-9.988827478875941246e-01,0.000000000000000000e+00
1.462000000000000000e+03,-6.582809671996909806e-01,0.000000000000000000e+00
1.463000000000000000e+03,-7.538238441289639713e-01,0.000000000000000000e+00
1.464000000000000000e+03,-2.680401798417931247e-01,0.000000000000000000e+00
1.465000000000000000e+03,-6.439358631483532713e-01,0.000000000000000000e+00
1.466000000000000000e+03,-4.018765026084395453e-01,0.000000000000000000e+00
1.467000000000000000e+03,1.887848216132837764e-01,0.000000000000000000e+00
1.468000000000000000e+03,-9.525038130947556525e-02,0.000000000000000000e+00
1.469000000000000000e+03,3.074707900116004436e-02,0.000000000000000000e+00
1.470000000000000000e+03,8.910175688009930317e-02,0.000000000000000000e+00
1.471000000000000000e+03,2.646590353445782973e-01,0.000000000000000000e+00
1.472000000000000000e+03,-6.287746557898735156e-02,0.000000000000000000e+00
1.473000000000000000e+03,-1.980249476796640262e-01,0.000000000000000000e+00
1.474000000000000000e+03,-9.957123579490416432e-02,0.000000000000000000e+00
1.475000000000000000e+03,5.737562592095557523e-02,0.000000000000000000e+00
1.476000000000000000e+03,-8.947932833396775310e-02,0.000000000000000000e+00
1.477000000000000000e+03,-1.662607311710018465e-01,0.000000000000000000e+00
1.478000000000000000e+03,1.962266736715528037e-01,0.000000000000000000e+00
1.479000000000000000e+03,-4.098167500122351301e-03,0.000000000000000000e+00
1.480000000000000000e+03,-2.347124688546626745e-02,0.000000000000000000e+00
1.481000000000000000e+03,-9.836086508893579147e-03,0.000000000000000000e+00
1.482000000000000000e+03,-1.099797872166926038e-01,0.000000000000000000e+00
1.483000000000000000e+03,-9.652989029048608671e-02,0.000000000000000000e+00
1.484000000000000000e+03,1.219520624382781776e-01,0.000000000000000000e+00
1.485000000000000000e+03,-3.164078343990865683e-02,0.000000000000000000e+00
1.486000000000000000e+03,-3.966976359170302363e-02,0.000000000000000000e+00
1.487000000000000000e+03,1.897823134890947172e-01,0.000000000000000000e+00
1.488000000000000000e+03,-5.286825699170018961e-02,0.000000000000000000e+00
1.489000000000000000e+03,1.375927195928538793e-01,0.000000000000000000e+00
1.490000000000000000e+03,2.053890930027087447e-01,0.000000000000000000e+00
1.491000000000000000e+03,-1.420968706452419850e-01,0.000000000000000000e+00
1.492000000000000000e+03,3.880949369009039640e-01,0.000000000000000000e+00
1.493000000000000000e+03,3.483778954656961968e-01,0.000000000000000000e+00
1.494000000000000000e+03,4.248330649067147413e-02,0.000000000000000000e+00
1.495000000000000000e+03,1.889803178454091404e-01,0.000000000000000000e+00
1.496000000000000000e+03,2.721691960638179530e-01,0.000000000000000000e+00
1.497000000000000000e+03,-4.660195906876036381e-02,0.000000000000000000e+00
1.498000000000000000e+03,9.156689903539877440e-02,0.000000000000000000e+00
1.499000000000000000e+03,1.934596584018901944e-01,0.000000000000000000e+00
1.500000000000000000e+03,6.016133572146298986e-02,0.000000000000000000e+00
1.501000000000000000e+03,-5.495699486672002421e-02,0.000000000000000000e+00
1.502000000000000000e+03,5.985509385118664705e-02,0.000000000000000000e+00
1.503000000000000000e+03,1.169580856179993772e-01,0.000000000000000000e+00
1.504000000000000000e+03,9.008653889031485729e-02,0.000000000000000000e+00
1.505000000000000000e+03,2.372685059662825446e-01,0.000000000000000000e+00
1.506000000000000000e+03,1.524483427907904753e-01,0.000000000000000000e+00
1.507000000000000000e+03,9.491507689624976152e-01,0.000000000000000000e+00
1.508000000000000000e+03,1.426934476305496080e+00,0.000000000000000000e+00
1.509000000000000000e+03,1.754411394697698245e+00,0.000000000000000000e+00
1.510000000000000000e+03,2.539476651236225901e+00,0.000000000000000000e+00
1.511000000000000000e+03,3.839465289565868300e+00,0.000000000000000000e+00
1.512000000000000000e+03,2.038918717707202788e+00,0.000000000000000000e+00
1.513000000000000000e+03,-1.042933836760521205e+00,0.000000000000000000e+00
1.514000000000000000e+03,-1.744662887676399654e+00,1.000000000000000000e+00
1.515000000000000000e+03,-1.995380213073324693e+00,0.000000000000000000e+00
1.516000000000000000e+03,-1.760150752308663247e+00,0.000000000000000000e+00
1.517000000000000000e+03,-1.817721359968186290e+00,0.000000000000000000e+00
1.518000000000000000e+03,-1.404576168878425957e+00,0.000000000000000000e+00
1.519000000000000000e+03,-1.377832538247184546e+00,0.000000000000000000e+00
1.520000000000000000e+03,-1.475028965658059521e+00,0.000000000000000000e+00
1.521000000000000000e+03,-9.477440338546651022e-01,0.000000000000000000e+00
1.522000000000000000e+03,-1.113271614431862622e+00,0.000000000000000000e+00
1.523000000000000000e+03,-8.594552836633770898e-01,0.000000000000000000e+00
1.524000000000000000e+03,-7.482048887475374332e-01,0.000000000000000000e+00
1.525000000000000000e+03,-8.626825285948940270e-01,0.000000000000000000e+00
1.526000000000000000e+03,-8.219160399955146579e-01,0.000000000000000000e+00
1.527000000000000000e+03,-5.017317147909318154e-01,0.000000000000000000e+00
1.528000000000000000e+03,-2.065344132219213147e-01,0.000000000000000000e+00
1.529000000000000000e+03,-2.530867530213677385e-01,0.000000000000000000e+00
1.530000000000000000e+03,4.640854920513098336e-01,0.000000000000000000e+00
1.531000000000000000e+03,3.006776342596191864e-01,0.000000000000000000e+00
1.532000000000000000e+03,1.118930410489024363e-01,0.000000000000000000e+00
1.533000000000000000e+03,2.496199715975918054e-01,0.000000000000000000e+00
1.534000000000000000e+03,7.703606468088677883e-02,0.000000000000000000e+00
1.535000000000000000e+03,-1.768939150761023385e-02,0.000000000000000000e+00
1.536000000000000000e+03,1.944211380969033953e-01,0.000000000000000000e+00
1.537000000000000000e+03,3.202314445363606543e-01,0.000000000000000000e+00
1.538000000000000000e+03,-6.792707080149949783e-02,0.000000000000000000e+00
1.539000000000000000e+03,2.379398553203922184e-01,0.000000000000000000e+00
1.540000000000000000e+03,1.252149520582314657e-01,0.000000000000000000e+00
1.541000000000000000e+03,9.806929873560070454e-02,0.000000000000000000e+00
1.542000000000000000e+03,1.769551372643939635e-01,0.000000000000000000e+00
1.543000000000000000e+03,1.023847999719835616e-01,0.000000000000000000e+00
1.544000000000000000e+03,1.129428002471108694e-01,0.000000000000000000e+00
1.545000000000000000e+03,-4.698450197046941980e-03,0.000000000000000000e+00
1.546000000000000000e+03,1.063723360502813881e-01,0.000000000000000000e+00
1.547000000000000000e+03,-3.569065784608123348e-02,0.000000000000000000e+00
1.548000000000000000e+03,3.716432517143166692e-01,0.000000000000000000e+00
1.549000000000000000e+03,1.178618607961063290e-02,0.000000000000000000e+00
1.550000000000000000e+03,2.061007673232495008e-01,0.000000000000000000e+00
1.551000000000000000e+03,1.524678529428506735e-01,0.000000000000000000e+00
1.552000000000000000e+03,2.682674098143630337e-01,0.000000000000000000e+00
1.553000000000000000e+03,2.408736735296011233e-01,0.000000000000000000e+00
1.554000000000000000e+03,2.196749477943597262e-01,0.000000000000000000e+00
1.555000000000000000e+03,1.103637471070945120e-01,0.000000000000000000e+00
1.556000000000000000e+03,2.284093509804809297e-01,0.000000000000000000e+00
1.557000000000000000e+03,1.895033740292408897e-01,0.000000000000000000e+00
1.558000000000000000e+03,1.200934615718554123e-02,0.000000000000000000e+00
1.559000000000000000e+03,1.853577121907117320e-01,0.000000000000000000e+00
1.560000000000000000e+03,-2.883586158223592349e-02,0.000000000000000000e+00
1.561000000000000000e+03,-8.290508343354114490e-03,0.000000000000000000e+00
1.562000000000000000e+03,-8.023514643073492714e-02,0.000000000000000000e+00
1.563000000000000000e+03,3.193256702533698865e-01,0.000000000000000000e+00
1.564000000000000000e+03,1.377082596970044814e-01,0.000000000000000000e+00
1.565000000000000000e+03,2.467211897630520456e-01,0.000000000000000000e+00
1.566000000000000000e+03,4.695947825569505851e-01,0.000000000000000000e+00
1.567000000000000000e+03,1.314153042552278272e+00,0.000000000000000000e+00
1.568000000000000000e+03,1.853647695871413648e+00,0.000000000000000000e+00
1.569000000000000000e+03,2.154115901859440019e+00,0.000000000000000000e+00
1.570000000000000000e+03,3.301114898698868760e+00,0.000000000000000000e+00
1.571000000000000000e+03,3.862514766923068610e+00,0.000000000000000000e+00
1.572000000000000000e+03,1.290762457139160047e+00,0.000000000000000000e+00
1.573000000000000000e+03,-1.581371130840873551e+00,1.000000000000000000e+00
1.574000000000000000e+03,-2.104038637553233393e+00,0.000000000000000000e+00
1.575000000000000000e+03,-2.068450251135056206e+00,0.000000000000000000e+00
1.576000000000000000e+03,-1.895824534475485601e+00,0.000000000000000000e+00
1.577000000000000000e+03,-1.864705407508890245e+00,0.000000000000000000e+00
1.578000000000000000e+03,-1.569168919117754912e+00,0.000000000000000000e+00
1.579000000000000000e+03,-1.406694432928180305e+00,0.000000000000000000e+00
1.580000000000000000e+03,-1.385155552335430862e+00,0.000000000000000000e+00
1.581000000000000000e+03,-1.180182011701897293e+00,0.000000000000000000e+00
1.582000000000000000e+03,-7.984610530493508884e-01,0.000000000000000000e+00
1.583000000000000000e+03,-1.024967205348095378e+00,0.000000000000000000e+00
1.584000000000000000e+03,-1.164349604660168014e+00,0.000000000000000000e+00
1.585000000000000000e+03,-7.215438843390371559e-01,0.000000000000000000e+00
1.586000000000000000e+03,-6.810855651385966381e-01,0.000000000000000000e+00
1.587000000000000000e+03,-7.733483265749112601e-01,0.000000000000000000e+00
1.588000000000000000e+03,-3.995659236077887116e-02,0.000000000000000000e+00
1.589000000000000000e+03,1.887516526769847380e-01,0.000000000000000000e+00
