timestamp,ecg_measurement,qrs_detected
0.000000000000000000e+00,-6.326560626357302652e-01,0.000000000000000000e+00
1.000000000000000000e+00,-4.687198289851847166e-01,0.000000000000000000e+00
2.000000000000000000e+00,-3.133872897031715898e-01,0.000000000000000000e+00
3.000000000000000000e+00,-1.278338224892404396e-01,0.000000000000000000e+00
4.000000000000000000e+00,2.214583525631905747e-01,0.000000000000000000e+00
5.000000000000000000e+00,-2.296549774371773114e-02,0.000000000000000000e+00
6.000000000000000000e+00,3.528289326609093113e-01,0.000000000000000000e+00
7.000000000000000000e+00,2.455167059200046298e-01,0.000000000000000000e+00
8.000000000000000000e+00,-3.445915095416925145e-02,0.000000000000000000e+00
9.000000000000000000e+00,1.062021547680353367e-01,0.000000000000000000e+00
1.000000000000000000e+01,1.599727123395505435e-01,0.000000000000000000e+00
1.100000000000000000e+01,-1.647083572235574500e-01,0.000000000000000000e+00
1.200000000000000000e+01,2.092288281021157936e-01,0.000000000000000000e+00
1.300000000000000000e+01,3.235776880668390088e-01,0.000000000000000000e+00
1.400000000000000000e+01,-5.845922404172927689e-03,0.000000000000000000e+00
1.500000000000000000e+01,-8.616285160027434276e-02,0.000000000000000000e+00
1.600000000000000000e+01,1.106039282366926141e-01,0.000000000000000000e+00
1.700000000000000000e+01,2.783332165526125612e-01,0.000000000000000000e+00
1.800000000000000000e+01,6.742783308942902620e-02,0.000000000000000000e+00
1.900000000000000000e+01,-1.975780239402404603e-01,0.000000000000000000e+00
2.000000000000000000e+01,1.018269545486727157e-01,0.000000000000000000e+00
2.100000000000000000e+01,1.881880149891191900e-01,0.000000000000000000e+00
2.200000000000000000e+01,1.945565744664822239e-01,0.000000000000000000e+00
2.300000000000000000e+01,2.994324217411037381e-01,0.000000000000000000e+00
2.400000000000000000e+01,3.169974424998694973e-03,0.000000000000000000e+00
2.500000000000000000e+01,1.080059161866312595e-01,0.000000000000000000e+00
2.600000000000000000e+01,3.366829079057072072e-01,0.000000000000000000e+00
2.700000000000000000e+01,1.462209684162946999e-01,0.000000000000000000e+00
2.800000000000000000e+01,4.473451217346475772e-01,0.000000000000000000e+00
2.900000000000000000e+01,2.568972643963292057e-01,0.000000000000000000e+00
3.000000000000000000e+01,1.370230434441665202e-01,0.000000000000000000e+00
3.100000000000000000e+01,2.088835023347809516e-01,0.000000000000000000e+00
3.200000000000000000e+01,2.475246308638169579e-01,0.000000000000000000e+00
3.300000000000000000e+01,8.331632280448875161e-02,0.000000000000000000e+00
3.400000000000000000e+01,2.292745132839422717e-01,0.000000000000000000e+00
3.500000000000000000e+01,2.100250017567669991e-01,0.000000000000000000e+00
3.600000000000000000e+01,-2.797082157366327926e-01,0.000000000000000000e+00
3.700000000000000000e+01,1.220697754443181432e-01,0.000000000000000000e+00
3.800000000000000000e+01,1.720957539160381800e-01,0.000000000000000000e+00
3.900000000000000000e+01,9.675219379779312345e-02,0.000000000000000000e+00
4.000000000000000000e+01,3.077437369614506868e-01,0.000000000000000000e+00
4.100000000000000000e+01,1.443309274929980845e-01,0.000000000000000000e+00
4.200000000000000000e+01,1.478091875303713665e-01,0.000000000000000000e+00
4.300000000000000000e+01,1.461999936755723706e+00,0.000000000000000000e+00
4.400000000000000000e+01,1.190206483038313223e+00,0.000000000000000000e+00
4.500000000000000000e+01,2.552418810935733973e+00,0.000000000000000000e+00
4.600000000000000000e+01,4.372445289805891200e+00,0.000000000000000000e+00
4.700000000000000000e+01,1.984810459119210613e+00,0.000000000000000000e+00
4.800000000000000000e+01,-1.181471082564225394e+00,1.000000000000000000e+00
4.900000000000000000e+01,-1.595743638611256010e+00,0.000000000000000000e+00
5.000000000000000000e+01,-1.514516415398836413e+00,0.000000000000000000e+00
5.100000000000000000e+01,-1.388086744749041257e+00,0.000000000000000000e+00
5.200000000000000000e+01,-1.542113023431602947e+00,0.000000000000000000e+00
5.300000000000000000e+01,-1.300870253997294279e+00,0.000000000000000000e+00
5.400000000000000000e+01,-1.160289499634018950e+00,0.000000000000000000e+00
5.500000000000000000e+01,-9.082513132411217383e-01,0.000000000000000000e+00
5.600000000000000000e+01,-9.989898209382257477e-01,0.000000000000000000e+00
5.700000000000000000e+01,-9.051161563747516237e-01,0.000000000000000000e+00
5.800000000000000000e+01,-7.786665923319575633e-01,0.000000000000000000e+00
5.900000000000000000e+01,-5.613674700963238173e-01,0.000000000000000000e+00
6.000000000000000000e+01,-5.878596420752124629e-01,0.000000000000000000e+00
6.100000000000000000e+01,-4.773976932682413299e-01,0.000000000000000000e+00
6.200000000000000000e+01,-3.260733396367107573e-01,0.000000000000000000e+00
6.300000000000000000e+01,-3.176258767631581770e-01,0.000000000000000000e+00
6.400000000000000000e+01,-2.996515700192067116e-02,0.000000000000000000e+00
6.500000000000000000e+01,3.761854168503436235e-01,0.000000000000000000e+00
6.600000000000000000e+01,1.344083125684145640e-02,0.000000000000000000e+00
6.700000000000000000e+01,-1.346809774448176344e-01,0.000000000000000000e+00
6.800000000000000000e+01,6.394989595872331567e-02,0.000000000000000000e+00
6.900000000000000000e+01,-1.310151956492500991e-01,0.000000000000000000e+00
7.000000000000000000e+01,1.114950310678374384e-01,0.000000000000000000e+00
7.100000000000000000e+01,1.373577928515424817e-01,0.000000000000000000e+00
7.200000000000000000e+01,-1.338409034446278179e-01,0.000000000000000000e+00
7.300000000000000000e+01,2.265139791294510652e-01,0.000000000000000000e+00
7.400000000000000000e+01,1.080644369896405360e-01,0.000000000000000000e+00
7.500000000000000000e+01,-1.998880063352755365e-01,0.000000000000000000e+00
7.600000000000000000e+01,2.147027537356969162e-01,0.000000000000000000e+00
7.700000000000000000e+01,-1.144024221203373687e-01,0.000000000000000000e+00
7.800000000000000000e+01,8.273611715983338055e-02,0.000000000000000000e+00
7.900000000000000000e+01,1.337033122520185080e-01,0.000000000000000000e+00
8.000000000000000000e+01,2.216966101541363240e-02,0.000000000000000000e+00
8.100000000000000000e+01,1.559013326287317092e-01,0.000000000000000000e+00
8.200000000000000000e+01,2.720173385385340342e-02,0.000000000000000000e+00
8.300000000000000000e+01,3.399862555068531439e-02,0.000000000000000000e+00
8.400000000000000000e+01,3.865439940240737449e-01,0.000000000000000000e+00
8.500000000000000000e+01,-1.583952943616429021e-01,0.000000000000000000e+00
8.600000000000000000e+01,2.505435494130777152e-01,0.000000000000000000e+00
8.700000000000000000e+01,2.964649368619644565e-01,0.000000000000000000e+00
8.800000000000000000e+01,1.822060955965744411e-01,0.000000000000000000e+00
8.900000000000000000e+01,9.878994747524109943e-02,0.000000000000000000e+00
9.000000000000000000e+01,3.550751051818691328e-01,0.000000000000000000e+00
9.100000000000000000e+01,2.342217193649851967e-02,0.000000000000000000e+00
9.200000000000000000e+01,1.305971087794182972e-01,0.000000000000000000e+00
9.300000000000000000e+01,2.073400706349277645e-01,0.000000000000000000e+00
9.400000000000000000e+01,-9.268486091790123504e-03,0.000000000000000000e+00
9.500000000000000000e+01,8.332981108168679985e-02,0.000000000000000000e+00
9.600000000000000000e+01,-2.171990647723162637e-02,0.000000000000000000e+00
9.700000000000000000e+01,-7.408782270449462692e-02,0.000000000000000000e+00
9.800000000000000000e+01,1.307188770607177752e-01,0.000000000000000000e+00
9.900000000000000000e+01,1.025472007524202284e-01,0.000000000000000000e+00
1.000000000000000000e+02,3.072586321375448959e-01,0.000000000000000000e+00
1.010000000000000000e+02,1.261568411721512573e-01,0.000000000000000000e+00
1.020000000000000000e+02,2.518054452569714607e-01,0.000000000000000000e+00
1.030000000000000000e+02,1.427020939661548748e+00,0.000000000000000000e+00
1.040000000000000000e+02,1.342873395446438911e+00,0.000000000000000000e+00
1.050000000000000000e+02,2.531930150327890594e+00,0.000000000000000000e+00
1.060000000000000000e+02,4.448315111599755234e+00,0.000000000000000000e+00
1.070000000000000000e+02,1.013586347839112500e+00,1.000000000000000000e+00
1.080000000000000000e+02,-1.138598550232307494e+00,0.000000000000000000e+00
1.090000000000000000e+02,-1.379150042736188020e+00,0.000000000000000000e+00
1.100000000000000000e+02,-1.582003908180476426e+00,0.000000000000000000e+00
1.110000000000000000e+02,-1.461543472972000934e+00,0.000000000000000000e+00
1.120000000000000000e+02,-1.105431402692149678e+00,0.000000000000000000e+00
1.130000000000000000e+02,-1.305853412614592646e+00,0.000000000000000000e+00
1.140000000000000000e+02,-1.228241836240291818e+00,0.000000000000000000e+00
1.150000000000000000e+02,-6.361164329785474747e-01,0.000000000000000000e+00
1.160000000000000000e+02,-8.891317580383888419e-01,0.000000000000000000e+00
1.170000000000000000e+02,-9.757914833511949215e-01,0.000000000000000000e+00
1.180000000000000000e+02,-6.492870304892451871e-01,0.000000000000000000e+00
1.190000000000000000e+02,-2.309493895508245853e-01,0.000000000000000000e+00
1.200000000000000000e+02,-3.757583218920836909e-01,0.000000000000000000e+00
1.210000000000000000e+02,-7.923864089276488887e-01,0.000000000000000000e+00
1.220000000000000000e+02,-8.137322106391932375e-02,0.000000000000000000e+00
1.230000000000000000e+02,3.341451925759691410e-01,0.000000000000000000e+00
1.240000000000000000e+02,-2.135300083825807937e-01,0.000000000000000000e+00
1.250000000000000000e+02,1.891721990645059137e-01,0.000000000000000000e+00
1.260000000000000000e+02,2.887697612478520859e-01,0.000000000000000000e+00
1.270000000000000000e+02,2.582326102555188019e-01,0.000000000000000000e+00
1.280000000000000000e+02,-3.669994569530474759e-01,0.000000000000000000e+00
1.290000000000000000e+02,-6.534094615184185550e-02,0.000000000000000000e+00
1.300000000000000000e+02,-4.162644147200666306e-02,0.000000000000000000e+00
1.310000000000000000e+02,-6.199744294639236014e-02,0.000000000000000000e+00
1.320000000000000000e+02,5.754997865316059669e-02,0.000000000000000000e+00
1.330000000000000000e+02,-1.013465832820876177e-02,0.000000000000000000e+00
1.340000000000000000e+02,7.533357076092568605e-02,0.000000000000000000e+00
1.350000000000000000e+02,-2.054951219584675859e-01,0.000000000000000000e+00
1.360000000000000000e+02,4.182922594512780007e-02,0.000000000000000000e+00
1.370000000000000000e+02,4.496986566151874726e-02,0.000000000000000000e+00
1.380000000000000000e+02,5.121638061383017998e-03,0.000000000000000000e+00
1.390000000000000000e+02,1.361860070065534500e-01,0.000000000000000000e+00
1.400000000000000000e+02,2.613509044321892794e-01,0.000000000000000000e+00
1.410000000000000000e+02,-2.330544732082104609e-01,0.000000000000000000e+00
1.420000000000000000e+02,3.792720961006509350e-01,0.000000000000000000e+00
1.430000000000000000e+02,2.186212294120447319e-02,0.000000000000000000e+00
1.440000000000000000e+02,-1.050393347612783718e-01,0.000000000000000000e+00
1.450000000000000000e+02,1.601436254737490352e-03,0.000000000000000000e+00
1.460000000000000000e+02,4.030784837554193256e-01,0.000000000000000000e+00
1.470000000000000000e+02,2.645278648448492476e-01,0.000000000000000000e+00
1.480000000000000000e+02,-4.541549615287495123e-01,0.000000000000000000e+00
1.490000000000000000e+02,3.403814485750919494e-01,0.000000000000000000e+00
1.500000000000000000e+02,5.676293875694033569e-02,0.000000000000000000e+00
1.510000000000000000e+02,-2.100990848444615755e-01,0.000000000000000000e+00
1.520000000000000000e+02,3.237168961330079697e-01,0.000000000000000000e+00
1.530000000000000000e+02,-1.365555366914459057e-01,0.000000000000000000e+00
1.540000000000000000e+02,-1.077386072248644744e-01,0.000000000000000000e+00
1.550000000000000000e+02,-1.056448725735781025e-01,0.000000000000000000e+00
1.560000000000000000e+02,-4.753037423978682258e-02,0.000000000000000000e+00
1.570000000000000000e+02,1.033909417647166651e-01,0.000000000000000000e+00
1.580000000000000000e+02,-3.755369953034939229e-02,0.000000000000000000e+00
1.590000000000000000e+02,-5.390481417721706275e-02,0.000000000000000000e+00
1.600000000000000000e+02,2.499633969407453471e-01,0.000000000000000000e+00
1.610000000000000000e+02,2.721687276583067516e-04,0.000000000000000000e+00
1.620000000000000000e+02,9.631758328018769078e-01,0.000000000000000000e+00
1.630000000000000000e+02,1.593672241005800627e+00,0.000000000000000000e+00
1.640000000000000000e+02,1.782186471857553522e+00,0.000000000000000000e+00
1.650000000000000000e+02,3.604887321490935825e+00,0.000000000000000000e+00
1.660000000000000000e+02,4.091124383931615149e+00,0.000000000000000000e+00
1.670000000000000000e+02,5.848189387359981062e-01,0.000000000000000000e+00
1.680000000000000000e+02,-1.787470762772941368e+00,1.000000000000000000e+00
1.690000000000000000e+02,-1.775433789056200640e+00,0.000000000000000000e+00
1.700000000000000000e+02,-1.694397688983755312e+00,0.000000000000000000e+00
1.710000000000000000e+02,-1.757128879599851867e+00,0.000000000000000000e+00
1.720000000000000000e+02,-1.520329997608684591e+00,0.000000000000000000e+00
1.730000000000000000e+02,-1.565628814691982118e+00,0.000000000000000000e+00
1.740000000000000000e+02,-1.037992088466485940e+00,0.000000000000000000e+00
1.750000000000000000e+02,-1.309601481178404248e+00,0.000000000000000000e+00
1.760000000000000000e+02,-1.023757975458227110e+00,0.000000000000000000e+00
1.770000000000000000e+02,-6.356118751539845402e-01,0.000000000000000000e+00
1.780000000000000000e+02,-1.093002517821182629e+00,0.000000000000000000e+00
1.790000000000000000e+02,-5.816734659677017527e-01,0.000000000000000000e+00
1.800000000000000000e+02,-5.006279478178949915e-01,0.000000000000000000e+00
1.810000000000000000e+02,-6.458677246110757775e-01,0.000000000000000000e+00
1.820000000000000000e+02,-1.256198878315701317e-01,0.000000000000000000e+00
1.830000000000000000e+02,1.086500058365754279e-01,0.000000000000000000e+00
1.840000000000000000e+02,-2.262720978455672605e-01,0.000000000000000000e+00
1.850000000000000000e+02,4.080922810325527395e-01,0.000000000000000000e+00
1.860000000000000000e+02,3.490843661845483004e-01,0.000000000000000000e+00
1.870000000000000000e+02,-1.102861450765148660e-01,0.000000000000000000e+00
1.880000000000000000e+02,1.951839324466661807e-01,0.000000000000000000e+00
1.890000000000000000e+02,5.020516967051989743e-02,0.000000000000000000e+00
1.900000000000000000e+02,-6.389843556057281382e-02,0.000000000000000000e+00
1.910000000000000000e+02,3.935491045874633942e-01,0.000000000000000000e+00
1.920000000000000000e+02,2.250095890895255357e-01,0.000000000000000000e+00
1.930000000000000000e+02,-1.247193294582235185e-01,0.000000000000000000e+00
1.940000000000000000e+02,8.067047106811789381e-02,0.000000000000000000e+00
1.950000000000000000e+02,2.860143086404342005e-01,0.000000000000000000e+00
1.960000000000000000e+02,1.093038907372691493e-01,0.000000000000000000e+00
1.970000000000000000e+02,1.357177631668527937e-02,0.000000000000000000e+00
1.980000000000000000e+02,-4.210271737129347991e-02,0.000000000000000000e+00
1.990000000000000000e+02,1.391174715373311721e-01,0.000000000000000000e+00
2.000000000000000000e+02,1.820241630762394966e-02,0.000000000000000000e+00
2.010000000000000000e+02,4.650940156141951110e-01,0.000000000000000000e+00
2.020000000000000000e+02,5.801370054551938105e-02,0.000000000000000000e+00
2.030000000000000000e+02,7.269838644203954758e-02,0.000000000000000000e+00
2.040000000000000000e+02,2.664959141249294006e-01,0.000000000000000000e+00
2.050000000000000000e+02,2.233950483895846828e-01,0.000000000000000000e+00
2.060000000000000000e+02,2.687448108452081819e-01,0.000000000000000000e+00
2.070000000000000000e+02,5.782479757375248441e-01,0.000000000000000000e+00
2.080000000000000000e+02,2.686693438722164706e-01,0.000000000000000000e+00
2.090000000000000000e+02,1.267728326861956578e-01,0.000000000000000000e+00
2.100000000000000000e+02,3.917876221952394933e-01,0.000000000000000000e+00
2.110000000000000000e+02,9.759291672575975962e-02,0.000000000000000000e+00
2.120000000000000000e+02,1.313073139326509098e-01,0.000000000000000000e+00
2.130000000000000000e+02,3.917669704313175294e-01,0.000000000000000000e+00
2.140000000000000000e+02,3.374700613557726769e-02,0.000000000000000000e+00
2.150000000000000000e+02,8.039947597742229390e-03,0.000000000000000000e+00
2.160000000000000000e+02,2.278754566865152098e-01,0.000000000000000000e+00
2.170000000000000000e+02,2.970518882829437657e-01,0.000000000000000000e+00
2.180000000000000000e+02,1.058747692230020548e-01,0.000000000000000000e+00
2.190000000000000000e+02,1.958144085358489717e-01,0.000000000000000000e+00
2.200000000000000000e+02,2.864893050398262808e-01,0.000000000000000000e+00
2.210000000000000000e+02,6.909666171978522120e-02,0.000000000000000000e+00
2.220000000000000000e+02,9.496758194771656170e-01,0.000000000000000000e+00
2.230000000000000000e+02,1.396783968559443201e+00,0.000000000000000000e+00
2.240000000000000000e+02,1.531481021589241154e+00,0.000000000000000000e+00
2.250000000000000000e+02,3.910917881900466853e+00,0.000000000000000000e+00
2.260000000000000000e+02,3.680560424920400919e+00,0.000000000000000000e+00
2.270000000000000000e+02,-1.385630694028073817e-01,1.000000000000000000e+00
2.280000000000000000e+02,-1.511422630165524028e+00,0.000000000000000000e+00
2.290000000000000000e+02,-1.588188294878557061e+00,0.000000000000000000e+00
2.300000000000000000e+02,-1.585817564231865484e+00,0.000000000000000000e+00
2.310000000000000000e+02,-1.553290070207568263e+00,0.000000000000000000e+00
2.320000000000000000e+02,-9.856836291319435173e-01,0.000000000000000000e+00
2.330000000000000000e+02,-1.378309552921805015e+00,0.000000000000000000e+00
2.340000000000000000e+02,-1.165276730431703545e+00,0.000000000000000000e+00
2.350000000000000000e+02,-9.664093946761868059e-01,0.000000000000000000e+00
2.360000000000000000e+02,-6.395502517725555336e-01,0.000000000000000000e+00
2.370000000000000000e+02,-8.588526907541385036e-01,0.000000000000000000e+00
2.380000000000000000e+02,-5.037867205312742680e-01,0.000000000000000000e+00
2.390000000000000000e+02,-4.503478641981579211e-01,0.000000000000000000e+00
2.400000000000000000e+02,-6.532442945868723871e-01,0.000000000000000000e+00
2.410000000000000000e+02,-3.066602368190810002e-01,0.000000000000000000e+00
2.420000000000000000e+02,-1.285878135592840033e-01,0.000000000000000000e+00
2.430000000000000000e+02,-4.744162597663035413e-02,0.000000000000000000e+00
2.440000000000000000e+02,2.927429866811701586e-01,0.000000000000000000e+00
2.450000000000000000e+02,1.027963945619352754e-01,0.000000000000000000e+00
2.460000000000000000e+02,1.183908804419312455e-01,0.000000000000000000e+00
2.470000000000000000e+02,-9.873537996973318076e-02,0.000000000000000000e+00
2.480000000000000000e+02,-8.762638236285952287e-02,0.000000000000000000e+00
2.490000000000000000e+02,-1.976888719800829960e-02,0.000000000000000000e+00
2.500000000000000000e+02,4.026060326435258740e-03,0.000000000000000000e+00
2.510000000000000000e+02,-4.977510412095512843e-02,0.000000000000000000e+00
2.520000000000000000e+02,4.763241853754715538e-02,0.000000000000000000e+00
2.530000000000000000e+02,-1.604151630967906861e-01,0.000000000000000000e+00
2.540000000000000000e+02,-1.349031228367442714e-01,0.000000000000000000e+00
2.550000000000000000e+02,1.798596352149200162e-01,0.000000000000000000e+00
2.560000000000000000e+02,3.389723594196020900e-02,0.000000000000000000e+00
2.570000000000000000e+02,1.103781763599727961e-01,0.000000000000000000e+00
2.580000000000000000e+02,-1.801209800807564154e-01,0.000000000000000000e+00
2.590000000000000000e+02,2.842161188408907457e-04,0.000000000000000000e+00
2.600000000000000000e+02,1.139751990030792583e-01,0.000000000000000000e+00
2.610000000000000000e+02,-1.814505560164966225e-01,0.000000000000000000e+00
2.620000000000000000e+02,2.852630266656709379e-01,0.000000000000000000e+00
2.630000000000000000e+02,1.414477534442280526e-01,0.000000000000000000e+00
2.640000000000000000e+02,7.753936622604223894e-02,0.000000000000000000e+00
2.650000000000000000e+02,1.247301930610657250e-01,0.000000000000000000e+00
2.660000000000000000e+02,1.355925194808367817e-01,0.000000000000000000e+00
2.670000000000000000e+02,3.694036489212106367e-01,0.000000000000000000e+00
2.680000000000000000e+02,1.058846585338129032e-01,0.000000000000000000e+00
2.690000000000000000e+02,3.706327707124708604e-01,0.000000000000000000e+00
2.700000000000000000e+02,-3.403717779723443998e-02,0.000000000000000000e+00
2.710000000000000000e+02,1.336396506997120648e-01,0.000000000000000000e+00
2.720000000000000000e+02,1.883894810858908753e-01,0.000000000000000000e+00
2.730000000000000000e+02,-3.680634153677595638e-02,0.000000000000000000e+00
2.740000000000000000e+02,-2.387001040647037525e-02,0.000000000000000000e+00
2.750000000000000000e+02,8.547897673071695734e-02,0.000000000000000000e+00
2.760000000000000000e+02,-4.091043027956000472e-02,0.000000000000000000e+00
2.770000000000000000e+02,-2.612338462563919099e-03,0.000000000000000000e+00
2.780000000000000000e+02,1.416532903681090860e-01,0.000000000000000000e+00
2.790000000000000000e+02,3.816296720247096541e-01,0.000000000000000000e+00
2.800000000000000000e+02,1.238619150993068019e-01,0.000000000000000000e+00
2.810000000000000000e+02,1.368079236612811667e-01,0.000000000000000000e+00
2.820000000000000000e+02,6.931406431661882861e-01,0.000000000000000000e+00
2.830000000000000000e+02,1.341535807298285254e+00,0.000000000000000000e+00
2.840000000000000000e+02,1.552926181186654597e+00,0.000000000000000000e+00
2.850000000000000000e+02,3.696307522012864943e+00,0.000000000000000000e+00
2.860000000000000000e+02,2.862763662925261521e+00,0.000000000000000000e+00
2.870000000000000000e+02,-3.830968668215490869e-01,0.000000000000000000e+00
2.880000000000000000e+02,-1.209964637272074484e+00,1.000000000000000000e+00
2.890000000000000000e+02,-1.730198653093054872e+00,0.000000000000000000e+00
2.900000000000000000e+02,-1.159576661693987987e+00,0.000000000000000000e+00
2.910000000000000000e+02,-1.347435657531755426e+00,0.000000000000000000e+00
2.920000000000000000e+02,-1.149882034599009284e+00,0.000000000000000000e+00
2.930000000000000000e+02,-1.063327377840892485e+00,0.000000000000000000e+00
2.940000000000000000e+02,-1.047373908531893605e+00,0.000000000000000000e+00
2.950000000000000000e+02,-7.312923065088811070e-01,0.000000000000000000e+00
2.960000000000000000e+02,-8.600075889286281638e-01,0.000000000000000000e+00
2.970000000000000000e+02,-5.758555459125811460e-01,0.000000000000000000e+00
2.980000000000000000e+02,-5.816861538406314924e-01,0.000000000000000000e+00
2.990000000000000000e+02,-4.300214782286601589e-01,0.000000000000000000e+00
3.000000000000000000e+02,-3.203507021309666136e-01,0.000000000000000000e+00
3.010000000000000000e+02,-3.901892062319959331e-01,0.000000000000000000e+00
3.020000000000000000e+02,8.180587737683320260e-02,0.000000000000000000e+00
3.030000000000000000e+02,-1.167803751259920142e-01,0.000000000000000000e+00
3.040000000000000000e+02,9.823542116420833081e-02,0.000000000000000000e+00
3.050000000000000000e+02,2.150093577501076270e-01,0.000000000000000000e+00
3.060000000000000000e+02,-4.909923098160363930e-02,0.000000000000000000e+00
3.070000000000000000e+02,-3.195658005371648097e-02,0.000000000000000000e+00
3.080000000000000000e+02,-9.979798578019959815e-03,0.000000000000000000e+00
3.090000000000000000e+02,9.586746109791481618e-03,0.000000000000000000e+00
3.100000000000000000e+02,-2.024652883998206143e-01,0.000000000000000000e+00
3.110000000000000000e+02,-7.305833247381254836e-02,0.000000000000000000e+00
3.120000000000000000e+02,6.500238231412193424e-02,0.000000000000000000e+00
3.130000000000000000e+02,-2.363285912552882395e-01,0.000000000000000000e+00
3.140000000000000000e+02,2.093508605592890592e-01,0.000000000000000000e+00
3.150000000000000000e+02,4.247469960583263177e-02,0.000000000000000000e+00
3.160000000000000000e+02,-1.330008501059177506e-01,0.000000000000000000e+00
3.170000000000000000e+02,1.518903220229636808e-01,0.000000000000000000e+00
3.180000000000000000e+02,7.148908444392856887e-02,0.000000000000000000e+00
3.190000000000000000e+02,-1.503288439291148304e-01,0.000000000000000000e+00
3.200000000000000000e+02,2.635451750874062693e-01,0.000000000000000000e+00
3.210000000000000000e+02,2.846515014162436241e-01,0.000000000000000000e+00
3.220000000000000000e+02,-1.011672777936977186e-01,0.000000000000000000e+00
3.230000000000000000e+02,2.115119446703710160e-02,0.000000000000000000e+00
3.240000000000000000e+02,2.527251454811121345e-01,0.000000000000000000e+00
3.250000000000000000e+02,1.985378186998826289e-01,0.000000000000000000e+00
3.260000000000000000e+02,-4.424939429989427353e-02,0.000000000000000000e+00
3.270000000000000000e+02,2.173562542279874332e-01,0.000000000000000000e+00
3.280000000000000000e+02,2.183442285619253131e-01,0.000000000000000000e+00
3.290000000000000000e+02,3.406931849544083679e-01,0.000000000000000000e+00
3.300000000000000000e+02,-1.751913482388643044e-03,0.000000000000000000e+00
3.310000000000000000e+02,9.116683780185095773e-03,0.000000000000000000e+00
3.320000000000000000e+02,2.664263820521309278e-01,0.000000000000000000e+00
3.330000000000000000e+02,8.930252569394506179e-02,0.000000000000000000e+00
3.340000000000000000e+02,-1.392762457716717750e-01,0.000000000000000000e+00
3.350000000000000000e+02,1.602101529880180187e-03,0.000000000000000000e+00
3.360000000000000000e+02,7.687793615201291009e-03,0.000000000000000000e+00
3.370000000000000000e+02,6.632743322790847842e-03,0.000000000000000000e+00
3.380000000000000000e+02,2.696403675043607673e-01,0.000000000000000000e+00
3.390000000000000000e+02,1.698507475811571188e-01,0.000000000000000000e+00
3.400000000000000000e+02,1.870780053910607033e-01,0.000000000000000000e+00
3.410000000000000000e+02,1.839703486753602457e-01,0.000000000000000000e+00
3.420000000000000000e+02,1.325015262124084048e+00,0.000000000000000000e+00
3.430000000000000000e+02,1.652804548458466583e+00,0.000000000000000000e+00
3.440000000000000000e+02,1.996980809188094286e+00,0.000000000000000000e+00
3.450000000000000000e+02,3.015411817396870031e+00,0.000000000000000000e+00
3.460000000000000000e+02,3.664899197033581579e+00,0.000000000000000000e+00
3.470000000000000000e+02,1.577334294191100827e+00,0.000000000000000000e+00
3.480000000000000000e+02,-1.372312214247986217e+00,1.000000000000000000e+00
3.490000000000000000e+02,-2.003343696254641149e+00,0.000000000000000000e+00
3.500000000000000000e+02,-2.098824526620433062e+00,0.000000000000000000e+00
3.510000000000000000e+02,-1.858825171440240620e+00,0.000000000000000000e+00
3.520000000000000000e+02,-1.963175703346919709e+00,0.000000000000000000e+00
3.530000000000000000e+02,-1.679436698930994787e+00,0.000000000000000000e+00
3.540000000000000000e+02,-1.171139767543410315e+00,0.000000000000000000e+00
3.550000000000000000e+02,-1.450760211095770691e+00,0.000000000000000000e+00
3.560000000000000000e+02,-1.471663487262968806e+00,0.000000000000000000e+00
3.570000000000000000e+02,-1.098787722879208228e+00,0.000000000000000000e+00
3.580000000000000000e+02,-7.941030590891473562e-01,0.000000000000000000e+00
3.590000000000000000e+02,-9.668739139088041723e-01,0.000000000000000000e+00
3.600000000000000000e+02,-9.375597716626140610e-01,0.000000000000000000e+00
3.610000000000000000e+02,-8.203345222475517673e-01,0.000000000000000000e+00
3.620000000000000000e+02,-4.225355903336339702e-01,0.000000000000000000e+00
3.630000000000000000e+02,-3.468002459709140228e-01,0.000000000000000000e+00
3.640000000000000000e+02,-4.800154256162574018e-02,0.000000000000000000e+00
3.650000000000000000e+02,5.016474665675830780e-01,0.000000000000000000e+00
3.660000000000000000e+02,1.753128321203482054e-01,0.000000000000000000e+00
3.670000000000000000e+02,3.885269032907928688e-01,0.000000000000000000e+00
3.680000000000000000e+02,2.486880142428722074e-01,0.000000000000000000e+00
3.690000000000000000e+02,8.319801031606724115e-03,0.000000000000000000e+00
3.700000000000000000e+02,1.776043279622861182e-01,0.000000000000000000e+00
3.710000000000000000e+02,2.328561368048270852e-01,0.000000000000000000e+00
3.720000000000000000e+02,2.985794297753827098e-01,0.000000000000000000e+00
3.730000000000000000e+02,1.723821446614219044e-01,0.000000000000000000e+00
3.740000000000000000e+02,2.726180765647523985e-01,0.000000000000000000e+00
3.750000000000000000e+02,2.773806875210072520e-01,0.000000000000000000e+00
3.760000000000000000e+02,-1.785258394255033465e-02,0.000000000000000000e+00
3.770000000000000000e+02,4.240939564761114222e-01,0.000000000000000000e+00
3.780000000000000000e+02,-3.041671375402801858e-02,0.000000000000000000e+00
3.790000000000000000e+02,2.188832884080996466e-01,0.000000000000000000e+00
3.800000000000000000e+02,9.028317613033533251e-02,0.000000000000000000e+00
3.810000000000000000e+02,1.573236330262622051e-01,0.000000000000000000e+00
3.820000000000000000e+02,1.307432169427533430e-01,0.000000000000000000e+00
3.830000000000000000e+02,1.717878177957253283e-01,0.000000000000000000e+00
3.840000000000000000e+02,2.359336968727701878e-01,0.000000000000000000e+00
3.850000000000000000e+02,3.237170036883242896e-01,0.000000000000000000e+00
3.860000000000000000e+02,2.480805772122720299e-01,0.000000000000000000e+00
3.870000000000000000e+02,2.416223375952572250e-01,0.000000000000000000e+00
3.880000000000000000e+02,2.624011451421494057e-01,0.000000000000000000e+00
3.890000000000000000e+02,2.143940288200003597e-01,0.000000000000000000e+00
3.900000000000000000e+02,4.196415662363475185e-01,0.000000000000000000e+00
3.910000000000000000e+02,9.968615405609378144e-02,0.000000000000000000e+00
3.920000000000000000e+02,1.389234526695041771e-01,0.000000000000000000e+00
3.930000000000000000e+02,2.912907189299044908e-01,0.000000000000000000e+00
3.940000000000000000e+02,2.435503141079625386e-02,0.000000000000000000e+00
3.950000000000000000e+02,4.892604237551388680e-02,0.000000000000000000e+00
3.960000000000000000e+02,1.076906164210981315e-01,0.000000000000000000e+00
3.970000000000000000e+02,5.689300750985605559e-02,0.000000000000000000e+00
3.980000000000000000e+02,2.002030740147122401e-01,0.000000000000000000e+00
3.990000000000000000e+02,2.210306442191194709e-01,0.000000000000000000e+00
4.000000000000000000e+02,2.102896375268379359e-01,0.000000000000000000e+00
4.010000000000000000e+02,5.601291443068951992e-01,0.000000000000000000e+00
4.020000000000000000e+02,1.484492369584167637e+00,0.000000000000000000e+00
4.030000000000000000e+02,1.590813930718668168e+00,0.000000000000000000e+00
4.040000000000000000e+02,2.388270989958119372e+00,0.000000000000000000e+00
4.050000000000000000e+02,3.184898121075113497e+00,0.000000000000000000e+00
4.060000000000000000e+02,3.619469701333605904e+00,0.000000000000000000e+00
4.070000000000000000e+02,1.256712038254591324e+00,0.000000000000000000e+00
4.080000000000000000e+02,-1.607441315795138381e+00,1.000000000000000000e+00
4.090000000000000000e+02,-2.038701049445119651e+00,0.000000000000000000e+00
4.100000000000000000e+02,-2.041357553090109356e+00,0.000000000000000000e+00
4.110000000000000000e+02,-1.971266145668742142e+00,0.000000000000000000e+00
4.120000000000000000e+02,-1.777948458602930382e+00,0.000000000000000000e+00
4.130000000000000000e+02,-1.558963749742670490e+00,0.000000000000000000e+00
4.140000000000000000e+02,-1.424923312168253409e+00,0.000000000000000000e+00
4.150000000000000000e+02,-1.251267149501824161e+00,0.000000000000000000e+00
4.160000000000000000e+02,-1.198330650172952483e+00,0.000000000000000000e+00
4.170000000000000000e+02,-9.581792575753932395e-01,0.000000000000000000e+00
4.180000000000000000e+02,-9.823302917358952557e-01,0.000000000000000000e+00
4.190000000000000000e+02,-6.369479783560698660e-01,0.000000000000000000e+00
4.200000000000000000e+02,-9.731035957669788017e-01,0.000000000000000000e+00
4.210000000000000000e+02,-9.721389110378688692e-01,0.000000000000000000e+00
4.220000000000000000e+02,-3.669699363958385252e-01,0.000000000000000000e+00
4.230000000000000000e+02,-1.838026426492228305e-01,0.000000000000000000e+00
4.240000000000000000e+02,1.696874233968735102e-01,0.000000000000000000e+00
4.250000000000000000e+02,5.416038482454857972e-01,0.000000000000000000e+00
4.260000000000000000e+02,2.489755408641632917e-01,0.000000000000000000e+00
4.270000000000000000e+02,1.663839083775967564e-01,0.000000000000000000e+00
4.280000000000000000e+02,3.712573247349938432e-01,0.000000000000000000e+00
4.290000000000000000e+02,9.723846499512880936e-02,0.000000000000000000e+00
4.300000000000000000e+02,4.682665917987254844e-01,0.000000000000000000e+00
4.310000000000000000e+02,3.632369038936612837e-02,0.000000000000000000e+00
4.320000000000000000e+02,3.238785231565787792e-01,0.000000000000000000e+00
4.330000000000000000e+02,2.034709849535584480e-01,0.000000000000000000e+00
4.340000000000000000e+02,1.218803110450930732e-01,0.000000000000000000e+00
4.350000000000000000e+02,5.119694527058220590e-01,0.000000000000000000e+00
4.360000000000000000e+02,-5.616483966469162231e-02,0.000000000000000000e+00
4.370000000000000000e+02,5.647509881300471352e-02,0.000000000000000000e+00
4.380000000000000000e+02,3.134656544074621576e-01,0.000000000000000000e+00
4.390000000000000000e+02,7.907104142992362611e-03,0.000000000000000000e+00
4.400000000000000000e+02,-2.227008156364287603e-02,0.000000000000000000e+00
4.410000000000000000e+02,4.075105506793608168e-01,0.000000000000000000e+00
4.420000000000000000e+02,4.786098777062679221e-02,0.000000000000000000e+00
4.430000000000000000e+02,-7.110334541335246172e-02,0.000000000000000000e+00
4.440000000000000000e+02,3.407986140914744944e-01,0.000000000000000000e+00
4.450000000000000000e+02,3.896170360927673215e-01,0.000000000000000000e+00
4.460000000000000000e+02,-8.518026549627361055e-02,0.000000000000000000e+00
4.470000000000000000e+02,3.257119078435455339e-01,0.000000000000000000e+00
4.480000000000000000e+02,4.636329444789248355e-01,0.000000000000000000e+00
4.490000000000000000e+02,1.788992908958873251e-01,0.000000000000000000e+00
4.500000000000000000e+02,2.397549755704475316e-01,0.000000000000000000e+00
4.510000000000000000e+02,1.286940316347782165e-01,0.000000000000000000e+00
4.520000000000000000e+02,4.609499918894232467e-02,0.000000000000000000e+00
4.530000000000000000e+02,3.099040899714100017e-01,0.000000000000000000e+00
4.540000000000000000e+02,-2.739309846731820264e-02,0.000000000000000000e+00
4.550000000000000000e+02,-6.016480738843864307e-02,0.000000000000000000e+00
4.560000000000000000e+02,1.833231890064250524e-01,0.000000000000000000e+00
4.570000000000000000e+02,-4.272504481310440694e-02,0.000000000000000000e+00
4.580000000000000000e+02,-3.121927455103156931e-02,0.000000000000000000e+00
4.590000000000000000e+02,3.081972603437443947e-01,0.000000000000000000e+00
4.600000000000000000e+02,-6.315143771677907136e-02,0.000000000000000000e+00
4.610000000000000000e+02,4.209681742675374094e-01,0.000000000000000000e+00
4.620000000000000000e+02,1.354678198342575968e+00,0.000000000000000000e+00
4.630000000000000000e+02,1.440536726479355600e+00,0.000000000000000000e+00
4.640000000000000000e+02,1.552989494007769311e+00,0.000000000000000000e+00
4.650000000000000000e+02,2.760108705762851056e+00,0.000000000000000000e+00
4.660000000000000000e+02,3.266924499234752588e+00,0.000000000000000000e+00
4.670000000000000000e+02,1.264731948759539870e+00,0.000000000000000000e+00
4.680000000000000000e+02,-1.097362440623018687e+00,1.000000000000000000e+00
4.690000000000000000e+02,-1.910288735442230657e+00,0.000000000000000000e+00
4.700000000000000000e+02,-1.993272865104234626e+00,0.000000000000000000e+00
4.710000000000000000e+02,-1.596733111744081945e+00,0.000000000000000000e+00
4.720000000000000000e+02,-1.578204872569838990e+00,0.000000000000000000e+00
4.730000000000000000e+02,-1.350689814024458979e+00,0.000000000000000000e+00
4.740000000000000000e+02,-1.325989321482790473e+00,0.000000000000000000e+00
4.750000000000000000e+02,-1.325122852824929698e+00,0.000000000000000000e+00
4.760000000000000000e+02,-8.811908963870295208e-01,0.000000000000000000e+00
4.770000000000000000e+02,-9.420176587410280522e-01,0.000000000000000000e+00
4.780000000000000000e+02,-8.487505229183835986e-01,0.000000000000000000e+00
4.790000000000000000e+02,-7.704789757059457012e-01,0.000000000000000000e+00
4.800000000000000000e+02,-9.272303760353811652e-01,0.000000000000000000e+00
4.810000000000000000e+02,-6.257358010331811604e-01,0.000000000000000000e+00
4.820000000000000000e+02,-4.082164764473563690e-01,0.000000000000000000e+00
4.830000000000000000e+02,2.788020356628466423e-02,0.000000000000000000e+00
4.840000000000000000e+02,-1.214194778916782014e-01,0.000000000000000000e+00
4.850000000000000000e+02,5.082857302548384748e-01,0.000000000000000000e+00
4.860000000000000000e+02,2.107759456279037213e-01,0.000000000000000000e+00
4.870000000000000000e+02,1.571385388198960620e-01,0.000000000000000000e+00
4.880000000000000000e+02,1.754791960802684347e-01,0.000000000000000000e+00
4.890000000000000000e+02,1.311221789571713481e-01,0.000000000000000000e+00
4.900000000000000000e+02,6.834095872487494505e-02,0.000000000000000000e+00
4.910000000000000000e+02,1.000547260520818632e-01,0.000000000000000000e+00
4.920000000000000000e+02,1.787836015856897054e-01,0.000000000000000000e+00
4.930000000000000000e+02,7.169905219768822613e-02,0.000000000000000000e+00
4.940000000000000000e+02,2.146048041201887857e-01,0.000000000000000000e+00
4.950000000000000000e+02,8.467766385027085396e-02,0.000000000000000000e+00
4.960000000000000000e+02,1.651974301965480618e-01,0.000000000000000000e+00
4.970000000000000000e+02,2.494806198689606680e-01,0.000000000000000000e+00
4.980000000000000000e+02,-7.301772611005784286e-02,0.000000000000000000e+00
4.990000000000000000e+02,1.976919596473747653e-01,0.000000000000000000e+00
5.000000000000000000e+02,4.705605095584903391e-02,0.000000000000000000e+00
5.010000000000000000e+02,9.003373108394817359e-02,0.000000000000000000e+00
5.020000000000000000e+02,2.404181183339391403e-01,0.000000000000000000e+00
5.030000000000000000e+02,5.542174037600484243e-02,0.000000000000000000e+00
5.040000000000000000e+02,2.027016092096509126e-01,0.000000000000000000e+00
5.050000000000000000e+02,1.540782345702499112e-01,0.000000000000000000e+00
5.060000000000000000e+02,9.646286495176295550e-02,0.000000000000000000e+00
5.070000000000000000e+02,2.940956859370769672e-01,0.000000000000000000e+00
5.080000000000000000e+02,3.444595300879160771e-01,0.000000000000000000e+00
5.090000000000000000e+02,1.618884069011531091e-01,0.000000000000000000e+00
5.100000000000000000e+02,1.287721123893553754e-01,0.000000000000000000e+00
5.110000000000000000e+02,6.412933947182634931e-02,0.000000000000000000e+00
5.120000000000000000e+02,1.401388887801511829e-01,0.000000000000000000e+00
5.130000000000000000e+02,1.347248090638475115e-01,0.000000000000000000e+00
5.140000000000000000e+02,1.904823899252115760e-02,0.000000000000000000e+00
5.150000000000000000e+02,-7.141023983665840957e-02,0.000000000000000000e+00
5.160000000000000000e+02,1.137868021957708503e-01,0.000000000000000000e+00
5.170000000000000000e+02,1.562546145363805788e-03,0.000000000000000000e+00
5.180000000000000000e+02,2.658006596891103190e-01,0.000000000000000000e+00
5.190000000000000000e+02,8.279495278590846830e-02,0.000000000000000000e+00
5.200000000000000000e+02,1.315322131419979224e-01,0.000000000000000000e+00
5.210000000000000000e+02,8.200718132199230626e-01,0.000000000000000000e+00
5.220000000000000000e+02,1.429991422370640031e+00,0.000000000000000000e+00
5.230000000000000000e+02,1.567973797146426262e+00,0.000000000000000000e+00
5.240000000000000000e+02,2.139197590765605117e+00,0.000000000000000000e+00
5.250000000000000000e+02,3.252106598995389231e+00,0.000000000000000000e+00
5.260000000000000000e+02,3.330260141451966138e+00,0.000000000000000000e+00
5.270000000000000000e+02,6.335075505655115569e-01,0.000000000000000000e+00
5.280000000000000000e+02,-1.643852603357814468e+00,1.000000000000000000e+00
5.290000000000000000e+02,-1.994464013906162458e+00,0.000000000000000000e+00
5.300000000000000000e+02,-1.918234046115082636e+00,0.000000000000000000e+00
5.310000000000000000e+02,-1.902426483264155976e+00,0.000000000000000000e+00
5.320000000000000000e+02,-1.645124838125377575e+00,0.000000000000000000e+00
5.330000000000000000e+02,-1.460504293083400906e+00,0.000000000000000000e+00
5.340000000000000000e+02,-1.293598237539227203e+00,0.000000000000000000e+00
5.350000000000000000e+02,-1.212663748803783248e+00,0.000000000000000000e+00
5.360000000000000000e+02,-1.061518127950968005e+00,0.000000000000000000e+00
5.370000000000000000e+02,-1.055362053604051109e+00,0.000000000000000000e+00
5.380000000000000000e+02,-9.312922313230997950e-01,0.000000000000000000e+00
5.390000000000000000e+02,-8.625263647142705770e-01,0.000000000000000000e+00
5.400000000000000000e+02,-8.636999681607553381e-01,0.000000000000000000e+00
5.410000000000000000e+02,-6.209400383302520199e-01,0.000000000000000000e+00
5.420000000000000000e+02,-4.733688760477544055e-01,0.000000000000000000e+00
5.430000000000000000e+02,-1.933845732237159665e-01,0.000000000000000000e+00
5.440000000000000000e+02,1.909727206648429432e-01,0.000000000000000000e+00
5.450000000000000000e+02,4.290634214581689476e-01,0.000000000000000000e+00
5.460000000000000000e+02,3.330459498854850264e-01,0.000000000000000000e+00
5.470000000000000000e+02,1.003545896933619591e-01,0.000000000000000000e+00
5.480000000000000000e+02,2.753884191429258332e-01,0.000000000000000000e+00
5.490000000000000000e+02,2.815385469802255043e-04,0.000000000000000000e+00
5.500000000000000000e+02,6.943413541380530352e-02,0.000000000000000000e+00
5.510000000000000000e+02,2.643309683123265530e-01,0.000000000000000000e+00
5.520000000000000000e+02,7.763668422103600641e-02,0.000000000000000000e+00
5.530000000000000000e+02,2.394416821661984329e-01,0.000000000000000000e+00
5.540000000000000000e+02,2.170080633450049146e-01,0.000000000000000000e+00
5.550000000000000000e+02,2.893600958365007414e-01,0.000000000000000000e+00
5.560000000000000000e+02,7.077300092655730568e-02,0.000000000000000000e+00
5.570000000000000000e+02,7.548652915936480967e-02,0.000000000000000000e+00
5.580000000000000000e+02,2.854983092235182096e-01,0.000000000000000000e+00
5.590000000000000000e+02,1.272537651225450206e-01,0.000000000000000000e+00
5.600000000000000000e+02,5.422852484583378513e-02,0.000000000000000000e+00
5.610000000000000000e+02,-3.090043930198732927e-02,0.000000000000000000e+00
5.620000000000000000e+02,1.981859362721474505e-01,0.000000000000000000e+00
5.630000000000000000e+02,1.549361399176792109e-01,0.000000000000000000e+00
5.640000000000000000e+02,2.346913121361015320e-01,0.000000000000000000e+00
5.650000000000000000e+02,1.402319414407653120e-02,0.000000000000000000e+00
5.660000000000000000e+02,6.291805632371443024e-02,0.000000000000000000e+00
5.670000000000000000e+02,2.708432838308000301e-01,0.000000000000000000e+00
5.680000000000000000e+02,2.042293632174300155e-01,0.000000000000000000e+00
5.690000000000000000e+02,2.889600314982954665e-01,0.000000000000000000e+00
5.700000000000000000e+02,3.395764946857871697e-02,0.000000000000000000e+00
5.710000000000000000e+02,3.545257818983451603e-01,0.000000000000000000e+00
5.720000000000000000e+02,-1.176039040758207616e-01,0.000000000000000000e+00
5.730000000000000000e+02,1.288769924520560273e-01,0.000000000000000000e+00
5.740000000000000000e+02,2.142330092758170934e-01,0.000000000000000000e+00
5.750000000000000000e+02,-1.968469109296976383e-01,0.000000000000000000e+00
5.760000000000000000e+02,-4.419366421545847107e-02,0.000000000000000000e+00
5.770000000000000000e+02,9.666413927652509064e-02,0.000000000000000000e+00
5.780000000000000000e+02,6.131430348836192090e-02,0.000000000000000000e+00
5.790000000000000000e+02,2.443802549328594198e-01,0.000000000000000000e+00
5.800000000000000000e+02,1.940556053940312720e-01,0.000000000000000000e+00
5.810000000000000000e+02,8.872012772279266324e-01,0.000000000000000000e+00
5.820000000000000000e+02,1.722131602885333956e+00,0.000000000000000000e+00
5.830000000000000000e+02,2.052847478226204725e+00,0.000000000000000000e+00
5.840000000000000000e+02,2.640217161997535200e+00,0.000000000000000000e+00
5.850000000000000000e+02,3.205712754601727443e+00,0.000000000000000000e+00
5.860000000000000000e+02,3.146250876911307337e+00,0.000000000000000000e+00
5.870000000000000000e+02,-4.760536722519420616e-01,0.000000000000000000e+00
5.880000000000000000e+02,-1.952386370146500960e+00,1.000000000000000000e+00
5.890000000000000000e+02,-2.187712318056191041e+00,0.000000000000000000e+00
5.900000000000000000e+02,-2.249731776955446794e+00,0.000000000000000000e+00
5.910000000000000000e+02,-1.774883338417434064e+00,0.000000000000000000e+00
5.920000000000000000e+02,-1.755487054187709672e+00,0.000000000000000000e+00
5.930000000000000000e+02,-1.493422343812669473e+00,0.000000000000000000e+00
5.940000000000000000e+02,-1.349822871926290135e+00,0.000000000000000000e+00
5.950000000000000000e+02,-1.168600695093128694e+00,0.000000000000000000e+00
5.960000000000000000e+02,-1.316017194607839835e+00,0.000000000000000000e+00
5.970000000000000000e+02,-9.260007936036761533e-01,0.000000000000000000e+00
5.980000000000000000e+02,-9.557367918700472309e-01,0.000000000000000000e+00
5.990000000000000000e+02,-9.781269966605434796e-01,0.000000000000000000e+00
6.000000000000000000e+02,-8.446731937304315929e-01,0.000000000000000000e+00
6.010000000000000000e+02,-7.757063496960732163e-01,0.000000000000000000e+00
6.020000000000000000e+02,-2.931522196247925427e-01,0.000000000000000000e+00
6.030000000000000000e+02,-8.033692490296229227e-02,0.000000000000000000e+00
6.040000000000000000e+02,4.933291136992932757e-01,0.000000000000000000e+00
6.050000000000000000e+02,5.446224384978568533e-01,0.000000000000000000e+00
6.060000000000000000e+02,2.648492243807654689e-01,0.000000000000000000e+00
6.070000000000000000e+02,3.031598985551644532e-01,0.000000000000000000e+00
6.080000000000000000e+02,2.048748183112669430e-01,0.000000000000000000e+00
6.090000000000000000e+02,3.024872268090570415e-01,0.000000000000000000e+00
6.100000000000000000e+02,9.373363659701328121e-02,0.000000000000000000e+00
6.110000000000000000e+02,6.535386120117319120e-01,0.000000000000000000e+00
6.120000000000000000e+02,5.351309891643559608e-03,0.000000000000000000e+00
6.130000000000000000e+02,1.269467610198219687e-01,0.000000000000000000e+00
6.140000000000000000e+02,4.887435364136221705e-01,0.000000000000000000e+00
6.150000000000000000e+02,3.100658452075832905e-01,0.000000000000000000e+00
6.160000000000000000e+02,1.278093658153947876e-01,0.000000000000000000e+00
6.170000000000000000e+02,1.961915597657253318e-01,0.000000000000000000e+00
6.180000000000000000e+02,2.510833137804969195e-01,0.000000000000000000e+00
6.190000000000000000e+02,3.079484195570282926e-02,0.000000000000000000e+00
6.200000000000000000e+02,4.252835354806910328e-01,0.000000000000000000e+00
6.210000000000000000e+02,-6.498151619403562396e-02,0.000000000000000000e+00
6.220000000000000000e+02,1.642461233368451012e-01,0.000000000000000000e+00
6.230000000000000000e+02,4.991042863643709304e-01,0.000000000000000000e+00
6.240000000000000000e+02,2.399117645909704111e-02,0.000000000000000000e+00
6.250000000000000000e+02,2.987358134211104965e-01,0.000000000000000000e+00
6.260000000000000000e+02,5.024266967870895106e-01,0.000000000000000000e+00
6.270000000000000000e+02,1.633648228768095900e-01,0.000000000000000000e+00
6.280000000000000000e+02,2.694448520116587975e-01,0.000000000000000000e+00
6.290000000000000000e+02,4.903647948175193783e-01,0.000000000000000000e+00
6.300000000000000000e+02,9.816327158573327771e-02,0.000000000000000000e+00
6.310000000000000000e+02,8.275396912868374089e-02,0.000000000000000000e+00
6.320000000000000000e+02,3.773764534021922801e-01,0.000000000000000000e+00
6.330000000000000000e+02,1.610736778004212832e-01,0.000000000000000000e+00
6.340000000000000000e+02,-3.501517780927633217e-01,0.000000000000000000e+00
6.350000000000000000e+02,2.536867608766321669e-01,0.000000000000000000e+00
6.360000000000000000e+02,5.945416480381334606e-02,0.000000000000000000e+00
6.370000000000000000e+02,-2.588923568623861110e-02,0.000000000000000000e+00
6.380000000000000000e+02,1.455752679909200487e-01,0.000000000000000000e+00
6.390000000000000000e+02,2.384797558131043493e-01,0.000000000000000000e+00
6.400000000000000000e+02,-1.137776769658882803e-01,0.000000000000000000e+00
6.410000000000000000e+02,1.220586526786292536e+00,0.000000000000000000e+00
6.420000000000000000e+02,1.466679047886178200e+00,0.000000000000000000e+00
6.430000000000000000e+02,1.309254808807837067e+00,0.000000000000000000e+00
6.440000000000000000e+02,2.512155370122177711e+00,0.000000000000000000e+00
6.450000000000000000e+02,3.135762372437087553e+00,0.000000000000000000e+00
6.460000000000000000e+02,2.805909011572647493e+00,0.000000000000000000e+00
6.470000000000000000e+02,-2.768425301300023178e-01,0.000000000000000000e+00
6.480000000000000000e+02,-1.684899582685292829e+00,1.000000000000000000e+00
6.490000000000000000e+02,-1.754809313895504985e+00,0.000000000000000000e+00
6.500000000000000000e+02,-1.960932504118948927e+00,0.000000000000000000e+00
6.510000000000000000e+02,-1.529433926595169524e+00,0.000000000000000000e+00
6.520000000000000000e+02,-1.537555481043577421e+00,0.000000000000000000e+00
6.530000000000000000e+02,-1.530214931609644724e+00,0.000000000000000000e+00
6.540000000000000000e+02,-1.310433325632502477e+00,0.000000000000000000e+00
6.550000000000000000e+02,-7.610963032080402257e-01,0.000000000000000000e+00
6.560000000000000000e+02,-1.294250183297002810e+00,0.000000000000000000e+00
6.570000000000000000e+02,-1.055373822056833610e+00,0.000000000000000000e+00
6.580000000000000000e+02,-6.591104599282296972e-01,0.000000000000000000e+00
6.590000000000000000e+02,-1.006406995606324850e+00,0.000000000000000000e+00
6.600000000000000000e+02,-7.330905924838805321e-01,0.000000000000000000e+00
6.610000000000000000e+02,-4.977298539663102539e-01,0.000000000000000000e+00
6.620000000000000000e+02,-2.550782233469165994e-01,0.000000000000000000e+00
6.630000000000000000e+02,-3.394040863323932733e-01,0.000000000000000000e+00
6.640000000000000000e+02,5.022159303391507956e-01,0.000000000000000000e+00
6.650000000000000000e+02,5.694031044101069972e-01,0.000000000000000000e+00
6.660000000000000000e+02,1.199523784897936485e-01,0.000000000000000000e+00
6.670000000000000000e+02,-1.248136479062419424e-01,0.000000000000000000e+00
6.680000000000000000e+02,4.592339057693399229e-01,0.000000000000000000e+00
6.690000000000000000e+02,1.580494198402302708e-01,0.000000000000000000e+00
6.700000000000000000e+02,-2.501285044862457396e-01,0.000000000000000000e+00
6.710000000000000000e+02,9.859000875615384074e-02,0.000000000000000000e+00
6.720000000000000000e+02,3.119189074625124958e-01,0.000000000000000000e+00
6.730000000000000000e+02,3.126080752259025597e-01,0.000000000000000000e+00
6.740000000000000000e+02,-2.644444472949937786e-01,0.000000000000000000e+00
6.750000000000000000e+02,2.792102207040016437e-01,0.000000000000000000e+00
6.760000000000000000e+02,2.456051442091249648e-01,0.000000000000000000e+00
6.770000000000000000e+02,5.366530386565046030e-03,0.000000000000000000e+00
6.780000000000000000e+02,-2.512464834745188891e-01,0.000000000000000000e+00
6.790000000000000000e+02,5.006398955195962008e-01,0.000000000000000000e+00
6.800000000000000000e+02,-1.557967904534212078e-01,0.000000000000000000e+00
6.810000000000000000e+02,2.801765020824454888e-01,0.000000000000000000e+00
6.820000000000000000e+02,1.065512073118206338e-02,0.000000000000000000e+00
6.830000000000000000e+02,1.007015958726076854e-01,0.000000000000000000e+00
6.840000000000000000e+02,2.338238460342461911e-01,0.000000000000000000e+00
6.850000000000000000e+02,5.328653147416823055e-01,0.000000000000000000e+00
6.860000000000000000e+02,-1.694261856526111387e-01,0.000000000000000000e+00
6.870000000000000000e+02,2.788864196541030460e-01,0.000000000000000000e+00
6.880000000000000000e+02,3.412357533248353558e-01,0.000000000000000000e+00
6.890000000000000000e+02,-6.139015021228488161e-02,0.000000000000000000e+00
6.900000000000000000e+02,3.321712996916248439e-01,0.000000000000000000e+00
6.910000000000000000e+02,2.488496833802027741e-01,0.000000000000000000e+00
6.920000000000000000e+02,5.236646542543984401e-02,0.000000000000000000e+00
6.930000000000000000e+02,5.089822372727115588e-03,0.000000000000000000e+00
6.940000000000000000e+02,7.821639726760057365e-02,0.000000000000000000e+00
6.950000000000000000e+02,-6.500707450329394621e-02,0.000000000000000000e+00
6.960000000000000000e+02,-3.757476699094206701e-02,0.000000000000000000e+00
6.970000000000000000e+02,1.378477790320545848e-01,0.000000000000000000e+00
6.980000000000000000e+02,1.351472814729081096e-01,0.000000000000000000e+00
6.990000000000000000e+02,1.450568575123918624e-01,0.000000000000000000e+00
7.000000000000000000e+02,1.360613144110736639e-01,0.000000000000000000e+00
7.010000000000000000e+02,1.199180812802363993e+00,0.000000000000000000e+00
7.020000000000000000e+02,1.397916901586065297e+00,0.000000000000000000e+00
7.030000000000000000e+02,1.988956504675915449e+00,0.000000000000000000e+00
7.040000000000000000e+02,2.538214980098198126e+00,0.000000000000000000e+00
7.050000000000000000e+02,3.341973262926031918e+00,0.000000000000000000e+00
7.060000000000000000e+02,2.304845381179218666e+00,0.000000000000000000e+00
7.070000000000000000e+02,-4.408624117096738293e-01,0.000000000000000000e+00
7.080000000000000000e+02,-1.807768135666328435e+00,1.000000000000000000e+00
7.090000000000000000e+02,-2.002214707385705950e+00,0.000000000000000000e+00
7.100000000000000000e+02,-1.957546459079272605e+00,0.000000000000000000e+00
7.110000000000000000e+02,-1.891874388557387654e+00,0.000000000000000000e+00
7.120000000000000000e+02,-1.531054008569137315e+00,0.000000000000000000e+00
7.130000000000000000e+02,-1.462916927853268989e+00,0.000000000000000000e+00
7.140000000000000000e+02,-1.075146552752401119e+00,0.000000000000000000e+00
7.150000000000000000e+02,-1.166085149101179885e+00,0.000000000000000000e+00
7.160000000000000000e+02,-1.038588543634169969e+00,0.000000000000000000e+00
7.170000000000000000e+02,-8.047344577187699466e-01,0.000000000000000000e+00
7.180000000000000000e+02,-1.157045862850369256e+00,0.000000000000000000e+00
7.190000000000000000e+02,-6.055587021483941346e-01,0.000000000000000000e+00
7.200000000000000000e+02,-6.817926861512978443e-01,0.000000000000000000e+00
7.210000000000000000e+02,-6.268049035311119566e-01,0.000000000000000000e+00
7.220000000000000000e+02,-4.380357625681911005e-01,0.000000000000000000e+00
7.230000000000000000e+02,1.031130079638950398e-01,0.000000000000000000e+00
7.240000000000000000e+02,3.308039954801872962e-01,0.000000000000000000e+00
7.250000000000000000e+02,3.136225426025319729e-01,0.000000000000000000e+00
7.260000000000000000e+02,2.404883910917681444e-01,0.000000000000000000e+00
7.270000000000000000e+02,2.445195503432906758e-01,0.000000000000000000e+00
7.280000000000000000e+02,1.783548900506920776e-01,0.000000000000000000e+00
7.290000000000000000e+02,1.652479078916248012e-01,0.000000000000000000e+00
7.300000000000000000e+02,6.828297925644222222e-02,0.000000000000000000e+00
7.310000000000000000e+02,2.344003466183236517e-01,0.000000000000000000e+00
7.320000000000000000e+02,-4.772852593485772676e-02,0.000000000000000000e+00
7.330000000000000000e+02,4.049573872037480204e-01,0.000000000000000000e+00
7.340000000000000000e+02,-1.985179443576554417e-02,0.000000000000000000e+00
7.350000000000000000e+02,1.758199676877658102e-01,0.000000000000000000e+00
7.360000000000000000e+02,7.053915398481394594e-02,0.000000000000000000e+00
7.370000000000000000e+02,2.414730403147131443e-01,0.000000000000000000e+00
7.380000000000000000e+02,2.606207695421191087e-02,0.000000000000000000e+00
7.390000000000000000e+02,3.108500813781286953e-01,0.000000000000000000e+00
7.400000000000000000e+02,7.252041979035299402e-02,0.000000000000000000e+00
7.410000000000000000e+02,8.891076172355319440e-02,0.000000000000000000e+00
7.420000000000000000e+02,3.126988428847999324e-01,0.000000000000000000e+00
7.430000000000000000e+02,2.470178611952950423e-02,0.000000000000000000e+00
7.440000000000000000e+02,1.242104646669778822e-01,0.000000000000000000e+00
7.450000000000000000e+02,1.896453026433624345e-01,0.000000000000000000e+00
7.460000000000000000e+02,4.255356639159975363e-02,0.000000000000000000e+00
7.470000000000000000e+02,4.613512035833065572e-01,0.000000000000000000e+00
7.480000000000000000e+02,1.777960761485954944e-01,0.000000000000000000e+00
7.490000000000000000e+02,6.340021726726001450e-02,0.000000000000000000e+00
7.500000000000000000e+02,1.268242778426458828e-01,0.000000000000000000e+00
7.510000000000000000e+02,1.007847959298275309e-01,0.000000000000000000e+00
7.520000000000000000e+02,1.448308587391612667e-01,0.000000000000000000e+00
7.530000000000000000e+02,2.209853344875411241e-01,0.000000000000000000e+00
7.540000000000000000e+02,-1.040036952222167244e-01,0.000000000000000000e+00
7.550000000000000000e+02,-2.422980253303080311e-01,0.000000000000000000e+00
7.560000000000000000e+02,2.358840712320978972e-01,0.000000000000000000e+00
7.570000000000000000e+02,-6.129102072977806077e-03,0.000000000000000000e+00
7.580000000000000000e+02,1.137152191075577329e-01,0.000000000000000000e+00
7.590000000000000000e+02,3.003352454378466208e-01,0.000000000000000000e+00
7.600000000000000000e+02,2.316221179062491475e-01,0.000000000000000000e+00
7.610000000000000000e+02,1.394787995636923794e+00,0.000000000000000000e+00
7.620000000000000000e+02,1.914665734806463737e+00,0.000000000000000000e+00
7.630000000000000000e+02,2.261828549065016514e+00,0.000000000000000000e+00
7.640000000000000000e+02,3.098475646057815780e+00,0.000000000000000000e+00
7.650000000000000000e+02,3.684319065012937600e+00,0.000000000000000000e+00
7.660000000000000000e+02,1.112918168605301794e+00,0.000000000000000000e+00
7.670000000000000000e+02,-1.613979509072288376e+00,1.000000000000000000e+00
7.680000000000000000e+02,-1.915074237534052148e+00,0.000000000000000000e+00
7.690000000000000000e+02,-2.174828196775631994e+00,0.000000000000000000e+00
7.700000000000000000e+02,-2.036424944749871457e+00,0.000000000000000000e+00
7.710000000000000000e+02,-1.738471354363443133e+00,0.000000000000000000e+00
7.720000000000000000e+02,-1.685601670588114720e+00,0.000000000000000000e+00
7.730000000000000000e+02,-1.689687083580859506e+00,0.000000000000000000e+00
7.740000000000000000e+02,-9.240495849853986865e-01,0.000000000000000000e+00
7.750000000000000000e+02,-1.418110459781798616e+00,0.000000000000000000e+00
7.760000000000000000e+02,-1.192322707467236675e+00,0.000000000000000000e+00
7.770000000000000000e+02,-7.999708727128808095e-01,0.000000000000000000e+00
7.780000000000000000e+02,-9.672653852405530550e-01,0.000000000000000000e+00
7.790000000000000000e+02,-1.039157289212013779e+00,0.000000000000000000e+00
7.800000000000000000e+02,-5.521816265326394690e-01,0.000000000000000000e+00
7.810000000000000000e+02,-7.131185322650036573e-01,0.000000000000000000e+00
7.820000000000000000e+02,-4.505107407502264572e-01,0.000000000000000000e+00
7.830000000000000000e+02,3.526532526226127118e-01,0.000000000000000000e+00
7.840000000000000000e+02,5.467007010449119742e-01,0.000000000000000000e+00
7.850000000000000000e+02,3.194592210005318678e-01,0.000000000000000000e+00
7.860000000000000000e+02,2.878879108682059207e-01,0.000000000000000000e+00
7.870000000000000000e+02,3.013961513944469206e-01,0.000000000000000000e+00
7.880000000000000000e+02,2.722353072840194566e-01,0.000000000000000000e+00
7.890000000000000000e+02,2.541485391322936271e-01,0.000000000000000000e+00
7.900000000000000000e+02,9.298241322665817821e-02,0.000000000000000000e+00
7.910000000000000000e+02,3.375367665652279636e-01,0.000000000000000000e+00
7.920000000000000000e+02,3.034781866405661388e-01,0.000000000000000000e+00
7.930000000000000000e+02,3.663412499300639502e-01,0.000000000000000000e+00
7.940000000000000000e+02,2.137986076621173903e-01,0.000000000000000000e+00
7.950000000000000000e+02,2.148200547742812883e-01,0.000000000000000000e+00
7.960000000000000000e+02,2.002762776688462865e-01,0.000000000000000000e+00
7.970000000000000000e+02,9.586528066801673631e-02,0.000000000000000000e+00
7.980000000000000000e+02,1.893755534416325104e-01,0.000000000000000000e+00
7.990000000000000000e+02,1.205081050480895782e-01,0.000000000000000000e+00
8.000000000000000000e+02,2.045485013785832418e-01,0.000000000000000000e+00
8.010000000000000000e+02,3.187163002176942039e-01,0.000000000000000000e+00
8.020000000000000000e+02,1.863073546280232529e-01,0.000000000000000000e+00
8.030000000000000000e+02,3.512219259753909806e-01,0.000000000000000000e+00
8.040000000000000000e+02,2.632964605942509362e-01,0.000000000000000000e+00
8.050000000000000000e+02,9.390795704812293990e-03,0.000000000000000000e+00
8.060000000000000000e+02,5.515079398013339462e-01,0.000000000000000000e+00
8.070000000000000000e+02,3.076979615482611785e-01,0.000000000000000000e+00
8.080000000000000000e+02,8.050725042607555226e-02,0.000000000000000000e+00
8.090000000000000000e+02,4.441295186635531578e-01,0.000000000000000000e+00
8.100000000000000000e+02,9.992576298392695511e-02,0.000000000000000000e+00
8.110000000000000000e+02,3.470565419519087286e-02,0.000000000000000000e+00
8.120000000000000000e+02,1.493830029885580557e-01,0.000000000000000000e+00
8.130000000000000000e+02,3.928302038914868177e-01,0.000000000000000000e+00
8.140000000000000000e+02,-4.281900194980262087e-01,0.000000000000000000e+00
8.150000000000000000e+02,1.458811871299270368e-01,0.000000000000000000e+00
8.160000000000000000e+02,2.002757993213376553e-01,0.000000000000000000e+00
8.170000000000000000e+02,-5.082762127971499934e-03,0.000000000000000000e+00
8.180000000000000000e+02,1.113213906996783076e-01,0.000000000000000000e+00
8.190000000000000000e+02,3.204739257746589964e-01,0.000000000000000000e+00
8.200000000000000000e+02,4.207815709040298446e-01,0.000000000000000000e+00
8.210000000000000000e+02,1.231338283100804398e+00,0.000000000000000000e+00
8.220000000000000000e+02,1.347835039914726973e+00,0.000000000000000000e+00
8.230000000000000000e+02,2.011947485621975229e+00,0.000000000000000000e+00
8.240000000000000000e+02,2.698382716042875273e+00,0.000000000000000000e+00
8.250000000000000000e+02,3.375011449769986793e+00,0.000000000000000000e+00
8.260000000000000000e+02,1.292003349815977975e+00,0.000000000000000000e+00
8.270000000000000000e+02,-1.478547739496061109e+00,1.000000000000000000e+00
8.280000000000000000e+02,-1.896688963664587391e+00,0.000000000000000000e+00
8.290000000000000000e+02,-1.583456567698960704e+00,0.000000000000000000e+00
8.300000000000000000e+02,-1.797358209217070790e+00,0.000000000000000000e+00
8.310000000000000000e+02,-1.541019361751105210e+00,0.000000000000000000e+00
8.320000000000000000e+02,-1.457105445789619758e+00,0.000000000000000000e+00
8.330000000000000000e+02,-1.485057136678511469e+00,0.000000000000000000e+00
8.340000000000000000e+02,-9.857551408659783743e-01,0.000000000000000000e+00
8.350000000000000000e+02,-1.167032266885088099e+00,0.000000000000000000e+00
8.360000000000000000e+02,-8.877907574365477839e-01,0.000000000000000000e+00
8.370000000000000000e+02,-6.580098004262012745e-01,0.000000000000000000e+00
8.380000000000000000e+02,-1.024927072453153842e+00,0.000000000000000000e+00
8.390000000000000000e+02,-6.292440837118105090e-01,0.000000000000000000e+00
8.400000000000000000e+02,-7.341463304441868676e-01,0.000000000000000000e+00
8.410000000000000000e+02,-4.079168583007396487e-01,0.000000000000000000e+00
8.420000000000000000e+02,-2.747577569690426436e-01,0.000000000000000000e+00
8.430000000000000000e+02,1.848705259108834875e-01,0.000000000000000000e+00
8.440000000000000000e+02,3.877741964955887521e-01,0.000000000000000000e+00
8.450000000000000000e+02,2.983817358638965467e-01,0.000000000000000000e+00
8.460000000000000000e+02,2.745202182848540118e-01,0.000000000000000000e+00
8.470000000000000000e+02,-5.163783823354476527e-04,0.000000000000000000e+00
8.480000000000000000e+02,3.035158202055190935e-01,0.000000000000000000e+00
8.490000000000000000e+02,-2.100525752730745752e-02,0.000000000000000000e+00
8.500000000000000000e+02,1.246791648795655960e-01,0.000000000000000000e+00
8.510000000000000000e+02,2.369867889986481402e-01,0.000000000000000000e+00
8.520000000000000000e+02,5.932133752592552711e-02,0.000000000000000000e+00
8.530000000000000000e+02,1.633812213725779061e-01,0.000000000000000000e+00
8.540000000000000000e+02,2.291871835158651449e-01,0.000000000000000000e+00
8.550000000000000000e+02,4.723091341516241076e-02,0.000000000000000000e+00
8.560000000000000000e+02,1.809412470485946833e-01,0.000000000000000000e+00
8.570000000000000000e+02,-5.186668414979820479e-02,0.000000000000000000e+00
8.580000000000000000e+02,2.016055788820224626e-01,0.000000000000000000e+00
8.590000000000000000e+02,-6.828181041287784830e-04,0.000000000000000000e+00
8.600000000000000000e+02,2.141519278694793693e-01,0.000000000000000000e+00
8.610000000000000000e+02,1.890539343571612796e-01,0.000000000000000000e+00
8.620000000000000000e+02,1.706088908525636716e-02,0.000000000000000000e+00
8.630000000000000000e+02,2.337174504528485020e-01,0.000000000000000000e+00
8.640000000000000000e+02,9.357918810708902579e-02,0.000000000000000000e+00
8.650000000000000000e+02,7.016124034876522475e-02,0.000000000000000000e+00
8.660000000000000000e+02,3.868547014941900453e-01,0.000000000000000000e+00
8.670000000000000000e+02,2.265462321255191577e-02,0.000000000000000000e+00
8.680000000000000000e+02,2.240608211167271213e-01,0.000000000000000000e+00
8.690000000000000000e+02,3.446520381062060934e-01,0.000000000000000000e+00
8.700000000000000000e+02,-4.189363068174371124e-02,0.000000000000000000e+00
8.710000000000000000e+02,2.743219159038839949e-01,0.000000000000000000e+00
8.720000000000000000e+02,1.035903324680126775e-01,0.000000000000000000e+00
8.730000000000000000e+02,-6.143420265997322216e-02,0.000000000000000000e+00
8.740000000000000000e+02,-3.749780967671401122e-02,0.000000000000000000e+00
8.750000000000000000e+02,3.276504461020954828e-01,0.000000000000000000e+00
8.760000000000000000e+02,-7.988140331987694798e-02,0.000000000000000000e+00
8.770000000000000000e+02,-7.280749846153199145e-02,0.000000000000000000e+00
8.780000000000000000e+02,3.201813567246309944e-01,0.000000000000000000e+00
8.790000000000000000e+02,1.449144402079390048e-01,0.000000000000000000e+00
8.800000000000000000e+02,5.695502550990793056e-01,0.000000000000000000e+00
8.810000000000000000e+02,1.767027619636466040e+00,0.000000000000000000e+00
8.820000000000000000e+02,1.597027753354563817e+00,0.000000000000000000e+00
8.830000000000000000e+02,2.230883708144396849e+00,0.000000000000000000e+00
8.840000000000000000e+02,3.300819102670366156e+00,0.000000000000000000e+00
8.850000000000000000e+02,3.150372021795625255e+00,0.000000000000000000e+00
8.860000000000000000e+02,8.911479226395904174e-01,0.000000000000000000e+00
8.870000000000000000e+02,-1.594876395482207387e+00,1.000000000000000000e+00
8.880000000000000000e+02,-2.055934180462352323e+00,0.000000000000000000e+00
8.890000000000000000e+02,-1.959662433882344512e+00,0.000000000000000000e+00
8.900000000000000000e+02,-2.090978728185674207e+00,0.000000000000000000e+00
8.910000000000000000e+02,-1.483060108929610488e+00,0.000000000000000000e+00
8.920000000000000000e+02,-1.516687555943334154e+00,0.000000000000000000e+00
8.930000000000000000e+02,-1.544244934783939982e+00,0.000000000000000000e+00
8.940000000000000000e+02,-1.116424684071589457e+00,0.000000000000000000e+00
8.950000000000000000e+02,-1.332351570623278914e+00,0.000000000000000000e+00
8.960000000000000000e+02,-9.662744756054740813e-01,0.000000000000000000e+00
8.970000000000000000e+02,-1.086604672172167385e+00,0.000000000000000000e+00
8.980000000000000000e+02,-6.154067714062412264e-01,0.000000000000000000e+00
8.990000000000000000e+02,-9.124902521745638095e-01,0.000000000000000000e+00
9.000000000000000000e+02,-8.505656907763959884e-01,0.000000000000000000e+00
9.010000000000000000e+02,-4.896436956955831366e-01,0.000000000000000000e+00
9.020000000000000000e+02,-1.082091235089479297e-01,0.000000000000000000e+00
9.030000000000000000e+02,1.615229126002918347e-01,0.000000000000000000e+00
9.040000000000000000e+02,5.041029413472173371e-01,0.000000000000000000e+00
9.050000000000000000e+02,2.325984121986286179e-01,0.000000000000000000e+00
9.060000000000000000e+02,5.330885786999910864e-02,0.000000000000000000e+00
9.070000000000000000e+02,3.668524565157869621e-01,0.000000000000000000e+00
9.080000000000000000e+02,-1.122373030179004555e-01,0.000000000000000000e+00
9.090000000000000000e+02,2.331932000232160296e-01,0.000000000000000000e+00
9.100000000000000000e+02,1.204220306969549514e-01,0.000000000000000000e+00
9.110000000000000000e+02,6.402660581231717218e-02,0.000000000000000000e+00
9.120000000000000000e+02,3.684564483423481973e-01,0.000000000000000000e+00
9.130000000000000000e+02,8.564062058468932537e-02,0.000000000000000000e+00
9.140000000000000000e+02,2.382113319141171137e-01,0.000000000000000000e+00
9.150000000000000000e+02,2.996616765322859255e-01,0.000000000000000000e+00
9.160000000000000000e+02,-7.333580591335851079e-03,0.000000000000000000e+00
9.170000000000000000e+02,2.568469364499005939e-02,0.000000000000000000e+00
9.180000000000000000e+02,1.265127919140513479e-01,0.000000000000000000e+00
9.190000000000000000e+02,1.043540330747824707e-01,0.000000000000000000e+00
9.200000000000000000e+02,9.697546192487703498e-02,0.000000000000000000e+00
9.210000000000000000e+02,1.263694416439013479e-01,0.000000000000000000e+00
9.220000000000000000e+02,6.167842153369833269e-02,0.000000000000000000e+00
9.230000000000000000e+02,-1.575080802694116544e-01,0.000000000000000000e+00
9.240000000000000000e+02,5.511809731862036266e-01,0.000000000000000000e+00
9.250000000000000000e+02,-3.799218034049778314e-02,0.000000000000000000e+00
9.260000000000000000e+02,7.260227506888274583e-03,0.000000000000000000e+00
9.270000000000000000e+02,3.257326058380999312e-01,0.000000000000000000e+00
9.280000000000000000e+02,2.001534042602844954e-01,0.000000000000000000e+00
9.290000000000000000e+02,1.937089457345188281e-02,0.000000000000000000e+00
9.300000000000000000e+02,2.036368158508449488e-01,0.000000000000000000e+00
9.310000000000000000e+02,4.512939433463067362e-01,0.000000000000000000e+00
9.320000000000000000e+02,-2.828088801204975411e-01,0.000000000000000000e+00
9.330000000000000000e+02,-9.231775301240564835e-02,0.000000000000000000e+00
9.340000000000000000e+02,2.169818761389970818e-01,0.000000000000000000e+00
9.350000000000000000e+02,2.243676940084500526e-02,0.000000000000000000e+00
9.360000000000000000e+02,1.276395704281117482e-01,0.000000000000000000e+00
9.370000000000000000e+02,1.152307498997638679e-01,0.000000000000000000e+00
9.380000000000000000e+02,2.324814293411830435e-01,0.000000000000000000e+00
9.390000000000000000e+02,1.211344352331521074e-01,0.000000000000000000e+00
9.400000000000000000e+02,8.967010787833965546e-01,0.000000000000000000e+00
9.410000000000000000e+02,1.605353659285582157e+00,0.000000000000000000e+00
9.420000000000000000e+02,2.088270219165779817e+00,0.000000000000000000e+00
9.430000000000000000e+02,2.565980973072177207e+00,0.000000000000000000e+00
9.440000000000000000e+02,3.580199212548734078e+00,0.000000000000000000e+00
9.450000000000000000e+02,2.755117029249530614e+00,0.000000000000000000e+00
9.460000000000000000e+02,-2.716670006776796265e-01,0.000000000000000000e+00
9.470000000000000000e+02,-1.921940387943885220e+00,1.000000000000000000e+00
9.480000000000000000e+02,-2.249082098419143083e+00,0.000000000000000000e+00
9.490000000000000000e+02,-1.977656669818882884e+00,0.000000000000000000e+00
9.500000000000000000e+02,-1.908517879809268569e+00,0.000000000000000000e+00
9.510000000000000000e+02,-1.969315791722762166e+00,0.000000000000000000e+00
9.520000000000000000e+02,-1.258183727348915815e+00,0.000000000000000000e+00
9.530000000000000000e+02,-1.570562997743359501e+00,0.000000000000000000e+00
9.540000000000000000e+02,-1.434898362433481900e+00,0.000000000000000000e+00
9.550000000000000000e+02,-9.594917416828823153e-01,0.000000000000000000e+00
9.560000000000000000e+02,-8.302237485207731860e-01,0.000000000000000000e+00
9.570000000000000000e+02,-1.254226299296704372e+00,0.000000000000000000e+00
9.580000000000000000e+02,-8.021591909155316724e-01,0.000000000000000000e+00
9.590000000000000000e+02,-7.030288833405314852e-01,0.000000000000000000e+00
9.600000000000000000e+02,-5.618925310377812510e-01,0.000000000000000000e+00
9.610000000000000000e+02,-4.916494594031541321e-01,0.000000000000000000e+00
9.620000000000000000e+02,-1.456372420531696354e-01,0.000000000000000000e+00
9.630000000000000000e+02,4.935146591117969828e-01,0.000000000000000000e+00
9.640000000000000000e+02,9.616347225308690128e-01,0.000000000000000000e+00
9.650000000000000000e+02,-5.774994007983803856e-02,0.000000000000000000e+00
9.660000000000000000e+02,3.984905962579061156e-01,0.000000000000000000e+00
9.670000000000000000e+02,4.305675303734151083e-01,0.000000000000000000e+00
9.680000000000000000e+02,1.503832731715118165e-01,0.000000000000000000e+00
9.690000000000000000e+02,2.956645705072066810e-01,0.000000000000000000e+00
9.700000000000000000e+02,3.230191023731752986e-02,0.000000000000000000e+00
9.710000000000000000e+02,4.696320914426947990e-01,0.000000000000000000e+00
9.720000000000000000e+02,3.398088396479428397e-01,0.000000000000000000e+00
9.730000000000000000e+02,4.836195431004345346e-01,0.000000000000000000e+00
9.740000000000000000e+02,2.759199333499865459e-01,0.000000000000000000e+00
9.750000000000000000e+02,1.464025008615184309e-01,0.000000000000000000e+00
9.760000000000000000e+02,1.924104642468817128e-01,0.000000000000000000e+00
9.770000000000000000e+02,1.905666205510156141e-01,0.000000000000000000e+00
9.780000000000000000e+02,2.006053941441086896e-01,0.000000000000000000e+00
9.790000000000000000e+02,2.348449643305342838e-01,0.000000000000000000e+00
9.800000000000000000e+02,1.385860263998525410e-01,0.000000000000000000e+00
9.810000000000000000e+02,1.387762290020151945e-01,0.000000000000000000e+00
9.820000000000000000e+02,3.972879187769847165e-01,0.000000000000000000e+00
9.830000000000000000e+02,1.628699457304597364e-01,0.000000000000000000e+00
9.840000000000000000e+02,2.568395957786606676e-01,0.000000000000000000e+00
9.850000000000000000e+02,3.179476707040853056e-01,0.000000000000000000e+00
9.860000000000000000e+02,1.818405052915492981e-01,0.000000000000000000e+00
9.870000000000000000e+02,4.493246256633886548e-01,0.000000000000000000e+00
9.880000000000000000e+02,2.500501771385741367e-01,0.000000000000000000e+00
9.890000000000000000e+02,2.017212764459881125e-01,0.000000000000000000e+00
9.900000000000000000e+02,2.423086540788556842e-01,0.000000000000000000e+00
9.910000000000000000e+02,5.101895795427578706e-02,0.000000000000000000e+00
9.920000000000000000e+02,2.864638232976693399e-01,0.000000000000000000e+00
9.930000000000000000e+02,1.102785064866014242e-01,0.000000000000000000e+00
9.940000000000000000e+02,7.566589069657249020e-03,0.000000000000000000e+00
9.950000000000000000e+02,6.053451860967404285e-02,0.000000000000000000e+00
9.960000000000000000e+02,1.647785980530110661e-01,0.000000000000000000e+00
9.970000000000000000e+02,2.579125032460034481e-02,0.000000000000000000e+00
9.980000000000000000e+02,3.061862504453107259e-01,0.000000000000000000e+00
9.990000000000000000e+02,6.697320734588363411e-02,0.000000000000000000e+00
1.000000000000000000e+03,1.236346789908720378e+00,0.000000000000000000e+00
1.001000000000000000e+03,1.716474576192217771e+00,0.000000000000000000e+00
1.002000000000000000e+03,1.516603443559234377e+00,0.000000000000000000e+00
1.003000000000000000e+03,2.624699000393938775e+00,0.000000000000000000e+00
1.004000000000000000e+03,3.345977548966045045e+00,0.000000000000000000e+00
1.005000000000000000e+03,2.390051845045198409e+00,0.000000000000000000e+00
1.006000000000000000e+03,-2.315910143164860435e-01,0.000000000000000000e+00
1.007000000000000000e+03,-1.951087737484043405e+00,1.000000000000000000e+00
1.008000000000000000e+03,-2.302310964442239261e+00,0.000000000000000000e+00
1.009000000000000000e+03,-1.742537433494167898e+00,0.000000000000000000e+00
1.010000000000000000e+03,-1.617334712268369667e+00,0.000000000000000000e+00
1.011000000000000000e+03,-1.796155893916873136e+00,0.000000000000000000e+00
1.012000000000000000e+03,-1.263230418377843334e+00,0.000000000000000000e+00
1.013000000000000000e+03,-1.351561999158807259e+00,0.000000000000000000e+00
1.014000000000000000e+03,-1.212407612586401617e+00,0.000000000000000000e+00
1.015000000000000000e+03,-1.143664028142340916e+00,0.000000000000000000e+00
1.016000000000000000e+03,-8.286843914116367449e-01,0.000000000000000000e+00
1.017000000000000000e+03,-1.205975641187540193e+00,0.000000000000000000e+00
1.018000000000000000e+03,-7.445987793914817798e-01,0.000000000000000000e+00
1.019000000000000000e+03,-6.478468481432954063e-01,0.000000000000000000e+00
1.020000000000000000e+03,-8.998759784851266819e-01,0.000000000000000000e+00
1.021000000000000000e+03,-3.981521112973647192e-01,0.000000000000000000e+00
1.022000000000000000e+03,1.509868156426750208e-01,0.000000000000000000e+00
1.023000000000000000e+03,2.089932748122925454e-01,0.000000000000000000e+00
1.024000000000000000e+03,1.575836581933315050e-01,0.000000000000000000e+00
1.025000000000000000e+03,5.408438386957930000e-01,0.000000000000000000e+00
1.026000000000000000e+03,2.855061894383449372e-01,0.000000000000000000e+00
1.027000000000000000e+03,-1.608612232546844101e-01,0.000000000000000000e+00
1.028000000000000000e+03,6.912596756412914267e-02,0.000000000000000000e+00
1.029000000000000000e+03,3.194136936982389097e-01,0.000000000000000000e+00
1.030000000000000000e+03,-6.387195796786744595e-02,0.000000000000000000e+00
1.031000000000000000e+03,3.235844381806173703e-02,0.000000000000000000e+00
1.032000000000000000e+03,4.459714660554660037e-01,0.000000000000000000e+00
1.033000000000000000e+03,9.582473931262261435e-02,0.000000000000000000e+00
1.034000000000000000e+03,-1.698761059521559091e-01,0.000000000000000000e+00
1.035000000000000000e+03,2.252540664476579135e-01,0.000000000000000000e+00
1.036000000000000000e+03,1.357250626399201521e-01,0.000000000000000000e+00
1.037000000000000000e+03,-1.244470659747616281e-01,0.000000000000000000e+00
1.038000000000000000e+03,1.951876932975062373e-01,0.000000000000000000e+00
1.039000000000000000e+03,2.625041075939990587e-01,0.000000000000000000e+00
1.040000000000000000e+03,-1.874144521206289604e-01,0.000000000000000000e+00
1.041000000000000000e+03,1.632409297222096600e-01,0.000000000000000000e+00
1.042000000000000000e+03,2.375171963955388099e-01,0.000000000000000000e+00
1.043000000000000000e+03,9.833621284776256077e-02,0.000000000000000000e+00
1.044000000000000000e+03,1.576310331755743643e-01,0.000000000000000000e+00
1.045000000000000000e+03,2.755900344443182881e-01,0.000000000000000000e+00
1.046000000000000000e+03,3.517694304090052682e-01,0.000000000000000000e+00
1.047000000000000000e+03,-1.748911828251221426e-03,0.000000000000000000e+00
1.048000000000000000e+03,4.551971600257898598e-01,0.000000000000000000e+00
1.049000000000000000e+03,-3.496966663479037646e-02,0.000000000000000000e+00
1.050000000000000000e+03,2.470165431873802275e-01,0.000000000000000000e+00
1.051000000000000000e+03,-6.892838882869573025e-02,0.000000000000000000e+00
1.052000000000000000e+03,1.320283949707542759e-01,0.000000000000000000e+00
1.053000000000000000e+03,5.127721323098959928e-03,0.000000000000000000e+00
1.054000000000000000e+03,6.122674624709834035e-02,0.000000000000000000e+00
1.055000000000000000e+03,1.185368873363139286e-02,0.000000000000000000e+00
1.056000000000000000e+03,2.679118146956496749e-01,0.000000000000000000e+00
1.057000000000000000e+03,-5.420242476436751972e-02,0.000000000000000000e+00
1.058000000000000000e+03,3.581712871196454095e-01,0.000000000000000000e+00
1.059000000000000000e+03,-2.512489374311284440e-02,0.000000000000000000e+00
1.060000000000000000e+03,1.219759210981599118e+00,0.000000000000000000e+00
1.061000000000000000e+03,1.565475254759556067e+00,0.000000000000000000e+00
1.062000000000000000e+03,1.511356849126419100e+00,0.000000000000000000e+00
1.063000000000000000e+03,2.245517828526501170e+00,0.000000000000000000e+00
1.064000000000000000e+03,3.261157444002904082e+00,0.000000000000000000e+00
1.065000000000000000e+03,2.556688650102159510e+00,0.000000000000000000e+00
1.066000000000000000e+03,-4.754361693259387400e-01,0.000000000000000000e+00
1.067000000000000000e+03,-1.744239458534555975e+00,1.000000000000000000e+00
1.068000000000000000e+03,-1.831271247383295941e+00,0.000000000000000000e+00
1.069000000000000000e+03,-1.681563079087905255e+00,0.000000000000000000e+00
1.070000000000000000e+03,-1.722426875673786162e+00,0.000000000000000000e+00
1.071000000000000000e+03,-1.582778391923853611e+00,0.000000000000000000e+00
1.072000000000000000e+03,-1.322744892751794188e+00,0.000000000000000000e+00
1.073000000000000000e+03,-1.277617808323311621e+00,0.000000000000000000e+00
1.074000000000000000e+03,-1.072641865546539064e+00,0.000000000000000000e+00
1.075000000000000000e+03,-9.527994650866316029e-01,0.000000000000000000e+00
1.076000000000000000e+03,-9.167191709663057297e-01,0.000000000000000000e+00
1.077000000000000000e+03,-6.503154756632820721e-01,0.000000000000000000e+00
1.078000000000000000e+03,-8.962663971041632260e-01,0.000000000000000000e+00
1.079000000000000000e+03,-6.920697903089531033e-01,0.000000000000000000e+00
1.080000000000000000e+03,-4.584239365967302526e-01,0.000000000000000000e+00
1.081000000000000000e+03,-2.158999619752481891e-01,0.000000000000000000e+00
1.082000000000000000e+03,-4.779836941234780895e-02,0.000000000000000000e+00
1.083000000000000000e+03,4.928529345410609941e-01,0.000000000000000000e+00
1.084000000000000000e+03,2.243070566662951071e-01,0.000000000000000000e+00
1.085000000000000000e+03,3.554041864433051257e-01,0.000000000000000000e+00
1.086000000000000000e+03,2.430510467899123506e-01,0.000000000000000000e+00
1.087000000000000000e+03,6.383975573389277791e-02,0.000000000000000000e+00
1.088000000000000000e+03,2.872585001282680628e-02,0.000000000000000000e+00
1.089000000000000000e+03,9.896050757641097761e-02,0.000000000000000000e+00
1.090000000000000000e+03,1.705838453983625491e-01,0.000000000000000000e+00
1.091000000000000000e+03,3.594564061796644561e-01,0.000000000000000000e+00
1.092000000000000000e+03,1.350907615355700919e-01,0.000000000000000000e+00
1.093000000000000000e+03,1.245509700483380666e-01,0.000000000000000000e+00
1.094000000000000000e+03,2.035551913199976914e-01,0.000000000000000000e+00
1.095000000000000000e+03,1.447892009417684478e-01,0.000000000000000000e+00
1.096000000000000000e+03,2.149785705678741998e-01,0.000000000000000000e+00
1.097000000000000000e+03,6.723910006857138077e-02,0.000000000000000000e+00
1.098000000000000000e+03,8.906618512732629445e-02,0.000000000000000000e+00
1.099000000000000000e+03,1.602563207114974797e-01,0.000000000000000000e+00
1.100000000000000000e+03,-8.805131025858236454e-03,0.000000000000000000e+00
1.101000000000000000e+03,3.893884075220059582e-02,0.000000000000000000e+00
1.102000000000000000e+03,2.817990083285612513e-01,0.000000000000000000e+00
1.103000000000000000e+03,-9.973031427659573289e-02,0.000000000000000000e+00
1.104000000000000000e+03,3.260368169718796394e-01,0.000000000000000000e+00
1.105000000000000000e+03,8.223432727460136538e-02,0.000000000000000000e+00
1.106000000000000000e+03,1.287943993212075366e-01,0.000000000000000000e+00
1.107000000000000000e+03,1.678883352462988143e-01,0.000000000000000000e+00
1.108000000000000000e+03,1.476100084753237396e-01,0.000000000000000000e+00
1.109000000000000000e+03,1.266195451835238628e-01,0.000000000000000000e+00
1.110000000000000000e+03,1.185888302717034160e-01,0.000000000000000000e+00
1.111000000000000000e+03,-1.593114065957866587e-02,0.000000000000000000e+00
1.112000000000000000e+03,9.599042479534197758e-02,0.000000000000000000e+00
1.113000000000000000e+03,-1.104949324201950633e-01,0.000000000000000000e+00
1.114000000000000000e+03,1.811295233998383991e-01,0.000000000000000000e+00
1.115000000000000000e+03,-2.691204862529144592e-01,0.000000000000000000e+00
1.116000000000000000e+03,1.989717540065231716e-01,0.000000000000000000e+00
1.117000000000000000e+03,1.242060826275846186e-01,0.000000000000000000e+00
1.118000000000000000e+03,-5.481587469750132807e-02,0.000000000000000000e+00
1.119000000000000000e+03,5.494203174978923299e-01,0.000000000000000000e+00
1.120000000000000000e+03,1.486196888486221557e+00,0.000000000000000000e+00
1.121000000000000000e+03,1.601759688976916340e+00,0.000000000000000000e+00
1.122000000000000000e+03,2.335384672364047898e+00,0.000000000000000000e+00
1.123000000000000000e+03,2.954688804459756568e+00,0.000000000000000000e+00
1.124000000000000000e+03,3.531534784806202421e+00,0.000000000000000000e+00
1.125000000000000000e+03,1.392097266996408678e+00,0.000000000000000000e+00
1.126000000000000000e+03,-1.550664711080502967e+00,1.000000000000000000e+00
1.127000000000000000e+03,-2.134071440104040818e+00,0.000000000000000000e+00
1.128000000000000000e+03,-2.327122886401984392e+00,0.000000000000000000e+00
1.129000000000000000e+03,-1.783648829954666448e+00,0.000000000000000000e+00
1.130000000000000000e+03,-1.806166540865956627e+00,0.000000000000000000e+00
1.131000000000000000e+03,-1.861568078104838930e+00,0.000000000000000000e+00
1.132000000000000000e+03,-1.339927222671505769e+00,0.000000000000000000e+00
1.133000000000000000e+03,-1.457820267313444385e+00,0.000000000000000000e+00
1.134000000000000000e+03,-1.218435985582899450e+00,0.000000000000000000e+00
1.135000000000000000e+03,-1.167124347103478899e+00,0.000000000000000000e+00
1.136000000000000000e+03,-6.833916298199882444e-01,0.000000000000000000e+00
1.137000000000000000e+03,-1.118786434510023575e+00,0.000000000000000000e+00
1.138000000000000000e+03,-9.962792686984606183e-01,0.000000000000000000e+00
1.139000000000000000e+03,-6.072847960882058471e-01,0.000000000000000000e+00
1.140000000000000000e+03,-4.763578415082193040e-01,0.000000000000000000e+00
1.141000000000000000e+03,-6.107677022486995844e-02,0.000000000000000000e+00
1.142000000000000000e+03,-1.947558366098474658e-01,0.000000000000000000e+00
1.143000000000000000e+03,4.670301469699127406e-01,0.000000000000000000e+00
1.144000000000000000e+03,4.776132072251901284e-01,0.000000000000000000e+00
1.145000000000000000e+03,4.930097845059493444e-01,0.000000000000000000e+00
1.146000000000000000e+03,1.407558482750304041e-01,0.000000000000000000e+00
1.147000000000000000e+03,3.069602021937746783e-01,0.000000000000000000e+00
1.148000000000000000e+03,5.792439925241978788e-02,0.000000000000000000e+00
1.149000000000000000e+03,3.915270611151461799e-01,0.000000000000000000e+00
1.150000000000000000e+03,2.752866029846675056e-01,0.000000000000000000e+00
1.151000000000000000e+03,3.110652259142212550e-01,0.000000000000000000e+00
1.152000000000000000e+03,2.684594896735257863e-01,0.000000000000000000e+00
1.153000000000000000e+03,3.113461595687865291e-01,0.000000000000000000e+00
1.154000000000000000e+03,5.390049652532524598e-03,0.000000000000000000e+00
1.155000000000000000e+03,3.871940185753677266e-01,0.000000000000000000e+00
1.156000000000000000e+03,-1.459846237141734261e-02,0.000000000000000000e+00
1.157000000000000000e+03,3.284455093895359834e-01,0.000000000000000000e+00
1.158000000000000000e+03,3.283126424634483786e-01,0.000000000000000000e+00
1.159000000000000000e+03,-4.591724802850838394e-02,0.000000000000000000e+00
1.160000000000000000e+03,3.065428110220372315e-01,0.000000000000000000e+00
1.161000000000000000e+03,3.995410018407388741e-01,0.000000000000000000e+00
1.162000000000000000e+03,5.289202603705631112e-02,0.000000000000000000e+00
1.163000000000000000e+03,1.531852527353960991e-01,0.000000000000000000e+00
1.164000000000000000e+03,4.104083264400613662e-01,0.000000000000000000e+00
1.165000000000000000e+03,3.628024796852475364e-01,0.000000000000000000e+00
1.166000000000000000e+03,2.242349322329542927e-01,0.000000000000000000e+00
1.167000000000000000e+03,4.124525944109666553e-01,0.000000000000000000e+00
1.168000000000000000e+03,3.110683761917555912e-01,0.000000000000000000e+00
1.169000000000000000e+03,-6.574288399545410999e-02,0.000000000000000000e+00
1.170000000000000000e+03,2.320666508839232256e-01,0.000000000000000000e+00
1.171000000000000000e+03,2.182269004126555778e-01,0.000000000000000000e+00
1.172000000000000000e+03,7.336439804119045810e-03,0.000000000000000000e+00
1.173000000000000000e+03,4.595666439828882677e-02,0.000000000000000000e+00
1.174000000000000000e+03,2.985500681377764032e-01,0.000000000000000000e+00
1.175000000000000000e+03,-1.286418549979768955e-01,0.000000000000000000e+00
1.176000000000000000e+03,1.570448437324331314e-01,0.000000000000000000e+00
1.177000000000000000e+03,2.797791359474808837e-01,0.000000000000000000e+00
1.178000000000000000e+03,1.580689362572502976e-01,0.000000000000000000e+00
1.179000000000000000e+03,5.006164239547857830e-01,0.000000000000000000e+00
1.180000000000000000e+03,1.682437440744922519e+00,0.000000000000000000e+00
1.181000000000000000e+03,1.509874958395568179e+00,0.000000000000000000e+00
1.182000000000000000e+03,2.238899334096342564e+00,0.000000000000000000e+00
1.183000000000000000e+03,3.041416186596713533e+00,0.000000000000000000e+00
1.184000000000000000e+03,3.491936521003740079e+00,0.000000000000000000e+00
1.185000000000000000e+03,7.619664658471608787e-01,0.000000000000000000e+00
1.186000000000000000e+03,-1.611065505942328224e+00,1.000000000000000000e+00
1.187000000000000000e+03,-1.872021630939952441e+00,0.000000000000000000e+00
1.188000000000000000e+03,-2.135934512509696237e+00,0.000000000000000000e+00
1.189000000000000000e+03,-1.756166173866342550e+00,0.000000000000000000e+00
1.190000000000000000e+03,-1.550521405229888350e+00,0.000000000000000000e+00
1.191000000000000000e+03,-1.643615004386553169e+00,0.000000000000000000e+00
1.192000000000000000e+03,-1.510212399455672427e+00,0.000000000000000000e+00
1.193000000000000000e+03,-1.010334619415378832e+00,0.000000000000000000e+00
1.194000000000000000e+03,-1.296864602417020507e+00,0.000000000000000000e+00
1.195000000000000000e+03,-1.256477961884914452e+00,0.000000000000000000e+00
1.196000000000000000e+03,-6.084917332842376680e-01,0.000000000000000000e+00
1.197000000000000000e+03,-7.952333657522401289e-01,0.000000000000000000e+00
1.198000000000000000e+03,-1.196700671151371242e+00,0.000000000000000000e+00
1.199000000000000000e+03,-4.431966400921130145e-01,0.000000000000000000e+00
1.200000000000000000e+03,-6.014324576762570818e-01,0.000000000000000000e+00
1.201000000000000000e+03,-1.016249755486886147e-01,0.000000000000000000e+00
1.202000000000000000e+03,3.236009443835629606e-01,0.000000000000000000e+00
1.203000000000000000e+03,2.004780282309450712e-01,0.000000000000000000e+00
1.204000000000000000e+03,3.976978901984501436e-01,0.000000000000000000e+00
1.205000000000000000e+03,2.323237930849273158e-01,0.000000000000000000e+00
1.206000000000000000e+03,2.500566921784491345e-02,0.000000000000000000e+00
1.207000000000000000e+03,2.415016500851056569e-01,0.000000000000000000e+00
1.208000000000000000e+03,1.028358532585384871e-01,0.000000000000000000e+00
1.209000000000000000e+03,2.201997302016417135e-01,0.000000000000000000e+00
1.210000000000000000e+03,4.410054197557870120e-02,0.000000000000000000e+00
1.211000000000000000e+03,1.712594038807168928e-01,0.000000000000000000e+00
1.212000000000000000e+03,1.409566889339498863e-01,0.000000000000000000e+00
1.213000000000000000e+03,2.219583414056036097e-01,0.000000000000000000e+00
1.214000000000000000e+03,-7.985525019252638634e-02,0.000000000000000000e+00
1.215000000000000000e+03,1.340111405412449663e-01,0.000000000000000000e+00
1.216000000000000000e+03,2.261423343874363057e-01,0.000000000000000000e+00
1.217000000000000000e+03,-6.181128144283162124e-02,0.000000000000000000e+00
1.218000000000000000e+03,2.091480980106133480e-01,0.000000000000000000e+00
1.219000000000000000e+03,1.243422677663897774e-01,0.000000000000000000e+00
1.220000000000000000e+03,-5.121155244689775538e-02,0.000000000000000000e+00
1.221000000000000000e+03,2.552983640642467744e-01,0.000000000000000000e+00
1.222000000000000000e+03,3.389094532071987853e-01,0.000000000000000000e+00
1.223000000000000000e+03,5.987739235236935048e-02,0.000000000000000000e+00
1.224000000000000000e+03,3.776791800689440204e-01,0.000000000000000000e+00
1.225000000000000000e+03,8.275387096093969608e-02,0.000000000000000000e+00
1.226000000000000000e+03,4.319708939985659746e-01,0.000000000000000000e+00
1.227000000000000000e+03,1.141303350867010763e-01,0.000000000000000000e+00
1.228000000000000000e+03,3.319866039214234288e-01,0.000000000000000000e+00
1.229000000000000000e+03,2.010928617456393952e-01,0.000000000000000000e+00
1.230000000000000000e+03,4.668650817008823325e-03,0.000000000000000000e+00
1.231000000000000000e+03,2.700099772950021459e-01,0.000000000000000000e+00
1.232000000000000000e+03,-1.767350116754506234e-02,0.000000000000000000e+00
1.233000000000000000e+03,1.783950903095918219e-03,0.000000000000000000e+00
1.234000000000000000e+03,8.670585877756191440e-02,0.000000000000000000e+00
1.235000000000000000e+03,-1.308364966438212151e-02,0.000000000000000000e+00
1.236000000000000000e+03,1.845620253076252770e-01,0.000000000000000000e+00
1.237000000000000000e+03,-8.389038297946861331e-03,0.000000000000000000e+00
1.238000000000000000e+03,2.124145944060406022e-01,0.000000000000000000e+00
1.239000000000000000e+03,5.835859269623784318e-01,0.000000000000000000e+00
1.240000000000000000e+03,1.337795763355901224e+00,0.000000000000000000e+00
1.241000000000000000e+03,1.341740272001264778e+00,0.000000000000000000e+00
1.242000000000000000e+03,1.799978622208157519e+00,0.000000000000000000e+00
1.243000000000000000e+03,2.657117688404577294e+00,0.000000000000000000e+00
1.244000000000000000e+03,3.320599297254102300e+00,0.000000000000000000e+00
1.245000000000000000e+03,8.440345444284321763e-01,0.000000000000000000e+00
1.246000000000000000e+03,-1.115757082467166983e+00,1.000000000000000000e+00
1.247000000000000000e+03,-1.821802296728803672e+00,0.000000000000000000e+00
1.248000000000000000e+03,-1.969951105844953032e+00,0.000000000000000000e+00
1.249000000000000000e+03,-1.529908253093960724e+00,0.000000000000000000e+00
1.250000000000000000e+03,-1.428496305044405501e+00,0.000000000000000000e+00
1.251000000000000000e+03,-1.641194691549164197e+00,0.000000000000000000e+00
1.252000000000000000e+03,-1.279376860384987324e+00,0.000000000000000000e+00
1.253000000000000000e+03,-1.133477501950652888e+00,0.000000000000000000e+00
1.254000000000000000e+03,-1.127621991052704331e+00,0.000000000000000000e+00
1.255000000000000000e+03,-7.936540704599563956e-01,0.000000000000000000e+00
1.256000000000000000e+03,-8.375899006621411180e-01,0.000000000000000000e+00
1.257000000000000000e+03,-9.733423022739257080e-01,0.000000000000000000e+00
1.258000000000000000e+03,-6.304423987490012093e-01,0.000000000000000000e+00
1.259000000000000000e+03,-4.068321045271066638e-01,0.000000000000000000e+00
1.260000000000000000e+03,-6.020535901029148151e-01,0.000000000000000000e+00
1.261000000000000000e+03,-1.427213400529591114e-01,0.000000000000000000e+00
1.262000000000000000e+03,3.595521776552871307e-01,0.000000000000000000e+00
1.263000000000000000e+03,3.348433137502553336e-01,0.000000000000000000e+00
1.264000000000000000e+03,2.561920239839117763e-01,0.000000000000000000e+00
1.265000000000000000e+03,2.696249046539311855e-01,0.000000000000000000e+00
1.266000000000000000e+03,2.581334464854142530e-01,0.000000000000000000e+00
1.267000000000000000e+03,5.115209977871309219e-04,0.000000000000000000e+00
1.268000000000000000e+03,1.832252139887999981e-03,0.000000000000000000e+00
1.269000000000000000e+03,2.794223585102830754e-01,0.000000000000000000e+00
1.270000000000000000e+03,8.973307752834500106e-02,0.000000000000000000e+00
1.271000000000000000e+03,2.086100257119436197e-01,0.000000000000000000e+00
1.272000000000000000e+03,1.076694627502636920e-01,0.000000000000000000e+00
1.273000000000000000e+03,8.727809068382973157e-02,0.000000000000000000e+00
1.274000000000000000e+03,2.444485856081072550e-01,0.000000000000000000e+00
1.275000000000000000e+03,9.949777435028801797e-02,0.000000000000000000e+00
1.276000000000000000e+03,3.489988416704475349e-01,0.000000000000000000e+00
1.277000000000000000e+03,-6.929513718714117032e-02,0.000000000000000000e+00
1.278000000000000000e+03,2.157793258799555192e-01,0.000000000000000000e+00
1.279000000000000000e+03,2.275026312346998258e-01,0.000000000000000000e+00
1.280000000000000000e+03,-2.377125626029144845e-01,0.000000000000000000e+00
1.281000000000000000e+03,4.275309156610984651e-01,0.000000000000000000e+00
1.282000000000000000e+03,1.294212854892928255e-01,0.000000000000000000e+00
1.283000000000000000e+03,8.630283493155421759e-03,0.000000000000000000e+00
1.284000000000000000e+03,1.580079724928230567e-01,0.000000000000000000e+00
1.285000000000000000e+03,4.032349604541140553e-01,0.000000000000000000e+00
1.286000000000000000e+03,7.649730597051920822e-02,0.000000000000000000e+00
1.287000000000000000e+03,5.116362439374674137e-02,0.000000000000000000e+00
1.288000000000000000e+03,2.707305788697499382e-01,0.000000000000000000e+00
1.289000000000000000e+03,3.237530301485667672e-01,0.000000000000000000e+00
1.290000000000000000e+03,-2.685142968618876580e-01,0.000000000000000000e+00
1.291000000000000000e+03,-8.066173838017177619e-03,0.000000000000000000e+00
1.292000000000000000e+03,2.385888472974274088e-01,0.000000000000000000e+00
1.293000000000000000e+03,-7.470472800859538631e-02,0.000000000000000000e+00
1.294000000000000000e+03,-1.079818244436453051e-01,0.000000000000000000e+00
1.295000000000000000e+03,-6.043539248350231902e-02,0.000000000000000000e+00
1.296000000000000000e+03,6.345910993380124432e-03,0.000000000000000000e+00
1.297000000000000000e+03,3.139225184188450535e-01,0.000000000000000000e+00
1.298000000000000000e+03,7.456853366033032449e-02,0.000000000000000000e+00
1.299000000000000000e+03,1.008359555931384044e+00,0.000000000000000000e+00
1.300000000000000000e+03,1.709095273751552568e+00,0.000000000000000000e+00
1.301000000000000000e+03,1.882023512226350892e+00,0.000000000000000000e+00
1.302000000000000000e+03,2.694302511667216127e+00,0.000000000000000000e+00
1.303000000000000000e+03,3.592148313420253203e+00,0.000000000000000000e+00
1.304000000000000000e+03,2.602571984317604503e+00,0.000000000000000000e+00
1.305000000000000000e+03,-2.934547873766583104e-01,0.000000000000000000e+00
1.306000000000000000e+03,-1.962311456441934165e+00,1.000000000000000000e+00
1.307000000000000000e+03,-2.560591092470009489e+00,0.000000000000000000e+00
1.308000000000000000e+03,-1.852453636556057770e+00,0.000000000000000000e+00
1.309000000000000000e+03,-1.874531448652410281e+00,0.000000000000000000e+00
1.310000000000000000e+03,-1.928030237491258125e+00,0.000000000000000000e+00
1.311000000000000000e+03,-1.527729869107669725e+00,0.000000000000000000e+00
1.312000000000000000e+03,-1.330344919584730112e+00,0.000000000000000000e+00
1.313000000000000000e+03,-1.542236597866027958e+00,0.000000000000000000e+00
1.314000000000000000e+03,-9.635442999143281062e-01,0.000000000000000000e+00
1.315000000000000000e+03,-1.028985130314134633e+00,0.000000000000000000e+00
1.316000000000000000e+03,-1.081121717127109472e+00,0.000000000000000000e+00
1.317000000000000000e+03,-6.750232407468609308e-01,0.000000000000000000e+00
1.318000000000000000e+03,-7.987323936533805568e-01,0.000000000000000000e+00
1.319000000000000000e+03,-9.828374237390827828e-01,0.000000000000000000e+00
1.320000000000000000e+03,-3.696136750404772631e-01,0.000000000000000000e+00
1.321000000000000000e+03,-1.290459373168110213e-01,0.000000000000000000e+00
1.322000000000000000e+03,4.523357038665587471e-01,0.000000000000000000e+00
1.323000000000000000e+03,4.680246525654612189e-01,0.000000000000000000e+00
1.324000000000000000e+03,2.676903847770304434e-01,0.000000000000000000e+00
1.325000000000000000e+03,3.114376295826766228e-01,0.000000000000000000e+00
1.326000000000000000e+03,3.236578309574046908e-01,0.000000000000000000e+00
1.327000000000000000e+03,1.297505600505188816e-01,0.000000000000000000e+00
1.328000000000000000e+03,4.241884315220741386e-01,0.000000000000000000e+00
1.329000000000000000e+03,2.038111536685904279e-01,0.000000000000000000e+00
1.330000000000000000e+03,1.625319666194228185e-01,0.000000000000000000e+00
1.331000000000000000e+03,5.055051132169194883e-01,0.000000000000000000e+00
1.332000000000000000e+03,1.049996816147525797e-01,0.000000000000000000e+00
1.333000000000000000e+03,2.276313435515492367e-01,0.000000000000000000e+00
1.334000000000000000e+03,4.637183066299548351e-01,0.000000000000000000e+00
1.335000000000000000e+03,7.968636038603489624e-02,0.000000000000000000e+00
1.336000000000000000e+03,-2.788998978354156541e-02,0.000000000000000000e+00
1.337000000000000000e+03,4.015080365152038921e-01,0.000000000000000000e+00
1.338000000000000000e+03,1.786439441334980172e-01,0.000000000000000000e+00
1.339000000000000000e+03,1.233635120321638357e-01,0.000000000000000000e+00
1.340000000000000000e+03,3.557414517414317356e-01,0.000000000000000000e+00
1.341000000000000000e+03,1.111823250773370381e-01,0.000000000000000000e+00
1.342000000000000000e+03,1.004354072321335251e-01,0.000000000000000000e+00
1.343000000000000000e+03,5.001072565454510732e-01,0.000000000000000000e+00
1.344000000000000000e+03,2.897762538001601440e-01,0.000000000000000000e+00
1.345000000000000000e+03,2.357403557439277653e-01,0.000000000000000000e+00
1.346000000000000000e+03,3.713949394770900692e-01,0.000000000000000000e+00
1.347000000000000000e+03,3.538515051309180648e-01,0.000000000000000000e+00
1.348000000000000000e+03,3.816984966269747898e-02,0.000000000000000000e+00
1.349000000000000000e+03,2.499815355337221545e-01,0.000000000000000000e+00
1.350000000000000000e+03,-5.045636512478838057e-03,0.000000000000000000e+00
1.351000000000000000e+03,3.084498061945239455e-01,0.000000000000000000e+00
1.352000000000000000e+03,-2.689883308159300365e-02,0.000000000000000000e+00
1.353000000000000000e+03,2.194030015095720654e-01,0.000000000000000000e+00
1.354000000000000000e+03,7.826477473027707021e-02,0.000000000000000000e+00
1.355000000000000000e+03,1.508947203485886193e-02,0.000000000000000000e+00
1.356000000000000000e+03,2.001740899297903831e-01,0.000000000000000000e+00
1.357000000000000000e+03,2.750499109535469722e-01,0.000000000000000000e+00
1.358000000000000000e+03,2.340933212827508159e-01,0.000000000000000000e+00
1.359000000000000000e+03,1.289529865832086619e+00,0.000000000000000000e+00
1.360000000000000000e+03,1.709002070298881515e+00,0.000000000000000000e+00
1.361000000000000000e+03,2.240297980290183233e+00,0.000000000000000000e+00
1.362000000000000000e+03,2.770836153646567102e+00,0.000000000000000000e+00
1.363000000000000000e+03,3.420390472471796173e+00,0.000000000000000000e+00
1.364000000000000000e+03,2.503583774059422229e+00,0.000000000000000000e+00
1.365000000000000000e+03,-8.495570559376801612e-01,0.000000000000000000e+00
1.366000000000000000e+03,-2.118297544853504633e+00,1.000000000000000000e+00
1.367000000000000000e+03,-2.114423056275016144e+00,0.000000000000000000e+00
1.368000000000000000e+03,-2.116291447392695257e+00,0.000000000000000000e+00
1.369000000000000000e+03,-1.888036626396413009e+00,0.000000000000000000e+00
1.370000000000000000e+03,-1.676058552378059341e+00,0.000000000000000000e+00
1.371000000000000000e+03,-1.582161535058098645e+00,0.000000000000000000e+00
1.372000000000000000e+03,-1.291281482795672009e+00,0.000000000000000000e+00
1.373000000000000000e+03,-1.373232631310139729e+00,0.000000000000000000e+00
1.374000000000000000e+03,-1.008716202878921164e+00,0.000000000000000000e+00
1.375000000000000000e+03,-1.193677574210497916e+00,0.000000000000000000e+00
1.376000000000000000e+03,-9.474139680071728131e-01,0.000000000000000000e+00
1.377000000000000000e+03,-9.779344633369789763e-01,0.000000000000000000e+00
1.378000000000000000e+03,-8.311604088125483791e-01,0.000000000000000000e+00
1.379000000000000000e+03,-8.246988167529566427e-01,0.000000000000000000e+00
1.380000000000000000e+03,-4.566721018221505113e-01,0.000000000000000000e+00
1.381000000000000000e+03,4.849897834878443004e-02,0.000000000000000000e+00
1.382000000000000000e+03,3.485249267676260865e-01,0.000000000000000000e+00
1.383000000000000000e+03,3.472843172804147560e-01,0.000000000000000000e+00
1.384000000000000000e+03,2.609618191039442259e-01,0.000000000000000000e+00
1.385000000000000000e+03,3.011823475265968941e-01,0.000000000000000000e+00
1.386000000000000000e+03,2.243243005378577071e-01,0.000000000000000000e+00
1.387000000000000000e+03,2.284484787357238533e-01,0.000000000000000000e+00
1.388000000000000000e+03,2.309422811155955046e-01,0.000000000000000000e+00
1.389000000000000000e+03,1.789515540722374232e-01,0.000000000000000000e+00
1.390000000000000000e+03,1.193951526011230585e-01,0.000000000000000000e+00
1.391000000000000000e+03,2.827642996113277074e-01,0.000000000000000000e+00
1.392000000000000000e+03,1.489279529061890150e-01,0.000000000000000000e+00
1.393000000000000000e+03,9.278634318635073375e-02,0.000000000000000000e+00
1.394000000000000000e+03,2.229023786990894929e-01,0.000000000000000000e+00
1.395000000000000000e+03,1.413890610497590405e-01,0.000000000000000000e+00
1.396000000000000000e+03,1.101495278158262786e-01,0.000000000000000000e+00
1.397000000000000000e+03,1.504672235328252117e-01,0.000000000000000000e+00
1.398000000000000000e+03,3.534014319053430803e-02,0.000000000000000000e+00
1.399000000000000000e+03,2.871242514141483237e-01,0.000000000000000000e+00
1.400000000000000000e+03,2.151542752067228115e-01,0.000000000000000000e+00
1.401000000000000000e+03,2.745018473951434390e-01,0.000000000000000000e+00
1.402000000000000000e+03,1.445759517213930645e-01,0.000000000000000000e+00
1.403000000000000000e+03,1.626210385246124601e-01,0.000000000000000000e+00
1.404000000000000000e+03,2.474297617732815202e-01,0.000000000000000000e+00
1.405000000000000000e+03,4.093427079876737484e-01,0.000000000000000000e+00
1.406000000000000000e+03,3.148586136785389011e-01,0.000000000000000000e+00
1.407000000000000000e+03,-1.945270878216735430e-02,0.000000000000000000e+00
1.408000000000000000e+03,2.776119094683887623e-01,0.000000000000000000e+00
1.409000000000000000e+03,1.833663904229110297e-01,0.000000000000000000e+00
1.410000000000000000e+03,-2.737328744786260773e-02,0.000000000000000000e+00
1.411000000000000000e+03,2.237950002975015451e-01,0.000000000000000000e+00
1.412000000000000000e+03,3.803990179465330940e-02,0.000000000000000000e+00
1.413000000000000000e+03,6.478667673882707034e-02,0.000000000000000000e+00
1.414000000000000000e+03,-1.777615775089141925e-01,0.000000000000000000e+00
1.415000000000000000e+03,2.871708634741093613e-01,0.000000000000000000e+00
1.416000000000000000e+03,-3.670859047741585612e-02,0.000000000000000000e+00
1.417000000000000000e+03,4.628605017968249746e-01,0.000000000000000000e+00
1.418000000000000000e+03,1.071521792733173967e-01,0.000000000000000000e+00
1.419000000000000000e+03,1.122704494414302090e+00,0.000000000000000000e+00
1.420000000000000000e+03,1.629710497951536219e+00,0.000000000000000000e+00
1.421000000000000000e+03,1.357303471866442512e+00,0.000000000000000000e+00
1.422000000000000000e+03,2.579748374432564439e+00,0.000000000000000000e+00
1.423000000000000000e+03,3.198333201868895692e+00,0.000000000000000000e+00
1.424000000000000000e+03,2.134373705526033227e+00,0.000000000000000000e+00
1.425000000000000000e+03,-7.041868655479520678e-01,0.000000000000000000e+00
1.426000000000000000e+03,-1.529493791247122925e+00,1.000000000000000000e+00
1.427000000000000000e+03,-1.952979138164059103e+00,0.000000000000000000e+00
1.428000000000000000e+03,-1.884470787840788697e+00,0.000000000000000000e+00
1.429000000000000000e+03,-1.444165523464735257e+00,0.000000000000000000e+00
1.430000000000000000e+03,-1.332373033365780834e+00,0.000000000000000000e+00
1.431000000000000000e+03,-1.723805257146552306e+00,0.000000000000000000e+00
1.432000000000000000e+03,-1.189147721958555115e+00,0.000000000000000000e+00
1.433000000000000000e+03,-1.201503732747939424e+00,0.000000000000000000e+00
1.434000000000000000e+03,-7.604968338241339110e-01,0.000000000000000000e+00
1.435000000000000000e+03,-9.846767414662502826e-01,0.000000000000000000e+00
1.436000000000000000e+03,-9.207046549843849181e-01,0.000000000000000000e+00
1.437000000000000000e+03,-7.552528346278265525e-01,0.000000000000000000e+00
1.438000000000000000e+03,-8.668987983613607451e-01,0.000000000000000000e+00
1.439000000000000000e+03,-4.674077535867190991e-01,0.000000000000000000e+00
1.440000000000000000e+03,-1.455613084272085189e-01,0.000000000000000000e+00
1.441000000000000000e+03,1.021395856561959359e-01,0.000000000000000000e+00
1.442000000000000000e+03,3.494078159455121790e-01,0.000000000000000000e+00
1.443000000000000000e+03,3.247795305706013824e-01,0.000000000000000000e+00
1.444000000000000000e+03,8.531430832265239628e-02,0.000000000000000000e+00
1.445000000000000000e+03,2.905722061323269267e-01,0.000000000000000000e+00
1.446000000000000000e+03,2.764375107139094290e-01,0.000000000000000000e+00
1.447000000000000000e+03,3.211389331163645028e-02,0.000000000000000000e+00
1.448000000000000000e+03,2.880130058428913564e-01,0.000000000000000000e+00
1.449000000000000000e+03,-1.876634885495741534e-01,0.000000000000000000e+00
1.450000000000000000e+03,1.781888042617825463e-01,0.000000000000000000e+00
1.451000000000000000e+03,3.224600553810410553e-01,0.000000000000000000e+00
1.452000000000000000e+03,1.946466079877737579e-02,0.000000000000000000e+00
1.453000000000000000e+03,2.021927015515357362e-01,0.000000000000000000e+00
1.454000000000000000e+03,3.362086790763894051e-01,0.000000000000000000e+00
1.455000000000000000e+03,-1.679628031631383578e-01,0.000000000000000000e+00
1.456000000000000000e+03,3.175694886769143133e-01,0.000000000000000000e+00
1.457000000000000000e+03,6.610025222276186274e-02,0.000000000000000000e+00
1.458000000000000000e+03,-1.270836177438237069e-01,0.000000000000000000e+00
1.459000000000000000e+03,4.496487056796960591e-01,0.000000000000000000e+00
1.460000000000000000e+03,-2.394621092444810390e-02,0.000000000000000000e+00
1.461000000000000000e+03,1.911123435248203994e-01,0.000000000000000000e+00
1.462000000000000000e+03,1.551433299105842989e-01,0.000000000000000000e+00
1.463000000000000000e+03,1.017106877956289179e-01,0.000000000000000000e+00
1.464000000000000000e+03,3.333579720364077681e-01,0.000000000000000000e+00
1.465000000000000000e+03,3.014107456785474204e-01,0.000000000000000000e+00
1.466000000000000000e+03,1.979305936376264674e-01,0.000000000000000000e+00
1.467000000000000000e+03,1.292397634516921912e-01,0.000000000000000000e+00
1.468000000000000000e+03,2.599079911423691769e-01,0.000000000000000000e+00
1.469000000000000000e+03,1.581578800471355670e-02,0.000000000000000000e+00
1.470000000000000000e+03,9.636530932707085273e-02,0.000000000000000000e+00
1.471000000000000000e+03,4.751509110717094114e-02,0.000000000000000000e+00
1.472000000000000000e+03,1.675621458747659498e-01,0.000000000000000000e+00
1.473000000000000000e+03,-7.168981121694724401e-02,0.000000000000000000e+00
1.474000000000000000e+03,-5.240570345891470971e-02,0.000000000000000000e+00
1.475000000000000000e+03,1.366698196755214700e-01,0.000000000000000000e+00
1.476000000000000000e+03,3.018701715620869530e-01,0.000000000000000000e+00
1.477000000000000000e+03,8.647895573018669901e-02,0.000000000000000000e+00
1.478000000000000000e+03,4.525927567435251708e-01,0.000000000000000000e+00
1.479000000000000000e+03,1.287597190006624537e+00,0.000000000000000000e+00
1.480000000000000000e+03,1.714392461416705205e+00,0.000000000000000000e+00
1.481000000000000000e+03,1.977964819449111067e+00,0.000000000000000000e+00
1.482000000000000000e+03,2.826881397350476277e+00,0.000000000000000000e+00
1.483000000000000000e+03,3.607579013776905708e+00,0.000000000000000000e+00
1.484000000000000000e+03,1.724675963475551965e+00,0.000000000000000000e+00
1.485000000000000000e+03,-1.191089780593728387e+00,1.000000000000000000e+00
1.486000000000000000e+03,-2.059543836739586631e+00,0.000000000000000000e+00
1.487000000000000000e+03,-1.947268178606809341e+00,0.000000000000000000e+00
1.488000000000000000e+03,-1.872276897281526242e+00,0.000000000000000000e+00
1.489000000000000000e+03,-1.671598363033963031e+00,0.000000000000000000e+00
1.490000000000000000e+03,-1.614518886581262080e+00,0.000000000000000000e+00
1.491000000000000000e+03,-1.527923146320544046e+00,0.000000000000000000e+00
1.492000000000000000e+03,-1.195926028545467590e+00,0.000000000000000000e+00
1.493000000000000000e+03,-1.105659530915276356e+00,0.000000000000000000e+00
1.494000000000000000e+03,-1.111641930409946966e+00,0.000000000000000000e+00
1.495000000000000000e+03,-9.819692832089608192e-01,0.000000000000000000e+00
1.496000000000000000e+03,-9.396738652733666042e-01,0.000000000000000000e+00
1.497000000000000000e+03,-8.551425203229090499e-01,0.000000000000000000e+00
1.498000000000000000e+03,-7.167878517986950859e-01,0.000000000000000000e+00
1.499000000000000000e+03,-5.710294622758760319e-01,0.000000000000000000e+00
1.500000000000000000e+03,-4.043982985352747028e-01,0.000000000000000000e+00
1.501000000000000000e+03,9.415134894256070586e-02,0.000000000000000000e+00
1.502000000000000000e+03,3.455721451996415783e-01,0.000000000000000000e+00
1.503000000000000000e+03,2.751905388011939291e-01,0.000000000000000000e+00
1.504000000000000000e+03,1.396934838155171610e-01,0.000000000000000000e+00
1.505000000000000000e+03,3.191059236266251542e-01,0.000000000000000000e+00
1.506000000000000000e+03,1.134106197224430401e-01,0.000000000000000000e+00
1.507000000000000000e+03,6.307247056677392494e-02,0.000000000000000000e+00
1.508000000000000000e+03,1.976822180547688768e-01,0.000000000000000000e+00
1.509000000000000000e+03,8.145330165827113778e-02,0.000000000000000000e+00
1.510000000000000000e+03,2.291197128041529418e-01,0.000000000000000000e+00
1.511000000000000000e+03,2.879672982675567927e-01,0.000000000000000000e+00
1.512000000000000000e+03,7.827465461036316186e-02,0.000000000000000000e+00
1.513000000000000000e+03,1.938663029012110128e-01,0.000000000000000000e+00
1.514000000000000000e+03,1.106647818053775045e-01,0.000000000000000000e+00
1.515000000000000000e+03,-2.220698715309440963e-02,0.000000000000000000e+00
1.516000000000000000e+03,2.528607419251621691e-01,0.000000000000000000e+00
1.517000000000000000e+03,8.171356354955884582e-02,0.000000000000000000e+00
1.518000000000000000e+03,6.675684781827025127e-02,0.000000000000000000e+00
1.519000000000000000e+03,3.283311486823148329e-01,0.000000000000000000e+00
1.520000000000000000e+03,-6.263225159722220214e-02,0.000000000000000000e+00
1.521000000000000000e+03,1.927664545565000165e-01,0.000000000000000000e+00
1.522000000000000000e+03,1.689426301430140553e-01,0.000000000000000000e+00
1.523000000000000000e+03,1.883434382653602079e-01,0.000000000000000000e+00
1.524000000000000000e+03,1.494450109567708185e-01,0.000000000000000000e+00
1.525000000000000000e+03,2.512951716622832121e-01,0.000000000000000000e+00
1.526000000000000000e+03,1.525230774403398548e-01,0.000000000000000000e+00
1.527000000000000000e+03,2.033249912126832981e-01,0.000000000000000000e+00
1.528000000000000000e+03,2.062168852036494193e-01,0.000000000000000000e+00
1.529000000000000000e+03,-4.046670733668205483e-02,0.000000000000000000e+00
1.530000000000000000e+03,2.519630030009318844e-01,0.000000000000000000e+00
1.531000000000000000e+03,1.253648134156457386e-02,0.000000000000000000e+00
1.532000000000000000e+03,7.853771318245174327e-02,0.000000000000000000e+00
1.533000000000000000e+03,-2.200779462132171349e-02,0.000000000000000000e+00
1.534000000000000000e+03,-6.823537592788787853e-02,0.000000000000000000e+00
1.535000000000000000e+03,1.927064534274299801e-01,0.000000000000000000e+00
1.536000000000000000e+03,2.282281973844804412e-01,0.000000000000000000e+00
1.537000000000000000e+03,7.096913062933184191e-02,0.000000000000000000e+00
1.538000000000000000e+03,6.692211958118847726e-01,0.000000000000000000e+00
1.539000000000000000e+03,1.586489349847235220e+00,0.000000000000000000e+00
1.540000000000000000e+03,1.964519144510459725e+00,0.000000000000000000e+00
1.541000000000000000e+03,2.643815541803317792e+00,0.000000000000000000e+00
1.542000000000000000e+03,3.160665725713710739e+00,0.000000000000000000e+00
1.543000000000000000e+03,3.489323254736905522e+00,0.000000000000000000e+00
1.544000000000000000e+03,4.104045169986028641e-01,0.000000000000000000e+00
1.545000000000000000e+03,-1.719622688551291301e+00,1.000000000000000000e+00
1.546000000000000000e+03,-2.217360664243047452e+00,0.000000000000000000e+00
1.547000000000000000e+03,-2.113011974832445183e+00,0.000000000000000000e+00
1.548000000000000000e+03,-1.952699071080875814e+00,0.000000000000000000e+00
1.549000000000000000e+03,-1.817146321537102427e+00,0.000000000000000000e+00
1.550000000000000000e+03,-1.661634527844483733e+00,0.000000000000000000e+00
1.551000000000000000e+03,-1.379411246102696831e+00,0.000000000000000000e+00
1.552000000000000000e+03,-1.483582084190365080e+00,0.000000000000000000e+00
1.553000000000000000e+03,-1.127617757350989125e+00,0.000000000000000000e+00
1.554000000000000000e+03,-1.011521751164571992e+00,0.000000000000000000e+00
1.555000000000000000e+03,-1.052143428851082696e+00,0.000000000000000000e+00
1.556000000000000000e+03,-8.528113023908231449e-01,0.000000000000000000e+00
1.557000000000000000e+03,-7.995884731794046241e-01,0.000000000000000000e+00
1.558000000000000000e+03,-9.001998401552422369e-01,0.000000000000000000e+00
1.559000000000000000e+03,-3.740381867330865306e-01,0.000000000000000000e+00
1.560000000000000000e+03,-2.946433588689568728e-01,0.000000000000000000e+00
1.561000000000000000e+03,2.748243215295291253e-01,0.000000000000000000e+00
1.562000000000000000e+03,5.551675127322476255e-01,0.000000000000000000e+00
1.563000000000000000e+03,4.049321124940324368e-01,0.000000000000000000e+00
1.564000000000000000e+03,2.958627777737607989e-01,0.000000000000000000e+00
1.565000000000000000e+03,3.849123311322834029e-01,0.000000000000000000e+00
1.566000000000000000e+03,2.931939185670492942e-01,0.000000000000000000e+00
1.567000000000000000e+03,2.822171636189879096e-01,0.000000000000000000e+00
1.568000000000000000e+03,2.373732415347470925e-01,0.000000000000000000e+00
1.569000000000000000e+03,2.748567900474242487e-01,0.000000000000000000e+00
1.570000000000000000e+03,4.237490617272337556e-01,0.000000000000000000e+00
1.571000000000000000e+03,2.480394942060744901e-01,0.000000000000000000e+00
1.572000000000000000e+03,2.559501415539259250e-01,0.000000000000000000e+00
1.573000000000000000e+03,1.334271730419351876e-01,0.000000000000000000e+00
1.574000000000000000e+03,1.772038806640794384e-01,0.000000000000000000e+00
1.575000000000000000e+03,9.052574102423845137e-02,0.000000000000000000e+00
1.576000000000000000e+03,2.375938289110983426e-01,0.000000000000000000e+00
1.577000000000000000e+03,2.828295990849205022e-01,0.000000000000000000e+00
1.578000000000000000e+03,2.117844685849079589e-02,0.000000000000000000e+00
1.579000000000000000e+03,2.735111401196148040e-01,0.000000000000000000e+00
1.580000000000000000e+03,1.778197701462286839e-01,0.000000000000000000e+00
1.581000000000000000e+03,2.068707455203857293e-01,0.000000000000000000e+00
1.582000000000000000e+03,2.183863097961619981e-01,0.000000000000000000e+00
1.583000000000000000e+03,3.237885205872564343e-01,0.000000000000000000e+00
1.584000000000000000e+03,2.064854064958018820e-01,0.000000000000000000e+00
1.585000000000000000e+03,3.539139183851940373e-01,0.000000000000000000e+00
1.586000000000000000e+03,2.043348925117235149e-01,0.000000000000000000e+00
1.587000000000000000e+03,2.890680854090947882e-01,0.000000000000000000e+00
1.588000000000000000e+03,1.221186383745701265e-01,0.000000000000000000e+00
1.589000000000000000e+03,2.769169038789358051e-01,0.000000000000000000e+00
1.590000000000000000e+03,1.378207597192200873e-01,0.000000000000000000e+00
