timestamp,ecg_measurement,qrs_detected
0.000000000000000000e+00,1.399263699948667394e-01,0.000000000000000000e+00
1.000000000000000000e+00,3.064023904090361072e-01,0.000000000000000000e+00
2.000000000000000000e+00,5.809365105888165681e-01,0.000000000000000000e+00
3.000000000000000000e+00,9.998979393475709854e-01,0.000000000000000000e+00
4.000000000000000000e+00,1.029739737265762844e+00,0.000000000000000000e+00
5.000000000000000000e+00,1.577464938815977824e+00,0.000000000000000000e+00
6.000000000000000000e+00,7.889747731185084989e-01,0.000000000000000000e+00
7.000000000000000000e+00,6.749319578674985998e-01,0.000000000000000000e+00
8.000000000000000000e+00,-1.878176159429146008e-01,0.000000000000000000e+00
9.000000000000000000e+00,-9.564772168566363364e-01,1.000000000000000000e+00
1.000000000000000000e+01,-1.302429251091987927e+00,0.000000000000000000e+00
1.100000000000000000e+01,-1.759713274107312708e+00,0.000000000000000000e+00
1.200000000000000000e+01,-1.448144284965036110e+00,0.000000000000000000e+00
1.300000000000000000e+01,-9.192675432044769002e-01,0.000000000000000000e+00
1.400000000000000000e+01,-1.899349682712911047e+00,0.000000000000000000e+00
1.500000000000000000e+01,-1.262054085949422255e+00,0.000000000000000000e+00
1.600000000000000000e+01,-7.942671221599459930e-01,0.000000000000000000e+00
1.700000000000000000e+01,-1.136868468048941150e+00,0.000000000000000000e+00
1.800000000000000000e+01,-9.955501510205835292e-01,0.000000000000000000e+00
1.900000000000000000e+01,-7.723980070539342435e-01,0.000000000000000000e+00
2.000000000000000000e+01,-8.588398454354984057e-01,0.000000000000000000e+00
2.100000000000000000e+01,-3.802470306852387960e-01,0.000000000000000000e+00
2.200000000000000000e+01,-6.965013948434959357e-01,0.000000000000000000e+00
2.300000000000000000e+01,-1.262315495397884069e-01,0.000000000000000000e+00
2.400000000000000000e+01,-5.028492464941350937e-01,0.000000000000000000e+00
2.500000000000000000e+01,7.557980067912570266e-02,0.000000000000000000e+00
2.600000000000000000e+01,-3.619891598948531963e-01,0.000000000000000000e+00
2.700000000000000000e+01,-2.390177060658483787e-01,0.000000000000000000e+00
2.800000000000000000e+01,-1.278272418386061648e-01,0.000000000000000000e+00
2.900000000000000000e+01,3.680183378918009396e-01,0.000000000000000000e+00
3.000000000000000000e+01,-2.348608083460182738e-01,0.000000000000000000e+00
3.100000000000000000e+01,2.966611177125120236e-01,0.000000000000000000e+00
3.200000000000000000e+01,-2.451848670695638555e-01,0.000000000000000000e+00
3.300000000000000000e+01,3.391237071170513095e-01,0.000000000000000000e+00
3.400000000000000000e+01,2.565915205560044821e-01,0.000000000000000000e+00
3.500000000000000000e+01,1.135904227285765011e-01,0.000000000000000000e+00
3.600000000000000000e+01,1.496660798205700083e-01,0.000000000000000000e+00
3.700000000000000000e+01,2.256656151859260107e-01,0.000000000000000000e+00
3.800000000000000000e+01,4.707258946149776579e-01,0.000000000000000000e+00
3.900000000000000000e+01,2.779947782388075828e-01,0.000000000000000000e+00
4.000000000000000000e+01,2.908080175506736476e-01,0.000000000000000000e+00
4.100000000000000000e+01,4.703842297688049512e-01,0.000000000000000000e+00
4.200000000000000000e+01,1.350943052167090591e-03,0.000000000000000000e+00
4.300000000000000000e+01,3.552174655411716175e-01,0.000000000000000000e+00
4.400000000000000000e+01,7.090391822649771969e-01,0.000000000000000000e+00
4.500000000000000000e+01,1.329569277292048587e-02,0.000000000000000000e+00
4.600000000000000000e+01,6.115555922076111317e-01,0.000000000000000000e+00
4.700000000000000000e+01,1.409882841760836392e-01,0.000000000000000000e+00
4.800000000000000000e+01,8.266996709755810580e-01,0.000000000000000000e+00
4.900000000000000000e+01,3.572472025547269725e-01,0.000000000000000000e+00
5.000000000000000000e+01,3.839413291877912804e-01,0.000000000000000000e+00
5.100000000000000000e+01,5.717185951562913093e-01,0.000000000000000000e+00
5.200000000000000000e+01,1.795486082065619049e-01,0.000000000000000000e+00
5.300000000000000000e+01,5.200361820963036313e-02,0.000000000000000000e+00
5.400000000000000000e+01,1.121162827302734227e-01,0.000000000000000000e+00
5.500000000000000000e+01,-1.125548369165325080e-01,0.000000000000000000e+00
5.600000000000000000e+01,2.460704469276424167e+00,0.000000000000000000e+00
5.700000000000000000e+01,5.040483534841371238e+00,0.000000000000000000e+00
5.800000000000000000e+01,-7.735138228941390581e-01,1.000000000000000000e+00
5.900000000000000000e+01,-1.730857049450642782e+00,0.000000000000000000e+00
6.000000000000000000e+01,-2.650368093053186991e-01,0.000000000000000000e+00
6.100000000000000000e+01,-4.171749578209187348e-01,0.000000000000000000e+00
6.200000000000000000e+01,-3.158797886051050163e-01,0.000000000000000000e+00
6.300000000000000000e+01,-3.927275321814966413e-01,0.000000000000000000e+00
6.400000000000000000e+01,9.607180277374146107e-03,0.000000000000000000e+00
6.500000000000000000e+01,-4.046028111724149778e-01,0.000000000000000000e+00
6.600000000000000000e+01,-5.764505146586278335e-03,0.000000000000000000e+00
6.700000000000000000e+01,-2.096784594489312439e-02,0.000000000000000000e+00
6.800000000000000000e+01,3.021227877486556967e-01,0.000000000000000000e+00
6.900000000000000000e+01,2.789468861712298547e-02,0.000000000000000000e+00
7.000000000000000000e+01,4.913697206505762138e-01,0.000000000000000000e+00
7.100000000000000000e+01,5.917425352190714971e-01,0.000000000000000000e+00
7.200000000000000000e+01,7.974992885492137029e-01,0.000000000000000000e+00
7.300000000000000000e+01,1.113012469474895294e+00,0.000000000000000000e+00
7.400000000000000000e+01,1.470620277502003637e+00,0.000000000000000000e+00
7.500000000000000000e+01,1.261769186607025306e+00,0.000000000000000000e+00
7.600000000000000000e+01,8.706563637160340541e-01,0.000000000000000000e+00
7.700000000000000000e+01,3.115463367092922709e-01,0.000000000000000000e+00
7.800000000000000000e+01,-6.567936682641865032e-01,0.000000000000000000e+00
7.900000000000000000e+01,-8.099486596846574571e-01,0.000000000000000000e+00
8.000000000000000000e+01,-1.674886598073151101e+00,0.000000000000000000e+00
8.100000000000000000e+01,-1.572014962407296323e+00,0.000000000000000000e+00
8.200000000000000000e+01,-1.309161977396963827e+00,0.000000000000000000e+00
8.300000000000000000e+01,-1.485990752007915638e+00,0.000000000000000000e+00
8.400000000000000000e+01,-8.830551704589415518e-01,0.000000000000000000e+00
8.500000000000000000e+01,-1.160026738863261464e+00,0.000000000000000000e+00
8.600000000000000000e+01,-1.396742145281070213e+00,0.000000000000000000e+00
8.700000000000000000e+01,-3.960468815636465911e-01,0.000000000000000000e+00
8.800000000000000000e+01,-1.029504571054272288e+00,0.000000000000000000e+00
8.900000000000000000e+01,-6.217252052856591105e-01,0.000000000000000000e+00
9.000000000000000000e+01,-3.975270541006127867e-01,0.000000000000000000e+00
9.100000000000000000e+01,-7.349295502000268154e-01,0.000000000000000000e+00
9.200000000000000000e+01,-1.970071706049867644e-01,0.000000000000000000e+00
9.300000000000000000e+01,-3.943692879486024316e-01,0.000000000000000000e+00
9.400000000000000000e+01,-5.266664097266818972e-02,0.000000000000000000e+00
9.500000000000000000e+01,-5.879967396962204607e-01,0.000000000000000000e+00
9.600000000000000000e+01,3.089416837410035588e-01,0.000000000000000000e+00
9.700000000000000000e+01,1.587373236545399496e-02,0.000000000000000000e+00
9.800000000000000000e+01,4.134463935582906834e-03,0.000000000000000000e+00
9.900000000000000000e+01,1.513274877214413339e-01,0.000000000000000000e+00
1.000000000000000000e+02,-2.095706931242763971e-01,0.000000000000000000e+00
1.010000000000000000e+02,5.575658203880073244e-02,0.000000000000000000e+00
1.020000000000000000e+02,1.834011207268007315e-01,0.000000000000000000e+00
1.030000000000000000e+02,1.016581752339253825e-01,0.000000000000000000e+00
1.040000000000000000e+02,5.449398599470689497e-01,0.000000000000000000e+00
1.050000000000000000e+02,-1.942513639835539707e-01,0.000000000000000000e+00
1.060000000000000000e+02,5.653786205739143034e-01,0.000000000000000000e+00
1.070000000000000000e+02,5.080284177981023164e-03,0.000000000000000000e+00
1.080000000000000000e+02,6.561736908140164415e-01,0.000000000000000000e+00
1.090000000000000000e+02,1.486792153626234625e-01,0.000000000000000000e+00
1.100000000000000000e+02,1.837790434032758602e-01,0.000000000000000000e+00
1.110000000000000000e+02,2.789766052486995496e-01,0.000000000000000000e+00
1.120000000000000000e+02,3.399586749042800560e-01,0.000000000000000000e+00
1.130000000000000000e+02,4.136652845531465506e-01,0.000000000000000000e+00
1.140000000000000000e+02,1.596749301039523672e-01,0.000000000000000000e+00
1.150000000000000000e+02,2.486524801525332451e-01,0.000000000000000000e+00
1.160000000000000000e+02,2.440207671760395436e-01,0.000000000000000000e+00
1.170000000000000000e+02,6.644772170646626730e-01,0.000000000000000000e+00
1.180000000000000000e+02,9.615585133936462858e-01,0.000000000000000000e+00
1.190000000000000000e+02,-2.843222614171940499e-02,0.000000000000000000e+00
1.200000000000000000e+02,-2.804811521735520174e-01,0.000000000000000000e+00
1.210000000000000000e+02,8.811630860100866380e-03,0.000000000000000000e+00
1.220000000000000000e+02,1.623767461578160543e-01,0.000000000000000000e+00
1.230000000000000000e+02,-1.329154116030165367e-01,0.000000000000000000e+00
1.240000000000000000e+02,2.463116642242338727e+00,0.000000000000000000e+00
1.250000000000000000e+02,5.022997172095220009e+00,0.000000000000000000e+00
1.260000000000000000e+02,-1.839603023979317742e+00,1.000000000000000000e+00
1.270000000000000000e+02,-1.503330202742057420e+00,0.000000000000000000e+00
1.280000000000000000e+02,-3.386344604999570046e-02,0.000000000000000000e+00
1.290000000000000000e+02,-9.597651802434652435e-01,0.000000000000000000e+00
1.300000000000000000e+02,-5.077868160301183265e-01,0.000000000000000000e+00
1.310000000000000000e+02,-3.328659125036461108e-01,0.000000000000000000e+00
1.320000000000000000e+02,-3.259162878987544865e-01,0.000000000000000000e+00
1.330000000000000000e+02,-2.469488405847463930e-01,0.000000000000000000e+00
1.340000000000000000e+02,-3.032555483952753539e-01,0.000000000000000000e+00
1.350000000000000000e+02,-1.043214519828939146e-01,0.000000000000000000e+00
1.360000000000000000e+02,2.800240743546835165e-01,0.000000000000000000e+00
1.370000000000000000e+02,8.130111427098912769e-02,0.000000000000000000e+00
1.380000000000000000e+02,2.244368752488030971e-01,0.000000000000000000e+00
1.390000000000000000e+02,7.663554878000207182e-01,0.000000000000000000e+00
1.400000000000000000e+02,8.432771229517189715e-01,0.000000000000000000e+00
1.410000000000000000e+02,1.303390412095803530e+00,0.000000000000000000e+00
1.420000000000000000e+02,8.540837139143836465e-01,0.000000000000000000e+00
1.430000000000000000e+02,1.389600350582965049e+00,0.000000000000000000e+00
1.440000000000000000e+02,1.115043168287245701e+00,0.000000000000000000e+00
1.450000000000000000e+02,5.226607614779503752e-01,0.000000000000000000e+00
1.460000000000000000e+02,-5.352073911155718067e-01,0.000000000000000000e+00
1.470000000000000000e+02,-9.534590529459409103e-01,0.000000000000000000e+00
1.480000000000000000e+02,-1.484688061694930505e+00,0.000000000000000000e+00
1.490000000000000000e+02,-1.001277249891325605e+00,0.000000000000000000e+00
1.500000000000000000e+02,-1.483952455642607360e+00,0.000000000000000000e+00
1.510000000000000000e+02,-1.037147211017843018e+00,0.000000000000000000e+00
1.520000000000000000e+02,-8.664136793903931544e-01,0.000000000000000000e+00
1.530000000000000000e+02,-1.012539533963965788e+00,0.000000000000000000e+00
1.540000000000000000e+02,-7.687718774705671887e-01,0.000000000000000000e+00
1.550000000000000000e+02,-2.516816053108334450e-01,0.000000000000000000e+00
1.560000000000000000e+02,-9.619715531970809419e-01,0.000000000000000000e+00
1.570000000000000000e+02,-3.873430401659559985e-01,0.000000000000000000e+00
1.580000000000000000e+02,-3.486510318040279555e-01,0.000000000000000000e+00
1.590000000000000000e+02,-3.171011708091369674e-01,0.000000000000000000e+00
1.600000000000000000e+02,-5.042495937850366428e-01,0.000000000000000000e+00
1.610000000000000000e+02,-3.591993290914699544e-01,0.000000000000000000e+00
1.620000000000000000e+02,-6.364088430515209283e-02,0.000000000000000000e+00
1.630000000000000000e+02,-3.351116597820611442e-01,0.000000000000000000e+00
1.640000000000000000e+02,-6.633434781100243371e-02,0.000000000000000000e+00
1.650000000000000000e+02,6.035981204821869867e-02,0.000000000000000000e+00
1.660000000000000000e+02,1.143094061127952060e-01,0.000000000000000000e+00
1.670000000000000000e+02,1.513931819444686300e-01,0.000000000000000000e+00
1.680000000000000000e+02,-2.676033102754999393e-01,0.000000000000000000e+00
1.690000000000000000e+02,-8.387762308734972305e-02,0.000000000000000000e+00
1.700000000000000000e+02,1.026951410073923404e-01,0.000000000000000000e+00
1.710000000000000000e+02,2.817836300933063698e-01,0.000000000000000000e+00
1.720000000000000000e+02,7.376077066702797780e-02,0.000000000000000000e+00
1.730000000000000000e+02,6.138108321860234057e-02,0.000000000000000000e+00
1.740000000000000000e+02,1.502367987918780956e-01,0.000000000000000000e+00
1.750000000000000000e+02,3.525148298202449570e-01,0.000000000000000000e+00
1.760000000000000000e+02,-1.893281061117701308e-02,0.000000000000000000e+00
1.770000000000000000e+02,1.527227707698973203e-01,0.000000000000000000e+00
1.780000000000000000e+02,3.874180070915864693e-01,0.000000000000000000e+00
1.790000000000000000e+02,-3.871294311882066130e-02,0.000000000000000000e+00
1.800000000000000000e+02,4.107003049022610597e-01,0.000000000000000000e+00
1.810000000000000000e+02,2.706782820487855235e-01,0.000000000000000000e+00
1.820000000000000000e+02,3.702677543597299725e-01,0.000000000000000000e+00
1.830000000000000000e+02,1.045527919845002096e-01,0.000000000000000000e+00
1.840000000000000000e+02,4.330861463862202276e-01,0.000000000000000000e+00
1.850000000000000000e+02,2.028049770805098462e-01,0.000000000000000000e+00
1.860000000000000000e+02,3.219098744410612833e-01,0.000000000000000000e+00
1.870000000000000000e+02,6.615750227984599219e-01,0.000000000000000000e+00
1.880000000000000000e+02,8.796095450424786799e-01,0.000000000000000000e+00
1.890000000000000000e+02,3.430781044585601292e-01,0.000000000000000000e+00
1.900000000000000000e+02,-1.598749735480256839e-01,0.000000000000000000e+00
1.910000000000000000e+02,-1.250736181791477497e-01,0.000000000000000000e+00
1.920000000000000000e+02,5.940795437372186072e-01,0.000000000000000000e+00
1.930000000000000000e+02,-5.307104032738553245e-01,0.000000000000000000e+00
1.940000000000000000e+02,2.317872838290482740e+00,0.000000000000000000e+00
1.950000000000000000e+02,5.238767775352638267e+00,0.000000000000000000e+00
1.960000000000000000e+02,-1.036355668594058699e+00,1.000000000000000000e+00
1.970000000000000000e+02,-1.426583597158422867e+00,0.000000000000000000e+00
1.980000000000000000e+02,-8.221998102616050463e-01,0.000000000000000000e+00
1.990000000000000000e+02,-4.713214408839634384e-01,0.000000000000000000e+00
2.000000000000000000e+02,-3.911553512028498325e-01,0.000000000000000000e+00
2.010000000000000000e+02,-7.915221825164220348e-01,0.000000000000000000e+00
2.020000000000000000e+02,-3.555674475100384924e-01,0.000000000000000000e+00
2.030000000000000000e+02,-2.659826750761142833e-01,0.000000000000000000e+00
2.040000000000000000e+02,-4.732491494671914323e-01,0.000000000000000000e+00
2.050000000000000000e+02,-9.595610887647933185e-02,0.000000000000000000e+00
2.060000000000000000e+02,-3.329135018661267265e-01,0.000000000000000000e+00
2.070000000000000000e+02,3.126890940723122680e-01,0.000000000000000000e+00
2.080000000000000000e+02,-2.102851817444020832e-01,0.000000000000000000e+00
2.090000000000000000e+02,4.329803654457175521e-01,0.000000000000000000e+00
2.100000000000000000e+02,1.040078152289967139e+00,0.000000000000000000e+00
2.110000000000000000e+02,5.085710709393141959e-01,0.000000000000000000e+00
2.120000000000000000e+02,1.517771653626490691e+00,0.000000000000000000e+00
2.130000000000000000e+02,1.249575183154604696e+00,0.000000000000000000e+00
2.140000000000000000e+02,6.950897158328993575e-01,0.000000000000000000e+00
2.150000000000000000e+02,4.114332368979564669e-01,0.000000000000000000e+00
2.160000000000000000e+02,-7.496270829707625261e-01,0.000000000000000000e+00
2.170000000000000000e+02,-1.178733744909578052e+00,0.000000000000000000e+00
2.180000000000000000e+02,-1.039905832918607942e+00,0.000000000000000000e+00
2.190000000000000000e+02,-1.237116969761258067e+00,0.000000000000000000e+00
2.200000000000000000e+02,-1.400943607423603687e+00,0.000000000000000000e+00
2.210000000000000000e+02,-1.341798307194706830e+00,0.000000000000000000e+00
2.220000000000000000e+02,-1.136999266159547384e+00,0.000000000000000000e+00
2.230000000000000000e+02,-9.980931583430683318e-01,0.000000000000000000e+00
2.240000000000000000e+02,-1.000777969417395719e+00,0.000000000000000000e+00
2.250000000000000000e+02,-6.885085654761479157e-01,0.000000000000000000e+00
2.260000000000000000e+02,-1.050127998159881226e+00,0.000000000000000000e+00
2.270000000000000000e+02,-1.745098578819340440e-01,0.000000000000000000e+00
2.280000000000000000e+02,-4.489613846858265811e-01,0.000000000000000000e+00
2.290000000000000000e+02,-4.816903448118346476e-01,0.000000000000000000e+00
2.300000000000000000e+02,-1.001464303861011595e+00,0.000000000000000000e+00
2.310000000000000000e+02,2.664754750430328376e-02,0.000000000000000000e+00
2.320000000000000000e+02,-4.806269501121463450e-01,0.000000000000000000e+00
2.330000000000000000e+02,1.689834649690089355e-02,0.000000000000000000e+00
2.340000000000000000e+02,-2.796557215743645797e-01,0.000000000000000000e+00
2.350000000000000000e+02,-3.448011361817516773e-01,0.000000000000000000e+00
2.360000000000000000e+02,-3.980564154592040882e-02,0.000000000000000000e+00
2.370000000000000000e+02,4.050427322490319781e-01,0.000000000000000000e+00
2.380000000000000000e+02,1.520407168511859197e-01,0.000000000000000000e+00
2.390000000000000000e+02,1.701686735103739023e-01,0.000000000000000000e+00
2.400000000000000000e+02,-4.893952316632917826e-02,0.000000000000000000e+00
2.410000000000000000e+02,1.783517215882358120e-01,0.000000000000000000e+00
2.420000000000000000e+02,4.493574693842827816e-01,0.000000000000000000e+00
2.430000000000000000e+02,5.738939073288639170e-01,0.000000000000000000e+00
2.440000000000000000e+02,-3.504955972253967576e-03,0.000000000000000000e+00
2.450000000000000000e+02,3.934685365958427994e-01,0.000000000000000000e+00
2.460000000000000000e+02,3.276327782413465117e-01,0.000000000000000000e+00
2.470000000000000000e+02,4.867511911477084285e-01,0.000000000000000000e+00
2.480000000000000000e+02,3.777333770162841775e-01,0.000000000000000000e+00
2.490000000000000000e+02,1.503856658548493319e-01,0.000000000000000000e+00
2.500000000000000000e+02,5.852546679124566165e-01,0.000000000000000000e+00
2.510000000000000000e+02,2.723768655307393788e-02,0.000000000000000000e+00
2.520000000000000000e+02,7.512928063229158404e-01,0.000000000000000000e+00
2.530000000000000000e+02,5.018415165813396861e-01,0.000000000000000000e+00
2.540000000000000000e+02,4.082803017823147806e-01,0.000000000000000000e+00
2.550000000000000000e+02,1.817032960377237272e-01,0.000000000000000000e+00
2.560000000000000000e+02,5.989605746752647564e-01,0.000000000000000000e+00
2.570000000000000000e+02,6.696889207520780873e-01,0.000000000000000000e+00
2.580000000000000000e+02,7.449922630398917445e-01,0.000000000000000000e+00
2.590000000000000000e+02,4.525062655817482238e-01,0.000000000000000000e+00
2.600000000000000000e+02,3.147356955914816234e-01,0.000000000000000000e+00
2.610000000000000000e+02,-2.261031119868667782e-01,0.000000000000000000e+00
2.620000000000000000e+02,4.136914299414062302e-01,0.000000000000000000e+00
2.630000000000000000e+02,-4.376944516174341993e-01,0.000000000000000000e+00
2.640000000000000000e+02,2.597138842935880376e+00,0.000000000000000000e+00
2.650000000000000000e+02,5.373753722109746889e+00,0.000000000000000000e+00
2.660000000000000000e+02,-1.690824608519304606e+00,1.000000000000000000e+00
2.670000000000000000e+02,-1.139030500303688020e+00,0.000000000000000000e+00
2.680000000000000000e+02,-7.623140664485510420e-01,0.000000000000000000e+00
2.690000000000000000e+02,-4.666710253295837663e-01,0.000000000000000000e+00
2.700000000000000000e+02,-5.200025031314311486e-01,0.000000000000000000e+00
2.710000000000000000e+02,-4.768746611879627340e-01,0.000000000000000000e+00
2.720000000000000000e+02,-5.958876536304189564e-01,0.000000000000000000e+00
2.730000000000000000e+02,-2.160714348620570158e-01,0.000000000000000000e+00
2.740000000000000000e+02,-1.597494395416367285e-01,0.000000000000000000e+00
2.750000000000000000e+02,-2.573286882743467396e-01,0.000000000000000000e+00
2.760000000000000000e+02,-5.404438462500791296e-01,0.000000000000000000e+00
2.770000000000000000e+02,4.663675104442834285e-01,0.000000000000000000e+00
2.780000000000000000e+02,7.977295930906719290e-02,0.000000000000000000e+00
2.790000000000000000e+02,6.564761100856910669e-01,0.000000000000000000e+00
2.800000000000000000e+02,2.997450035731054618e-01,0.000000000000000000e+00
2.810000000000000000e+02,1.432938603896046104e+00,0.000000000000000000e+00
2.820000000000000000e+02,1.196864556636840327e+00,0.000000000000000000e+00
2.830000000000000000e+02,1.012066875800313515e+00,0.000000000000000000e+00
2.840000000000000000e+02,9.213508527350791066e-01,0.000000000000000000e+00
2.850000000000000000e+02,2.270593940436637370e-01,0.000000000000000000e+00
2.860000000000000000e+02,-7.267973788467432250e-01,0.000000000000000000e+00
2.870000000000000000e+02,-1.469935734728899490e+00,0.000000000000000000e+00
2.880000000000000000e+02,-1.216296289958429311e+00,0.000000000000000000e+00
2.890000000000000000e+02,-1.548169450185084672e+00,0.000000000000000000e+00
2.900000000000000000e+02,-1.687298337568212903e+00,0.000000000000000000e+00
2.910000000000000000e+02,-8.060246922515041934e-01,0.000000000000000000e+00
2.920000000000000000e+02,-1.615640876923073677e+00,0.000000000000000000e+00
2.930000000000000000e+02,-7.587426829068421030e-01,0.000000000000000000e+00
2.940000000000000000e+02,-7.599699416124516826e-01,0.000000000000000000e+00
2.950000000000000000e+02,-9.289072662856114881e-01,0.000000000000000000e+00
2.960000000000000000e+02,-7.970046497875742375e-01,0.000000000000000000e+00
2.970000000000000000e+02,-5.623599872922344645e-01,0.000000000000000000e+00
2.980000000000000000e+02,-5.113435899193317091e-01,0.000000000000000000e+00
2.990000000000000000e+02,-4.367922313823371372e-01,0.000000000000000000e+00
3.000000000000000000e+02,-6.322304199448592898e-01,0.000000000000000000e+00
3.010000000000000000e+02,1.141856591023276551e-01,0.000000000000000000e+00
3.020000000000000000e+02,-5.776517316031459792e-01,0.000000000000000000e+00
3.030000000000000000e+02,-2.674476616592575962e-01,0.000000000000000000e+00
3.040000000000000000e+02,-4.532815864394916516e-02,0.000000000000000000e+00
3.050000000000000000e+02,-1.522581971975117340e-02,0.000000000000000000e+00
3.060000000000000000e+02,-5.438099962529368003e-01,0.000000000000000000e+00
3.070000000000000000e+02,2.902487646280375033e-01,0.000000000000000000e+00
3.080000000000000000e+02,-2.451012590002272368e-02,0.000000000000000000e+00
3.090000000000000000e+02,1.376182638836319638e-01,0.000000000000000000e+00
3.100000000000000000e+02,-2.148257957226892487e-02,0.000000000000000000e+00
3.110000000000000000e+02,5.369890746165587592e-01,0.000000000000000000e+00
3.120000000000000000e+02,-9.347322477040817534e-02,0.000000000000000000e+00
3.130000000000000000e+02,2.168899870464583712e-01,0.000000000000000000e+00
3.140000000000000000e+02,4.667117947780042853e-01,0.000000000000000000e+00
3.150000000000000000e+02,2.297449251436761708e-01,0.000000000000000000e+00
3.160000000000000000e+02,4.114036706822190026e-01,0.000000000000000000e+00
3.170000000000000000e+02,3.571820185052596575e-01,0.000000000000000000e+00
3.180000000000000000e+02,1.255307113575584166e-01,0.000000000000000000e+00
3.190000000000000000e+02,3.747025817173025852e-01,0.000000000000000000e+00
3.200000000000000000e+02,4.882758017694083796e-01,0.000000000000000000e+00
3.210000000000000000e+02,-1.956049043511381424e-01,0.000000000000000000e+00
3.220000000000000000e+02,6.245007523868072452e-01,0.000000000000000000e+00
3.230000000000000000e+02,8.546247745100109261e-02,0.000000000000000000e+00
3.240000000000000000e+02,5.884741078679558424e-01,0.000000000000000000e+00
3.250000000000000000e+02,4.623907935463581476e-01,0.000000000000000000e+00
3.260000000000000000e+02,6.922264221841134546e-01,0.000000000000000000e+00
3.270000000000000000e+02,6.935815722139950790e-01,0.000000000000000000e+00
3.280000000000000000e+02,3.248298989443241802e-01,0.000000000000000000e+00
3.290000000000000000e+02,1.236512307737444583e-01,0.000000000000000000e+00
3.300000000000000000e+02,-1.273681006005971394e-01,0.000000000000000000e+00
3.310000000000000000e+02,2.301754797412036702e-01,0.000000000000000000e+00
3.320000000000000000e+02,-2.310022092458448029e-01,0.000000000000000000e+00
3.330000000000000000e+02,1.828139090699299363e+00,0.000000000000000000e+00
3.340000000000000000e+02,5.624494852278256296e+00,0.000000000000000000e+00
3.350000000000000000e+02,-9.728103634951937861e-01,1.000000000000000000e+00
3.360000000000000000e+02,-1.861089565307138427e+00,0.000000000000000000e+00
3.370000000000000000e+02,-4.471617247778010840e-01,0.000000000000000000e+00
3.380000000000000000e+02,-6.870729098170201832e-01,0.000000000000000000e+00
3.390000000000000000e+02,-6.129813072236398597e-01,0.000000000000000000e+00
3.400000000000000000e+02,-3.039197060089049995e-01,0.000000000000000000e+00
3.410000000000000000e+02,-1.278494319899595166e-01,0.000000000000000000e+00
3.420000000000000000e+02,-5.615224150017390503e-01,0.000000000000000000e+00
3.430000000000000000e+02,-1.979566247332019691e-01,0.000000000000000000e+00
3.440000000000000000e+02,-2.305886193574954723e-01,0.000000000000000000e+00
3.450000000000000000e+02,1.621303778188935008e-01,0.000000000000000000e+00
3.460000000000000000e+02,-9.804005657071697410e-02,0.000000000000000000e+00
3.470000000000000000e+02,5.699574824394367800e-01,0.000000000000000000e+00
3.480000000000000000e+02,1.870142046206671183e-01,0.000000000000000000e+00
3.490000000000000000e+02,7.818308910209783580e-01,0.000000000000000000e+00
3.500000000000000000e+02,1.094825950585411878e+00,0.000000000000000000e+00
3.510000000000000000e+02,1.325263038684944217e+00,0.000000000000000000e+00
3.520000000000000000e+02,1.309540437047903128e+00,0.000000000000000000e+00
3.530000000000000000e+02,1.125978359608118984e+00,0.000000000000000000e+00
3.540000000000000000e+02,4.039399651338100861e-01,0.000000000000000000e+00
3.550000000000000000e+02,-3.546380911250547330e-01,0.000000000000000000e+00
3.560000000000000000e+02,-1.092752412397562489e+00,0.000000000000000000e+00
3.570000000000000000e+02,-1.217082919963861087e+00,0.000000000000000000e+00
3.580000000000000000e+02,-1.549669634680054697e+00,0.000000000000000000e+00
3.590000000000000000e+02,-1.080314489696476921e+00,0.000000000000000000e+00
3.600000000000000000e+02,-1.207300437278606031e+00,0.000000000000000000e+00
3.610000000000000000e+02,-9.426246170972188976e-01,0.000000000000000000e+00
3.620000000000000000e+02,-8.419987387365601705e-01,0.000000000000000000e+00
3.630000000000000000e+02,-1.111041693207920789e+00,0.000000000000000000e+00
3.640000000000000000e+02,-1.078569007950410885e+00,0.000000000000000000e+00
3.650000000000000000e+02,-4.404834493468343104e-01,0.000000000000000000e+00
3.660000000000000000e+02,-6.187377566969302078e-01,0.000000000000000000e+00
3.670000000000000000e+02,-3.788791710285567826e-01,0.000000000000000000e+00
3.680000000000000000e+02,-8.510019635909114033e-01,0.000000000000000000e+00
3.690000000000000000e+02,-2.095423396296139384e-01,0.000000000000000000e+00
3.700000000000000000e+02,-4.557886530091108113e-01,0.000000000000000000e+00
3.710000000000000000e+02,3.397025446161930362e-02,0.000000000000000000e+00
3.720000000000000000e+02,-5.432440779199013692e-01,0.000000000000000000e+00
3.730000000000000000e+02,-4.641460034798003398e-02,0.000000000000000000e+00
3.740000000000000000e+02,-4.170238206725657704e-01,0.000000000000000000e+00
3.750000000000000000e+02,-5.566800147373545532e-02,0.000000000000000000e+00
3.760000000000000000e+02,-6.409738931991136590e-02,0.000000000000000000e+00
3.770000000000000000e+02,1.659761874170166129e-01,0.000000000000000000e+00
3.780000000000000000e+02,9.653640281586002569e-03,0.000000000000000000e+00
3.790000000000000000e+02,8.263855229559045890e-03,0.000000000000000000e+00
3.800000000000000000e+02,-5.900577413942715427e-02,0.000000000000000000e+00
3.810000000000000000e+02,4.612809401631049466e-01,0.000000000000000000e+00
3.820000000000000000e+02,3.326619798966337811e-03,0.000000000000000000e+00
3.830000000000000000e+02,2.938182151194447811e-01,0.000000000000000000e+00
3.840000000000000000e+02,-1.679036702204146289e-02,0.000000000000000000e+00
3.850000000000000000e+02,6.169806792156962150e-01,0.000000000000000000e+00
3.860000000000000000e+02,3.354669112971779294e-03,0.000000000000000000e+00
3.870000000000000000e+02,5.617387108614472213e-01,0.000000000000000000e+00
3.880000000000000000e+02,2.814496214208055402e-01,0.000000000000000000e+00
3.890000000000000000e+02,4.416690352235339567e-01,0.000000000000000000e+00
3.900000000000000000e+02,8.446663214260060615e-01,0.000000000000000000e+00
3.910000000000000000e+02,3.927766357069991665e-01,0.000000000000000000e+00
3.920000000000000000e+02,3.674994243521338411e-01,0.000000000000000000e+00
3.930000000000000000e+02,1.973352188552359165e-01,0.000000000000000000e+00
3.940000000000000000e+02,1.560995371946516941e-01,0.000000000000000000e+00
3.950000000000000000e+02,9.653035324783368343e-02,0.000000000000000000e+00
3.960000000000000000e+02,-4.879334000888713857e-02,0.000000000000000000e+00
3.970000000000000000e+02,1.971045888297194182e+00,0.000000000000000000e+00
3.980000000000000000e+02,5.420480834323766040e+00,0.000000000000000000e+00
3.990000000000000000e+02,-1.262838027862423829e+00,1.000000000000000000e+00
4.000000000000000000e+02,-9.233974387042903631e-01,0.000000000000000000e+00
4.010000000000000000e+02,-7.600863073697605721e-01,0.000000000000000000e+00
4.020000000000000000e+02,-5.664120292595633543e-01,0.000000000000000000e+00
4.030000000000000000e+02,-2.368469650053022235e-01,0.000000000000000000e+00
4.040000000000000000e+02,-3.117824085161787218e-01,0.000000000000000000e+00
4.050000000000000000e+02,-4.653552730674179183e-01,0.000000000000000000e+00
4.060000000000000000e+02,-3.983902517367640117e-01,0.000000000000000000e+00
4.070000000000000000e+02,-6.433661887875839758e-02,0.000000000000000000e+00
4.080000000000000000e+02,1.093067172067725343e-02,0.000000000000000000e+00
4.090000000000000000e+02,-2.416084614307823508e-01,0.000000000000000000e+00
4.100000000000000000e+02,-7.090242597614340725e-02,0.000000000000000000e+00
4.110000000000000000e+02,3.617570163210371281e-01,0.000000000000000000e+00
4.120000000000000000e+02,5.878301794053167884e-01,0.000000000000000000e+00
4.130000000000000000e+02,9.591532596935876676e-01,0.000000000000000000e+00
4.140000000000000000e+02,5.978346389643562908e-01,0.000000000000000000e+00
4.150000000000000000e+02,2.058989298216141073e+00,0.000000000000000000e+00
4.160000000000000000e+02,9.277367861512932912e-01,0.000000000000000000e+00
4.170000000000000000e+02,1.130475681282927969e+00,0.000000000000000000e+00
4.180000000000000000e+02,4.773555307285972660e-01,0.000000000000000000e+00
4.190000000000000000e+02,-5.555331928800666397e-01,0.000000000000000000e+00
4.200000000000000000e+02,-1.158350961217562203e+00,0.000000000000000000e+00
4.210000000000000000e+02,-1.116749445565948129e+00,0.000000000000000000e+00
4.220000000000000000e+02,-1.142769614084798491e+00,0.000000000000000000e+00
4.230000000000000000e+02,-1.161445161438473317e+00,0.000000000000000000e+00
4.240000000000000000e+02,-9.113806877246466431e-01,0.000000000000000000e+00
4.250000000000000000e+02,-1.083677181502029185e+00,0.000000000000000000e+00
4.260000000000000000e+02,-7.365484371038868439e-01,0.000000000000000000e+00
4.270000000000000000e+02,-6.313917643142306080e-01,0.000000000000000000e+00
4.280000000000000000e+02,-8.137843132670824486e-01,0.000000000000000000e+00
4.290000000000000000e+02,-5.670682812111265125e-01,0.000000000000000000e+00
4.300000000000000000e+02,-2.104013553865885788e-01,0.000000000000000000e+00
4.310000000000000000e+02,-6.027288397104810791e-01,0.000000000000000000e+00
4.320000000000000000e+02,-1.463856697682061336e-01,0.000000000000000000e+00
4.330000000000000000e+02,-4.989685449395174777e-01,0.000000000000000000e+00
4.340000000000000000e+02,-2.952764050939258866e-01,0.000000000000000000e+00
4.350000000000000000e+02,4.403175982096866475e-02,0.000000000000000000e+00
4.360000000000000000e+02,-2.879654335773002560e-01,0.000000000000000000e+00
4.370000000000000000e+02,1.762845404028359764e-01,0.000000000000000000e+00
4.380000000000000000e+02,-2.423291951490043061e-01,0.000000000000000000e+00
4.390000000000000000e+02,1.964374044308403178e-01,0.000000000000000000e+00
4.400000000000000000e+02,-2.261088827013018124e-02,0.000000000000000000e+00
4.410000000000000000e+02,-4.059763942375496093e-01,0.000000000000000000e+00
4.420000000000000000e+02,2.360523237809137309e-01,0.000000000000000000e+00
4.430000000000000000e+02,4.741830239712523931e-01,0.000000000000000000e+00
4.440000000000000000e+02,-1.400018565573646623e-01,0.000000000000000000e+00
4.450000000000000000e+02,3.160178469946655633e-01,0.000000000000000000e+00
4.460000000000000000e+02,1.278320256965734536e-01,0.000000000000000000e+00
4.470000000000000000e+02,3.067183351817528991e-01,0.000000000000000000e+00
4.480000000000000000e+02,3.502603948903624254e-01,0.000000000000000000e+00
4.490000000000000000e+02,6.174726289424387754e-02,0.000000000000000000e+00
4.500000000000000000e+02,1.693956454424652147e-01,0.000000000000000000e+00
4.510000000000000000e+02,2.841875368443416150e-01,0.000000000000000000e+00
4.520000000000000000e+02,1.561133300579851946e-01,0.000000000000000000e+00
4.530000000000000000e+02,3.654830576797148955e-01,0.000000000000000000e+00
4.540000000000000000e+02,9.917498918637318583e-02,0.000000000000000000e+00
4.550000000000000000e+02,2.977861442521587687e-01,0.000000000000000000e+00
4.560000000000000000e+02,1.037582760403465421e-01,0.000000000000000000e+00
4.570000000000000000e+02,3.419679566782430347e-01,0.000000000000000000e+00
4.580000000000000000e+02,3.405974738363936050e-01,0.000000000000000000e+00
4.590000000000000000e+02,4.446189373483596108e-01,0.000000000000000000e+00
4.600000000000000000e+02,-7.049604935292606844e-02,0.000000000000000000e+00
4.610000000000000000e+02,3.184568567647263482e-01,0.000000000000000000e+00
4.620000000000000000e+02,1.112199720735169844e-01,0.000000000000000000e+00
4.630000000000000000e+02,2.393939448730537378e-01,0.000000000000000000e+00
4.640000000000000000e+02,-1.406586150073322466e-02,0.000000000000000000e+00
4.650000000000000000e+02,6.784499256291808278e-01,0.000000000000000000e+00
4.660000000000000000e+02,3.063060134885760566e-01,0.000000000000000000e+00
4.670000000000000000e+02,2.549119687414434510e-01,0.000000000000000000e+00
4.680000000000000000e+02,-1.739111057563012472e-02,0.000000000000000000e+00
4.690000000000000000e+02,1.644045699264738147e-01,0.000000000000000000e+00
4.700000000000000000e+02,-4.889829115806114124e-01,0.000000000000000000e+00
4.710000000000000000e+02,2.888028823829443259e-01,0.000000000000000000e+00
4.720000000000000000e+02,-1.386029534213762959e-01,0.000000000000000000e+00
4.730000000000000000e+02,4.667752587405169074e+00,0.000000000000000000e+00
4.740000000000000000e+02,2.690514593077593997e+00,1.000000000000000000e+00
4.750000000000000000e+02,-1.991104832222385213e+00,0.000000000000000000e+00
4.760000000000000000e+02,-1.291680254006851936e+00,0.000000000000000000e+00
4.770000000000000000e+02,-4.843130806517104703e-01,0.000000000000000000e+00
4.780000000000000000e+02,-6.876787405958073585e-01,0.000000000000000000e+00
4.790000000000000000e+02,-6.798689021546523437e-01,0.000000000000000000e+00
4.800000000000000000e+02,-5.355143531149519909e-01,0.000000000000000000e+00
4.810000000000000000e+02,-7.281731768448999054e-01,0.000000000000000000e+00
4.820000000000000000e+02,-9.634860793269578449e-02,0.000000000000000000e+00
4.830000000000000000e+02,-4.965375507088948814e-01,0.000000000000000000e+00
4.840000000000000000e+02,-3.304027493093039669e-01,0.000000000000000000e+00
4.850000000000000000e+02,8.835484403583030930e-03,0.000000000000000000e+00
4.860000000000000000e+02,1.637141520887375468e-01,0.000000000000000000e+00
4.870000000000000000e+02,1.712508569032453187e-01,0.000000000000000000e+00
4.880000000000000000e+02,5.971405334308563795e-01,0.000000000000000000e+00
4.890000000000000000e+02,8.635450546576034503e-01,0.000000000000000000e+00
4.900000000000000000e+02,1.058987802746243156e+00,0.000000000000000000e+00
4.910000000000000000e+02,1.143197073368926064e+00,0.000000000000000000e+00
4.920000000000000000e+02,1.288486670879991136e+00,0.000000000000000000e+00
4.930000000000000000e+02,7.167254487093553950e-01,0.000000000000000000e+00
4.940000000000000000e+02,3.084893541174048015e-01,0.000000000000000000e+00
4.950000000000000000e+02,-1.317776585727717054e+00,0.000000000000000000e+00
4.960000000000000000e+02,-1.147917147266570126e+00,0.000000000000000000e+00
4.970000000000000000e+02,-1.278478906142439531e+00,0.000000000000000000e+00
4.980000000000000000e+02,-1.314959707755306573e+00,0.000000000000000000e+00
4.990000000000000000e+02,-1.546247127588162629e+00,0.000000000000000000e+00
5.000000000000000000e+02,-7.723197638458800807e-01,0.000000000000000000e+00
5.010000000000000000e+02,-1.533827707240854821e+00,0.000000000000000000e+00
5.020000000000000000e+02,-6.346695129079185094e-01,0.000000000000000000e+00
5.030000000000000000e+02,-8.888782838269311259e-01,0.000000000000000000e+00
5.040000000000000000e+02,-8.476315717239210068e-01,0.000000000000000000e+00
5.050000000000000000e+02,-8.536626253124504071e-01,0.000000000000000000e+00
5.060000000000000000e+02,-3.010105754414590939e-01,0.000000000000000000e+00
5.070000000000000000e+02,-5.776336888345823262e-01,0.000000000000000000e+00
5.080000000000000000e+02,-1.300626658609268238e-01,0.000000000000000000e+00
5.090000000000000000e+02,-5.018475846528454021e-01,0.000000000000000000e+00
5.100000000000000000e+02,-7.137202264555186915e-02,0.000000000000000000e+00
5.110000000000000000e+02,-7.396019279063538177e-01,0.000000000000000000e+00
5.120000000000000000e+02,-1.695609647336547843e-01,0.000000000000000000e+00
5.130000000000000000e+02,3.614939774562813540e-02,0.000000000000000000e+00
5.140000000000000000e+02,1.416642470626957584e-01,0.000000000000000000e+00
5.150000000000000000e+02,2.341289504188781220e-02,0.000000000000000000e+00
5.160000000000000000e+02,-1.047952120265492754e-01,0.000000000000000000e+00
5.170000000000000000e+02,2.897082270844697147e-02,0.000000000000000000e+00
5.180000000000000000e+02,1.107748216430824162e-01,0.000000000000000000e+00
5.190000000000000000e+02,3.541517878154915033e-01,0.000000000000000000e+00
5.200000000000000000e+02,-9.555554841958453782e-02,0.000000000000000000e+00
5.210000000000000000e+02,1.335526087019388644e-02,0.000000000000000000e+00
5.220000000000000000e+02,3.260562799972527293e-01,0.000000000000000000e+00
5.230000000000000000e+02,3.749119831157799454e-01,0.000000000000000000e+00
5.240000000000000000e+02,2.728918072103388159e-02,0.000000000000000000e+00
5.250000000000000000e+02,1.372468851166177284e-01,0.000000000000000000e+00
5.260000000000000000e+02,4.280407585950307681e-01,0.000000000000000000e+00
5.270000000000000000e+02,2.589296112291372132e-01,0.000000000000000000e+00
5.280000000000000000e+02,-7.305390546271894880e-02,0.000000000000000000e+00
5.290000000000000000e+02,6.346166926563465704e-01,0.000000000000000000e+00
5.300000000000000000e+02,3.678464570591017391e-01,0.000000000000000000e+00
5.310000000000000000e+02,2.872104012208907473e-02,0.000000000000000000e+00
5.320000000000000000e+02,3.156807409980905144e-01,0.000000000000000000e+00
5.330000000000000000e+02,6.968543504100315200e-01,0.000000000000000000e+00
5.340000000000000000e+02,2.144436213227259025e-01,0.000000000000000000e+00
5.350000000000000000e+02,4.344775206964087699e-01,0.000000000000000000e+00
5.360000000000000000e+02,7.614479033400528563e-01,0.000000000000000000e+00
5.370000000000000000e+02,7.497280889532298431e-01,0.000000000000000000e+00
5.380000000000000000e+02,4.965178852773228235e-01,0.000000000000000000e+00
5.390000000000000000e+02,1.554853424444350429e-01,0.000000000000000000e+00
5.400000000000000000e+02,-8.195200016771320151e-02,0.000000000000000000e+00
5.410000000000000000e+02,7.189273863848754109e-01,0.000000000000000000e+00
5.420000000000000000e+02,-4.410111333088121421e-01,0.000000000000000000e+00
5.430000000000000000e+02,3.772333086080888354e+00,0.000000000000000000e+00
5.440000000000000000e+02,4.416636323106226669e+00,0.000000000000000000e+00
5.450000000000000000e+02,-2.507342031379813374e+00,1.000000000000000000e+00
5.460000000000000000e+02,-5.461772283184135324e-01,0.000000000000000000e+00
5.470000000000000000e+02,-5.928634259614882218e-01,0.000000000000000000e+00
5.480000000000000000e+02,-2.593596969929111706e-01,0.000000000000000000e+00
5.490000000000000000e+02,-7.611224144226054200e-01,0.000000000000000000e+00
5.500000000000000000e+02,-3.683998738369250181e-01,0.000000000000000000e+00
5.510000000000000000e+02,-1.312493082766585106e-01,0.000000000000000000e+00
5.520000000000000000e+02,-1.283847100696888510e-01,0.000000000000000000e+00
5.530000000000000000e+02,-5.609052829857437139e-01,0.000000000000000000e+00
5.540000000000000000e+02,-2.503856081182377971e-02,0.000000000000000000e+00
5.550000000000000000e+02,-4.677486601874559224e-01,0.000000000000000000e+00
5.560000000000000000e+02,1.337917157716624894e-01,0.000000000000000000e+00
5.570000000000000000e+02,4.718788307951064520e-01,0.000000000000000000e+00
5.580000000000000000e+02,2.902900430154607969e-01,0.000000000000000000e+00
5.590000000000000000e+02,8.149850787335078950e-01,0.000000000000000000e+00
5.600000000000000000e+02,1.375293145857265698e+00,0.000000000000000000e+00
5.610000000000000000e+02,7.009929813867106230e-01,0.000000000000000000e+00
5.620000000000000000e+02,1.215024018589458077e+00,0.000000000000000000e+00
5.630000000000000000e+02,7.406185741959241398e-01,0.000000000000000000e+00
5.640000000000000000e+02,-9.226894298951422713e-02,0.000000000000000000e+00
5.650000000000000000e+02,-3.229507726935891831e-01,0.000000000000000000e+00
5.660000000000000000e+02,-1.327370121096796751e+00,0.000000000000000000e+00
5.670000000000000000e+02,-1.582411406341166504e+00,0.000000000000000000e+00
5.680000000000000000e+02,-1.548289783876262371e+00,0.000000000000000000e+00
5.690000000000000000e+02,-1.434241417207268388e+00,0.000000000000000000e+00
5.700000000000000000e+02,-1.241053646689854739e+00,0.000000000000000000e+00
5.710000000000000000e+02,-1.108212447753285756e+00,0.000000000000000000e+00
5.720000000000000000e+02,-1.104631484397057717e+00,0.000000000000000000e+00
5.730000000000000000e+02,-9.851689600063059382e-01,0.000000000000000000e+00
5.740000000000000000e+02,-7.938830935148424306e-01,0.000000000000000000e+00
5.750000000000000000e+02,-2.031815258371423571e-01,0.000000000000000000e+00
5.760000000000000000e+02,-7.179752765547545712e-01,0.000000000000000000e+00
5.770000000000000000e+02,-4.508508682686334090e-01,0.000000000000000000e+00
5.780000000000000000e+02,-4.192435323148013815e-01,0.000000000000000000e+00
5.790000000000000000e+02,-5.375288557871419348e-01,0.000000000000000000e+00
5.800000000000000000e+02,-5.996122315952839843e-02,0.000000000000000000e+00
5.810000000000000000e+02,-2.205257180048167051e-02,0.000000000000000000e+00
5.820000000000000000e+02,-4.845788792667000688e-01,0.000000000000000000e+00
5.830000000000000000e+02,6.180579154813165693e-02,0.000000000000000000e+00
5.840000000000000000e+02,-3.157218535506795543e-01,0.000000000000000000e+00
5.850000000000000000e+02,-1.271011848894682255e-03,0.000000000000000000e+00
5.860000000000000000e+02,2.110159567660291613e-01,0.000000000000000000e+00
5.870000000000000000e+02,9.796766064432974042e-02,0.000000000000000000e+00
5.880000000000000000e+02,2.534051282783464920e-01,0.000000000000000000e+00
5.890000000000000000e+02,-2.119233830763706805e-01,0.000000000000000000e+00
5.900000000000000000e+02,3.346481820299767596e-01,0.000000000000000000e+00
5.910000000000000000e+02,1.501722460361515077e-01,0.000000000000000000e+00
5.920000000000000000e+02,5.198443632239637680e-01,0.000000000000000000e+00
5.930000000000000000e+02,-1.546619861657079487e-01,0.000000000000000000e+00
5.940000000000000000e+02,4.723483498345287246e-01,0.000000000000000000e+00
5.950000000000000000e+02,2.388759426359324534e-01,0.000000000000000000e+00
5.960000000000000000e+02,4.898636152890231132e-01,0.000000000000000000e+00
5.970000000000000000e+02,5.335190500486255427e-01,0.000000000000000000e+00
5.980000000000000000e+02,2.680861867891691230e-01,0.000000000000000000e+00
5.990000000000000000e+02,3.665845879248363914e-01,0.000000000000000000e+00
6.000000000000000000e+02,4.010169482515961725e-01,0.000000000000000000e+00
6.010000000000000000e+02,3.297234863514212355e-01,0.000000000000000000e+00
6.020000000000000000e+02,5.257365309831709688e-01,0.000000000000000000e+00
6.030000000000000000e+02,5.981485202216232366e-01,0.000000000000000000e+00
6.040000000000000000e+02,4.091570599672044173e-01,0.000000000000000000e+00
6.050000000000000000e+02,2.410381616088813073e-01,0.000000000000000000e+00
6.060000000000000000e+02,1.019671323989582934e+00,0.000000000000000000e+00
6.070000000000000000e+02,5.124627268072247110e-01,0.000000000000000000e+00
6.080000000000000000e+02,1.217979392032196628e+00,0.000000000000000000e+00
6.090000000000000000e+02,-2.014037934070663782e-01,0.000000000000000000e+00
6.100000000000000000e+02,4.550692129167291933e-01,0.000000000000000000e+00
6.110000000000000000e+02,4.712023459149559945e-02,0.000000000000000000e+00
6.120000000000000000e+02,-3.527792928580754384e-02,0.000000000000000000e+00
6.130000000000000000e+02,-1.111973003548497561e-02,0.000000000000000000e+00
6.140000000000000000e+02,4.658126017033140442e+00,0.000000000000000000e+00
6.150000000000000000e+02,3.093073289931532521e+00,1.000000000000000000e+00
6.160000000000000000e+02,-2.023546632968737935e+00,0.000000000000000000e+00
6.170000000000000000e+02,-7.002934756899377167e-01,0.000000000000000000e+00
6.180000000000000000e+02,-8.410686022349743718e-01,0.000000000000000000e+00
6.190000000000000000e+02,-1.941341729319688014e-01,0.000000000000000000e+00
6.200000000000000000e+02,-5.811408633691866887e-01,0.000000000000000000e+00
6.210000000000000000e+02,-2.401076316354244788e-01,0.000000000000000000e+00
6.220000000000000000e+02,-8.241694670979836657e-01,0.000000000000000000e+00
6.230000000000000000e+02,-1.260386183314000097e-01,0.000000000000000000e+00
6.240000000000000000e+02,-4.355246055111053893e-01,0.000000000000000000e+00
6.250000000000000000e+02,-2.114645265082392145e-01,0.000000000000000000e+00
6.260000000000000000e+02,-1.925236693454372983e-01,0.000000000000000000e+00
6.270000000000000000e+02,1.167785112215679738e-01,0.000000000000000000e+00
6.280000000000000000e+02,4.477245723092084795e-01,0.000000000000000000e+00
6.290000000000000000e+02,8.162064613731461193e-01,0.000000000000000000e+00
6.300000000000000000e+02,3.465315696091083586e-01,0.000000000000000000e+00
6.310000000000000000e+02,8.007062984735434652e-01,0.000000000000000000e+00
6.320000000000000000e+02,1.416185615915308116e+00,0.000000000000000000e+00
6.330000000000000000e+02,1.323453091577677876e+00,0.000000000000000000e+00
6.340000000000000000e+02,5.995393639065222935e-01,0.000000000000000000e+00
6.350000000000000000e+02,-1.808074960490173647e-02,0.000000000000000000e+00
6.360000000000000000e+02,-1.347626682979071511e+00,0.000000000000000000e+00
6.370000000000000000e+02,-8.670090951580019523e-01,0.000000000000000000e+00
6.380000000000000000e+02,-1.485517730047894780e+00,0.000000000000000000e+00
6.390000000000000000e+02,-1.237612858036502228e+00,0.000000000000000000e+00
6.400000000000000000e+02,-1.616392878047970827e+00,0.000000000000000000e+00
6.410000000000000000e+02,-1.057001254692420344e+00,0.000000000000000000e+00
6.420000000000000000e+02,-1.249999663875356770e+00,0.000000000000000000e+00
6.430000000000000000e+02,-8.525182608571244547e-01,0.000000000000000000e+00
6.440000000000000000e+02,-7.980658181205463331e-01,0.000000000000000000e+00
6.450000000000000000e+02,-9.539234096274846753e-01,0.000000000000000000e+00
6.460000000000000000e+02,-5.714657225752541869e-01,0.000000000000000000e+00
6.470000000000000000e+02,-5.525412349560748781e-01,0.000000000000000000e+00
6.480000000000000000e+02,-5.495896743663895023e-01,0.000000000000000000e+00
6.490000000000000000e+02,-5.883270161466382930e-01,0.000000000000000000e+00
6.500000000000000000e+02,-2.275926427942329411e-01,0.000000000000000000e+00
6.510000000000000000e+02,9.262140111443233070e-02,0.000000000000000000e+00
6.520000000000000000e+02,-7.172218127015843603e-01,0.000000000000000000e+00
6.530000000000000000e+02,1.240452208137663576e-01,0.000000000000000000e+00
6.540000000000000000e+02,-5.238327245927231202e-01,0.000000000000000000e+00
6.550000000000000000e+02,1.856858116396597758e-01,0.000000000000000000e+00
6.560000000000000000e+02,-2.059949440715964086e-01,0.000000000000000000e+00
6.570000000000000000e+02,2.090455149813220947e-01,0.000000000000000000e+00
6.580000000000000000e+02,-4.236402650813975712e-01,0.000000000000000000e+00
6.590000000000000000e+02,-5.334092443585372600e-02,0.000000000000000000e+00
6.600000000000000000e+02,3.776414703030884779e-01,0.000000000000000000e+00
6.610000000000000000e+02,-2.677095813292910131e-01,0.000000000000000000e+00
6.620000000000000000e+02,2.712569100710500170e-01,0.000000000000000000e+00
6.630000000000000000e+02,1.196940955805982781e-01,0.000000000000000000e+00
6.640000000000000000e+02,-3.900178881343534937e-02,0.000000000000000000e+00
6.650000000000000000e+02,2.434291172311773277e-01,0.000000000000000000e+00
6.660000000000000000e+02,4.036537096708922578e-01,0.000000000000000000e+00
6.670000000000000000e+02,2.993812506132266238e-01,0.000000000000000000e+00
6.680000000000000000e+02,5.145315135427667996e-02,0.000000000000000000e+00
6.690000000000000000e+02,4.952036737758921392e-01,0.000000000000000000e+00
6.700000000000000000e+02,2.141783349032089223e-01,0.000000000000000000e+00
6.710000000000000000e+02,3.589018058816009216e-01,0.000000000000000000e+00
6.720000000000000000e+02,1.244790420777313472e-01,0.000000000000000000e+00
6.730000000000000000e+02,6.662228860509237238e-01,0.000000000000000000e+00
6.740000000000000000e+02,9.203985884234894277e-02,0.000000000000000000e+00
6.750000000000000000e+02,7.498766172125641560e-01,0.000000000000000000e+00
6.760000000000000000e+02,1.705540128859902305e-01,0.000000000000000000e+00
6.770000000000000000e+02,7.671261225191459143e-01,0.000000000000000000e+00
6.780000000000000000e+02,4.581554440392280464e-02,0.000000000000000000e+00
6.790000000000000000e+02,2.364744924661343617e-01,0.000000000000000000e+00
6.800000000000000000e+02,-3.756072762429512046e-01,0.000000000000000000e+00
6.810000000000000000e+02,3.600726647188848828e-01,0.000000000000000000e+00
6.820000000000000000e+02,-3.666851811352358492e-01,0.000000000000000000e+00
6.830000000000000000e+02,3.489833238079605326e+00,0.000000000000000000e+00
6.840000000000000000e+02,4.086851247485345340e+00,0.000000000000000000e+00
6.850000000000000000e+02,-2.169068412381373268e+00,1.000000000000000000e+00
6.860000000000000000e+02,-8.947249121298832542e-01,0.000000000000000000e+00
6.870000000000000000e+02,-7.010997023081740886e-01,0.000000000000000000e+00
6.880000000000000000e+02,-3.229104352248277077e-01,0.000000000000000000e+00
6.890000000000000000e+02,-9.124769284513705170e-01,0.000000000000000000e+00
6.900000000000000000e+02,-1.704559693318576929e-01,0.000000000000000000e+00
6.910000000000000000e+02,-3.298653660068238680e-01,0.000000000000000000e+00
6.920000000000000000e+02,-3.001667039634263179e-01,0.000000000000000000e+00
6.930000000000000000e+02,-2.789055939758663949e-01,0.000000000000000000e+00
6.940000000000000000e+02,-2.282070720890001514e-01,0.000000000000000000e+00
6.950000000000000000e+02,3.344142869835753928e-01,0.000000000000000000e+00
6.960000000000000000e+02,3.153049691604013494e-01,0.000000000000000000e+00
6.970000000000000000e+02,9.156241236461858113e-02,0.000000000000000000e+00
6.980000000000000000e+02,5.522899955553557394e-01,0.000000000000000000e+00
6.990000000000000000e+02,8.530454482938532035e-01,0.000000000000000000e+00
7.000000000000000000e+02,1.260492184293133811e+00,0.000000000000000000e+00
7.010000000000000000e+02,1.348288564483935970e+00,0.000000000000000000e+00
7.020000000000000000e+02,1.279501402549151345e+00,0.000000000000000000e+00
7.030000000000000000e+02,9.022691729038226915e-01,0.000000000000000000e+00
7.040000000000000000e+02,2.105685023848528625e-01,0.000000000000000000e+00
7.050000000000000000e+02,-7.261474662094197230e-01,0.000000000000000000e+00
7.060000000000000000e+02,-1.307431879451404821e+00,0.000000000000000000e+00
7.070000000000000000e+02,-1.420875201132459020e+00,0.000000000000000000e+00
7.080000000000000000e+02,-1.134383320420614183e+00,0.000000000000000000e+00
7.090000000000000000e+02,-1.469586323436186337e+00,0.000000000000000000e+00
7.100000000000000000e+02,-1.114289769095466731e+00,0.000000000000000000e+00
7.110000000000000000e+02,-1.081157911874200961e+00,0.000000000000000000e+00
7.120000000000000000e+02,-1.553534065786800422e+00,0.000000000000000000e+00
7.130000000000000000e+02,-5.917957712781567459e-01,0.000000000000000000e+00
7.140000000000000000e+02,-8.478335571651073321e-01,0.000000000000000000e+00
7.150000000000000000e+02,-4.820778971285196168e-01,0.000000000000000000e+00
7.160000000000000000e+02,-5.961698568843158963e-01,0.000000000000000000e+00
7.170000000000000000e+02,-2.185917352701105820e-01,0.000000000000000000e+00
7.180000000000000000e+02,-8.137918641118625507e-01,0.000000000000000000e+00
7.190000000000000000e+02,-2.136992436864952050e-01,0.000000000000000000e+00
7.200000000000000000e+02,-3.506962407704889428e-01,0.000000000000000000e+00
7.210000000000000000e+02,1.886637607245826576e-01,0.000000000000000000e+00
7.220000000000000000e+02,-6.044321469728218821e-01,0.000000000000000000e+00
7.230000000000000000e+02,6.792244135970335051e-02,0.000000000000000000e+00
7.240000000000000000e+02,1.557193533893637127e-01,0.000000000000000000e+00
7.250000000000000000e+02,6.837943332461851598e-02,0.000000000000000000e+00
7.260000000000000000e+02,-1.791839921550182069e-01,0.000000000000000000e+00
7.270000000000000000e+02,2.780648889475060836e-01,0.000000000000000000e+00
7.280000000000000000e+02,1.601842453165267244e-01,0.000000000000000000e+00
7.290000000000000000e+02,4.382670052298696106e-01,0.000000000000000000e+00
7.300000000000000000e+02,1.553184791871019543e-01,0.000000000000000000e+00
7.310000000000000000e+02,4.579051862944787110e-02,0.000000000000000000e+00
7.320000000000000000e+02,1.463285574684919099e-01,0.000000000000000000e+00
7.330000000000000000e+02,3.296935067859024238e-01,0.000000000000000000e+00
7.340000000000000000e+02,2.861227333435806611e-02,0.000000000000000000e+00
7.350000000000000000e+02,3.880859246967681142e-01,0.000000000000000000e+00
7.360000000000000000e+02,1.626102482064805399e-01,0.000000000000000000e+00
7.370000000000000000e+02,2.346181643670483818e-01,0.000000000000000000e+00
7.380000000000000000e+02,5.568515210002455973e-01,0.000000000000000000e+00
7.390000000000000000e+02,1.986018457076139665e-01,0.000000000000000000e+00
7.400000000000000000e+02,4.530350847011412885e-01,0.000000000000000000e+00
7.410000000000000000e+02,8.972983493559802404e-02,0.000000000000000000e+00
7.420000000000000000e+02,2.986905169979905406e-01,0.000000000000000000e+00
7.430000000000000000e+02,8.075879638183661724e-01,0.000000000000000000e+00
7.440000000000000000e+02,2.885074416808413034e-01,0.000000000000000000e+00
7.450000000000000000e+02,6.591341115789419725e-01,0.000000000000000000e+00
7.460000000000000000e+02,4.938324289077336560e-01,0.000000000000000000e+00
7.470000000000000000e+02,5.815974533153552839e-01,0.000000000000000000e+00
7.480000000000000000e+02,-2.470801348382211660e-01,0.000000000000000000e+00
7.490000000000000000e+02,-1.975740047526347576e-02,0.000000000000000000e+00
7.500000000000000000e+02,-3.033454156238716282e-01,0.000000000000000000e+00
7.510000000000000000e+02,2.463771708513547432e-01,0.000000000000000000e+00
7.520000000000000000e+02,1.092652832190087242e+00,0.000000000000000000e+00
7.530000000000000000e+02,5.615321855696151943e+00,0.000000000000000000e+00
7.540000000000000000e+02,-2.779270453921304229e-01,1.000000000000000000e+00
7.550000000000000000e+02,-1.754994907490048606e+00,0.000000000000000000e+00
7.560000000000000000e+02,-5.832523293641822537e-01,0.000000000000000000e+00
7.570000000000000000e+02,-6.414461049685731275e-01,0.000000000000000000e+00
7.580000000000000000e+02,-6.355568491702880962e-01,0.000000000000000000e+00
7.590000000000000000e+02,-2.623862181086391576e-01,0.000000000000000000e+00
7.600000000000000000e+02,-1.521321675773252002e-01,0.000000000000000000e+00
7.610000000000000000e+02,-5.030624496004116875e-01,0.000000000000000000e+00
7.620000000000000000e+02,-3.780518771211403561e-01,0.000000000000000000e+00
7.630000000000000000e+02,-2.504607057488041355e-01,0.000000000000000000e+00
7.640000000000000000e+02,1.877548913494065663e-01,0.000000000000000000e+00
7.650000000000000000e+02,-4.413101195482121986e-01,0.000000000000000000e+00
7.660000000000000000e+02,7.534538080403707649e-01,0.000000000000000000e+00
7.670000000000000000e+02,-8.772920928844267496e-02,0.000000000000000000e+00
7.680000000000000000e+02,1.190332001946383667e+00,0.000000000000000000e+00
7.690000000000000000e+02,1.059891212275528183e+00,0.000000000000000000e+00
7.700000000000000000e+02,1.079836465679643309e+00,0.000000000000000000e+00
7.710000000000000000e+02,1.199942402855869616e+00,0.000000000000000000e+00
7.720000000000000000e+02,1.221960808315984304e+00,0.000000000000000000e+00
7.730000000000000000e+02,3.197987132742055594e-01,0.000000000000000000e+00
7.740000000000000000e+02,-3.247420092557098958e-01,0.000000000000000000e+00
7.750000000000000000e+02,-1.153567267084644632e+00,0.000000000000000000e+00
7.760000000000000000e+02,-1.028908271176668610e+00,0.000000000000000000e+00
7.770000000000000000e+02,-1.713822436312929742e+00,0.000000000000000000e+00
7.780000000000000000e+02,-9.745373379908761624e-01,0.000000000000000000e+00
7.790000000000000000e+02,-1.206718775168038604e+00,0.000000000000000000e+00
7.800000000000000000e+02,-1.355771069738320511e+00,0.000000000000000000e+00
7.810000000000000000e+02,-5.529155813961564858e-01,0.000000000000000000e+00
7.820000000000000000e+02,-1.104660091892074592e+00,0.000000000000000000e+00
7.830000000000000000e+02,-9.189685061543161337e-01,0.000000000000000000e+00
7.840000000000000000e+02,-6.723711528841488372e-01,0.000000000000000000e+00
7.850000000000000000e+02,-3.973363607861195579e-01,0.000000000000000000e+00
7.860000000000000000e+02,-3.868636948901001960e-01,0.000000000000000000e+00
7.870000000000000000e+02,-3.344501731933809396e-01,0.000000000000000000e+00
7.880000000000000000e+02,-7.281357547568603206e-01,0.000000000000000000e+00
7.890000000000000000e+02,-2.522324028324299770e-03,0.000000000000000000e+00
7.900000000000000000e+02,-3.139016616518889857e-01,0.000000000000000000e+00
7.910000000000000000e+02,4.040534712206845375e-02,0.000000000000000000e+00
7.920000000000000000e+02,-2.899690907572492482e-01,0.000000000000000000e+00
7.930000000000000000e+02,-1.967673277088548556e-01,0.000000000000000000e+00
7.940000000000000000e+02,-5.078448013093474905e-02,0.000000000000000000e+00
7.950000000000000000e+02,3.018393561118864477e-01,0.000000000000000000e+00
7.960000000000000000e+02,-5.828487860183752256e-02,0.000000000000000000e+00
7.970000000000000000e+02,-2.225028597481844561e-01,0.000000000000000000e+00
7.980000000000000000e+02,7.067354597997355103e-02,0.000000000000000000e+00
7.990000000000000000e+02,2.962574216104806868e-01,0.000000000000000000e+00
8.000000000000000000e+02,3.681935421582166468e-01,0.000000000000000000e+00
8.010000000000000000e+02,-1.711621674197621665e-02,0.000000000000000000e+00
8.020000000000000000e+02,-7.192199045163855109e-02,0.000000000000000000e+00
8.030000000000000000e+02,6.365423310412278157e-01,0.000000000000000000e+00
8.040000000000000000e+02,1.560759058959249046e-01,0.000000000000000000e+00
8.050000000000000000e+02,4.256841407181312098e-01,0.000000000000000000e+00
8.060000000000000000e+02,1.692710570491427202e-01,0.000000000000000000e+00
8.070000000000000000e+02,2.708830182609626713e-01,0.000000000000000000e+00
8.080000000000000000e+02,5.965147697113954983e-01,0.000000000000000000e+00
8.090000000000000000e+02,2.636384721409506526e-01,0.000000000000000000e+00
8.100000000000000000e+02,5.028790033317540598e-01,0.000000000000000000e+00
8.110000000000000000e+02,2.479958344174798676e-04,0.000000000000000000e+00
8.120000000000000000e+02,6.214775993762589046e-01,0.000000000000000000e+00
8.130000000000000000e+02,6.453529454266040966e-02,0.000000000000000000e+00
8.140000000000000000e+02,5.418165398225044393e-01,0.000000000000000000e+00
8.150000000000000000e+02,7.307001087108442317e-01,0.000000000000000000e+00
8.160000000000000000e+02,5.907208298698417570e-01,0.000000000000000000e+00
8.170000000000000000e+02,3.674112554034630329e-01,0.000000000000000000e+00
8.180000000000000000e+02,5.624770596548822610e-01,0.000000000000000000e+00
8.190000000000000000e+02,5.200120798245734532e-02,0.000000000000000000e+00
8.200000000000000000e+02,9.571516214183276028e-02,0.000000000000000000e+00
8.210000000000000000e+02,-3.091085263673113426e-01,0.000000000000000000e+00
8.220000000000000000e+02,1.720537896030800984e-01,0.000000000000000000e+00
8.230000000000000000e+02,9.046754130295282526e-01,0.000000000000000000e+00
8.240000000000000000e+02,4.988293708200571608e+00,0.000000000000000000e+00
8.250000000000000000e+02,1.091538049874062999e+00,1.000000000000000000e+00
8.260000000000000000e+02,-1.978727214282955282e+00,0.000000000000000000e+00
8.270000000000000000e+02,-3.683043738791917376e-01,0.000000000000000000e+00
8.280000000000000000e+02,-8.365313305705301961e-01,0.000000000000000000e+00
8.290000000000000000e+02,-4.992788616318400430e-01,0.000000000000000000e+00
8.300000000000000000e+02,-4.227942882995231466e-01,0.000000000000000000e+00
8.310000000000000000e+02,-5.905957658701211921e-01,0.000000000000000000e+00
8.320000000000000000e+02,-3.869066468692890504e-01,0.000000000000000000e+00
8.330000000000000000e+02,-2.287978425894025836e-01,0.000000000000000000e+00
8.340000000000000000e+02,-2.169425755298410585e-01,0.000000000000000000e+00
8.350000000000000000e+02,-6.258222551574395276e-02,0.000000000000000000e+00
8.360000000000000000e+02,2.203050734816023870e-01,0.000000000000000000e+00
8.370000000000000000e+02,2.197186746714535066e-01,0.000000000000000000e+00
8.380000000000000000e+02,4.893694158578431597e-01,0.000000000000000000e+00
8.390000000000000000e+02,5.748474952726009279e-01,0.000000000000000000e+00
8.400000000000000000e+02,1.049527779260142069e+00,0.000000000000000000e+00
8.410000000000000000e+02,9.257809790620957768e-01,0.000000000000000000e+00
8.420000000000000000e+02,1.514655714157672639e+00,0.000000000000000000e+00
8.430000000000000000e+02,1.071343574839804580e+00,0.000000000000000000e+00
8.440000000000000000e+02,7.825195031722465000e-01,0.000000000000000000e+00
8.450000000000000000e+02,-4.932460029141855218e-01,0.000000000000000000e+00
8.460000000000000000e+02,-9.259629931985555729e-01,0.000000000000000000e+00
8.470000000000000000e+02,-9.907695392376048016e-01,0.000000000000000000e+00
8.480000000000000000e+02,-1.390198631514907968e+00,0.000000000000000000e+00
8.490000000000000000e+02,-1.419126268486210263e+00,0.000000000000000000e+00
8.500000000000000000e+02,-1.535396784825041161e+00,0.000000000000000000e+00
8.510000000000000000e+02,-7.475406677222654617e-01,0.000000000000000000e+00
8.520000000000000000e+02,-1.139882211352148067e+00,0.000000000000000000e+00
8.530000000000000000e+02,-1.225666117354438089e+00,0.000000000000000000e+00
8.540000000000000000e+02,-8.062311571823296275e-01,0.000000000000000000e+00
8.550000000000000000e+02,-8.773101185573667360e-01,0.000000000000000000e+00
8.560000000000000000e+02,-4.949130083747481645e-01,0.000000000000000000e+00
8.570000000000000000e+02,-8.595385471743320904e-01,0.000000000000000000e+00
8.580000000000000000e+02,-6.801294772605284700e-02,0.000000000000000000e+00
8.590000000000000000e+02,-5.925647311654312910e-01,0.000000000000000000e+00
8.600000000000000000e+02,-3.677947277308282192e-01,0.000000000000000000e+00
8.610000000000000000e+02,-2.529990835728105347e-01,0.000000000000000000e+00
8.620000000000000000e+02,-2.379922175730465050e-01,0.000000000000000000e+00
8.630000000000000000e+02,-5.234970617503411500e-02,0.000000000000000000e+00
8.640000000000000000e+02,-4.909945009453680620e-01,0.000000000000000000e+00
8.650000000000000000e+02,1.758208324333540018e-01,0.000000000000000000e+00
8.660000000000000000e+02,-3.724197028481520122e-01,0.000000000000000000e+00
8.670000000000000000e+02,4.230928039955502706e-01,0.000000000000000000e+00
8.680000000000000000e+02,-3.142619033890071689e-01,0.000000000000000000e+00
8.690000000000000000e+02,1.614458708475857984e-01,0.000000000000000000e+00
8.700000000000000000e+02,1.241849181190937818e-01,0.000000000000000000e+00
8.710000000000000000e+02,-6.590825301685597493e-02,0.000000000000000000e+00
8.720000000000000000e+02,2.461290990667496237e-01,0.000000000000000000e+00
8.730000000000000000e+02,3.854949206810582840e-01,0.000000000000000000e+00
8.740000000000000000e+02,2.014268814004573360e-01,0.000000000000000000e+00
8.750000000000000000e+02,1.991309273436061844e-01,0.000000000000000000e+00
8.760000000000000000e+02,5.611042262842448336e-01,0.000000000000000000e+00
8.770000000000000000e+02,-1.903985302173056421e-02,0.000000000000000000e+00
8.780000000000000000e+02,6.754499735813497274e-01,0.000000000000000000e+00
8.790000000000000000e+02,2.730293109514665972e-01,0.000000000000000000e+00
8.800000000000000000e+02,1.008378267277685175e-01,0.000000000000000000e+00
8.810000000000000000e+02,4.839683006033225210e-01,0.000000000000000000e+00
8.820000000000000000e+02,1.495064297631249761e-01,0.000000000000000000e+00
8.830000000000000000e+02,7.141408619779563427e-01,0.000000000000000000e+00
8.840000000000000000e+02,4.036348344694619117e-01,0.000000000000000000e+00
8.850000000000000000e+02,6.009143819782392093e-01,0.000000000000000000e+00
8.860000000000000000e+02,1.287217854020547281e-01,0.000000000000000000e+00
8.870000000000000000e+02,6.756387790372716529e-01,0.000000000000000000e+00
8.880000000000000000e+02,6.286016167910635222e-02,0.000000000000000000e+00
8.890000000000000000e+02,3.953652197940282775e-01,0.000000000000000000e+00
8.900000000000000000e+02,-6.258209256695175249e-01,0.000000000000000000e+00
8.910000000000000000e+02,7.282212845041418081e-01,0.000000000000000000e+00
8.920000000000000000e+02,-1.490375459703857930e-01,0.000000000000000000e+00
8.930000000000000000e+02,5.080342679170328779e+00,0.000000000000000000e+00
8.940000000000000000e+02,1.569085957941417364e+00,1.000000000000000000e+00
8.950000000000000000e+02,-2.514359713756862291e+00,0.000000000000000000e+00
8.960000000000000000e+02,-2.457710381416085554e-01,0.000000000000000000e+00
8.970000000000000000e+02,-6.208609069831219074e-01,0.000000000000000000e+00
8.980000000000000000e+02,-8.073303734723055181e-01,0.000000000000000000e+00
8.990000000000000000e+02,-6.304573909312948254e-01,0.000000000000000000e+00
9.000000000000000000e+02,-1.585567406184987538e-01,0.000000000000000000e+00
9.010000000000000000e+02,-4.042290192164575413e-01,0.000000000000000000e+00
9.020000000000000000e+02,-4.658411798208024757e-01,0.000000000000000000e+00
9.030000000000000000e+02,-2.991106797226196767e-01,0.000000000000000000e+00
9.040000000000000000e+02,1.470802970440455298e-02,0.000000000000000000e+00
9.050000000000000000e+02,5.610630243919302318e-01,0.000000000000000000e+00
9.060000000000000000e+02,1.422464087001934219e-01,0.000000000000000000e+00
9.070000000000000000e+02,1.408442071817355701e-01,0.000000000000000000e+00
9.080000000000000000e+02,5.471790577045070325e-01,0.000000000000000000e+00
9.090000000000000000e+02,1.058246965506472126e+00,0.000000000000000000e+00
9.100000000000000000e+02,1.276763675432022183e+00,0.000000000000000000e+00
9.110000000000000000e+02,1.057891347344343647e+00,0.000000000000000000e+00
9.120000000000000000e+02,1.689181900958990346e+00,0.000000000000000000e+00
9.130000000000000000e+02,2.980907644265475276e-01,0.000000000000000000e+00
9.140000000000000000e+02,-2.705903738654652849e-02,0.000000000000000000e+00
9.150000000000000000e+02,-1.413762380554428821e+00,0.000000000000000000e+00
9.160000000000000000e+02,-9.693595928896677760e-01,0.000000000000000000e+00
9.170000000000000000e+02,-1.907526390998112831e+00,0.000000000000000000e+00
9.180000000000000000e+02,-1.174811083097336173e+00,0.000000000000000000e+00
9.190000000000000000e+02,-1.234415528357946545e+00,0.000000000000000000e+00
9.200000000000000000e+02,-1.658182734676618919e+00,0.000000000000000000e+00
9.210000000000000000e+02,-8.910608832235643595e-01,0.000000000000000000e+00
9.220000000000000000e+02,-1.107598647634272515e+00,0.000000000000000000e+00
9.230000000000000000e+02,-8.127799805725393067e-01,0.000000000000000000e+00
9.240000000000000000e+02,-3.413331547507039154e-01,0.000000000000000000e+00
9.250000000000000000e+02,-5.998427248617158591e-01,0.000000000000000000e+00
9.260000000000000000e+02,-4.249551503431709953e-01,0.000000000000000000e+00
9.270000000000000000e+02,-5.318155888300256651e-01,0.000000000000000000e+00
9.280000000000000000e+02,-2.103801902137716062e-01,0.000000000000000000e+00
9.290000000000000000e+02,-3.381936916108148061e-01,0.000000000000000000e+00
9.300000000000000000e+02,-1.616914942905020025e-01,0.000000000000000000e+00
9.310000000000000000e+02,-4.687622793144623906e-02,0.000000000000000000e+00
9.320000000000000000e+02,-3.307145968489542120e-01,0.000000000000000000e+00
9.330000000000000000e+02,-4.905295647966913947e-02,0.000000000000000000e+00
9.340000000000000000e+02,-3.617368364991449536e-02,0.000000000000000000e+00
9.350000000000000000e+02,7.181032117026908690e-02,0.000000000000000000e+00
9.360000000000000000e+02,-2.132903719528417563e-01,0.000000000000000000e+00
9.370000000000000000e+02,5.624317339858917603e-02,0.000000000000000000e+00
9.380000000000000000e+02,1.940144442176970907e-01,0.000000000000000000e+00
9.390000000000000000e+02,-3.132385252303800938e-01,0.000000000000000000e+00
9.400000000000000000e+02,3.246212645618958836e-01,0.000000000000000000e+00
9.410000000000000000e+02,-1.910433191421795074e-01,0.000000000000000000e+00
9.420000000000000000e+02,4.078784105300541363e-01,0.000000000000000000e+00
9.430000000000000000e+02,-2.936975778971269158e-01,0.000000000000000000e+00
9.440000000000000000e+02,5.327074593077791853e-01,0.000000000000000000e+00
9.450000000000000000e+02,1.687418414138628156e-02,0.000000000000000000e+00
9.460000000000000000e+02,4.877565086723032461e-01,0.000000000000000000e+00
9.470000000000000000e+02,-3.749457828842439611e-01,0.000000000000000000e+00
9.480000000000000000e+02,2.253091440655861089e-01,0.000000000000000000e+00
9.490000000000000000e+02,9.366575630894036220e-01,0.000000000000000000e+00
9.500000000000000000e+02,-6.577939559522612001e-01,0.000000000000000000e+00
9.510000000000000000e+02,9.471603120542879672e-01,0.000000000000000000e+00
9.520000000000000000e+02,2.356167499811583632e-01,0.000000000000000000e+00
9.530000000000000000e+02,7.754830361816679174e-01,0.000000000000000000e+00
9.540000000000000000e+02,-1.030083658837302046e-01,0.000000000000000000e+00
9.550000000000000000e+02,1.203386476232487068e+00,0.000000000000000000e+00
9.560000000000000000e+02,-3.318202128845365584e-01,0.000000000000000000e+00
9.570000000000000000e+02,1.956865535750552387e-01,0.000000000000000000e+00
9.580000000000000000e+02,3.848013269939669356e-02,0.000000000000000000e+00
9.590000000000000000e+02,3.816359836401541500e-02,0.000000000000000000e+00
9.600000000000000000e+02,2.603701089432421956e-01,0.000000000000000000e+00
9.610000000000000000e+02,4.846142411083016022e+00,0.000000000000000000e+00
9.620000000000000000e+02,2.331661703410038644e+00,1.000000000000000000e+00
9.630000000000000000e+02,-2.345009666920019331e+00,0.000000000000000000e+00
9.640000000000000000e+02,-3.938937736294089720e-01,0.000000000000000000e+00
9.650000000000000000e+02,-9.115769773352914163e-01,0.000000000000000000e+00
9.660000000000000000e+02,2.563119446969100435e-01,0.000000000000000000e+00
9.670000000000000000e+02,-9.011224934513525353e-01,0.000000000000000000e+00
9.680000000000000000e+02,8.239473441066393067e-02,0.000000000000000000e+00
9.690000000000000000e+02,-6.026089347828248455e-01,0.000000000000000000e+00
9.700000000000000000e+02,1.820200646243251008e-01,0.000000000000000000e+00
9.710000000000000000e+02,-4.643361233964152235e-01,0.000000000000000000e+00
9.720000000000000000e+02,3.875756766619971594e-01,0.000000000000000000e+00
9.730000000000000000e+02,-2.334340915566489871e-01,0.000000000000000000e+00
9.740000000000000000e+02,6.118571302354367525e-01,0.000000000000000000e+00
9.750000000000000000e+02,2.040292787544070729e-01,0.000000000000000000e+00
9.760000000000000000e+02,6.971459885298290082e-01,0.000000000000000000e+00
9.770000000000000000e+02,7.206021312020942649e-01,0.000000000000000000e+00
9.780000000000000000e+02,1.443587789120330145e+00,0.000000000000000000e+00
9.790000000000000000e+02,1.110561621608810334e+00,0.000000000000000000e+00
9.800000000000000000e+02,1.276051754871994515e+00,0.000000000000000000e+00
9.810000000000000000e+02,4.342728830469120838e-01,0.000000000000000000e+00
9.820000000000000000e+02,-1.488459314412376167e-01,0.000000000000000000e+00
9.830000000000000000e+02,-6.949464104380816964e-01,0.000000000000000000e+00
9.840000000000000000e+02,-1.050597450632621221e+00,0.000000000000000000e+00
9.850000000000000000e+02,-1.165622620333263360e+00,0.000000000000000000e+00
9.860000000000000000e+02,-1.279712104699728403e+00,0.000000000000000000e+00
9.870000000000000000e+02,-1.361367313769314968e+00,0.000000000000000000e+00
9.880000000000000000e+02,-8.202362731991944544e-01,0.000000000000000000e+00
9.890000000000000000e+02,-1.102374317028682826e+00,0.000000000000000000e+00
9.900000000000000000e+02,-6.887374719075527452e-01,0.000000000000000000e+00
9.910000000000000000e+02,-7.621680432066223476e-01,0.000000000000000000e+00
9.920000000000000000e+02,-7.474634869734652076e-01,0.000000000000000000e+00
9.930000000000000000e+02,-5.228916695609420184e-01,0.000000000000000000e+00
9.940000000000000000e+02,-2.997189025091432368e-01,0.000000000000000000e+00
9.950000000000000000e+02,-1.713336580311418944e-01,0.000000000000000000e+00
9.960000000000000000e+02,-4.159601655480598126e-01,0.000000000000000000e+00
9.970000000000000000e+02,-1.327704025558798240e-01,0.000000000000000000e+00
9.980000000000000000e+02,-4.231654714746790336e-01,0.000000000000000000e+00
9.990000000000000000e+02,2.607422410481937125e-01,0.000000000000000000e+00
1.000000000000000000e+03,-2.132093292799153439e-01,0.000000000000000000e+00
1.001000000000000000e+03,-6.748911453290286355e-02,0.000000000000000000e+00
1.002000000000000000e+03,3.745838315777611643e-02,0.000000000000000000e+00
1.003000000000000000e+03,1.822313340761499423e-01,0.000000000000000000e+00
1.004000000000000000e+03,-1.512090791806624569e-02,0.000000000000000000e+00
1.005000000000000000e+03,4.357803354273162011e-01,0.000000000000000000e+00
1.006000000000000000e+03,1.885533877418322235e-01,0.000000000000000000e+00
1.007000000000000000e+03,2.176486915199643823e-01,0.000000000000000000e+00
1.008000000000000000e+03,1.005159405150151675e-01,0.000000000000000000e+00
1.009000000000000000e+03,3.742655271974721920e-01,0.000000000000000000e+00
1.010000000000000000e+03,5.781678662914500055e-01,0.000000000000000000e+00
1.011000000000000000e+03,5.136043232351988896e-01,0.000000000000000000e+00
1.012000000000000000e+03,2.713754080532637669e-01,0.000000000000000000e+00
1.013000000000000000e+03,2.104852362883025407e-01,0.000000000000000000e+00
1.014000000000000000e+03,2.767855369321719494e-01,0.000000000000000000e+00
1.015000000000000000e+03,3.485312738647727837e-01,0.000000000000000000e+00
1.016000000000000000e+03,4.091286465582804621e-01,0.000000000000000000e+00
1.017000000000000000e+03,-2.948041374789730357e-02,0.000000000000000000e+00
1.018000000000000000e+03,3.397932997156761781e-01,0.000000000000000000e+00
1.019000000000000000e+03,-4.051829837362530551e-02,0.000000000000000000e+00
1.020000000000000000e+03,4.212592430365365015e-01,0.000000000000000000e+00
1.021000000000000000e+03,8.255964759497656791e-03,0.000000000000000000e+00
1.022000000000000000e+03,8.239969292905785503e-01,0.000000000000000000e+00
1.023000000000000000e+03,-1.483716935215061428e-01,0.000000000000000000e+00
1.024000000000000000e+03,1.064123556624567923e+00,0.000000000000000000e+00
1.025000000000000000e+03,1.094125608999050453e-01,0.000000000000000000e+00
1.026000000000000000e+03,1.823502249151293664e-01,0.000000000000000000e+00
1.027000000000000000e+03,-5.816511740782421835e-01,0.000000000000000000e+00
1.028000000000000000e+03,6.237062195803948494e-01,0.000000000000000000e+00
1.029000000000000000e+03,-6.856060914039604492e-01,0.000000000000000000e+00
1.030000000000000000e+03,2.119270427634579956e+00,0.000000000000000000e+00
1.031000000000000000e+03,5.585221442385618573e+00,0.000000000000000000e+00
1.032000000000000000e+03,-1.458752114248093257e+00,1.000000000000000000e+00
1.033000000000000000e+03,-1.107601534149485589e+00,0.000000000000000000e+00
1.034000000000000000e+03,-9.840532811223072773e-01,0.000000000000000000e+00
1.035000000000000000e+03,-4.127190584791857741e-01,0.000000000000000000e+00
1.036000000000000000e+03,-7.174126321080606106e-01,0.000000000000000000e+00
1.037000000000000000e+03,-2.120050113794633151e-01,0.000000000000000000e+00
1.038000000000000000e+03,-8.919456441347433096e-01,0.000000000000000000e+00
1.039000000000000000e+03,-3.624993746179254739e-01,0.000000000000000000e+00
1.040000000000000000e+03,-3.868968207852082064e-01,0.000000000000000000e+00
1.041000000000000000e+03,1.423140403300233725e-01,0.000000000000000000e+00
1.042000000000000000e+03,-3.209062029352489076e-01,0.000000000000000000e+00
1.043000000000000000e+03,1.734406503839217017e-01,0.000000000000000000e+00
1.044000000000000000e+03,2.507642920030893063e-01,0.000000000000000000e+00
1.045000000000000000e+03,2.805980422083462211e-01,0.000000000000000000e+00
1.046000000000000000e+03,4.954995814006637467e-01,0.000000000000000000e+00
1.047000000000000000e+03,1.251408168223860251e+00,0.000000000000000000e+00
1.048000000000000000e+03,1.220243922054203400e+00,0.000000000000000000e+00
1.049000000000000000e+03,1.194257575840731667e+00,0.000000000000000000e+00
1.050000000000000000e+03,8.916534502123912853e-01,0.000000000000000000e+00
1.051000000000000000e+03,1.927288343451394326e-02,0.000000000000000000e+00
1.052000000000000000e+03,-3.698062680967016402e-01,0.000000000000000000e+00
1.053000000000000000e+03,-7.891004637610120609e-01,0.000000000000000000e+00
1.054000000000000000e+03,-1.285241213698706364e+00,0.000000000000000000e+00
1.055000000000000000e+03,-1.300420505939700266e+00,0.000000000000000000e+00
1.056000000000000000e+03,-1.542932152441605309e+00,0.000000000000000000e+00
1.057000000000000000e+03,-1.465597568463037126e+00,0.000000000000000000e+00
1.058000000000000000e+03,-9.419627346905715681e-01,0.000000000000000000e+00
1.059000000000000000e+03,-8.652507594226034326e-01,0.000000000000000000e+00
1.060000000000000000e+03,-1.157375984295123006e+00,0.000000000000000000e+00
1.061000000000000000e+03,-6.897478930476080849e-01,0.000000000000000000e+00
1.062000000000000000e+03,-1.082444361472518768e+00,0.000000000000000000e+00
1.063000000000000000e+03,-5.230375339479101937e-01,0.000000000000000000e+00
1.064000000000000000e+03,-6.273925924700338719e-01,0.000000000000000000e+00
1.065000000000000000e+03,2.233912005901745046e-01,0.000000000000000000e+00
1.066000000000000000e+03,-6.747095729762588867e-01,0.000000000000000000e+00
1.067000000000000000e+03,-9.407650908447573457e-02,0.000000000000000000e+00
1.068000000000000000e+03,-6.400271841823402807e-01,0.000000000000000000e+00
1.069000000000000000e+03,-2.556921878217058852e-01,0.000000000000000000e+00
1.070000000000000000e+03,-3.392721943101779936e-02,0.000000000000000000e+00
1.071000000000000000e+03,-2.633577404876935590e-02,0.000000000000000000e+00
1.072000000000000000e+03,1.608816095224224448e-03,0.000000000000000000e+00
1.073000000000000000e+03,-2.747517908226147498e-01,0.000000000000000000e+00
1.074000000000000000e+03,-4.121272401145468778e-01,0.000000000000000000e+00
1.075000000000000000e+03,4.662661265172103331e-01,0.000000000000000000e+00
1.076000000000000000e+03,-2.856241444676357322e-01,0.000000000000000000e+00
1.077000000000000000e+03,4.092146745823159182e-01,0.000000000000000000e+00
1.078000000000000000e+03,3.052083573149859674e-01,0.000000000000000000e+00
1.079000000000000000e+03,-1.513429353321583126e-01,0.000000000000000000e+00
1.080000000000000000e+03,-6.908750807140805195e-02,0.000000000000000000e+00
1.081000000000000000e+03,5.902308470350600134e-01,0.000000000000000000e+00
1.082000000000000000e+03,2.172421077156170277e-01,0.000000000000000000e+00
1.083000000000000000e+03,1.960203147708212135e-01,0.000000000000000000e+00
1.084000000000000000e+03,2.319064587043272174e-01,0.000000000000000000e+00
1.085000000000000000e+03,-8.749507850619255012e-02,0.000000000000000000e+00
1.086000000000000000e+03,1.686399287168890981e-01,0.000000000000000000e+00
1.087000000000000000e+03,7.825167279179329194e-01,0.000000000000000000e+00
1.088000000000000000e+03,-1.447844096995855590e-01,0.000000000000000000e+00
1.089000000000000000e+03,6.814724956891210494e-01,0.000000000000000000e+00
1.090000000000000000e+03,2.206186533971621622e-01,0.000000000000000000e+00
1.091000000000000000e+03,1.376007498250860495e-01,0.000000000000000000e+00
1.092000000000000000e+03,4.145899168142434532e-01,0.000000000000000000e+00
1.093000000000000000e+03,6.449553511236804093e-01,0.000000000000000000e+00
1.094000000000000000e+03,1.835718133259998108e-01,0.000000000000000000e+00
1.095000000000000000e+03,3.971722955382742670e-01,0.000000000000000000e+00
1.096000000000000000e+03,8.348980235885621326e-01,0.000000000000000000e+00
1.097000000000000000e+03,-1.307773192563419784e-01,0.000000000000000000e+00
1.098000000000000000e+03,-1.523469182542258882e-01,0.000000000000000000e+00
1.099000000000000000e+03,-3.942716323009074625e-02,0.000000000000000000e+00
1.100000000000000000e+03,-8.159660949428318433e-02,0.000000000000000000e+00
1.101000000000000000e+03,1.637692761573274147e+00,0.000000000000000000e+00
1.102000000000000000e+03,5.748725191828230052e+00,0.000000000000000000e+00
1.103000000000000000e+03,-5.466506775381910765e-01,1.000000000000000000e+00
1.104000000000000000e+03,-1.926774139821299858e+00,0.000000000000000000e+00
1.105000000000000000e+03,-2.878630623328959359e-01,0.000000000000000000e+00
1.106000000000000000e+03,-1.144200063211588292e+00,0.000000000000000000e+00
1.107000000000000000e+03,-2.348176943528018923e-01,0.000000000000000000e+00
1.108000000000000000e+03,-4.166808947336132496e-01,0.000000000000000000e+00
1.109000000000000000e+03,-4.884158243641789632e-01,0.000000000000000000e+00
1.110000000000000000e+03,-4.145449967224105192e-01,0.000000000000000000e+00
1.111000000000000000e+03,-1.531966510445915697e-01,0.000000000000000000e+00
1.112000000000000000e+03,-3.978755106321598678e-01,0.000000000000000000e+00
1.113000000000000000e+03,-9.808524010674755933e-02,0.000000000000000000e+00
1.114000000000000000e+03,3.499870316794304048e-02,0.000000000000000000e+00
1.115000000000000000e+03,4.015984628800619016e-01,0.000000000000000000e+00
1.116000000000000000e+03,6.608741320762823168e-01,0.000000000000000000e+00
1.117000000000000000e+03,6.067671688016483822e-01,0.000000000000000000e+00
1.118000000000000000e+03,1.270729041322733899e+00,0.000000000000000000e+00
1.119000000000000000e+03,6.768440334414127513e-01,0.000000000000000000e+00
1.120000000000000000e+03,1.816165230029183064e+00,0.000000000000000000e+00
1.121000000000000000e+03,9.980997021719578699e-01,0.000000000000000000e+00
1.122000000000000000e+03,3.570335205956810531e-01,0.000000000000000000e+00
1.123000000000000000e+03,-6.186611619321437106e-01,0.000000000000000000e+00
1.124000000000000000e+03,-8.235855795584794414e-01,0.000000000000000000e+00
1.125000000000000000e+03,-1.138905353425709199e+00,0.000000000000000000e+00
1.126000000000000000e+03,-1.148709842983239193e+00,0.000000000000000000e+00
1.127000000000000000e+03,-1.240884435563212040e+00,0.000000000000000000e+00
1.128000000000000000e+03,-1.296614669388194807e+00,0.000000000000000000e+00
1.129000000000000000e+03,-1.112575084825085048e+00,0.000000000000000000e+00
1.130000000000000000e+03,-6.116473562939567232e-01,0.000000000000000000e+00
1.131000000000000000e+03,-1.114896730840704064e+00,0.000000000000000000e+00
1.132000000000000000e+03,-8.888075438817343299e-01,0.000000000000000000e+00
1.133000000000000000e+03,-3.559334283593099668e-01,0.000000000000000000e+00
1.134000000000000000e+03,-4.427773929118842267e-01,0.000000000000000000e+00
1.135000000000000000e+03,-7.904571902654313753e-01,0.000000000000000000e+00
1.136000000000000000e+03,-4.224416402856780994e-01,0.000000000000000000e+00
1.137000000000000000e+03,-1.515760079059835230e-01,0.000000000000000000e+00
1.138000000000000000e+03,-4.496985160269534876e-01,0.000000000000000000e+00
1.139000000000000000e+03,-5.688303250783777881e-02,0.000000000000000000e+00
1.140000000000000000e+03,-3.272090526499523144e-01,0.000000000000000000e+00
1.141000000000000000e+03,-9.412513832188980356e-02,0.000000000000000000e+00
1.142000000000000000e+03,-7.557661196606201004e-02,0.000000000000000000e+00
1.143000000000000000e+03,5.288762214761060648e-02,0.000000000000000000e+00
1.144000000000000000e+03,-7.837708315601282782e-02,0.000000000000000000e+00
1.145000000000000000e+03,9.837532253761681333e-02,0.000000000000000000e+00
1.146000000000000000e+03,7.962409774358185149e-04,0.000000000000000000e+00
1.147000000000000000e+03,-1.319133806366765693e-01,0.000000000000000000e+00
1.148000000000000000e+03,2.242764614403512935e-01,0.000000000000000000e+00
1.149000000000000000e+03,1.202445825226575865e-01,0.000000000000000000e+00
1.150000000000000000e+03,3.546309588298777737e-01,0.000000000000000000e+00
1.151000000000000000e+03,4.913642529977109430e-02,0.000000000000000000e+00
1.152000000000000000e+03,5.112503935981039804e-01,0.000000000000000000e+00
1.153000000000000000e+03,-2.516120493162915528e-01,0.000000000000000000e+00
1.154000000000000000e+03,6.367486756109164148e-01,0.000000000000000000e+00
1.155000000000000000e+03,2.495850908019319470e-01,0.000000000000000000e+00
1.156000000000000000e+03,2.502447861481736369e-01,0.000000000000000000e+00
1.157000000000000000e+03,5.388008651741241772e-01,0.000000000000000000e+00
1.158000000000000000e+03,1.873016636268589330e-01,0.000000000000000000e+00
1.159000000000000000e+03,5.136655855463343467e-01,0.000000000000000000e+00
1.160000000000000000e+03,4.757738163880630977e-01,0.000000000000000000e+00
1.161000000000000000e+03,4.081465598561423436e-01,0.000000000000000000e+00
1.162000000000000000e+03,6.983542279340914094e-01,0.000000000000000000e+00
1.163000000000000000e+03,4.664039547100456984e-01,0.000000000000000000e+00
1.164000000000000000e+03,4.083754067196654347e-01,0.000000000000000000e+00
1.165000000000000000e+03,3.913910247386884200e-01,0.000000000000000000e+00
1.166000000000000000e+03,-1.002721340055767185e-01,0.000000000000000000e+00
1.167000000000000000e+03,1.269463980324187502e-01,0.000000000000000000e+00
1.168000000000000000e+03,-2.583379207847911752e-01,0.000000000000000000e+00
1.169000000000000000e+03,3.950813906968906331e+00,0.000000000000000000e+00
1.170000000000000000e+03,4.160736849861703668e+00,0.000000000000000000e+00
1.171000000000000000e+03,-2.636313210280229580e+00,1.000000000000000000e+00
1.172000000000000000e+03,-7.767469070189567670e-01,0.000000000000000000e+00
1.173000000000000000e+03,-4.748746843276683838e-01,0.000000000000000000e+00
1.174000000000000000e+03,-5.094601607679609678e-01,0.000000000000000000e+00
1.175000000000000000e+03,-4.639705918124963357e-01,0.000000000000000000e+00
1.176000000000000000e+03,-2.947905337107734058e-01,0.000000000000000000e+00
1.177000000000000000e+03,-3.868466707600479726e-01,0.000000000000000000e+00
1.178000000000000000e+03,5.292065023981471633e-02,0.000000000000000000e+00
1.179000000000000000e+03,-2.351692486055619036e-01,0.000000000000000000e+00
1.180000000000000000e+03,-2.828067606935837364e-01,0.000000000000000000e+00
1.181000000000000000e+03,2.673430405434625290e-01,0.000000000000000000e+00
1.182000000000000000e+03,-1.804212658439674662e-03,0.000000000000000000e+00
1.183000000000000000e+03,6.849822175607511721e-01,0.000000000000000000e+00
1.184000000000000000e+03,2.069776775237363586e-01,0.000000000000000000e+00
1.185000000000000000e+03,1.242724803462041061e+00,0.000000000000000000e+00
1.186000000000000000e+03,9.466814600612364350e-01,0.000000000000000000e+00
1.187000000000000000e+03,1.403414880289120870e+00,0.000000000000000000e+00
1.188000000000000000e+03,1.052167279726246019e+00,0.000000000000000000e+00
1.189000000000000000e+03,7.546010211211970908e-01,0.000000000000000000e+00
1.190000000000000000e+03,-3.859526415527266691e-02,0.000000000000000000e+00
1.191000000000000000e+03,-9.379814200712763839e-01,0.000000000000000000e+00
1.192000000000000000e+03,-1.325399568691649543e+00,0.000000000000000000e+00
1.193000000000000000e+03,-1.622649545970940022e+00,0.000000000000000000e+00
1.194000000000000000e+03,-1.455485782361270353e+00,0.000000000000000000e+00
1.195000000000000000e+03,-1.399305729351354000e+00,0.000000000000000000e+00
1.196000000000000000e+03,-1.333957529551043075e+00,0.000000000000000000e+00
1.197000000000000000e+03,-1.104322184101333315e+00,0.000000000000000000e+00
1.198000000000000000e+03,-1.397811063179151825e+00,0.000000000000000000e+00
1.199000000000000000e+03,-8.023257812917518050e-01,0.000000000000000000e+00
1.200000000000000000e+03,-9.460763627453775415e-01,0.000000000000000000e+00
1.201000000000000000e+03,-7.302232459034940781e-01,0.000000000000000000e+00
1.202000000000000000e+03,-1.084832821858401131e+00,0.000000000000000000e+00
1.203000000000000000e+03,-1.925547622638058565e-01,0.000000000000000000e+00
1.204000000000000000e+03,-6.747255632892996680e-01,0.000000000000000000e+00
1.205000000000000000e+03,-1.457957377195625848e-01,0.000000000000000000e+00
1.206000000000000000e+03,-3.536586223052211597e-01,0.000000000000000000e+00
1.207000000000000000e+03,-4.411323912391985624e-01,0.000000000000000000e+00
1.208000000000000000e+03,-4.601368259218963086e-02,0.000000000000000000e+00
1.209000000000000000e+03,1.595150297717364690e-02,0.000000000000000000e+00
1.210000000000000000e+03,-8.940997885874076012e-02,0.000000000000000000e+00
1.211000000000000000e+03,-1.921045759837281541e-01,0.000000000000000000e+00
1.212000000000000000e+03,2.949339406575083311e-01,0.000000000000000000e+00
1.213000000000000000e+03,-2.155614994282854455e-02,0.000000000000000000e+00
1.214000000000000000e+03,3.715550239156462653e-01,0.000000000000000000e+00
1.215000000000000000e+03,2.158971873326679530e-02,0.000000000000000000e+00
1.216000000000000000e+03,-1.898906711858318330e-02,0.000000000000000000e+00
1.217000000000000000e+03,6.872193905929522284e-01,0.000000000000000000e+00
1.218000000000000000e+03,2.787058315456661939e-01,0.000000000000000000e+00
1.219000000000000000e+03,3.801962430391490066e-01,0.000000000000000000e+00
1.220000000000000000e+03,4.385216694416916305e-01,0.000000000000000000e+00
1.221000000000000000e+03,3.171201891151262386e-01,0.000000000000000000e+00
1.222000000000000000e+03,6.175334823762101966e-01,0.000000000000000000e+00
1.223000000000000000e+03,1.568339901255786650e-01,0.000000000000000000e+00
1.224000000000000000e+03,3.858153533250025524e-01,0.000000000000000000e+00
1.225000000000000000e+03,4.150087131531159379e-01,0.000000000000000000e+00
1.226000000000000000e+03,4.374845371301445685e-01,0.000000000000000000e+00
1.227000000000000000e+03,2.843275028098352641e-01,0.000000000000000000e+00
1.228000000000000000e+03,9.254376620743860749e-02,0.000000000000000000e+00
1.229000000000000000e+03,9.610245476040188972e-01,0.000000000000000000e+00
1.230000000000000000e+03,6.722742324313023543e-01,0.000000000000000000e+00
1.231000000000000000e+03,9.035432985631601799e-01,0.000000000000000000e+00
1.232000000000000000e+03,1.816756263168057550e-01,0.000000000000000000e+00
1.233000000000000000e+03,-6.527941057029602867e-02,0.000000000000000000e+00
1.234000000000000000e+03,-1.687417939363541550e-02,0.000000000000000000e+00
1.235000000000000000e+03,3.760514372062121469e-01,0.000000000000000000e+00
1.236000000000000000e+03,-3.342878122497350835e-01,0.000000000000000000e+00
1.237000000000000000e+03,3.304295022602643961e+00,0.000000000000000000e+00
1.238000000000000000e+03,3.986909586011957440e+00,0.000000000000000000e+00
1.239000000000000000e+03,-1.823834274822061063e+00,1.000000000000000000e+00
1.240000000000000000e+03,-7.792430639196604725e-01,0.000000000000000000e+00
1.241000000000000000e+03,-6.864576827190499442e-02,0.000000000000000000e+00
1.242000000000000000e+03,-6.565043610798816376e-01,0.000000000000000000e+00
1.243000000000000000e+03,-5.260254695167291272e-01,0.000000000000000000e+00
1.244000000000000000e+03,-4.952516480977481872e-01,0.000000000000000000e+00
1.245000000000000000e+03,-5.805664450810698041e-01,0.000000000000000000e+00
1.246000000000000000e+03,-2.326992078726466406e-01,0.000000000000000000e+00
1.247000000000000000e+03,2.727323213027409987e-01,0.000000000000000000e+00
1.248000000000000000e+03,-5.880773484961614450e-01,0.000000000000000000e+00
1.249000000000000000e+03,1.441772225375471395e-01,0.000000000000000000e+00
1.250000000000000000e+03,3.319201294558081772e-01,0.000000000000000000e+00
1.251000000000000000e+03,7.120491731904753097e-02,0.000000000000000000e+00
1.252000000000000000e+03,5.566362703199171369e-01,0.000000000000000000e+00
1.253000000000000000e+03,1.146082964933148762e+00,0.000000000000000000e+00
1.254000000000000000e+03,1.135636398097795485e+00,0.000000000000000000e+00
1.255000000000000000e+03,1.484035083260924148e+00,0.000000000000000000e+00
1.256000000000000000e+03,8.939987065160950319e-01,0.000000000000000000e+00
1.257000000000000000e+03,1.006252030041886014e+00,0.000000000000000000e+00
1.258000000000000000e+03,1.674631371203777752e-01,0.000000000000000000e+00
1.259000000000000000e+03,-9.611675304986648793e-01,0.000000000000000000e+00
1.260000000000000000e+03,-1.020182681559111071e+00,0.000000000000000000e+00
1.261000000000000000e+03,-8.946675706996344291e-01,0.000000000000000000e+00
1.262000000000000000e+03,-1.502717933488096236e+00,0.000000000000000000e+00
1.263000000000000000e+03,-1.266562123277541474e+00,0.000000000000000000e+00
1.264000000000000000e+03,-1.154530923863853253e+00,0.000000000000000000e+00
1.265000000000000000e+03,-1.246902946600278339e+00,0.000000000000000000e+00
1.266000000000000000e+03,-9.194080749617900006e-01,0.000000000000000000e+00
1.267000000000000000e+03,-8.816281769269156410e-01,0.000000000000000000e+00
1.268000000000000000e+03,-7.459624297308756757e-01,0.000000000000000000e+00
1.269000000000000000e+03,-5.931822075344544976e-01,0.000000000000000000e+00
1.270000000000000000e+03,-6.019463579821197063e-01,0.000000000000000000e+00
1.271000000000000000e+03,-1.530926150446979550e-01,0.000000000000000000e+00
1.272000000000000000e+03,-6.055959332393813233e-01,0.000000000000000000e+00
1.273000000000000000e+03,-1.694378976489106237e-01,0.000000000000000000e+00
1.274000000000000000e+03,-3.994142929502864092e-01,0.000000000000000000e+00
1.275000000000000000e+03,-3.643601058378675428e-01,0.000000000000000000e+00
1.276000000000000000e+03,-4.941109782891458524e-01,0.000000000000000000e+00
1.277000000000000000e+03,-3.369111981472316386e-01,0.000000000000000000e+00
1.278000000000000000e+03,3.123949979438873648e-01,0.000000000000000000e+00
1.279000000000000000e+03,-5.389259684819829310e-01,0.000000000000000000e+00
1.280000000000000000e+03,4.212776487834604122e-01,0.000000000000000000e+00
1.281000000000000000e+03,-6.448385068558132316e-01,0.000000000000000000e+00
1.282000000000000000e+03,3.134122074367129973e-01,0.000000000000000000e+00
1.283000000000000000e+03,-8.507146331781215154e-02,0.000000000000000000e+00
1.284000000000000000e+03,-4.428244229545146848e-01,0.000000000000000000e+00
1.285000000000000000e+03,6.366568843707903769e-01,0.000000000000000000e+00
1.286000000000000000e+03,1.899641021534192731e-01,0.000000000000000000e+00
1.287000000000000000e+03,-1.308383855162727205e-01,0.000000000000000000e+00
1.288000000000000000e+03,2.826515379969355424e-01,0.000000000000000000e+00
1.289000000000000000e+03,9.509227453646555694e-02,0.000000000000000000e+00
1.290000000000000000e+03,2.580993252015135742e-01,0.000000000000000000e+00
1.291000000000000000e+03,2.443362113790011059e-01,0.000000000000000000e+00
1.292000000000000000e+03,6.795603897466299115e-01,0.000000000000000000e+00
1.293000000000000000e+03,3.565228415030229359e-01,0.000000000000000000e+00
1.294000000000000000e+03,6.471641405876074060e-01,0.000000000000000000e+00
1.295000000000000000e+03,6.441051901250701706e-01,0.000000000000000000e+00
1.296000000000000000e+03,1.228390061476310607e-01,0.000000000000000000e+00
1.297000000000000000e+03,1.154432317314590256e-01,0.000000000000000000e+00
1.298000000000000000e+03,1.630809345749201500e-01,0.000000000000000000e+00
1.299000000000000000e+03,2.864460668289150469e-01,0.000000000000000000e+00
1.300000000000000000e+03,-2.705191281058069719e-01,0.000000000000000000e+00
1.301000000000000000e+03,3.811154632567665068e+00,0.000000000000000000e+00
1.302000000000000000e+03,3.867040523830728382e+00,0.000000000000000000e+00
1.303000000000000000e+03,-1.869386955752689872e+00,1.000000000000000000e+00
1.304000000000000000e+03,-8.312213311350274969e-01,0.000000000000000000e+00
1.305000000000000000e+03,-8.273282784516685640e-01,0.000000000000000000e+00
1.306000000000000000e+03,-2.782165980244703518e-01,0.000000000000000000e+00
1.307000000000000000e+03,-6.505283178986008830e-01,0.000000000000000000e+00
1.308000000000000000e+03,-9.919852830403447230e-02,0.000000000000000000e+00
1.309000000000000000e+03,-5.215223810678382144e-01,0.000000000000000000e+00
1.310000000000000000e+03,-1.462008895700586952e-01,0.000000000000000000e+00
1.311000000000000000e+03,-2.643260422186325953e-01,0.000000000000000000e+00
1.312000000000000000e+03,-1.984927909683329439e-01,0.000000000000000000e+00
1.313000000000000000e+03,1.796853967343023384e-01,0.000000000000000000e+00
1.314000000000000000e+03,3.786516712348561020e-01,0.000000000000000000e+00
1.315000000000000000e+03,2.678585894418113456e-01,0.000000000000000000e+00
1.316000000000000000e+03,7.733557767885854695e-01,0.000000000000000000e+00
1.317000000000000000e+03,9.862622260026906451e-01,0.000000000000000000e+00
1.318000000000000000e+03,1.094055474029400621e+00,0.000000000000000000e+00
1.319000000000000000e+03,1.665809736234265204e+00,0.000000000000000000e+00
1.320000000000000000e+03,1.052322261540170389e+00,0.000000000000000000e+00
1.321000000000000000e+03,6.993531070287348772e-01,0.000000000000000000e+00
1.322000000000000000e+03,4.785932300030900644e-01,0.000000000000000000e+00
1.323000000000000000e+03,-7.713866735664510754e-01,0.000000000000000000e+00
1.324000000000000000e+03,-1.233126283784476307e+00,0.000000000000000000e+00
1.325000000000000000e+03,-1.135980044880630535e+00,0.000000000000000000e+00
1.326000000000000000e+03,-1.033215527547467927e+00,0.000000000000000000e+00
1.327000000000000000e+03,-8.631789867996773058e-01,0.000000000000000000e+00
1.328000000000000000e+03,-1.140893370054244293e+00,0.000000000000000000e+00
1.329000000000000000e+03,-1.169743065951051042e+00,0.000000000000000000e+00
1.330000000000000000e+03,-7.613997034929689267e-01,0.000000000000000000e+00
1.331000000000000000e+03,-1.047285304318054111e+00,0.000000000000000000e+00
1.332000000000000000e+03,-5.328654669591081222e-02,0.000000000000000000e+00
1.333000000000000000e+03,-1.002394887283569069e+00,0.000000000000000000e+00
1.334000000000000000e+03,-2.994699596002093900e-01,0.000000000000000000e+00
1.335000000000000000e+03,-2.536411353286343040e-01,0.000000000000000000e+00
1.336000000000000000e+03,-4.126551828570976799e-01,0.000000000000000000e+00
1.337000000000000000e+03,-2.477094444810576390e-01,0.000000000000000000e+00
1.338000000000000000e+03,-2.823659121367393388e-01,0.000000000000000000e+00
1.339000000000000000e+03,-3.311030767375319761e-01,0.000000000000000000e+00
1.340000000000000000e+03,2.943045209487527014e-01,0.000000000000000000e+00
1.341000000000000000e+03,-2.464725739591180909e-01,0.000000000000000000e+00
1.342000000000000000e+03,-3.329366303191391707e-01,0.000000000000000000e+00
1.343000000000000000e+03,1.550257799105753953e-01,0.000000000000000000e+00
1.344000000000000000e+03,-3.705485010097904208e-01,0.000000000000000000e+00
1.345000000000000000e+03,2.125546646832933151e-01,0.000000000000000000e+00
1.346000000000000000e+03,2.682865375826241627e-01,0.000000000000000000e+00
1.347000000000000000e+03,-1.562416705953546814e-01,0.000000000000000000e+00
1.348000000000000000e+03,1.372462119623116955e-02,0.000000000000000000e+00
1.349000000000000000e+03,2.375091442518812990e-01,0.000000000000000000e+00
1.350000000000000000e+03,4.206832633221909146e-01,0.000000000000000000e+00
1.351000000000000000e+03,2.947241770356027746e-01,0.000000000000000000e+00
1.352000000000000000e+03,1.322418142485637382e-01,0.000000000000000000e+00
1.353000000000000000e+03,3.384654002639322923e-01,0.000000000000000000e+00
1.354000000000000000e+03,-1.358214531535817671e-01,0.000000000000000000e+00
1.355000000000000000e+03,6.365117007166674890e-02,0.000000000000000000e+00
1.356000000000000000e+03,3.275659575840361160e-01,0.000000000000000000e+00
1.357000000000000000e+03,3.686636099267379674e-01,0.000000000000000000e+00
1.358000000000000000e+03,1.741325051201382534e-01,0.000000000000000000e+00
1.359000000000000000e+03,3.586090950768818786e-01,0.000000000000000000e+00
1.360000000000000000e+03,5.032907656512031203e-01,0.000000000000000000e+00
1.361000000000000000e+03,-3.727368585593445610e-02,0.000000000000000000e+00
1.362000000000000000e+03,7.103534663619154310e-01,0.000000000000000000e+00
1.363000000000000000e+03,2.044024735790335445e-01,0.000000000000000000e+00
1.364000000000000000e+03,3.222561718610036929e-01,0.000000000000000000e+00
1.365000000000000000e+03,1.082300331919029829e-01,0.000000000000000000e+00
1.366000000000000000e+03,3.298454708591647133e-01,0.000000000000000000e+00
1.367000000000000000e+03,2.124857932334878463e-01,0.000000000000000000e+00
1.368000000000000000e+03,4.146804886567440063e-01,0.000000000000000000e+00
1.369000000000000000e+03,-6.539208263506790519e-02,0.000000000000000000e+00
1.370000000000000000e+03,3.744635168198301445e-01,0.000000000000000000e+00
1.371000000000000000e+03,5.672626073037604355e-01,0.000000000000000000e+00
1.372000000000000000e+03,3.595473248114132159e-01,0.000000000000000000e+00
1.373000000000000000e+03,8.335097935550303538e-02,0.000000000000000000e+00
1.374000000000000000e+03,4.806665993790086855e-01,0.000000000000000000e+00
1.375000000000000000e+03,-4.804394583711269484e-01,0.000000000000000000e+00
1.376000000000000000e+03,-7.301647389490499573e-02,0.000000000000000000e+00
1.377000000000000000e+03,5.195265627361759370e-02,0.000000000000000000e+00
1.378000000000000000e+03,-3.556529642700998473e-01,0.000000000000000000e+00
1.379000000000000000e+03,1.361243812755617011e+00,0.000000000000000000e+00
1.380000000000000000e+03,5.113097805004201746e+00,0.000000000000000000e+00
1.381000000000000000e+03,-6.189274814126398683e-01,1.000000000000000000e+00
1.382000000000000000e+03,-1.724362668295847500e+00,0.000000000000000000e+00
1.383000000000000000e+03,-6.936661491165503346e-01,0.000000000000000000e+00
1.384000000000000000e+03,-8.588759049338146045e-01,0.000000000000000000e+00
1.385000000000000000e+03,-1.067736978804280756e+00,0.000000000000000000e+00
1.386000000000000000e+03,-4.327307365425129282e-01,0.000000000000000000e+00
1.387000000000000000e+03,-7.989375730104567586e-01,0.000000000000000000e+00
1.388000000000000000e+03,-3.802539897615880293e-01,0.000000000000000000e+00
1.389000000000000000e+03,-4.387740122415177968e-01,0.000000000000000000e+00
1.390000000000000000e+03,-4.324482594145238057e-01,0.000000000000000000e+00
1.391000000000000000e+03,-1.396232716570283972e-01,0.000000000000000000e+00
1.392000000000000000e+03,9.672372506645850188e-02,0.000000000000000000e+00
1.393000000000000000e+03,1.438436751600738472e-01,0.000000000000000000e+00
1.394000000000000000e+03,2.828755776892254437e-01,0.000000000000000000e+00
1.395000000000000000e+03,4.849054529447136552e-01,0.000000000000000000e+00
1.396000000000000000e+03,1.150400346929776552e+00,0.000000000000000000e+00
1.397000000000000000e+03,9.252221839338238274e-01,0.000000000000000000e+00
1.398000000000000000e+03,1.444030802737912067e+00,0.000000000000000000e+00
1.399000000000000000e+03,9.432281400725048837e-01,0.000000000000000000e+00
1.400000000000000000e+03,3.325835112725384901e-01,0.000000000000000000e+00
1.401000000000000000e+03,-9.180320649894088136e-01,0.000000000000000000e+00
1.402000000000000000e+03,-6.937060477538111725e-01,0.000000000000000000e+00
1.403000000000000000e+03,-1.533755158671215479e+00,0.000000000000000000e+00
1.404000000000000000e+03,-1.269544317203036954e+00,0.000000000000000000e+00
1.405000000000000000e+03,-1.313896342688290808e+00,0.000000000000000000e+00
1.406000000000000000e+03,-1.258554647146290950e+00,0.000000000000000000e+00
1.407000000000000000e+03,-1.016615045498744818e+00,0.000000000000000000e+00
1.408000000000000000e+03,-1.145899447518947678e+00,0.000000000000000000e+00
1.409000000000000000e+03,-9.770417696613172831e-01,0.000000000000000000e+00
1.410000000000000000e+03,-1.895806456709780985e-01,0.000000000000000000e+00
1.411000000000000000e+03,-1.238483516605775270e+00,0.000000000000000000e+00
1.412000000000000000e+03,-6.038841344843125930e-02,0.000000000000000000e+00
1.413000000000000000e+03,-8.616175105943411072e-01,0.000000000000000000e+00
1.414000000000000000e+03,-4.497647858534174481e-01,0.000000000000000000e+00
1.415000000000000000e+03,-1.510831791566397686e-01,0.000000000000000000e+00
1.416000000000000000e+03,-4.422326858086729762e-01,0.000000000000000000e+00
1.417000000000000000e+03,-2.673696539430522878e-01,0.000000000000000000e+00
1.418000000000000000e+03,-1.731574996466316366e-02,0.000000000000000000e+00
1.419000000000000000e+03,-4.460673401439646524e-01,0.000000000000000000e+00
1.420000000000000000e+03,2.532585302687266338e-01,0.000000000000000000e+00
1.421000000000000000e+03,-2.350235944063987503e-01,0.000000000000000000e+00
1.422000000000000000e+03,2.822054734729309219e-02,0.000000000000000000e+00
1.423000000000000000e+03,-7.207586462127213000e-04,0.000000000000000000e+00
1.424000000000000000e+03,1.264193016094243005e-01,0.000000000000000000e+00
1.425000000000000000e+03,3.663222670738892073e-01,0.000000000000000000e+00
1.426000000000000000e+03,2.005834610629958492e-01,0.000000000000000000e+00
1.427000000000000000e+03,9.135153334975129602e-02,0.000000000000000000e+00
1.428000000000000000e+03,-1.695284523321965997e-02,0.000000000000000000e+00
1.429000000000000000e+03,5.055245285853383619e-01,0.000000000000000000e+00
1.430000000000000000e+03,-1.805104586276678113e-03,0.000000000000000000e+00
1.431000000000000000e+03,1.393396377859706381e-01,0.000000000000000000e+00
1.432000000000000000e+03,5.852908057697251420e-01,0.000000000000000000e+00
1.433000000000000000e+03,1.702005483295061516e-01,0.000000000000000000e+00
1.434000000000000000e+03,3.697206994824165371e-01,0.000000000000000000e+00
1.435000000000000000e+03,2.352138545527628355e-01,0.000000000000000000e+00
1.436000000000000000e+03,5.253378384274253188e-01,0.000000000000000000e+00
1.437000000000000000e+03,2.682290191793399448e-01,0.000000000000000000e+00
1.438000000000000000e+03,3.947200091149624668e-01,0.000000000000000000e+00
1.439000000000000000e+03,3.152599862196069913e-01,0.000000000000000000e+00
1.440000000000000000e+03,8.268729758663397877e-01,0.000000000000000000e+00
1.441000000000000000e+03,3.147692153651578950e-01,0.000000000000000000e+00
1.442000000000000000e+03,5.083761210892988602e-01,0.000000000000000000e+00
1.443000000000000000e+03,6.544519034347098252e-01,0.000000000000000000e+00
1.444000000000000000e+03,1.474739564748038523e-02,0.000000000000000000e+00
1.445000000000000000e+03,1.494993881264114477e-01,0.000000000000000000e+00
1.446000000000000000e+03,-2.627476579366581633e-01,0.000000000000000000e+00
1.447000000000000000e+03,1.232874114120708769e-01,0.000000000000000000e+00
1.448000000000000000e+03,1.361965222380883689e-01,0.000000000000000000e+00
1.449000000000000000e+03,4.374869548438675260e+00,0.000000000000000000e+00
1.450000000000000000e+03,2.892847913615213873e+00,1.000000000000000000e+00
1.451000000000000000e+03,-2.552274381216547816e+00,0.000000000000000000e+00
1.452000000000000000e+03,-5.988422383728225773e-01,0.000000000000000000e+00
1.453000000000000000e+03,-9.595000964531736898e-01,0.000000000000000000e+00
1.454000000000000000e+03,-1.460280799222343773e-02,0.000000000000000000e+00
1.455000000000000000e+03,-7.557033130585273373e-01,0.000000000000000000e+00
1.456000000000000000e+03,-2.254464225781094844e-01,0.000000000000000000e+00
1.457000000000000000e+03,-8.071342837057805461e-03,0.000000000000000000e+00
1.458000000000000000e+03,-5.448361796551060010e-01,0.000000000000000000e+00
1.459000000000000000e+03,-2.438069228096778618e-01,0.000000000000000000e+00
1.460000000000000000e+03,8.311449082397041888e-02,0.000000000000000000e+00
1.461000000000000000e+03,-3.218155654855560377e-02,0.000000000000000000e+00
1.462000000000000000e+03,3.365261531654185623e-01,0.000000000000000000e+00
1.463000000000000000e+03,1.540105230696962868e-01,0.000000000000000000e+00
1.464000000000000000e+03,8.872917635249433221e-01,0.000000000000000000e+00
1.465000000000000000e+03,9.656023948427219228e-01,0.000000000000000000e+00
1.466000000000000000e+03,1.005212015341825138e+00,0.000000000000000000e+00
1.467000000000000000e+03,1.421558009507741804e+00,0.000000000000000000e+00
1.468000000000000000e+03,1.269735107782602457e+00,0.000000000000000000e+00
1.469000000000000000e+03,8.898322022818603294e-01,0.000000000000000000e+00
1.470000000000000000e+03,8.622413799272868155e-04,0.000000000000000000e+00
1.471000000000000000e+03,-1.221023398110423264e+00,0.000000000000000000e+00
1.472000000000000000e+03,-1.003166364172619396e+00,0.000000000000000000e+00
1.473000000000000000e+03,-1.284051623800605224e+00,0.000000000000000000e+00
1.474000000000000000e+03,-1.429541551564315949e+00,0.000000000000000000e+00
1.475000000000000000e+03,-1.026570040758252977e+00,0.000000000000000000e+00
1.476000000000000000e+03,-1.427772748168608441e+00,0.000000000000000000e+00
1.477000000000000000e+03,-9.747901803039190627e-01,0.000000000000000000e+00
1.478000000000000000e+03,-9.384071725096287953e-01,0.000000000000000000e+00
1.479000000000000000e+03,-1.094535270578528063e+00,0.000000000000000000e+00
1.480000000000000000e+03,-4.541979827815600945e-01,0.000000000000000000e+00
1.481000000000000000e+03,-9.278014845716556769e-01,0.000000000000000000e+00
1.482000000000000000e+03,-6.437935400922664142e-01,0.000000000000000000e+00
1.483000000000000000e+03,5.629490987311040057e-02,0.000000000000000000e+00
1.484000000000000000e+03,-5.018948365796440658e-01,0.000000000000000000e+00
1.485000000000000000e+03,-1.878700098961465781e-01,0.000000000000000000e+00
1.486000000000000000e+03,-3.119028444643692777e-01,0.000000000000000000e+00
1.487000000000000000e+03,-4.896183026112790326e-01,0.000000000000000000e+00
1.488000000000000000e+03,-1.940968236112947942e-01,0.000000000000000000e+00
1.489000000000000000e+03,-1.226038420272586582e-01,0.000000000000000000e+00
1.490000000000000000e+03,2.158907272151566470e-01,0.000000000000000000e+00
1.491000000000000000e+03,-4.870810509934369592e-01,0.000000000000000000e+00
1.492000000000000000e+03,2.466835924188183204e-01,0.000000000000000000e+00
1.493000000000000000e+03,1.717372793301105427e-01,0.000000000000000000e+00
1.494000000000000000e+03,1.777947396865120766e-01,0.000000000000000000e+00
1.495000000000000000e+03,-1.234249084997941642e-01,0.000000000000000000e+00
1.496000000000000000e+03,2.079889261070907158e-01,0.000000000000000000e+00
1.497000000000000000e+03,1.105623707065281069e-01,0.000000000000000000e+00
1.498000000000000000e+03,7.910154667933378958e-01,0.000000000000000000e+00
1.499000000000000000e+03,8.602142774673528225e-02,0.000000000000000000e+00
1.500000000000000000e+03,3.544160917050243609e-01,0.000000000000000000e+00
1.501000000000000000e+03,-3.338058858454301392e-02,0.000000000000000000e+00
1.502000000000000000e+03,4.867165407707070846e-01,0.000000000000000000e+00
1.503000000000000000e+03,5.930328606187552226e-02,0.000000000000000000e+00
1.504000000000000000e+03,7.213629548919979761e-01,0.000000000000000000e+00
1.505000000000000000e+03,3.580234015696711070e-01,0.000000000000000000e+00
1.506000000000000000e+03,3.671447132976703442e-01,0.000000000000000000e+00
1.507000000000000000e+03,2.677276584743311094e-01,0.000000000000000000e+00
1.508000000000000000e+03,4.211566708476985887e-01,0.000000000000000000e+00
1.509000000000000000e+03,7.590926296949843666e-01,0.000000000000000000e+00
1.510000000000000000e+03,4.211751813557784718e-01,0.000000000000000000e+00
1.511000000000000000e+03,7.790141754049385581e-01,0.000000000000000000e+00
1.512000000000000000e+03,3.851960623057770206e-01,0.000000000000000000e+00
1.513000000000000000e+03,4.754279338850316838e-01,0.000000000000000000e+00
1.514000000000000000e+03,1.004261458635792442e-01,0.000000000000000000e+00
1.515000000000000000e+03,-3.958584596055816224e-02,0.000000000000000000e+00
1.516000000000000000e+03,5.564464121070743508e-01,0.000000000000000000e+00
1.517000000000000000e+03,-1.454907481685094872e-01,0.000000000000000000e+00
1.518000000000000000e+03,9.479460990519956720e-01,0.000000000000000000e+00
1.519000000000000000e+03,5.645819416199215901e+00,0.000000000000000000e+00
1.520000000000000000e+03,-2.153573657105570527e-01,1.000000000000000000e+00
1.521000000000000000e+03,-2.141129016301076771e+00,0.000000000000000000e+00
1.522000000000000000e+03,1.946096184819203490e-01,0.000000000000000000e+00
1.523000000000000000e+03,-1.002889786476569123e+00,0.000000000000000000e+00
1.524000000000000000e+03,-2.921683063342385075e-02,0.000000000000000000e+00
1.525000000000000000e+03,-5.049796024892186930e-01,0.000000000000000000e+00
1.526000000000000000e+03,-3.934073778029795188e-01,0.000000000000000000e+00
1.527000000000000000e+03,-6.258858555115698330e-01,0.000000000000000000e+00
1.528000000000000000e+03,3.054116701626418545e-02,0.000000000000000000e+00
1.529000000000000000e+03,-2.549744806037649858e-01,0.000000000000000000e+00
1.530000000000000000e+03,2.728586808209909065e-01,0.000000000000000000e+00
1.531000000000000000e+03,3.387492955212529355e-01,0.000000000000000000e+00
1.532000000000000000e+03,-4.798724474253018291e-01,0.000000000000000000e+00
1.533000000000000000e+03,7.994652163711536419e-01,0.000000000000000000e+00
1.534000000000000000e+03,8.936747231068830066e-01,0.000000000000000000e+00
1.535000000000000000e+03,5.632509790005887362e-01,0.000000000000000000e+00
1.536000000000000000e+03,1.503236983385059178e+00,0.000000000000000000e+00
1.537000000000000000e+03,6.725918519783342653e-01,0.000000000000000000e+00
1.538000000000000000e+03,1.113808568379864417e+00,0.000000000000000000e+00
1.539000000000000000e+03,3.939061559870279949e-01,0.000000000000000000e+00
1.540000000000000000e+03,-1.331471524301796328e-01,0.000000000000000000e+00
1.541000000000000000e+03,-1.139253612904333357e+00,0.000000000000000000e+00
1.542000000000000000e+03,-1.201201842697710021e+00,0.000000000000000000e+00
1.543000000000000000e+03,-1.068449706487156980e+00,0.000000000000000000e+00
1.544000000000000000e+03,-1.385352598204093733e+00,0.000000000000000000e+00
1.545000000000000000e+03,-9.181121337136699534e-01,0.000000000000000000e+00
1.546000000000000000e+03,-1.153675826971937823e+00,0.000000000000000000e+00
1.547000000000000000e+03,-8.230951160987435289e-01,0.000000000000000000e+00
1.548000000000000000e+03,-1.170561259074304195e+00,0.000000000000000000e+00
1.549000000000000000e+03,-2.518866576496204268e-01,0.000000000000000000e+00
1.550000000000000000e+03,-9.398295235266648229e-01,0.000000000000000000e+00
1.551000000000000000e+03,-1.836539631372008929e-01,0.000000000000000000e+00
1.552000000000000000e+03,-8.825744976084362037e-01,0.000000000000000000e+00
1.553000000000000000e+03,-3.938871670984823714e-01,0.000000000000000000e+00
1.554000000000000000e+03,-2.245473760304778077e-01,0.000000000000000000e+00
1.555000000000000000e+03,-3.448585983036622227e-01,0.000000000000000000e+00
1.556000000000000000e+03,2.187478572329586493e-02,0.000000000000000000e+00
1.557000000000000000e+03,-7.852048547990606586e-01,0.000000000000000000e+00
1.558000000000000000e+03,4.146792800396313372e-01,0.000000000000000000e+00
1.559000000000000000e+03,-4.088079202396832645e-02,0.000000000000000000e+00
1.560000000000000000e+03,-1.722930348210484630e-01,0.000000000000000000e+00
1.561000000000000000e+03,-3.920675602793899373e-02,0.000000000000000000e+00
1.562000000000000000e+03,5.899204893929190559e-04,0.000000000000000000e+00
1.563000000000000000e+03,2.403950674680366828e-01,0.000000000000000000e+00
1.564000000000000000e+03,-2.968531298713132371e-01,0.000000000000000000e+00
1.565000000000000000e+03,4.227176236259952979e-01,0.000000000000000000e+00
1.566000000000000000e+03,3.045186623243213986e-01,0.000000000000000000e+00
1.567000000000000000e+03,-6.281043298039255818e-02,0.000000000000000000e+00
1.568000000000000000e+03,1.891773741206609905e-01,0.000000000000000000e+00
1.569000000000000000e+03,-2.678935963670692200e-02,0.000000000000000000e+00
1.570000000000000000e+03,3.543240064034041126e-01,0.000000000000000000e+00
1.571000000000000000e+03,1.799405277148602156e-01,0.000000000000000000e+00
1.572000000000000000e+03,2.042971181450160822e-01,0.000000000000000000e+00
1.573000000000000000e+03,1.987447899926208239e-01,0.000000000000000000e+00
1.574000000000000000e+03,2.410131303872820596e-01,0.000000000000000000e+00
1.575000000000000000e+03,2.065903406500998185e-01,0.000000000000000000e+00
1.576000000000000000e+03,2.469333109925842071e-03,0.000000000000000000e+00
1.577000000000000000e+03,2.422804923970706403e-01,0.000000000000000000e+00
1.578000000000000000e+03,2.596960321070194144e-01,0.000000000000000000e+00
1.579000000000000000e+03,-9.899083670794499301e-02,0.000000000000000000e+00
1.580000000000000000e+03,4.798053918214729707e-01,0.000000000000000000e+00
1.581000000000000000e+03,3.482902935467779293e-01,0.000000000000000000e+00
1.582000000000000000e+03,5.774988116899129054e-01,0.000000000000000000e+00
1.583000000000000000e+03,3.036148083614990667e-01,0.000000000000000000e+00
1.584000000000000000e+03,5.012289657726978209e-01,0.000000000000000000e+00
1.585000000000000000e+03,-3.556945513807535098e-01,0.000000000000000000e+00
1.586000000000000000e+03,1.613146220275459009e-01,0.000000000000000000e+00
1.587000000000000000e+03,-1.521551559282257882e-01,0.000000000000000000e+00
