timestamp,ecg_measurement,qrs_detected
0.000000000000000000e+00,-9.739242298641097584e-01,0.000000000000000000e+00
1.000000000000000000e+00,-8.217232879436615622e-01,0.000000000000000000e+00
2.000000000000000000e+00,-1.202612571481662673e+00,0.000000000000000000e+00
3.000000000000000000e+00,-4.581583804661173986e-01,0.000000000000000000e+00
4.000000000000000000e+00,-7.150180093357112465e-01,0.000000000000000000e+00
5.000000000000000000e+00,-5.157603562496261285e-01,0.000000000000000000e+00
6.000000000000000000e+00,-5.256317563192187681e-01,0.000000000000000000e+00
7.000000000000000000e+00,-6.027634750225825400e-01,0.000000000000000000e+00
8.000000000000000000e+00,-3.192927445072378523e-02,0.000000000000000000e+00
9.000000000000000000e+00,-2.898036878771340641e-01,0.000000000000000000e+00
1.000000000000000000e+01,-2.325161514112626948e-01,0.000000000000000000e+00
1.100000000000000000e+01,5.752951042115607427e-02,0.000000000000000000e+00
1.200000000000000000e+01,-3.098040949263626831e-01,0.000000000000000000e+00
1.300000000000000000e+01,1.355076738786244461e-01,0.000000000000000000e+00
1.400000000000000000e+01,-2.342013353487271410e-01,0.000000000000000000e+00
1.500000000000000000e+01,2.299533574266633962e-01,0.000000000000000000e+00
1.600000000000000000e+01,-1.988709961681302818e-01,0.000000000000000000e+00
1.700000000000000000e+01,3.731182855007181831e-01,0.000000000000000000e+00
1.800000000000000000e+01,-1.042162127279600975e-01,0.000000000000000000e+00
1.900000000000000000e+01,-4.633620033905642976e-02,0.000000000000000000e+00
2.000000000000000000e+01,5.535675727131412760e-01,0.000000000000000000e+00
2.100000000000000000e+01,3.010891791171847395e-02,0.000000000000000000e+00
2.200000000000000000e+01,1.247454071517684060e-01,0.000000000000000000e+00
2.300000000000000000e+01,5.927341177676809930e-02,0.000000000000000000e+00
2.400000000000000000e+01,3.160823077801829806e-01,0.000000000000000000e+00
2.500000000000000000e+01,-3.408504073948436658e-02,0.000000000000000000e+00
2.600000000000000000e+01,4.774102696651875699e-01,0.000000000000000000e+00
2.700000000000000000e+01,2.659936394431495765e-01,0.000000000000000000e+00
2.800000000000000000e+01,3.153769756861656837e-01,0.000000000000000000e+00
2.900000000000000000e+01,2.712709643784235181e-01,0.000000000000000000e+00
3.000000000000000000e+01,2.763672890217231948e-01,0.000000000000000000e+00
3.100000000000000000e+01,3.299031931872147272e-01,0.000000000000000000e+00
3.200000000000000000e+01,6.935071963398375949e-01,0.000000000000000000e+00
3.300000000000000000e+01,3.666284276552861932e-01,0.000000000000000000e+00
3.400000000000000000e+01,2.733290680325528577e-01,0.000000000000000000e+00
3.500000000000000000e+01,5.622730955218262494e-01,0.000000000000000000e+00
3.600000000000000000e+01,7.450123265230800262e-01,0.000000000000000000e+00
3.700000000000000000e+01,-2.349835023552838409e-01,0.000000000000000000e+00
3.800000000000000000e+01,2.294869028884911621e-01,0.000000000000000000e+00
3.900000000000000000e+01,-1.414217128837870485e-01,0.000000000000000000e+00
4.000000000000000000e+01,-1.636609701489594171e-01,0.000000000000000000e+00
4.100000000000000000e+01,7.537858220381640217e-01,0.000000000000000000e+00
4.200000000000000000e+01,4.830497291456715914e+00,0.000000000000000000e+00
4.300000000000000000e+01,1.530707013261587424e+00,1.000000000000000000e+00
4.400000000000000000e+01,-2.153238692200282856e+00,0.000000000000000000e+00
4.500000000000000000e+01,-4.355032424867459895e-01,0.000000000000000000e+00
4.600000000000000000e+01,-5.132081755122129829e-01,0.000000000000000000e+00
4.700000000000000000e+01,-4.944682458888393639e-01,0.000000000000000000e+00
4.800000000000000000e+01,-5.371838137794118229e-01,0.000000000000000000e+00
4.900000000000000000e+01,-4.130684741955084616e-01,0.000000000000000000e+00
5.000000000000000000e+01,-3.853647565524549456e-01,0.000000000000000000e+00
5.100000000000000000e+01,-3.425297442899036260e-02,0.000000000000000000e+00
5.200000000000000000e+01,-4.093114342348844747e-01,0.000000000000000000e+00
5.300000000000000000e+01,-1.805477996719595246e-01,0.000000000000000000e+00
5.400000000000000000e+01,1.794350595753807509e-01,0.000000000000000000e+00
5.500000000000000000e+01,3.164426687618315803e-01,0.000000000000000000e+00
5.600000000000000000e+01,1.341225235184408116e-01,0.000000000000000000e+00
5.700000000000000000e+01,8.523647314559176236e-01,0.000000000000000000e+00
5.800000000000000000e+01,8.288308817371455861e-01,0.000000000000000000e+00
5.900000000000000000e+01,1.449944143111284278e+00,0.000000000000000000e+00
6.000000000000000000e+01,1.317730311437143698e+00,0.000000000000000000e+00
6.100000000000000000e+01,1.134949613494164344e+00,0.000000000000000000e+00
6.200000000000000000e+01,3.632046119116214555e-01,0.000000000000000000e+00
6.300000000000000000e+01,-4.051016072310411470e-02,0.000000000000000000e+00
6.400000000000000000e+01,-1.055634162348170868e+00,0.000000000000000000e+00
6.500000000000000000e+01,-1.181361035454694841e+00,0.000000000000000000e+00
6.600000000000000000e+01,-1.332489922896079593e+00,0.000000000000000000e+00
6.700000000000000000e+01,-9.319348067145657444e-01,0.000000000000000000e+00
6.800000000000000000e+01,-1.335142861902359535e+00,0.000000000000000000e+00
6.900000000000000000e+01,-8.188842722718828737e-01,0.000000000000000000e+00
7.000000000000000000e+01,-1.319624080648265751e+00,0.000000000000000000e+00
7.100000000000000000e+01,-8.568493405176375033e-01,0.000000000000000000e+00
7.200000000000000000e+01,-8.671006843245080420e-01,0.000000000000000000e+00
7.300000000000000000e+01,-3.211824756199417319e-01,0.000000000000000000e+00
7.400000000000000000e+01,-5.834082267788700538e-01,0.000000000000000000e+00
7.500000000000000000e+01,-6.080853916062456399e-01,0.000000000000000000e+00
7.600000000000000000e+01,-2.565918839870308665e-01,0.000000000000000000e+00
7.700000000000000000e+01,-5.137478751440821556e-01,0.000000000000000000e+00
7.800000000000000000e+01,-1.400533547172664282e-02,0.000000000000000000e+00
7.900000000000000000e+01,-8.539142310240946387e-02,0.000000000000000000e+00
8.000000000000000000e+01,-3.454067814888336363e-01,0.000000000000000000e+00
8.100000000000000000e+01,-2.832885790988460828e-01,0.000000000000000000e+00
8.200000000000000000e+01,-2.886771048477986823e-01,0.000000000000000000e+00
8.300000000000000000e+01,4.942273956980747784e-01,0.000000000000000000e+00
8.400000000000000000e+01,-4.745103809985530274e-01,0.000000000000000000e+00
8.500000000000000000e+01,4.039814757617445351e-01,0.000000000000000000e+00
8.600000000000000000e+01,-2.470317248262882681e-01,0.000000000000000000e+00
8.700000000000000000e+01,1.923381656862629963e-01,0.000000000000000000e+00
8.800000000000000000e+01,2.609908040591214506e-01,0.000000000000000000e+00
8.900000000000000000e+01,1.103014678480910976e-01,0.000000000000000000e+00
9.000000000000000000e+01,3.226383295939834195e-01,0.000000000000000000e+00
9.100000000000000000e+01,-3.495607759749573829e-01,0.000000000000000000e+00
9.200000000000000000e+01,1.162399479013877107e-01,0.000000000000000000e+00
9.300000000000000000e+01,2.710592125947294262e-01,0.000000000000000000e+00
9.400000000000000000e+01,1.644505234045658126e-01,0.000000000000000000e+00
9.500000000000000000e+01,2.209738577626836342e-01,0.000000000000000000e+00
9.600000000000000000e+01,5.473430446849686382e-01,0.000000000000000000e+00
9.700000000000000000e+01,1.157933685334989748e-01,0.000000000000000000e+00
9.800000000000000000e+01,8.196176602657974097e-01,0.000000000000000000e+00
9.900000000000000000e+01,-2.260369389207293744e-01,0.000000000000000000e+00
1.000000000000000000e+02,3.584229527077536365e-02,0.000000000000000000e+00
1.010000000000000000e+02,-3.078759736232374311e-01,0.000000000000000000e+00
1.020000000000000000e+02,1.610789717905644625e-02,0.000000000000000000e+00
1.030000000000000000e+02,6.885918943635068734e-01,0.000000000000000000e+00
1.040000000000000000e+02,5.164054719460187570e+00,0.000000000000000000e+00
1.050000000000000000e+02,7.271227291016961747e-01,1.000000000000000000e+00
1.060000000000000000e+02,-2.606856286432722047e+00,0.000000000000000000e+00
1.070000000000000000e+02,-3.982425367777074343e-01,0.000000000000000000e+00
1.080000000000000000e+02,-4.367993960640474960e-01,0.000000000000000000e+00
1.090000000000000000e+02,-2.088296171598719164e-01,0.000000000000000000e+00
1.100000000000000000e+02,-7.058508833267683746e-01,0.000000000000000000e+00
1.110000000000000000e+02,-3.283512208233674290e-01,0.000000000000000000e+00
1.120000000000000000e+02,-4.835141604205941412e-01,0.000000000000000000e+00
1.130000000000000000e+02,2.218157240369372438e-02,0.000000000000000000e+00
1.140000000000000000e+02,-2.805566177463217903e-01,0.000000000000000000e+00
1.150000000000000000e+02,-2.899218228278399589e-02,0.000000000000000000e+00
1.160000000000000000e+02,4.810895640179915222e-01,0.000000000000000000e+00
1.170000000000000000e+02,6.608996446867232422e-02,0.000000000000000000e+00
1.180000000000000000e+02,4.777700016250623349e-01,0.000000000000000000e+00
1.190000000000000000e+02,1.466860255433870552e+00,0.000000000000000000e+00
1.200000000000000000e+02,5.976664608578603488e-01,0.000000000000000000e+00
1.210000000000000000e+02,1.508593967896427746e+00,0.000000000000000000e+00
1.220000000000000000e+02,1.187017602696413654e+00,0.000000000000000000e+00
1.230000000000000000e+02,1.207784020541555758e+00,0.000000000000000000e+00
1.240000000000000000e+02,5.661805245448967572e-01,0.000000000000000000e+00
1.250000000000000000e+02,-4.192776642679096333e-01,0.000000000000000000e+00
1.260000000000000000e+02,-1.171606023667877139e+00,0.000000000000000000e+00
1.270000000000000000e+02,-1.393139626653584706e+00,0.000000000000000000e+00
1.280000000000000000e+02,-6.385531017038904578e-01,0.000000000000000000e+00
1.290000000000000000e+02,-1.011733468790859458e+00,0.000000000000000000e+00
1.300000000000000000e+02,-1.159310183211053280e+00,0.000000000000000000e+00
1.310000000000000000e+02,-1.216822914329219740e+00,0.000000000000000000e+00
1.320000000000000000e+02,-7.628964606617600896e-01,0.000000000000000000e+00
1.330000000000000000e+02,-6.605129595706876744e-01,0.000000000000000000e+00
1.340000000000000000e+02,-9.297974434994198401e-01,0.000000000000000000e+00
1.350000000000000000e+02,-2.504591008312421208e-01,0.000000000000000000e+00
1.360000000000000000e+02,-2.758367698973075988e-01,0.000000000000000000e+00
1.370000000000000000e+02,-2.969516453622633723e-01,0.000000000000000000e+00
1.380000000000000000e+02,-4.390643105087495557e-01,0.000000000000000000e+00
1.390000000000000000e+02,-2.236484798038988475e-01,0.000000000000000000e+00
1.400000000000000000e+02,-2.968558326717942730e-01,0.000000000000000000e+00
1.410000000000000000e+02,7.829219652634084037e-02,0.000000000000000000e+00
1.420000000000000000e+02,-2.116779984897529387e-01,0.000000000000000000e+00
1.430000000000000000e+02,-4.184915333966157669e-02,0.000000000000000000e+00
1.440000000000000000e+02,-5.307314261136110434e-02,0.000000000000000000e+00
1.450000000000000000e+02,2.544855114347879255e-01,0.000000000000000000e+00
1.460000000000000000e+02,-6.370741746483235546e-03,0.000000000000000000e+00
1.470000000000000000e+02,-1.281725368575979129e-01,0.000000000000000000e+00
1.480000000000000000e+02,5.528463737596848171e-01,0.000000000000000000e+00
1.490000000000000000e+02,1.742133457914091244e-01,0.000000000000000000e+00
1.500000000000000000e+02,3.100868967240401619e-01,0.000000000000000000e+00
1.510000000000000000e+02,2.967494712701568282e-01,0.000000000000000000e+00
1.520000000000000000e+02,3.208388119394239846e-01,0.000000000000000000e+00
1.530000000000000000e+02,2.540595387486935808e-01,0.000000000000000000e+00
1.540000000000000000e+02,2.401797763105915640e-01,0.000000000000000000e+00
1.550000000000000000e+02,3.353449325892889910e-01,0.000000000000000000e+00
1.560000000000000000e+02,1.186205784488638809e-01,0.000000000000000000e+00
1.570000000000000000e+02,6.372156170925211693e-01,0.000000000000000000e+00
1.580000000000000000e+02,1.554898032278421716e-01,0.000000000000000000e+00
1.590000000000000000e+02,4.688720880052648643e-01,0.000000000000000000e+00
1.600000000000000000e+02,2.925044047716486850e-01,0.000000000000000000e+00
1.610000000000000000e+02,4.920590312678321254e-01,0.000000000000000000e+00
1.620000000000000000e+02,2.976998462086192024e-02,0.000000000000000000e+00
1.630000000000000000e+02,5.505177486679276866e-01,0.000000000000000000e+00
1.640000000000000000e+02,8.060959654472783786e-02,0.000000000000000000e+00
1.650000000000000000e+02,5.202310635867916089e-01,0.000000000000000000e+00
1.660000000000000000e+02,1.863115238190113931e-01,0.000000000000000000e+00
1.670000000000000000e+02,5.006837497445683349e-02,0.000000000000000000e+00
1.680000000000000000e+02,2.556849532214679477e-01,0.000000000000000000e+00
1.690000000000000000e+02,7.119885731111587068e-01,0.000000000000000000e+00
1.700000000000000000e+02,4.543591612484511044e-01,0.000000000000000000e+00
1.710000000000000000e+02,3.227499090840096896e-01,0.000000000000000000e+00
1.720000000000000000e+02,-1.928444664580379261e-02,0.000000000000000000e+00
1.730000000000000000e+02,1.786273900701675910e-01,0.000000000000000000e+00
1.740000000000000000e+02,-1.941606731835907318e-01,0.000000000000000000e+00
1.750000000000000000e+02,2.193232323825106689e-01,0.000000000000000000e+00
1.760000000000000000e+02,-3.640259157681403068e-01,0.000000000000000000e+00
1.770000000000000000e+02,3.977944705707467499e+00,0.000000000000000000e+00
1.780000000000000000e+02,3.065619001786290543e+00,0.000000000000000000e+00
1.790000000000000000e+02,-2.357830616090814679e+00,1.000000000000000000e+00
1.800000000000000000e+02,-8.978379801631658497e-01,0.000000000000000000e+00
1.810000000000000000e+02,-4.907951358417295684e-01,0.000000000000000000e+00
1.820000000000000000e+02,-6.919808087054908352e-01,0.000000000000000000e+00
1.830000000000000000e+02,-4.019214407488809759e-01,0.000000000000000000e+00
1.840000000000000000e+02,-9.421522776728314952e-01,0.000000000000000000e+00
1.850000000000000000e+02,-2.928733533379347387e-01,0.000000000000000000e+00
1.860000000000000000e+02,-5.878684840949153223e-01,0.000000000000000000e+00
1.870000000000000000e+02,-1.593582572566054900e-01,0.000000000000000000e+00
1.880000000000000000e+02,-4.674460964923788930e-01,0.000000000000000000e+00
1.890000000000000000e+02,-8.413146998999231074e-02,0.000000000000000000e+00
1.900000000000000000e+02,6.143749054169018731e-01,0.000000000000000000e+00
1.910000000000000000e+02,-4.678554601877221719e-02,0.000000000000000000e+00
1.920000000000000000e+02,4.410866588253939957e-01,0.000000000000000000e+00
1.930000000000000000e+02,5.580377831702628688e-01,0.000000000000000000e+00
1.940000000000000000e+02,1.390397297656782660e+00,0.000000000000000000e+00
1.950000000000000000e+02,1.092389561823844613e+00,0.000000000000000000e+00
1.960000000000000000e+02,9.280607387462457281e-01,0.000000000000000000e+00
1.970000000000000000e+02,7.066649332902544822e-01,0.000000000000000000e+00
1.980000000000000000e+02,-1.035441221482226032e-01,0.000000000000000000e+00
1.990000000000000000e+02,-6.528353619380445894e-01,0.000000000000000000e+00
2.000000000000000000e+02,-1.195839169369621091e+00,0.000000000000000000e+00
2.010000000000000000e+02,-1.348853873226109945e+00,0.000000000000000000e+00
2.020000000000000000e+02,-1.552734558407696808e+00,0.000000000000000000e+00
2.030000000000000000e+02,-1.283334080258072829e+00,0.000000000000000000e+00
2.040000000000000000e+02,-1.225688981578095138e+00,0.000000000000000000e+00
2.050000000000000000e+02,-1.020566309576471209e+00,0.000000000000000000e+00
2.060000000000000000e+02,-1.172142729034413744e+00,0.000000000000000000e+00
2.070000000000000000e+02,-6.507589489143514871e-01,0.000000000000000000e+00
2.080000000000000000e+02,-6.449260465524156993e-01,0.000000000000000000e+00
2.090000000000000000e+02,-1.033556646042002702e+00,0.000000000000000000e+00
2.100000000000000000e+02,-2.539000826938747069e-01,0.000000000000000000e+00
2.110000000000000000e+02,-8.097132064872377688e-01,0.000000000000000000e+00
2.120000000000000000e+02,-7.419623873675667003e-01,0.000000000000000000e+00
2.130000000000000000e+02,4.537774783479118883e-03,0.000000000000000000e+00
2.140000000000000000e+02,-4.323932947317992159e-01,0.000000000000000000e+00
2.150000000000000000e+02,-1.963979190488887305e-01,0.000000000000000000e+00
2.160000000000000000e+02,-1.480732277584017043e-01,0.000000000000000000e+00
2.170000000000000000e+02,-4.811635405282196909e-01,0.000000000000000000e+00
2.180000000000000000e+02,2.942730265894053510e-01,0.000000000000000000e+00
2.190000000000000000e+02,-3.322635613586219505e-02,0.000000000000000000e+00
2.200000000000000000e+02,-4.796437277845136404e-02,0.000000000000000000e+00
2.210000000000000000e+02,1.766439064805545855e-01,0.000000000000000000e+00
2.220000000000000000e+02,3.079890327895942227e-03,0.000000000000000000e+00
2.230000000000000000e+02,2.397019942657125646e-01,0.000000000000000000e+00
2.240000000000000000e+02,4.816139362630799531e-02,0.000000000000000000e+00
2.250000000000000000e+02,2.949106239935495588e-01,0.000000000000000000e+00
2.260000000000000000e+02,4.777376529957017004e-02,0.000000000000000000e+00
2.270000000000000000e+02,4.519320333230520959e-01,0.000000000000000000e+00
2.280000000000000000e+02,1.196753937043524840e-01,0.000000000000000000e+00
2.290000000000000000e+02,4.922570035036658576e-01,0.000000000000000000e+00
2.300000000000000000e+02,2.006718569136672348e-01,0.000000000000000000e+00
2.310000000000000000e+02,3.879434169050960945e-01,0.000000000000000000e+00
2.320000000000000000e+02,2.847309101072002524e-01,0.000000000000000000e+00
2.330000000000000000e+02,4.540937204771111069e-01,0.000000000000000000e+00
2.340000000000000000e+02,3.829724993657948051e-01,0.000000000000000000e+00
2.350000000000000000e+02,3.080670048339940181e-01,0.000000000000000000e+00
2.360000000000000000e+02,3.654289711079392600e-01,0.000000000000000000e+00
2.370000000000000000e+02,2.138205021880535961e-01,0.000000000000000000e+00
2.380000000000000000e+02,3.798246505821645802e-01,0.000000000000000000e+00
2.390000000000000000e+02,6.856292447671159529e-01,0.000000000000000000e+00
2.400000000000000000e+02,3.850790818241858759e-01,0.000000000000000000e+00
2.410000000000000000e+02,8.493226289186827094e-01,0.000000000000000000e+00
2.420000000000000000e+02,3.512437369649795693e-01,0.000000000000000000e+00
2.430000000000000000e+02,5.470252739353901328e-01,0.000000000000000000e+00
2.440000000000000000e+02,4.073358068450613212e-01,0.000000000000000000e+00
2.450000000000000000e+02,1.912329353336898047e-02,0.000000000000000000e+00
2.460000000000000000e+02,6.441120249114012236e-03,0.000000000000000000e+00
2.470000000000000000e+02,2.168055181786493479e-01,0.000000000000000000e+00
2.480000000000000000e+02,-2.304889321568611982e-01,0.000000000000000000e+00
2.490000000000000000e+02,1.683199935814793768e+00,0.000000000000000000e+00
2.500000000000000000e+02,5.464058016971072185e+00,0.000000000000000000e+00
2.510000000000000000e+02,-1.115102093809217099e+00,1.000000000000000000e+00
2.520000000000000000e+02,-1.820101007196533338e+00,0.000000000000000000e+00
2.530000000000000000e+02,-5.532243436783402801e-01,0.000000000000000000e+00
2.540000000000000000e+02,-3.227007047679485430e-01,0.000000000000000000e+00
2.550000000000000000e+02,-5.058123788252119057e-01,0.000000000000000000e+00
2.560000000000000000e+02,-3.936226520362573478e-01,0.000000000000000000e+00
2.570000000000000000e+02,-3.915414187206577856e-01,0.000000000000000000e+00
2.580000000000000000e+02,-4.391264628212678822e-01,0.000000000000000000e+00
2.590000000000000000e+02,-6.426902840757808821e-02,0.000000000000000000e+00
2.600000000000000000e+02,-1.396449770837255300e-01,0.000000000000000000e+00
2.610000000000000000e+02,-6.614677292622837823e-02,0.000000000000000000e+00
2.620000000000000000e+02,9.657462142844989994e-02,0.000000000000000000e+00
2.630000000000000000e+02,1.264396325033403934e-01,0.000000000000000000e+00
2.640000000000000000e+02,7.403929354286576947e-01,0.000000000000000000e+00
2.650000000000000000e+02,5.575416202184551029e-01,0.000000000000000000e+00
2.660000000000000000e+02,1.027199425787943099e+00,0.000000000000000000e+00
2.670000000000000000e+02,1.314526306430151559e+00,0.000000000000000000e+00
2.680000000000000000e+02,1.193604912881917501e+00,0.000000000000000000e+00
2.690000000000000000e+02,7.328352009640700659e-01,0.000000000000000000e+00
2.700000000000000000e+02,5.399771007242551990e-01,0.000000000000000000e+00
2.710000000000000000e+02,-1.091647209895031390e+00,0.000000000000000000e+00
2.720000000000000000e+02,-7.325282490103863786e-01,0.000000000000000000e+00
2.730000000000000000e+02,-1.493767742593892667e+00,0.000000000000000000e+00
2.740000000000000000e+02,-1.412105592387914443e+00,0.000000000000000000e+00
2.750000000000000000e+02,-1.303795645284723470e+00,0.000000000000000000e+00
2.760000000000000000e+02,-1.226241795941281243e+00,0.000000000000000000e+00
2.770000000000000000e+02,-1.017194581600674219e+00,0.000000000000000000e+00
2.780000000000000000e+02,-1.067559148648653977e+00,0.000000000000000000e+00
2.790000000000000000e+02,-1.103022874874903803e+00,0.000000000000000000e+00
2.800000000000000000e+02,-7.595106237943501926e-01,0.000000000000000000e+00
2.810000000000000000e+02,-7.471222600961127114e-01,0.000000000000000000e+00
2.820000000000000000e+02,-7.311048298177192928e-01,0.000000000000000000e+00
2.830000000000000000e+02,-3.958460905630472038e-01,0.000000000000000000e+00
2.840000000000000000e+02,-6.241608290738798193e-01,0.000000000000000000e+00
2.850000000000000000e+02,-3.067852618215141658e-01,0.000000000000000000e+00
2.860000000000000000e+02,-4.638537796284160630e-01,0.000000000000000000e+00
2.870000000000000000e+02,-3.859139813549986031e-01,0.000000000000000000e+00
2.880000000000000000e+02,-2.029731529928809897e-01,0.000000000000000000e+00
2.890000000000000000e+02,-1.317156838951194509e-01,0.000000000000000000e+00
2.900000000000000000e+02,-3.206764148234567124e-01,0.000000000000000000e+00
2.910000000000000000e+02,-5.198154993475211094e-02,0.000000000000000000e+00
2.920000000000000000e+02,1.260585166714875693e-01,0.000000000000000000e+00
2.930000000000000000e+02,-1.316906028528248562e-01,0.000000000000000000e+00
2.940000000000000000e+02,-2.357287116182601450e-01,0.000000000000000000e+00
2.950000000000000000e+02,1.321613221078124234e-01,0.000000000000000000e+00
2.960000000000000000e+02,3.287162393936565175e-01,0.000000000000000000e+00
2.970000000000000000e+02,-2.836558859526397969e-01,0.000000000000000000e+00
2.980000000000000000e+02,1.298825196373221691e-01,0.000000000000000000e+00
2.990000000000000000e+02,9.815541328829410217e-01,0.000000000000000000e+00
3.000000000000000000e+02,-3.097672482769271984e-01,0.000000000000000000e+00
3.010000000000000000e+02,8.806767244450345311e-01,0.000000000000000000e+00
3.020000000000000000e+02,3.347776661857522762e-01,0.000000000000000000e+00
3.030000000000000000e+02,-2.508623197401746441e-01,0.000000000000000000e+00
3.040000000000000000e+02,2.310453734920551172e-01,0.000000000000000000e+00
3.050000000000000000e+02,2.004676917143926596e-01,0.000000000000000000e+00
3.060000000000000000e+02,1.742715727350093169e-01,0.000000000000000000e+00
3.070000000000000000e+02,3.313420310184503892e-01,0.000000000000000000e+00
3.080000000000000000e+02,3.873566082514012798e-01,0.000000000000000000e+00
3.090000000000000000e+02,1.346351934375701609e-01,0.000000000000000000e+00
3.100000000000000000e+02,8.766880795196194676e-01,0.000000000000000000e+00
3.110000000000000000e+02,2.792251456215754657e-01,0.000000000000000000e+00
3.120000000000000000e+02,9.739348320399697778e-01,0.000000000000000000e+00
3.130000000000000000e+02,7.799150601794314908e-02,0.000000000000000000e+00
3.140000000000000000e+02,-2.207133812340090345e-02,0.000000000000000000e+00
3.150000000000000000e+02,3.813341699933191914e-02,0.000000000000000000e+00
3.160000000000000000e+02,3.154744107655670093e-02,0.000000000000000000e+00
3.170000000000000000e+02,-8.139155248635867451e-03,0.000000000000000000e+00
3.180000000000000000e+02,3.491135062929822119e+00,0.000000000000000000e+00
3.190000000000000000e+02,4.086695769812402013e+00,0.000000000000000000e+00
3.200000000000000000e+02,-2.246983651307379759e+00,1.000000000000000000e+00
3.210000000000000000e+02,-2.542941899440141484e-01,0.000000000000000000e+00
3.220000000000000000e+02,-6.712959430272540384e-01,0.000000000000000000e+00
3.230000000000000000e+02,-6.023247006137429915e-01,0.000000000000000000e+00
3.240000000000000000e+02,-1.552373761733378231e-02,0.000000000000000000e+00
3.250000000000000000e+02,-7.196908191352224815e-01,0.000000000000000000e+00
3.260000000000000000e+02,-1.235510282404758409e-01,0.000000000000000000e+00
3.270000000000000000e+02,-4.035234683412503576e-01,0.000000000000000000e+00
3.280000000000000000e+02,-7.118167609760650549e-02,0.000000000000000000e+00
3.290000000000000000e+02,-3.102114262790961474e-02,0.000000000000000000e+00
3.300000000000000000e+02,1.825150273555113112e-01,0.000000000000000000e+00
3.310000000000000000e+02,1.929380444295294983e-01,0.000000000000000000e+00
3.320000000000000000e+02,4.418439111554478549e-01,0.000000000000000000e+00
3.330000000000000000e+02,6.873447336450414502e-01,0.000000000000000000e+00
3.340000000000000000e+02,8.970026470295187071e-01,0.000000000000000000e+00
3.350000000000000000e+02,9.841550399943858052e-01,0.000000000000000000e+00
3.360000000000000000e+02,1.567396588921868394e+00,0.000000000000000000e+00
3.370000000000000000e+02,1.253745846859158908e+00,0.000000000000000000e+00
3.380000000000000000e+02,8.202390051014043504e-01,0.000000000000000000e+00
3.390000000000000000e+02,1.278872563321476474e-01,0.000000000000000000e+00
3.400000000000000000e+02,-6.187655426513961610e-01,0.000000000000000000e+00
3.410000000000000000e+02,-1.323367130382156365e+00,0.000000000000000000e+00
3.420000000000000000e+02,-8.874674423029875747e-01,0.000000000000000000e+00
3.430000000000000000e+02,-1.416655822280029842e+00,0.000000000000000000e+00
3.440000000000000000e+02,-1.006441452344612575e+00,0.000000000000000000e+00
3.450000000000000000e+02,-1.088627944714502416e+00,0.000000000000000000e+00
3.460000000000000000e+02,-1.133578681581111081e+00,0.000000000000000000e+00
3.470000000000000000e+02,-7.611856148462509131e-01,0.000000000000000000e+00
3.480000000000000000e+02,-9.471798871281007504e-01,0.000000000000000000e+00
3.490000000000000000e+02,-3.233597043697351014e-01,0.000000000000000000e+00
3.500000000000000000e+02,-8.312165607856366600e-01,0.000000000000000000e+00
3.510000000000000000e+02,-5.080142402586849126e-01,0.000000000000000000e+00
3.520000000000000000e+02,-1.439690249305671799e-01,0.000000000000000000e+00
3.530000000000000000e+02,-4.359285017526857708e-01,0.000000000000000000e+00
3.540000000000000000e+02,-2.342254888632919196e-01,0.000000000000000000e+00
3.550000000000000000e+02,-1.614073291191779891e-01,0.000000000000000000e+00
3.560000000000000000e+02,-3.322742984449129633e-01,0.000000000000000000e+00
3.570000000000000000e+02,-4.229873604337382464e-01,0.000000000000000000e+00
3.580000000000000000e+02,-6.707941174905995840e-02,0.000000000000000000e+00
3.590000000000000000e+02,1.253255528081688996e-01,0.000000000000000000e+00
3.600000000000000000e+02,-4.624741246833426467e-01,0.000000000000000000e+00
3.610000000000000000e+02,2.841229456885920324e-01,0.000000000000000000e+00
3.620000000000000000e+02,-4.227671463526989082e-01,0.000000000000000000e+00
3.630000000000000000e+02,3.330531931799210477e-01,0.000000000000000000e+00
3.640000000000000000e+02,-1.431030807412426824e-02,0.000000000000000000e+00
3.650000000000000000e+02,4.253935400888782525e-01,0.000000000000000000e+00
3.660000000000000000e+02,-1.864087136787969667e-01,0.000000000000000000e+00
3.670000000000000000e+02,1.232976085176094166e-01,0.000000000000000000e+00
3.680000000000000000e+02,-2.203733698901266108e-02,0.000000000000000000e+00
3.690000000000000000e+02,2.369293050016498259e-01,0.000000000000000000e+00
3.700000000000000000e+02,6.731447133984522213e-02,0.000000000000000000e+00
3.710000000000000000e+02,1.459482692259872483e-01,0.000000000000000000e+00
3.720000000000000000e+02,4.995340910672905199e-01,0.000000000000000000e+00
3.730000000000000000e+02,-2.376132734047513018e-01,0.000000000000000000e+00
3.740000000000000000e+02,5.428581882649178292e-01,0.000000000000000000e+00
3.750000000000000000e+02,9.813593960667754690e-02,0.000000000000000000e+00
3.760000000000000000e+02,1.961302876303261389e-01,0.000000000000000000e+00
3.770000000000000000e+02,3.106272617166546124e-01,0.000000000000000000e+00
3.780000000000000000e+02,3.210003041235727772e-01,0.000000000000000000e+00
3.790000000000000000e+02,5.234293936077494269e-01,0.000000000000000000e+00
3.800000000000000000e+02,2.142211257656431722e-01,0.000000000000000000e+00
3.810000000000000000e+02,4.415242049956804027e-01,0.000000000000000000e+00
3.820000000000000000e+02,1.971612897821806709e-01,0.000000000000000000e+00
3.830000000000000000e+02,-8.543255943152927578e-02,0.000000000000000000e+00
3.840000000000000000e+02,5.113498291259562650e-03,0.000000000000000000e+00
3.850000000000000000e+02,1.192436417857513364e-01,0.000000000000000000e+00
3.860000000000000000e+02,-2.780693520426804621e-01,0.000000000000000000e+00
3.870000000000000000e+02,3.734356145956592599e+00,0.000000000000000000e+00
3.880000000000000000e+02,3.661374313496231547e+00,0.000000000000000000e+00
3.890000000000000000e+02,-2.278894899120343265e+00,1.000000000000000000e+00
3.900000000000000000e+02,-5.270875067455914609e-01,0.000000000000000000e+00
3.910000000000000000e+02,-7.828039520825392783e-01,0.000000000000000000e+00
3.920000000000000000e+02,-4.311671984241506328e-01,0.000000000000000000e+00
3.930000000000000000e+02,-7.256401361166461284e-01,0.000000000000000000e+00
3.940000000000000000e+02,-2.285536427175301200e-01,0.000000000000000000e+00
3.950000000000000000e+02,-4.027498077843380542e-01,0.000000000000000000e+00
3.960000000000000000e+02,-2.117350135198619032e-01,0.000000000000000000e+00
3.970000000000000000e+02,-3.026604135566667853e-01,0.000000000000000000e+00
3.980000000000000000e+02,-4.132443942351233385e-02,0.000000000000000000e+00
3.990000000000000000e+02,-5.238624867479005909e-01,0.000000000000000000e+00
4.000000000000000000e+02,6.206881109597189861e-01,0.000000000000000000e+00
4.010000000000000000e+02,6.901225999244503528e-02,0.000000000000000000e+00
4.020000000000000000e+02,9.846792478368843193e-01,0.000000000000000000e+00
4.030000000000000000e+02,6.229595537001231254e-01,0.000000000000000000e+00
4.040000000000000000e+02,1.666496392496045864e+00,0.000000000000000000e+00
4.050000000000000000e+02,1.133623771979668904e+00,0.000000000000000000e+00
4.060000000000000000e+02,1.065820133717300999e+00,0.000000000000000000e+00
4.070000000000000000e+02,9.474956388526682982e-01,0.000000000000000000e+00
4.080000000000000000e+02,-2.200228560763462515e-01,0.000000000000000000e+00
4.090000000000000000e+02,-8.708786147467345584e-01,0.000000000000000000e+00
4.100000000000000000e+02,-7.999258580104674499e-01,0.000000000000000000e+00
4.110000000000000000e+02,-1.378890267902075584e+00,0.000000000000000000e+00
4.120000000000000000e+02,-8.412770718275233151e-01,0.000000000000000000e+00
4.130000000000000000e+02,-1.395897491890849773e+00,0.000000000000000000e+00
4.140000000000000000e+02,-5.670284058175206754e-01,0.000000000000000000e+00
4.150000000000000000e+02,-1.157055694885439356e+00,0.000000000000000000e+00
4.160000000000000000e+02,-7.857531664143804218e-01,0.000000000000000000e+00
4.170000000000000000e+02,-6.910915216950506146e-01,0.000000000000000000e+00
4.180000000000000000e+02,-7.348239707925968700e-01,0.000000000000000000e+00
4.190000000000000000e+02,-6.468449500389443774e-01,0.000000000000000000e+00
4.200000000000000000e+02,-7.842281783899456016e-02,0.000000000000000000e+00
4.210000000000000000e+02,-5.193771460452768496e-01,0.000000000000000000e+00
4.220000000000000000e+02,-5.874416490164769550e-02,0.000000000000000000e+00
4.230000000000000000e+02,-4.630619241756360749e-01,0.000000000000000000e+00
4.240000000000000000e+02,-1.580717960003354960e-01,0.000000000000000000e+00
4.250000000000000000e+02,-2.538418552024571118e-01,0.000000000000000000e+00
4.260000000000000000e+02,-3.065938040991420151e-03,0.000000000000000000e+00
4.270000000000000000e+02,-1.022841003433726768e-02,0.000000000000000000e+00
4.280000000000000000e+02,-1.382510233735156045e-02,0.000000000000000000e+00
4.290000000000000000e+02,1.523971092829095042e-01,0.000000000000000000e+00
4.300000000000000000e+02,-2.595385083698774076e-01,0.000000000000000000e+00
4.310000000000000000e+02,3.454314727297126408e-01,0.000000000000000000e+00
4.320000000000000000e+02,4.512094645014347871e-01,0.000000000000000000e+00
4.330000000000000000e+02,-4.882307071985774738e-01,0.000000000000000000e+00
4.340000000000000000e+02,7.861994215040739586e-01,0.000000000000000000e+00
4.350000000000000000e+02,3.303364766722459434e-03,0.000000000000000000e+00
4.360000000000000000e+02,2.392759644758369886e-01,0.000000000000000000e+00
4.370000000000000000e+02,2.477473933402780382e-01,0.000000000000000000e+00
4.380000000000000000e+02,3.007715106579526010e-01,0.000000000000000000e+00
4.390000000000000000e+02,1.582354828017645543e-01,0.000000000000000000e+00
4.400000000000000000e+02,4.268755718980942748e-01,0.000000000000000000e+00
4.410000000000000000e+02,1.942972303404717771e-01,0.000000000000000000e+00
4.420000000000000000e+02,-6.572667370511753315e-02,0.000000000000000000e+00
4.430000000000000000e+02,2.543944233613653627e-01,0.000000000000000000e+00
4.440000000000000000e+02,3.209244008628658884e-01,0.000000000000000000e+00
4.450000000000000000e+02,1.072472186833745011e-01,0.000000000000000000e+00
4.460000000000000000e+02,3.393751643008199315e-01,0.000000000000000000e+00
4.470000000000000000e+02,3.597145412170709156e-01,0.000000000000000000e+00
4.480000000000000000e+02,3.859898620716716300e-01,0.000000000000000000e+00
4.490000000000000000e+02,3.029341603735939970e-01,0.000000000000000000e+00
4.500000000000000000e+02,4.900878618497257477e-01,0.000000000000000000e+00
4.510000000000000000e+02,-2.659023059027880165e-01,0.000000000000000000e+00
4.520000000000000000e+02,3.898666100996435735e-01,0.000000000000000000e+00
4.530000000000000000e+02,-1.085728134629591890e-01,0.000000000000000000e+00
4.540000000000000000e+02,7.067001833626949947e-02,0.000000000000000000e+00
4.550000000000000000e+02,9.929369407008074855e-02,0.000000000000000000e+00
4.560000000000000000e+02,5.157557201662354096e+00,0.000000000000000000e+00
4.570000000000000000e+02,1.430039935447002586e+00,1.000000000000000000e+00
4.580000000000000000e+02,-2.266377427256403010e+00,0.000000000000000000e+00
4.590000000000000000e+02,-7.724754602440613294e-01,0.000000000000000000e+00
4.600000000000000000e+02,-6.829990033174760944e-01,0.000000000000000000e+00
4.610000000000000000e+02,-1.361572561341173881e-01,0.000000000000000000e+00
4.620000000000000000e+02,-8.570443629126730523e-01,0.000000000000000000e+00
4.630000000000000000e+02,-2.105139984536491815e-01,0.000000000000000000e+00
4.640000000000000000e+02,-3.944423255989755184e-01,0.000000000000000000e+00
4.650000000000000000e+02,-3.361751194241266449e-02,0.000000000000000000e+00
4.660000000000000000e+02,-6.779129146347824264e-01,0.000000000000000000e+00
4.670000000000000000e+02,2.726625875893566309e-01,0.000000000000000000e+00
4.680000000000000000e+02,-3.162562722354203548e-01,0.000000000000000000e+00
4.690000000000000000e+02,5.135643659281576845e-01,0.000000000000000000e+00
4.700000000000000000e+02,4.920054891837555289e-01,0.000000000000000000e+00
4.710000000000000000e+02,5.616811052066230658e-01,0.000000000000000000e+00
4.720000000000000000e+02,7.483100278492482715e-01,0.000000000000000000e+00
4.730000000000000000e+02,9.901029552519043930e-01,0.000000000000000000e+00
4.740000000000000000e+02,1.435724226565825434e+00,0.000000000000000000e+00
4.750000000000000000e+02,1.155383114429281211e+00,0.000000000000000000e+00
4.760000000000000000e+02,8.906902284890655386e-01,0.000000000000000000e+00
4.770000000000000000e+02,-1.984474609993880645e-01,0.000000000000000000e+00
4.780000000000000000e+02,-9.514226688932413412e-01,0.000000000000000000e+00
4.790000000000000000e+02,-1.368193993447239354e+00,0.000000000000000000e+00
4.800000000000000000e+02,-1.365946814558662625e+00,0.000000000000000000e+00
4.810000000000000000e+02,-1.230407786642761403e+00,0.000000000000000000e+00
4.820000000000000000e+02,-1.302328918406866487e+00,0.000000000000000000e+00
4.830000000000000000e+02,-8.427804064125544725e-01,0.000000000000000000e+00
4.840000000000000000e+02,-9.970386170368469303e-01,0.000000000000000000e+00
4.850000000000000000e+02,-1.407284468896227159e+00,0.000000000000000000e+00
4.860000000000000000e+02,-1.058318704238547125e+00,0.000000000000000000e+00
4.870000000000000000e+02,-4.541285923017127635e-01,0.000000000000000000e+00
4.880000000000000000e+02,-9.316510815885072905e-01,0.000000000000000000e+00
4.890000000000000000e+02,-3.628560244270691570e-01,0.000000000000000000e+00
4.900000000000000000e+02,-5.635501742598604258e-01,0.000000000000000000e+00
4.910000000000000000e+02,-6.708704320650319408e-01,0.000000000000000000e+00
4.920000000000000000e+02,-5.354320476003926466e-01,0.000000000000000000e+00
4.930000000000000000e+02,-4.036252835592876731e-01,0.000000000000000000e+00
4.940000000000000000e+02,-2.829816103029903496e-01,0.000000000000000000e+00
4.950000000000000000e+02,-7.089187884421846442e-02,0.000000000000000000e+00
4.960000000000000000e+02,-4.140738433812805597e-01,0.000000000000000000e+00
4.970000000000000000e+02,-3.949511574804377007e-02,0.000000000000000000e+00
4.980000000000000000e+02,1.967255995341296304e-01,0.000000000000000000e+00
4.990000000000000000e+02,-2.492447990121579304e-01,0.000000000000000000e+00
5.000000000000000000e+02,3.840062276591662549e-01,0.000000000000000000e+00
5.010000000000000000e+02,1.689545211673647018e-01,0.000000000000000000e+00
5.020000000000000000e+02,6.509284879871976570e-02,0.000000000000000000e+00
5.030000000000000000e+02,3.837805540778687630e-01,0.000000000000000000e+00
5.040000000000000000e+02,5.017006295479425199e-02,0.000000000000000000e+00
5.050000000000000000e+02,1.797754790948599968e-01,0.000000000000000000e+00
5.060000000000000000e+02,6.238646285915865342e-01,0.000000000000000000e+00
5.070000000000000000e+02,2.399141676148774660e-01,0.000000000000000000e+00
5.080000000000000000e+02,5.129212790764301477e-01,0.000000000000000000e+00
5.090000000000000000e+02,3.337106525848780314e-01,0.000000000000000000e+00
5.100000000000000000e+02,9.481052439423489631e-01,0.000000000000000000e+00
5.110000000000000000e+02,3.911446903155577637e-01,0.000000000000000000e+00
5.120000000000000000e+02,3.038648540625750738e-01,0.000000000000000000e+00
5.130000000000000000e+02,-4.319596382179281546e-01,0.000000000000000000e+00
5.140000000000000000e+02,7.019973381118977951e-01,0.000000000000000000e+00
5.150000000000000000e+02,-4.999161579914143116e-01,0.000000000000000000e+00
5.160000000000000000e+02,3.497987269441526603e+00,0.000000000000000000e+00
5.170000000000000000e+02,3.846276139378706826e+00,0.000000000000000000e+00
5.180000000000000000e+02,-1.933456945231025959e+00,1.000000000000000000e+00
5.190000000000000000e+02,-7.016677989563474549e-01,0.000000000000000000e+00
5.200000000000000000e+02,-3.259994345172326224e-01,0.000000000000000000e+00
5.210000000000000000e+02,-4.364333327414041119e-01,0.000000000000000000e+00
5.220000000000000000e+02,-2.872183348373667511e-01,0.000000000000000000e+00
5.230000000000000000e+02,1.194916059098059856e-03,0.000000000000000000e+00
5.240000000000000000e+02,-4.178251199107425595e-01,0.000000000000000000e+00
5.250000000000000000e+02,1.115136448876824782e-01,0.000000000000000000e+00
5.260000000000000000e+02,-2.172776574078176537e-01,0.000000000000000000e+00
5.270000000000000000e+02,-1.083183538032574944e-01,0.000000000000000000e+00
5.280000000000000000e+02,3.827755850158320317e-01,0.000000000000000000e+00
5.290000000000000000e+02,3.702766446082767504e-01,0.000000000000000000e+00
5.300000000000000000e+02,5.801277459745403098e-01,0.000000000000000000e+00
5.310000000000000000e+02,9.170969201437921825e-01,0.000000000000000000e+00
5.320000000000000000e+02,1.136120433994920020e+00,0.000000000000000000e+00
5.330000000000000000e+02,1.153553363641805385e+00,0.000000000000000000e+00
5.340000000000000000e+02,1.589466067055487875e+00,0.000000000000000000e+00
5.350000000000000000e+02,1.174073195273138692e+00,0.000000000000000000e+00
5.360000000000000000e+02,7.143358538420063741e-01,0.000000000000000000e+00
5.370000000000000000e+02,5.696964444113113979e-01,0.000000000000000000e+00
5.380000000000000000e+02,-1.068330246837851494e+00,0.000000000000000000e+00
5.390000000000000000e+02,-7.720006590420129822e-01,0.000000000000000000e+00
5.400000000000000000e+02,-1.026037209125285843e+00,0.000000000000000000e+00
5.410000000000000000e+02,-1.399415368868297538e+00,0.000000000000000000e+00
5.420000000000000000e+02,-9.842868595659919340e-01,0.000000000000000000e+00
5.430000000000000000e+02,-1.135874354643947592e+00,0.000000000000000000e+00
5.440000000000000000e+02,-8.207712959391928464e-01,0.000000000000000000e+00
5.450000000000000000e+02,-5.624662210168920318e-01,0.000000000000000000e+00
5.460000000000000000e+02,-8.363544938017281050e-01,0.000000000000000000e+00
5.470000000000000000e+02,-5.340570898998433513e-01,0.000000000000000000e+00
5.480000000000000000e+02,-5.550688874349610780e-01,0.000000000000000000e+00
5.490000000000000000e+02,-5.522655928070829834e-01,0.000000000000000000e+00
5.500000000000000000e+02,-4.722012851268140299e-01,0.000000000000000000e+00
5.510000000000000000e+02,-4.969723070068948756e-01,0.000000000000000000e+00
5.520000000000000000e+02,-1.113508823556888794e-01,0.000000000000000000e+00
5.530000000000000000e+02,-2.757687655650297165e-01,0.000000000000000000e+00
5.540000000000000000e+02,-1.825621536120493604e-01,0.000000000000000000e+00
5.550000000000000000e+02,-2.984728927797594689e-01,0.000000000000000000e+00
5.560000000000000000e+02,9.109331968936382196e-02,0.000000000000000000e+00
5.570000000000000000e+02,2.742263208971018260e-02,0.000000000000000000e+00
5.580000000000000000e+02,-2.726765927207163709e-01,0.000000000000000000e+00
5.590000000000000000e+02,3.842039641990689369e-01,0.000000000000000000e+00
5.600000000000000000e+02,-3.020424490673013218e-01,0.000000000000000000e+00
5.610000000000000000e+02,2.414860039182654128e-01,0.000000000000000000e+00
5.620000000000000000e+02,9.502432584709664259e-03,0.000000000000000000e+00
5.630000000000000000e+02,-5.086187803823021686e-02,0.000000000000000000e+00
5.640000000000000000e+02,2.823212455754477990e-01,0.000000000000000000e+00
5.650000000000000000e+02,-1.290456530424238801e-01,0.000000000000000000e+00
5.660000000000000000e+02,6.380458431881539383e-01,0.000000000000000000e+00
5.670000000000000000e+02,2.847018255835504497e-01,0.000000000000000000e+00
5.680000000000000000e+02,1.699595327819859725e-02,0.000000000000000000e+00
5.690000000000000000e+02,2.490772003057836748e-01,0.000000000000000000e+00
5.700000000000000000e+02,4.404629573056561553e-01,0.000000000000000000e+00
5.710000000000000000e+02,2.467197840139151166e-01,0.000000000000000000e+00
5.720000000000000000e+02,2.932844600193075801e-01,0.000000000000000000e+00
5.730000000000000000e+02,1.898642877189791467e-01,0.000000000000000000e+00
5.740000000000000000e+02,1.591287778808487818e-01,0.000000000000000000e+00
5.750000000000000000e+02,-1.279798443951532250e-01,0.000000000000000000e+00
5.760000000000000000e+02,6.052976974319788095e-01,0.000000000000000000e+00
5.770000000000000000e+02,3.764797668574295098e-01,0.000000000000000000e+00
5.780000000000000000e+02,1.785673840335686158e-01,0.000000000000000000e+00
5.790000000000000000e+02,2.682681196672120905e-01,0.000000000000000000e+00
5.800000000000000000e+02,2.004038805771124476e-01,0.000000000000000000e+00
5.810000000000000000e+02,7.696852474866839981e-03,0.000000000000000000e+00
5.820000000000000000e+02,2.882720975818804376e-01,0.000000000000000000e+00
5.830000000000000000e+02,2.232321369347007589e-01,0.000000000000000000e+00
5.840000000000000000e+02,9.055115774524279404e-01,0.000000000000000000e+00
5.850000000000000000e+02,-1.408775770630491531e-01,0.000000000000000000e+00
5.860000000000000000e+02,3.663347997910115228e-01,0.000000000000000000e+00
5.870000000000000000e+02,1.299961095180974802e-01,0.000000000000000000e+00
5.880000000000000000e+02,3.961997416385575760e-02,0.000000000000000000e+00
5.890000000000000000e+02,-2.627724192375018308e-01,0.000000000000000000e+00
5.900000000000000000e+02,-1.297638957730437859e-01,0.000000000000000000e+00
5.910000000000000000e+02,2.576241286670346090e-02,0.000000000000000000e+00
5.920000000000000000e+02,4.517881028574265656e+00,0.000000000000000000e+00
5.930000000000000000e+02,2.158546207539403294e+00,1.000000000000000000e+00
5.940000000000000000e+02,-2.732851754177696435e+00,0.000000000000000000e+00
5.950000000000000000e+02,-5.129363099186959873e-01,0.000000000000000000e+00
5.960000000000000000e+02,-9.349245788203746077e-01,0.000000000000000000e+00
5.970000000000000000e+02,-2.752329202712047174e-01,0.000000000000000000e+00
5.980000000000000000e+02,-9.469445293667595465e-01,0.000000000000000000e+00
5.990000000000000000e+02,-4.556686254023322724e-01,0.000000000000000000e+00
6.000000000000000000e+02,-4.713355865730577965e-01,0.000000000000000000e+00
6.010000000000000000e+02,-9.282093930264138093e-01,0.000000000000000000e+00
6.020000000000000000e+02,2.945238866423184609e-02,0.000000000000000000e+00
6.030000000000000000e+02,-2.290231552438716511e-01,0.000000000000000000e+00
6.040000000000000000e+02,1.674599263394196125e-01,0.000000000000000000e+00
6.050000000000000000e+02,-1.891094003014582303e-01,0.000000000000000000e+00
6.060000000000000000e+02,1.193912435608355804e-01,0.000000000000000000e+00
6.070000000000000000e+02,8.038339995883262423e-01,0.000000000000000000e+00
6.080000000000000000e+02,1.011379927595129402e+00,0.000000000000000000e+00
6.090000000000000000e+02,7.323815373364962467e-01,0.000000000000000000e+00
6.100000000000000000e+02,1.185801472095156406e+00,0.000000000000000000e+00
6.110000000000000000e+02,1.113547524455303472e+00,0.000000000000000000e+00
6.120000000000000000e+02,6.170061986347656902e-01,0.000000000000000000e+00
6.130000000000000000e+02,5.453001470337372203e-02,0.000000000000000000e+00
6.140000000000000000e+02,-8.770952068982695859e-01,0.000000000000000000e+00
6.150000000000000000e+02,-1.310216449156509810e+00,0.000000000000000000e+00
6.160000000000000000e+02,-1.204402102368663963e+00,0.000000000000000000e+00
6.170000000000000000e+02,-1.235806021663043319e+00,0.000000000000000000e+00
6.180000000000000000e+02,-9.973693220855697206e-01,0.000000000000000000e+00
6.190000000000000000e+02,-9.513246483085345817e-01,0.000000000000000000e+00
6.200000000000000000e+02,-1.399299855974991846e+00,0.000000000000000000e+00
6.210000000000000000e+02,-9.850960148651217718e-01,0.000000000000000000e+00
6.220000000000000000e+02,-1.047878976196892742e+00,0.000000000000000000e+00
6.230000000000000000e+02,-3.081869572235615973e-01,0.000000000000000000e+00
6.240000000000000000e+02,-7.554283401535347720e-01,0.000000000000000000e+00
6.250000000000000000e+02,-2.049464189176425644e-01,0.000000000000000000e+00
6.260000000000000000e+02,-6.634582225997611715e-01,0.000000000000000000e+00
6.270000000000000000e+02,-4.422375873156328407e-01,0.000000000000000000e+00
6.280000000000000000e+02,-1.485083561606723723e-01,0.000000000000000000e+00
6.290000000000000000e+02,-1.012741988103146445e-01,0.000000000000000000e+00
6.300000000000000000e+02,-2.456849102909669513e-01,0.000000000000000000e+00
6.310000000000000000e+02,-3.938349911811945825e-01,0.000000000000000000e+00
6.320000000000000000e+02,2.762329645558171676e-02,0.000000000000000000e+00
6.330000000000000000e+02,-3.755567704380829985e-02,0.000000000000000000e+00
6.340000000000000000e+02,-2.901629278000332213e-01,0.000000000000000000e+00
6.350000000000000000e+02,4.082031674662250920e-01,0.000000000000000000e+00
6.360000000000000000e+02,-1.492103457723216731e-01,0.000000000000000000e+00
6.370000000000000000e+02,-2.048048223177029170e-01,0.000000000000000000e+00
6.380000000000000000e+02,4.145727437207774035e-01,0.000000000000000000e+00
6.390000000000000000e+02,1.677572185664956972e-01,0.000000000000000000e+00
6.400000000000000000e+02,3.757419219548349676e-01,0.000000000000000000e+00
6.410000000000000000e+02,2.656875480912301302e-01,0.000000000000000000e+00
6.420000000000000000e+02,4.052378459560233154e-02,0.000000000000000000e+00
6.430000000000000000e+02,1.793527377615110330e-01,0.000000000000000000e+00
6.440000000000000000e+02,5.914021144542344066e-01,0.000000000000000000e+00
6.450000000000000000e+02,3.007623025339655753e-01,0.000000000000000000e+00
6.460000000000000000e+02,7.440845777617774437e-02,0.000000000000000000e+00
6.470000000000000000e+02,6.685773579442971792e-01,0.000000000000000000e+00
6.480000000000000000e+02,2.755530277345738521e-01,0.000000000000000000e+00
6.490000000000000000e+02,2.745714813844560842e-01,0.000000000000000000e+00
6.500000000000000000e+02,9.931083111704841482e-02,0.000000000000000000e+00
6.510000000000000000e+02,7.992030407726731234e-01,0.000000000000000000e+00
6.520000000000000000e+02,4.683069002769513212e-01,0.000000000000000000e+00
6.530000000000000000e+02,3.029831295029039029e-01,0.000000000000000000e+00
6.540000000000000000e+02,8.218148521167013554e-01,0.000000000000000000e+00
6.550000000000000000e+02,1.711227456463121910e-01,0.000000000000000000e+00
6.560000000000000000e+02,-2.212606139440104550e-02,0.000000000000000000e+00
6.570000000000000000e+02,-5.834382002380268661e-03,0.000000000000000000e+00
6.580000000000000000e+02,-1.659170818320019891e-01,0.000000000000000000e+00
6.590000000000000000e+02,6.626835489689748837e-02,0.000000000000000000e+00
6.600000000000000000e+02,3.339976045753029421e+00,0.000000000000000000e+00
6.610000000000000000e+02,3.898625681999650539e+00,0.000000000000000000e+00
6.620000000000000000e+02,-2.576906900880802542e+00,1.000000000000000000e+00
6.630000000000000000e+02,-5.187383281237900601e-01,0.000000000000000000e+00
6.640000000000000000e+02,-9.622448911311077824e-01,0.000000000000000000e+00
6.650000000000000000e+02,-7.829180041735953055e-02,0.000000000000000000e+00
6.660000000000000000e+02,-8.475115013892174920e-01,0.000000000000000000e+00
6.670000000000000000e+02,-4.431438429622001629e-01,0.000000000000000000e+00
6.680000000000000000e+02,-2.752730530455418934e-01,0.000000000000000000e+00
6.690000000000000000e+02,-1.069253058709387916e-01,0.000000000000000000e+00
6.700000000000000000e+02,-2.975693805499204925e-01,0.000000000000000000e+00
6.710000000000000000e+02,2.870422026985089414e-01,0.000000000000000000e+00
6.720000000000000000e+02,-2.837079278589444975e-01,0.000000000000000000e+00
6.730000000000000000e+02,3.624556951919702952e-01,0.000000000000000000e+00
6.740000000000000000e+02,3.240138423683634472e-01,0.000000000000000000e+00
6.750000000000000000e+02,5.691605203552336789e-01,0.000000000000000000e+00
6.760000000000000000e+02,2.037769539183424405e-01,0.000000000000000000e+00
6.770000000000000000e+02,1.219403575896918834e+00,0.000000000000000000e+00
6.780000000000000000e+02,1.432145390543980712e+00,0.000000000000000000e+00
6.790000000000000000e+02,9.696252054961437272e-01,0.000000000000000000e+00
6.800000000000000000e+02,6.167393900668678430e-01,0.000000000000000000e+00
6.810000000000000000e+02,-1.225532476131764859e-01,0.000000000000000000e+00
6.820000000000000000e+02,-9.129972492686340146e-01,0.000000000000000000e+00
6.830000000000000000e+02,-1.049153968663520065e+00,0.000000000000000000e+00
6.840000000000000000e+02,-1.340409174162589867e+00,0.000000000000000000e+00
6.850000000000000000e+02,-1.280270783055381223e+00,0.000000000000000000e+00
6.860000000000000000e+02,-1.396526310380593605e+00,0.000000000000000000e+00
6.870000000000000000e+02,-8.187494731048894359e-01,0.000000000000000000e+00
6.880000000000000000e+02,-1.512627744782242711e+00,0.000000000000000000e+00
6.890000000000000000e+02,-6.728065935296001499e-01,0.000000000000000000e+00
6.900000000000000000e+02,-7.362868538946235608e-01,0.000000000000000000e+00
6.910000000000000000e+02,-8.354648423758568310e-01,0.000000000000000000e+00
6.920000000000000000e+02,-2.866786352607397226e-01,0.000000000000000000e+00
6.930000000000000000e+02,-4.456336432892920030e-01,0.000000000000000000e+00
6.940000000000000000e+02,-9.293045442391346944e-02,0.000000000000000000e+00
6.950000000000000000e+02,-4.012846705863632457e-01,0.000000000000000000e+00
6.960000000000000000e+02,-2.622894199269700244e-01,0.000000000000000000e+00
6.970000000000000000e+02,-3.934231270163526806e-03,0.000000000000000000e+00
6.980000000000000000e+02,-4.031220240169213209e-01,0.000000000000000000e+00
6.990000000000000000e+02,3.037998211346625843e-01,0.000000000000000000e+00
7.000000000000000000e+02,-1.794542270740799861e-01,0.000000000000000000e+00
7.010000000000000000e+02,3.960600298998298574e-01,0.000000000000000000e+00
7.020000000000000000e+02,-7.170296516475067883e-02,0.000000000000000000e+00
7.030000000000000000e+02,-1.571411207066726323e-01,0.000000000000000000e+00
7.040000000000000000e+02,4.612288983507800699e-01,0.000000000000000000e+00
7.050000000000000000e+02,5.225497260129487176e-02,0.000000000000000000e+00
7.060000000000000000e+02,1.820988139562468300e-01,0.000000000000000000e+00
7.070000000000000000e+02,1.019191576448366110e+00,0.000000000000000000e+00
7.080000000000000000e+02,-1.379326566285391520e-01,0.000000000000000000e+00
7.090000000000000000e+02,2.753768046501218758e-01,0.000000000000000000e+00
7.100000000000000000e+02,1.835495572071334236e-01,0.000000000000000000e+00
7.110000000000000000e+02,5.988446574678155665e-01,0.000000000000000000e+00
7.120000000000000000e+02,3.349113325754665693e-01,0.000000000000000000e+00
7.130000000000000000e+02,2.527170218081064568e-01,0.000000000000000000e+00
7.140000000000000000e+02,5.687259885039334106e-01,0.000000000000000000e+00
7.150000000000000000e+02,1.511163485786833349e-01,0.000000000000000000e+00
7.160000000000000000e+02,2.396983751731384393e-01,0.000000000000000000e+00
7.170000000000000000e+02,3.790488864277231640e-01,0.000000000000000000e+00
7.180000000000000000e+02,7.362460689507444034e-01,0.000000000000000000e+00
7.190000000000000000e+02,3.136517471930870826e-01,0.000000000000000000e+00
7.200000000000000000e+02,6.846413124565642327e-01,0.000000000000000000e+00
7.210000000000000000e+02,4.586112111583245943e-01,0.000000000000000000e+00
7.220000000000000000e+02,4.374378023257188830e-01,0.000000000000000000e+00
7.230000000000000000e+02,7.624395725832948667e-01,0.000000000000000000e+00
7.240000000000000000e+02,-4.060789580637531870e-02,0.000000000000000000e+00
7.250000000000000000e+02,-1.316184313030517306e-01,0.000000000000000000e+00
7.260000000000000000e+02,4.541732024302435056e-01,0.000000000000000000e+00
7.270000000000000000e+02,-1.986737281307954933e-03,0.000000000000000000e+00
7.280000000000000000e+02,1.263163739456133916e+00,0.000000000000000000e+00
7.290000000000000000e+02,5.643170702224971969e+00,0.000000000000000000e+00
7.300000000000000000e+02,-8.386458310547210138e-01,1.000000000000000000e+00
7.310000000000000000e+02,-9.497661153823748759e-01,0.000000000000000000e+00
7.320000000000000000e+02,-7.384244224349714170e-01,0.000000000000000000e+00
7.330000000000000000e+02,-5.900956542554337547e-01,0.000000000000000000e+00
7.340000000000000000e+02,-6.272264398555361664e-01,0.000000000000000000e+00
7.350000000000000000e+02,-4.561468264380595383e-01,0.000000000000000000e+00
7.360000000000000000e+02,-6.498774869667141019e-01,0.000000000000000000e+00
7.370000000000000000e+02,-2.936454663154413058e-01,0.000000000000000000e+00
7.380000000000000000e+02,-4.610312931790893631e-01,0.000000000000000000e+00
7.390000000000000000e+02,-3.084313599106479065e-01,0.000000000000000000e+00
7.400000000000000000e+02,-3.075726984127180597e-01,0.000000000000000000e+00
7.410000000000000000e+02,4.183946706589806719e-01,0.000000000000000000e+00
7.420000000000000000e+02,-1.212064103051049696e-01,0.000000000000000000e+00
7.430000000000000000e+02,4.798853054829014808e-01,0.000000000000000000e+00
7.440000000000000000e+02,6.867879402694824220e-01,0.000000000000000000e+00
7.450000000000000000e+02,8.648499827569041676e-01,0.000000000000000000e+00
7.460000000000000000e+02,1.073205591707894646e+00,0.000000000000000000e+00
7.470000000000000000e+02,1.136289272487448931e+00,0.000000000000000000e+00
7.480000000000000000e+02,9.178182341335100469e-01,0.000000000000000000e+00
7.490000000000000000e+02,4.869425117005976023e-01,0.000000000000000000e+00
7.500000000000000000e+02,-6.501464130355357751e-01,0.000000000000000000e+00
7.510000000000000000e+02,-1.147794549318223334e+00,0.000000000000000000e+00
7.520000000000000000e+02,-1.055133426688754872e+00,0.000000000000000000e+00
7.530000000000000000e+02,-1.569656892328978648e+00,0.000000000000000000e+00
7.540000000000000000e+02,-1.220032227510285949e+00,0.000000000000000000e+00
7.550000000000000000e+02,-1.057353167890001000e+00,0.000000000000000000e+00
7.560000000000000000e+02,-1.120245653234872796e+00,0.000000000000000000e+00
7.570000000000000000e+02,-1.094030737650438345e+00,0.000000000000000000e+00
7.580000000000000000e+02,-8.418663353030865215e-01,0.000000000000000000e+00
7.590000000000000000e+02,-9.879663545381982548e-01,0.000000000000000000e+00
7.600000000000000000e+02,-5.739634437552344481e-01,0.000000000000000000e+00
7.610000000000000000e+02,-6.735565521363613417e-01,0.000000000000000000e+00
7.620000000000000000e+02,-2.225140920991720561e-01,0.000000000000000000e+00
7.630000000000000000e+02,-8.149843685661216641e-01,0.000000000000000000e+00
7.640000000000000000e+02,-3.495004862310781557e-01,0.000000000000000000e+00
7.650000000000000000e+02,-2.297928012024178512e-01,0.000000000000000000e+00
7.660000000000000000e+02,-3.076325427573160520e-01,0.000000000000000000e+00
7.670000000000000000e+02,-7.753059117658123167e-02,0.000000000000000000e+00
7.680000000000000000e+02,-6.203488421370528805e-01,0.000000000000000000e+00
7.690000000000000000e+02,3.763760986874843950e-01,0.000000000000000000e+00
7.700000000000000000e+02,-4.181528551534799409e-01,0.000000000000000000e+00
7.710000000000000000e+02,2.144068624181909577e-01,0.000000000000000000e+00
7.720000000000000000e+02,3.460759535928661923e-02,0.000000000000000000e+00
7.730000000000000000e+02,-5.966928335175736287e-02,0.000000000000000000e+00
7.740000000000000000e+02,-3.975047154903673524e-02,0.000000000000000000e+00
7.750000000000000000e+02,1.401733859828421802e-01,0.000000000000000000e+00
7.760000000000000000e+02,1.207423768585071805e-01,0.000000000000000000e+00
7.770000000000000000e+02,8.058296048993872362e-02,0.000000000000000000e+00
7.780000000000000000e+02,2.783530729012854144e-01,0.000000000000000000e+00
7.790000000000000000e+02,1.131083158745924133e-01,0.000000000000000000e+00
7.800000000000000000e+02,1.624744473296101110e-01,0.000000000000000000e+00
7.810000000000000000e+02,1.915866213845406341e-01,0.000000000000000000e+00
7.820000000000000000e+02,8.223927471362298125e-02,0.000000000000000000e+00
7.830000000000000000e+02,2.705213962172254849e-01,0.000000000000000000e+00
7.840000000000000000e+02,5.465369784288161004e-01,0.000000000000000000e+00
7.850000000000000000e+02,2.664267775612950140e-01,0.000000000000000000e+00
7.860000000000000000e+02,-3.303394285102528687e-03,0.000000000000000000e+00
7.870000000000000000e+02,4.703648199792914153e-01,0.000000000000000000e+00
7.880000000000000000e+02,1.217105951128514274e-01,0.000000000000000000e+00
7.890000000000000000e+02,7.104179239864013562e-01,0.000000000000000000e+00
7.900000000000000000e+02,2.583098392588383252e-01,0.000000000000000000e+00
7.910000000000000000e+02,5.585374643085386781e-01,0.000000000000000000e+00
7.920000000000000000e+02,2.814259796383142831e-01,0.000000000000000000e+00
7.930000000000000000e+02,3.195825320719240803e-02,0.000000000000000000e+00
7.940000000000000000e+02,-6.067992804420591080e-02,0.000000000000000000e+00
7.950000000000000000e+02,3.405050862680564748e-03,0.000000000000000000e+00
7.960000000000000000e+02,-1.726585152795650224e-01,0.000000000000000000e+00
7.970000000000000000e+02,2.514104030493531372e+00,0.000000000000000000e+00
7.980000000000000000e+02,5.042576061877447557e+00,0.000000000000000000e+00
7.990000000000000000e+02,-1.599944880754538445e+00,1.000000000000000000e+00
8.000000000000000000e+02,-1.124350748961323809e+00,0.000000000000000000e+00
8.010000000000000000e+02,-7.612309413203772746e-01,0.000000000000000000e+00
8.020000000000000000e+02,-3.284325504518524896e-01,0.000000000000000000e+00
8.030000000000000000e+02,-6.715747326864743849e-01,0.000000000000000000e+00
8.040000000000000000e+02,-6.619196725067524878e-02,0.000000000000000000e+00
8.050000000000000000e+02,-4.550653406370614440e-01,0.000000000000000000e+00
8.060000000000000000e+02,-1.410472230576300667e-01,0.000000000000000000e+00
8.070000000000000000e+02,-3.970222369714812571e-01,0.000000000000000000e+00
8.080000000000000000e+02,-2.787981326158470163e-01,0.000000000000000000e+00
8.090000000000000000e+02,-1.055866895540737843e-01,0.000000000000000000e+00
8.100000000000000000e+02,3.070380359077418131e-01,0.000000000000000000e+00
8.110000000000000000e+02,4.726142625837618794e-01,0.000000000000000000e+00
8.120000000000000000e+02,3.173435796806294285e-01,0.000000000000000000e+00
8.130000000000000000e+02,1.064798555713855288e+00,0.000000000000000000e+00
8.140000000000000000e+02,1.069159890974218818e+00,0.000000000000000000e+00
8.150000000000000000e+02,1.518605732236727901e+00,0.000000000000000000e+00
8.160000000000000000e+02,1.142347350372852510e+00,0.000000000000000000e+00
8.170000000000000000e+02,8.115034284118324281e-01,0.000000000000000000e+00
8.180000000000000000e+02,4.344196164128857895e-01,0.000000000000000000e+00
8.190000000000000000e+02,-8.756153883466765153e-01,0.000000000000000000e+00
8.200000000000000000e+02,-1.193075310338603146e+00,0.000000000000000000e+00
8.210000000000000000e+02,-1.409200766786953940e+00,0.000000000000000000e+00
8.220000000000000000e+02,-1.191434294340322220e+00,0.000000000000000000e+00
8.230000000000000000e+02,-9.249688494327052979e-01,0.000000000000000000e+00
8.240000000000000000e+02,-1.189322840182416074e+00,0.000000000000000000e+00
8.250000000000000000e+02,-1.296621503390135599e+00,0.000000000000000000e+00
8.260000000000000000e+02,-7.958082792998125710e-01,0.000000000000000000e+00
8.270000000000000000e+02,-1.532249800950539420e+00,0.000000000000000000e+00
8.280000000000000000e+02,-2.532331387203614614e-01,0.000000000000000000e+00
8.290000000000000000e+02,-5.108235350515079043e-01,0.000000000000000000e+00
8.300000000000000000e+02,-7.818084894772889815e-01,0.000000000000000000e+00
8.310000000000000000e+02,-3.913885042668976966e-01,0.000000000000000000e+00
8.320000000000000000e+02,-6.526796105806563775e-01,0.000000000000000000e+00
8.330000000000000000e+02,-3.010847465282744930e-04,0.000000000000000000e+00
8.340000000000000000e+02,-2.292162687200959281e-01,0.000000000000000000e+00
8.350000000000000000e+02,-3.685759893725266134e-01,0.000000000000000000e+00
8.360000000000000000e+02,-1.143967108336010480e-01,0.000000000000000000e+00
8.370000000000000000e+02,-1.701549292057192297e-01,0.000000000000000000e+00
8.380000000000000000e+02,3.646522860124001841e-02,0.000000000000000000e+00
8.390000000000000000e+02,7.978251170208139342e-02,0.000000000000000000e+00
8.400000000000000000e+02,1.196697049492222165e-01,0.000000000000000000e+00
8.410000000000000000e+02,-2.363976406198942393e-01,0.000000000000000000e+00
8.420000000000000000e+02,6.092626437715479293e-01,0.000000000000000000e+00
8.430000000000000000e+02,-1.680960186928266709e-01,0.000000000000000000e+00
8.440000000000000000e+02,2.193824037264187690e-02,0.000000000000000000e+00
8.450000000000000000e+02,2.219923977770417445e-01,0.000000000000000000e+00
8.460000000000000000e+02,5.343888148727755638e-01,0.000000000000000000e+00
8.470000000000000000e+02,-1.985021731415455848e-01,0.000000000000000000e+00
8.480000000000000000e+02,5.569765634402978893e-01,0.000000000000000000e+00
8.490000000000000000e+02,1.233561198580784418e-01,0.000000000000000000e+00
8.500000000000000000e+02,2.606294092735659818e-01,0.000000000000000000e+00
8.510000000000000000e+02,3.618535315739808689e-01,0.000000000000000000e+00
8.520000000000000000e+02,6.760537647110667070e-01,0.000000000000000000e+00
8.530000000000000000e+02,3.229647666183985133e-01,0.000000000000000000e+00
8.540000000000000000e+02,4.689114329517930502e-01,0.000000000000000000e+00
8.550000000000000000e+02,-1.302137752410124916e-01,0.000000000000000000e+00
8.560000000000000000e+02,1.186450714485958624e+00,0.000000000000000000e+00
8.570000000000000000e+02,-1.815070499302839577e-02,0.000000000000000000e+00
8.580000000000000000e+02,1.054784567233961301e+00,0.000000000000000000e+00
8.590000000000000000e+02,2.175985172261415135e-01,0.000000000000000000e+00
8.600000000000000000e+02,-1.421977966084396472e-01,0.000000000000000000e+00
8.610000000000000000e+02,4.451516969411376673e-02,0.000000000000000000e+00
8.620000000000000000e+02,4.597046014265718933e-02,0.000000000000000000e+00
8.630000000000000000e+02,4.994477407022440141e-01,0.000000000000000000e+00
8.640000000000000000e+02,5.535747902283541855e+00,0.000000000000000000e+00
8.650000000000000000e+02,1.505128459417035769e+00,1.000000000000000000e+00
8.660000000000000000e+02,-2.567461215126488394e+00,0.000000000000000000e+00
8.670000000000000000e+02,4.338114870621642173e-03,0.000000000000000000e+00
8.680000000000000000e+02,-8.128629467183335899e-01,0.000000000000000000e+00
8.690000000000000000e+02,-3.407007430298764628e-01,0.000000000000000000e+00
8.700000000000000000e+02,-4.434390309507154626e-01,0.000000000000000000e+00
8.710000000000000000e+02,-2.530435648217834177e-01,0.000000000000000000e+00
8.720000000000000000e+02,-2.607778323118476460e-01,0.000000000000000000e+00
8.730000000000000000e+02,-1.467028674047839709e-01,0.000000000000000000e+00
8.740000000000000000e+02,-2.672438196903853536e-01,0.000000000000000000e+00
8.750000000000000000e+02,3.274510151651346956e-01,0.000000000000000000e+00
8.760000000000000000e+02,3.586428478405273568e-02,0.000000000000000000e+00
8.770000000000000000e+02,1.298939085489727308e-01,0.000000000000000000e+00
8.780000000000000000e+02,5.694878175916595620e-01,0.000000000000000000e+00
8.790000000000000000e+02,7.637821240491268204e-01,0.000000000000000000e+00
8.800000000000000000e+02,1.165886774590102926e+00,0.000000000000000000e+00
8.810000000000000000e+02,1.037803272711229852e+00,0.000000000000000000e+00
8.820000000000000000e+02,1.112461215691823435e+00,0.000000000000000000e+00
8.830000000000000000e+02,1.060653322928275744e+00,0.000000000000000000e+00
8.840000000000000000e+02,8.883834414001813284e-01,0.000000000000000000e+00
8.850000000000000000e+02,-5.240224472666856759e-01,0.000000000000000000e+00
8.860000000000000000e+02,-8.608054201511773362e-01,0.000000000000000000e+00
8.870000000000000000e+02,-1.388703650531214251e+00,0.000000000000000000e+00
8.880000000000000000e+02,-1.255725401215781911e+00,0.000000000000000000e+00
8.890000000000000000e+02,-1.138202818015067175e+00,0.000000000000000000e+00
8.900000000000000000e+02,-1.409347455676343230e+00,0.000000000000000000e+00
8.910000000000000000e+02,-8.041480628820664167e-01,0.000000000000000000e+00
8.920000000000000000e+02,-1.070820682203033947e+00,0.000000000000000000e+00
8.930000000000000000e+02,-1.173529499551269950e+00,0.000000000000000000e+00
8.940000000000000000e+02,-3.662725119545309771e-01,0.000000000000000000e+00
8.950000000000000000e+02,-7.434926525864373748e-01,0.000000000000000000e+00
8.960000000000000000e+02,-4.229972804823796118e-01,0.000000000000000000e+00
8.970000000000000000e+02,-5.012556478444979424e-01,0.000000000000000000e+00
8.980000000000000000e+02,-6.902332837440889879e-01,0.000000000000000000e+00
8.990000000000000000e+02,-4.305968287652586213e-01,0.000000000000000000e+00
9.000000000000000000e+02,-3.160184766702415216e-01,0.000000000000000000e+00
9.010000000000000000e+02,-1.520011611196356305e-01,0.000000000000000000e+00
9.020000000000000000e+02,-1.896611685530859015e-01,0.000000000000000000e+00
9.030000000000000000e+02,-4.853982183206701495e-01,0.000000000000000000e+00
9.040000000000000000e+02,-1.222152385319688894e-01,0.000000000000000000e+00
9.050000000000000000e+02,9.125573714205914566e-02,0.000000000000000000e+00
9.060000000000000000e+02,-2.390686749546457046e-01,0.000000000000000000e+00
9.070000000000000000e+02,-1.708311462604102104e-01,0.000000000000000000e+00
9.080000000000000000e+02,3.746581852635743060e-01,0.000000000000000000e+00
9.090000000000000000e+02,-1.734505548797916630e-01,0.000000000000000000e+00
9.100000000000000000e+02,2.376003324437792885e-01,0.000000000000000000e+00
9.110000000000000000e+02,-3.697350998010701106e-01,0.000000000000000000e+00
9.120000000000000000e+02,2.795854079691368899e-01,0.000000000000000000e+00
9.130000000000000000e+02,5.058431468002381193e-01,0.000000000000000000e+00
9.140000000000000000e+02,5.511775388996629360e-02,0.000000000000000000e+00
9.150000000000000000e+02,1.626807306101577810e-01,0.000000000000000000e+00
9.160000000000000000e+02,4.028350292782959668e-02,0.000000000000000000e+00
9.170000000000000000e+02,2.809552531364241656e-01,0.000000000000000000e+00
9.180000000000000000e+02,1.989234879834385905e-01,0.000000000000000000e+00
9.190000000000000000e+02,3.282721408084012804e-01,0.000000000000000000e+00
9.200000000000000000e+02,3.614245202806043999e-01,0.000000000000000000e+00
9.210000000000000000e+02,3.053398003727536003e-01,0.000000000000000000e+00
9.220000000000000000e+02,1.729228916428468266e-01,0.000000000000000000e+00
9.230000000000000000e+02,2.541172700292554376e-01,0.000000000000000000e+00
9.240000000000000000e+02,2.915651135844192776e-01,0.000000000000000000e+00
9.250000000000000000e+02,4.457186032687412980e-01,0.000000000000000000e+00
9.260000000000000000e+02,4.585142764870829279e-01,0.000000000000000000e+00
9.270000000000000000e+02,6.174506577068443747e-01,0.000000000000000000e+00
9.280000000000000000e+02,6.609345644040662826e-01,0.000000000000000000e+00
9.290000000000000000e+02,-3.793892325765364781e-02,0.000000000000000000e+00
9.300000000000000000e+02,2.127336564655119278e-01,0.000000000000000000e+00
9.310000000000000000e+02,-4.935022579643382201e-01,0.000000000000000000e+00
9.320000000000000000e+02,7.721819759568266939e-01,0.000000000000000000e+00
9.330000000000000000e+02,-3.379053014044339776e-01,0.000000000000000000e+00
9.340000000000000000e+02,4.765638086948742469e+00,0.000000000000000000e+00
9.350000000000000000e+02,2.802810722012098577e+00,1.000000000000000000e+00
9.360000000000000000e+02,-3.062714132568735703e+00,0.000000000000000000e+00
9.370000000000000000e+02,-3.884571780532500296e-02,0.000000000000000000e+00
9.380000000000000000e+02,-1.107905066828716034e+00,0.000000000000000000e+00
9.390000000000000000e+02,-1.056662735983436852e-01,0.000000000000000000e+00
9.400000000000000000e+02,-8.811006569359283169e-01,0.000000000000000000e+00
9.410000000000000000e+02,-2.778310239088533362e-01,0.000000000000000000e+00
9.420000000000000000e+02,-4.489510756006931946e-01,0.000000000000000000e+00
9.430000000000000000e+02,-3.143837377120022314e-01,0.000000000000000000e+00
9.440000000000000000e+02,-2.046113218553325397e-01,0.000000000000000000e+00
9.450000000000000000e+02,-4.359338618144716349e-01,0.000000000000000000e+00
9.460000000000000000e+02,1.247463338201363070e-01,0.000000000000000000e+00
9.470000000000000000e+02,-2.364031324733431860e-01,0.000000000000000000e+00
9.480000000000000000e+02,2.139555376016091526e-01,0.000000000000000000e+00
9.490000000000000000e+02,6.232148387416607260e-01,0.000000000000000000e+00
9.500000000000000000e+02,8.933930726920856769e-01,0.000000000000000000e+00
9.510000000000000000e+02,1.392186868259881249e+00,0.000000000000000000e+00
9.520000000000000000e+02,1.170141224929483803e+00,0.000000000000000000e+00
9.530000000000000000e+02,1.674377900942958020e+00,0.000000000000000000e+00
9.540000000000000000e+02,4.037297441973335399e-01,0.000000000000000000e+00
9.550000000000000000e+02,-1.159109640201948233e-01,0.000000000000000000e+00
9.560000000000000000e+02,-7.323542541021565988e-01,0.000000000000000000e+00
9.570000000000000000e+02,-1.269074266670966900e+00,0.000000000000000000e+00
9.580000000000000000e+02,-9.555023487143582406e-01,0.000000000000000000e+00
9.590000000000000000e+02,-1.372854491492159879e+00,0.000000000000000000e+00
9.600000000000000000e+02,-1.069790753598349076e+00,0.000000000000000000e+00
9.610000000000000000e+02,-1.098063293785398464e+00,0.000000000000000000e+00
9.620000000000000000e+02,-8.705758336040243517e-01,0.000000000000000000e+00
9.630000000000000000e+02,-7.938730223693121202e-01,0.000000000000000000e+00
9.640000000000000000e+02,-1.179067086521907726e+00,0.000000000000000000e+00
9.650000000000000000e+02,-6.977789809011575306e-01,0.000000000000000000e+00
9.660000000000000000e+02,-2.949763852917035578e-01,0.000000000000000000e+00
9.670000000000000000e+02,-6.162472132305790717e-01,0.000000000000000000e+00
9.680000000000000000e+02,-5.716029619327019917e-01,0.000000000000000000e+00
9.690000000000000000e+02,-6.358007477400611229e-01,0.000000000000000000e+00
9.700000000000000000e+02,-1.762459784650083350e-01,0.000000000000000000e+00
9.710000000000000000e+02,2.032944088393508486e-01,0.000000000000000000e+00
9.720000000000000000e+02,-4.149387711120601230e-01,0.000000000000000000e+00
9.730000000000000000e+02,2.197224728308521877e-02,0.000000000000000000e+00
9.740000000000000000e+02,5.421676406524880004e-02,0.000000000000000000e+00
9.750000000000000000e+02,-1.739212267993553163e-01,0.000000000000000000e+00
9.760000000000000000e+02,-3.399545732624852101e-02,0.000000000000000000e+00
9.770000000000000000e+02,2.085166091448339143e-01,0.000000000000000000e+00
9.780000000000000000e+02,-4.494941089823941693e-01,0.000000000000000000e+00
9.790000000000000000e+02,2.965494409643412155e-01,0.000000000000000000e+00
9.800000000000000000e+02,2.019728787363896383e-01,0.000000000000000000e+00
9.810000000000000000e+02,2.532491094971919265e-01,0.000000000000000000e+00
9.820000000000000000e+02,1.327867534705459429e-01,0.000000000000000000e+00
9.830000000000000000e+02,2.542803081655582997e-01,0.000000000000000000e+00
9.840000000000000000e+02,3.934700671304756925e-02,0.000000000000000000e+00
9.850000000000000000e+02,3.067743863206324195e-01,0.000000000000000000e+00
9.860000000000000000e+02,2.166341487100065799e-01,0.000000000000000000e+00
9.870000000000000000e+02,3.238616324048272932e-01,0.000000000000000000e+00
9.880000000000000000e+02,-4.149132517433323786e-02,0.000000000000000000e+00
9.890000000000000000e+02,5.263753754205882096e-01,0.000000000000000000e+00
9.900000000000000000e+02,-4.289768487085019594e-02,0.000000000000000000e+00
9.910000000000000000e+02,6.075682166493249214e-01,0.000000000000000000e+00
9.920000000000000000e+02,1.236653282266266529e-01,0.000000000000000000e+00
9.930000000000000000e+02,6.565166261911254963e-01,0.000000000000000000e+00
9.940000000000000000e+02,1.546800096136897451e-01,0.000000000000000000e+00
9.950000000000000000e+02,8.358059301507375638e-01,0.000000000000000000e+00
9.960000000000000000e+02,1.097746489571293921e-01,0.000000000000000000e+00
9.970000000000000000e+02,3.975807928990516271e-01,0.000000000000000000e+00
9.980000000000000000e+02,4.473564218109425394e-01,0.000000000000000000e+00
9.990000000000000000e+02,-1.684112196741231471e-01,0.000000000000000000e+00
1.000000000000000000e+03,1.146317686613399917e-01,0.000000000000000000e+00
1.001000000000000000e+03,2.128265509643398889e-01,0.000000000000000000e+00
1.002000000000000000e+03,-9.657541974378222593e-02,0.000000000000000000e+00
1.003000000000000000e+03,3.954056576597198447e+00,0.000000000000000000e+00
1.004000000000000000e+03,3.450476599888520735e+00,0.000000000000000000e+00
1.005000000000000000e+03,-2.368691607904972685e+00,1.000000000000000000e+00
1.006000000000000000e+03,-7.169244572795313575e-01,0.000000000000000000e+00
1.007000000000000000e+03,-6.220923160053986045e-01,0.000000000000000000e+00
1.008000000000000000e+03,-2.541109406825379780e-01,0.000000000000000000e+00
1.009000000000000000e+03,-9.336367829451861500e-01,0.000000000000000000e+00
1.010000000000000000e+03,-8.629026083242370693e-02,0.000000000000000000e+00
1.011000000000000000e+03,-2.910222660245212478e-01,0.000000000000000000e+00
1.012000000000000000e+03,-4.802465523212831044e-01,0.000000000000000000e+00
1.013000000000000000e+03,-2.088362471182347579e-01,0.000000000000000000e+00
1.014000000000000000e+03,-9.941259917665636048e-02,0.000000000000000000e+00
1.015000000000000000e+03,-2.404541133951395016e-01,0.000000000000000000e+00
1.016000000000000000e+03,4.615565166464929980e-01,0.000000000000000000e+00
1.017000000000000000e+03,3.196853298464252813e-01,0.000000000000000000e+00
1.018000000000000000e+03,5.060945375035553750e-01,0.000000000000000000e+00
1.019000000000000000e+03,7.813149201661613308e-01,0.000000000000000000e+00
1.020000000000000000e+03,1.084400674056789970e+00,0.000000000000000000e+00
1.021000000000000000e+03,1.375279950764033865e+00,0.000000000000000000e+00
1.022000000000000000e+03,1.350114093004544991e+00,0.000000000000000000e+00
1.023000000000000000e+03,9.335006342672351742e-01,0.000000000000000000e+00
1.024000000000000000e+03,-4.181164666020806830e-01,0.000000000000000000e+00
1.025000000000000000e+03,-1.059974105767458985e+00,0.000000000000000000e+00
1.026000000000000000e+03,-7.470889783516098115e-01,0.000000000000000000e+00
1.027000000000000000e+03,-1.413478713086685490e+00,0.000000000000000000e+00
1.028000000000000000e+03,-1.284998032233638732e+00,0.000000000000000000e+00
1.029000000000000000e+03,-1.516425064895323027e+00,0.000000000000000000e+00
1.030000000000000000e+03,-7.645205013772444769e-01,0.000000000000000000e+00
1.031000000000000000e+03,-1.518979939768397625e+00,0.000000000000000000e+00
1.032000000000000000e+03,-9.025343973099849704e-01,0.000000000000000000e+00
1.033000000000000000e+03,-9.115360903297585748e-01,0.000000000000000000e+00
1.034000000000000000e+03,-7.367850809228553288e-01,0.000000000000000000e+00
1.035000000000000000e+03,-8.304854891799807737e-01,0.000000000000000000e+00
1.036000000000000000e+03,-5.935579354975906163e-01,0.000000000000000000e+00
1.037000000000000000e+03,-5.066697367253450990e-01,0.000000000000000000e+00
1.038000000000000000e+03,-7.231782580033865870e-02,0.000000000000000000e+00
1.039000000000000000e+03,-4.529403366447196100e-01,0.000000000000000000e+00
1.040000000000000000e+03,-1.855736522162499680e-01,0.000000000000000000e+00
1.041000000000000000e+03,-5.243788654833237972e-01,0.000000000000000000e+00
1.042000000000000000e+03,7.049388352086179144e-02,0.000000000000000000e+00
1.043000000000000000e+03,-4.555661526080503343e-01,0.000000000000000000e+00
1.044000000000000000e+03,-1.271161161684150089e-02,0.000000000000000000e+00
1.045000000000000000e+03,9.245222530544615347e-02,0.000000000000000000e+00
1.046000000000000000e+03,-1.241785345060411327e-01,0.000000000000000000e+00
1.047000000000000000e+03,2.705753315742606135e-01,0.000000000000000000e+00
1.048000000000000000e+03,9.309877222964776933e-02,0.000000000000000000e+00
1.049000000000000000e+03,1.260208762962314599e-01,0.000000000000000000e+00
1.050000000000000000e+03,1.242354196283948914e-01,0.000000000000000000e+00
1.051000000000000000e+03,2.771003456166405421e-01,0.000000000000000000e+00
1.052000000000000000e+03,1.591847208476585840e-01,0.000000000000000000e+00
1.053000000000000000e+03,4.051699041639754695e-01,0.000000000000000000e+00
1.054000000000000000e+03,-2.737455006632442123e-01,0.000000000000000000e+00
1.055000000000000000e+03,4.343731406620533475e-01,0.000000000000000000e+00
1.056000000000000000e+03,9.650095753320715730e-02,0.000000000000000000e+00
1.057000000000000000e+03,5.569473923493964973e-01,0.000000000000000000e+00
1.058000000000000000e+03,2.427147616850626743e-01,0.000000000000000000e+00
1.059000000000000000e+03,4.018797736182168068e-01,0.000000000000000000e+00
1.060000000000000000e+03,5.626759067616586840e-01,0.000000000000000000e+00
1.061000000000000000e+03,4.054309555929195424e-02,0.000000000000000000e+00
1.062000000000000000e+03,9.079603330356416091e-01,0.000000000000000000e+00
1.063000000000000000e+03,3.626364009995751148e-01,0.000000000000000000e+00
1.064000000000000000e+03,6.433111238731219483e-01,0.000000000000000000e+00
1.065000000000000000e+03,5.042190070920837819e-01,0.000000000000000000e+00
1.066000000000000000e+03,3.961252388351401144e-01,0.000000000000000000e+00
1.067000000000000000e+03,1.223310925109840491e-01,0.000000000000000000e+00
1.068000000000000000e+03,-1.113815985471950376e-01,0.000000000000000000e+00
1.069000000000000000e+03,1.057557124821772582e-01,0.000000000000000000e+00
1.070000000000000000e+03,7.355296538102443771e-01,0.000000000000000000e+00
1.071000000000000000e+03,5.470610972876763789e+00,0.000000000000000000e+00
1.072000000000000000e+03,9.312946953998818556e-01,1.000000000000000000e+00
1.073000000000000000e+03,-1.995522242963246873e+00,0.000000000000000000e+00
1.074000000000000000e+03,-2.671454590292179909e-01,0.000000000000000000e+00
1.075000000000000000e+03,-4.642268360270755401e-01,0.000000000000000000e+00
1.076000000000000000e+03,-3.531789616868497572e-01,0.000000000000000000e+00
1.077000000000000000e+03,-6.050963022962065896e-01,0.000000000000000000e+00
1.078000000000000000e+03,-3.508801278095703968e-01,0.000000000000000000e+00
1.079000000000000000e+03,-3.694280506617007021e-01,0.000000000000000000e+00
1.080000000000000000e+03,-1.834160605211099804e-01,0.000000000000000000e+00
1.081000000000000000e+03,-2.435558035358882656e-01,0.000000000000000000e+00
1.082000000000000000e+03,8.230549009341508668e-03,0.000000000000000000e+00
1.083000000000000000e+03,1.314437271354384207e-01,0.000000000000000000e+00
1.084000000000000000e+03,3.652470005451278201e-01,0.000000000000000000e+00
1.085000000000000000e+03,4.462468561852098170e-01,0.000000000000000000e+00
1.086000000000000000e+03,5.245202016052381566e-01,0.000000000000000000e+00
1.087000000000000000e+03,1.197578375258743888e+00,0.000000000000000000e+00
1.088000000000000000e+03,1.332612292356148975e+00,0.000000000000000000e+00
1.089000000000000000e+03,1.245237607386745271e+00,0.000000000000000000e+00
1.090000000000000000e+03,1.172020512116639823e+00,0.000000000000000000e+00
1.091000000000000000e+03,3.139825367279734936e-01,0.000000000000000000e+00
1.092000000000000000e+03,-3.285412922453628815e-01,0.000000000000000000e+00
1.093000000000000000e+03,-9.596720124719998468e-01,0.000000000000000000e+00
1.094000000000000000e+03,-1.327657225366298377e+00,0.000000000000000000e+00
1.095000000000000000e+03,-9.331275936043863517e-01,0.000000000000000000e+00
1.096000000000000000e+03,-1.041792248140094967e+00,0.000000000000000000e+00
1.097000000000000000e+03,-1.082348919392559727e+00,0.000000000000000000e+00
1.098000000000000000e+03,-1.464072346626349663e+00,0.000000000000000000e+00
1.099000000000000000e+03,-7.379445593151594540e-01,0.000000000000000000e+00
1.100000000000000000e+03,-1.103874720692036515e+00,0.000000000000000000e+00
1.101000000000000000e+03,-4.310192536618709935e-01,0.000000000000000000e+00
1.102000000000000000e+03,-9.656569077264786083e-01,0.000000000000000000e+00
1.103000000000000000e+03,-5.233505323645827323e-01,0.000000000000000000e+00
1.104000000000000000e+03,-4.218013852435872901e-01,0.000000000000000000e+00
1.105000000000000000e+03,-6.857141527163301831e-01,0.000000000000000000e+00
1.106000000000000000e+03,-5.275110209981951348e-01,0.000000000000000000e+00
1.107000000000000000e+03,-2.893457736120708668e-01,0.000000000000000000e+00
1.108000000000000000e+03,-4.482868265729211266e-01,0.000000000000000000e+00
1.109000000000000000e+03,-1.435599228181987375e-01,0.000000000000000000e+00
1.110000000000000000e+03,-1.850491313393430315e-01,0.000000000000000000e+00
1.111000000000000000e+03,-9.008685752000690494e-02,0.000000000000000000e+00
1.112000000000000000e+03,-1.866055566473749094e-01,0.000000000000000000e+00
1.113000000000000000e+03,-2.280170133832958024e-01,0.000000000000000000e+00
1.114000000000000000e+03,3.094364481448296234e-01,0.000000000000000000e+00
1.115000000000000000e+03,-8.943085307934081629e-02,0.000000000000000000e+00
1.116000000000000000e+03,-7.339216452387978262e-02,0.000000000000000000e+00
1.117000000000000000e+03,2.563918586319239856e-01,0.000000000000000000e+00
1.118000000000000000e+03,5.367916996341532548e-02,0.000000000000000000e+00
1.119000000000000000e+03,1.151154898844607699e-01,0.000000000000000000e+00
1.120000000000000000e+03,4.640894656269280438e-01,0.000000000000000000e+00
1.121000000000000000e+03,2.321874495038225850e-02,0.000000000000000000e+00
1.122000000000000000e+03,3.788383382404237470e-02,0.000000000000000000e+00
1.123000000000000000e+03,4.331290621609132363e-01,0.000000000000000000e+00
1.124000000000000000e+03,-2.643630852299585360e-02,0.000000000000000000e+00
1.125000000000000000e+03,3.514694354681141553e-01,0.000000000000000000e+00
1.126000000000000000e+03,2.538695361906678216e-01,0.000000000000000000e+00
1.127000000000000000e+03,3.441116143492527479e-01,0.000000000000000000e+00
1.128000000000000000e+03,3.091844827779824390e-01,0.000000000000000000e+00
1.129000000000000000e+03,7.817882161154401377e-01,0.000000000000000000e+00
1.130000000000000000e+03,3.682894713479066273e-01,0.000000000000000000e+00
1.131000000000000000e+03,1.900808257457821671e-01,0.000000000000000000e+00
1.132000000000000000e+03,4.325200205555450594e-01,0.000000000000000000e+00
1.133000000000000000e+03,-1.697863608815688430e-01,0.000000000000000000e+00
1.134000000000000000e+03,1.010759534292111489e-01,0.000000000000000000e+00
1.135000000000000000e+03,-2.690295534554646983e-01,0.000000000000000000e+00
1.136000000000000000e+03,1.599165337999396641e+00,0.000000000000000000e+00
1.137000000000000000e+03,5.151062599375153539e+00,0.000000000000000000e+00
1.138000000000000000e+03,1.355267912257745663e-02,1.000000000000000000e+00
1.139000000000000000e+03,-1.756025724228747142e+00,0.000000000000000000e+00
1.140000000000000000e+03,-1.756299459633889337e-01,0.000000000000000000e+00
1.141000000000000000e+03,-7.100114848481178242e-01,0.000000000000000000e+00
1.142000000000000000e+03,-5.534846453672008781e-01,0.000000000000000000e+00
1.143000000000000000e+03,-4.000936900473768265e-01,0.000000000000000000e+00
1.144000000000000000e+03,-3.268900708792862875e-01,0.000000000000000000e+00
1.145000000000000000e+03,-4.714180684641751662e-01,0.000000000000000000e+00
1.146000000000000000e+03,-7.651806026603696909e-02,0.000000000000000000e+00
1.147000000000000000e+03,4.870421626221380085e-02,0.000000000000000000e+00
1.148000000000000000e+03,-1.377175171391889497e-01,0.000000000000000000e+00
1.149000000000000000e+03,-2.732731167891615520e-01,0.000000000000000000e+00
1.150000000000000000e+03,6.353224824921080982e-01,0.000000000000000000e+00
1.151000000000000000e+03,5.571959787783556939e-01,0.000000000000000000e+00
1.152000000000000000e+03,4.697155762499320431e-01,0.000000000000000000e+00
1.153000000000000000e+03,1.438235304277895032e+00,0.000000000000000000e+00
1.154000000000000000e+03,7.279798733396574129e-01,0.000000000000000000e+00
1.155000000000000000e+03,1.365806898340265807e+00,0.000000000000000000e+00
1.156000000000000000e+03,1.417476362941080703e+00,0.000000000000000000e+00
1.157000000000000000e+03,2.979864741752590307e-01,0.000000000000000000e+00
1.158000000000000000e+03,-6.121291733884757225e-01,0.000000000000000000e+00
1.159000000000000000e+03,-9.132543771839216618e-01,0.000000000000000000e+00
1.160000000000000000e+03,-1.446589915657097158e+00,0.000000000000000000e+00
1.161000000000000000e+03,-1.080130007520995861e+00,0.000000000000000000e+00
1.162000000000000000e+03,-7.548471761330461938e-01,0.000000000000000000e+00
1.163000000000000000e+03,-1.434105347881982073e+00,0.000000000000000000e+00
1.164000000000000000e+03,-7.784886808064005459e-01,0.000000000000000000e+00
1.165000000000000000e+03,-1.031916911048106344e+00,0.000000000000000000e+00
1.166000000000000000e+03,-9.622781782919717086e-01,0.000000000000000000e+00
1.167000000000000000e+03,-8.109042574636288192e-01,0.000000000000000000e+00
1.168000000000000000e+03,-5.088333728289018421e-01,0.000000000000000000e+00
1.169000000000000000e+03,-3.141783080668588690e-01,0.000000000000000000e+00
1.170000000000000000e+03,-4.444492942794241452e-01,0.000000000000000000e+00
1.171000000000000000e+03,-5.083912329075207515e-01,0.000000000000000000e+00
1.172000000000000000e+03,-5.804265815692082747e-02,0.000000000000000000e+00
1.173000000000000000e+03,-5.504922329742709675e-01,0.000000000000000000e+00
1.174000000000000000e+03,1.685315401536265634e-01,0.000000000000000000e+00
1.175000000000000000e+03,-2.605779926838703298e-01,0.000000000000000000e+00
1.176000000000000000e+03,-6.711168329192024329e-02,0.000000000000000000e+00
1.177000000000000000e+03,-9.243257198429330468e-02,0.000000000000000000e+00
1.178000000000000000e+03,4.671681611173088000e-01,0.000000000000000000e+00
1.179000000000000000e+03,1.763640603238680327e-01,0.000000000000000000e+00
1.180000000000000000e+03,9.834764386116019719e-02,0.000000000000000000e+00
1.181000000000000000e+03,1.714590404553870406e-01,0.000000000000000000e+00
1.182000000000000000e+03,2.031556806106368102e-02,0.000000000000000000e+00
1.183000000000000000e+03,3.722264341658726439e-01,0.000000000000000000e+00
1.184000000000000000e+03,-2.309973974239520056e-01,0.000000000000000000e+00
1.185000000000000000e+03,1.073747942300320002e+00,0.000000000000000000e+00
1.186000000000000000e+03,-2.236641340454869342e-01,0.000000000000000000e+00
1.187000000000000000e+03,6.731372491946590042e-01,0.000000000000000000e+00
1.188000000000000000e+03,-6.639851693930373666e-02,0.000000000000000000e+00
1.189000000000000000e+03,3.754818740731540316e-01,0.000000000000000000e+00
1.190000000000000000e+03,6.156137822602496534e-01,0.000000000000000000e+00
1.191000000000000000e+03,-7.272518885046894144e-02,0.000000000000000000e+00
1.192000000000000000e+03,1.280037166331108867e-01,0.000000000000000000e+00
1.193000000000000000e+03,7.307105714274869657e-01,0.000000000000000000e+00
1.194000000000000000e+03,-1.612330518969224691e-01,0.000000000000000000e+00
1.195000000000000000e+03,5.484312842876838401e-01,0.000000000000000000e+00
1.196000000000000000e+03,2.713506086639426162e-01,0.000000000000000000e+00
1.197000000000000000e+03,2.875605298417990840e-01,0.000000000000000000e+00
1.198000000000000000e+03,9.679965633771170364e-02,0.000000000000000000e+00
1.199000000000000000e+03,7.672086925986443262e-01,0.000000000000000000e+00
1.200000000000000000e+03,1.943295926454700617e-01,0.000000000000000000e+00
1.201000000000000000e+03,6.438355875788198679e-01,0.000000000000000000e+00
1.202000000000000000e+03,2.127653100011895129e-02,0.000000000000000000e+00
1.203000000000000000e+03,-1.940187105180621041e-01,0.000000000000000000e+00
1.204000000000000000e+03,-2.666911280594138622e-01,0.000000000000000000e+00
1.205000000000000000e+03,5.870103019035242120e-01,0.000000000000000000e+00
1.206000000000000000e+03,-4.966548422510592142e-01,0.000000000000000000e+00
1.207000000000000000e+03,4.499992026903818498e+00,0.000000000000000000e+00
1.208000000000000000e+03,2.487741597542307836e+00,1.000000000000000000e+00
1.209000000000000000e+03,-2.548094510402924229e+00,0.000000000000000000e+00
1.210000000000000000e+03,-6.331668578021273364e-01,0.000000000000000000e+00
1.211000000000000000e+03,-7.020383906992720968e-01,0.000000000000000000e+00
1.212000000000000000e+03,-5.848345524865212752e-01,0.000000000000000000e+00
1.213000000000000000e+03,-7.994771915209891722e-01,0.000000000000000000e+00
1.214000000000000000e+03,-4.054711750702094109e-01,0.000000000000000000e+00
1.215000000000000000e+03,-6.668033511272252190e-01,0.000000000000000000e+00
1.216000000000000000e+03,-5.189203426115889251e-01,0.000000000000000000e+00
1.217000000000000000e+03,-1.798636569073844005e-01,0.000000000000000000e+00
1.218000000000000000e+03,-3.436295971003308636e-01,0.000000000000000000e+00
1.219000000000000000e+03,-4.987125827410460732e-01,0.000000000000000000e+00
1.220000000000000000e+03,5.426369010324079423e-02,0.000000000000000000e+00
1.221000000000000000e+03,7.508436270250481437e-01,0.000000000000000000e+00
1.222000000000000000e+03,3.439196358569599488e-01,0.000000000000000000e+00
1.223000000000000000e+03,9.568738557668338141e-01,0.000000000000000000e+00
1.224000000000000000e+03,9.120276124509562043e-01,0.000000000000000000e+00
1.225000000000000000e+03,1.605682006507854309e+00,0.000000000000000000e+00
1.226000000000000000e+03,6.298270468647266807e-01,0.000000000000000000e+00
1.227000000000000000e+03,8.583081280361217758e-01,0.000000000000000000e+00
1.228000000000000000e+03,-4.592244984159450927e-01,0.000000000000000000e+00
1.229000000000000000e+03,-6.835457349599225463e-01,0.000000000000000000e+00
1.230000000000000000e+03,-1.131648810970316887e+00,0.000000000000000000e+00
1.231000000000000000e+03,-1.419713043902564698e+00,0.000000000000000000e+00
1.232000000000000000e+03,-1.509700507059164920e+00,0.000000000000000000e+00
1.233000000000000000e+03,-1.169958951525372770e+00,0.000000000000000000e+00
1.234000000000000000e+03,-1.219594492580381218e+00,0.000000000000000000e+00
1.235000000000000000e+03,-1.144117703241570361e+00,0.000000000000000000e+00
1.236000000000000000e+03,-1.017983530315164309e+00,0.000000000000000000e+00
1.237000000000000000e+03,-1.056315383435964872e+00,0.000000000000000000e+00
1.238000000000000000e+03,-4.919141349259927298e-01,0.000000000000000000e+00
1.239000000000000000e+03,-6.496975866474220540e-01,0.000000000000000000e+00
1.240000000000000000e+03,-6.906591901385236154e-01,0.000000000000000000e+00
1.241000000000000000e+03,-6.614789749631601046e-01,0.000000000000000000e+00
1.242000000000000000e+03,-3.271003930753627054e-01,0.000000000000000000e+00
1.243000000000000000e+03,-3.316592106042144383e-01,0.000000000000000000e+00
1.244000000000000000e+03,-5.283379125646514574e-01,0.000000000000000000e+00
1.245000000000000000e+03,4.886065304071301324e-02,0.000000000000000000e+00
1.246000000000000000e+03,2.599137355947237632e-02,0.000000000000000000e+00
1.247000000000000000e+03,-3.228782898644047550e-01,0.000000000000000000e+00
1.248000000000000000e+03,-1.328205932628906960e-01,0.000000000000000000e+00
1.249000000000000000e+03,1.047998544346766120e-01,0.000000000000000000e+00
1.250000000000000000e+03,-2.255639922932159980e-01,0.000000000000000000e+00
1.251000000000000000e+03,3.279295935118741179e-01,0.000000000000000000e+00
1.252000000000000000e+03,3.808017665540087970e-02,0.000000000000000000e+00
1.253000000000000000e+03,-9.341500632628270059e-03,0.000000000000000000e+00
1.254000000000000000e+03,3.622546382269236642e-01,0.000000000000000000e+00
1.255000000000000000e+03,3.558630887932400788e-01,0.000000000000000000e+00
1.256000000000000000e+03,1.486997643927843449e-01,0.000000000000000000e+00
1.257000000000000000e+03,3.886823255627511187e-01,0.000000000000000000e+00
1.258000000000000000e+03,5.378682836164089265e-01,0.000000000000000000e+00
1.259000000000000000e+03,-3.054215635690020747e-01,0.000000000000000000e+00
1.260000000000000000e+03,6.392679763296991169e-01,0.000000000000000000e+00
1.261000000000000000e+03,3.352028196967954399e-01,0.000000000000000000e+00
1.262000000000000000e+03,4.304143871726208714e-01,0.000000000000000000e+00
1.263000000000000000e+03,5.885376557083760174e-01,0.000000000000000000e+00
1.264000000000000000e+03,4.041426858184887227e-01,0.000000000000000000e+00
1.265000000000000000e+03,4.022439319489555798e-01,0.000000000000000000e+00
1.266000000000000000e+03,5.410140619935990269e-01,0.000000000000000000e+00
1.267000000000000000e+03,1.045222491035916024e+00,0.000000000000000000e+00
1.268000000000000000e+03,4.080648886455703339e-01,0.000000000000000000e+00
1.269000000000000000e+03,4.211433646441763989e-01,0.000000000000000000e+00
1.270000000000000000e+03,-1.942869698882376261e-01,0.000000000000000000e+00
1.271000000000000000e+03,6.442698822470299680e-01,0.000000000000000000e+00
1.272000000000000000e+03,-7.249920547000132665e-02,0.000000000000000000e+00
1.273000000000000000e+03,3.920216266487438705e+00,0.000000000000000000e+00
1.274000000000000000e+03,4.049700175008194236e+00,0.000000000000000000e+00
1.275000000000000000e+03,-2.071489449011108430e+00,1.000000000000000000e+00
1.276000000000000000e+03,-7.577352842652791409e-01,0.000000000000000000e+00
1.277000000000000000e+03,-1.833484284540291276e-01,0.000000000000000000e+00
1.278000000000000000e+03,-3.018565934277081531e-01,0.000000000000000000e+00
1.279000000000000000e+03,-3.518743330285071247e-01,0.000000000000000000e+00
1.280000000000000000e+03,-1.851209508448332097e-01,0.000000000000000000e+00
1.281000000000000000e+03,-2.371409011091120678e-01,0.000000000000000000e+00
1.282000000000000000e+03,-5.331917720426906371e-01,0.000000000000000000e+00
1.283000000000000000e+03,4.310348369789197831e-02,0.000000000000000000e+00
1.284000000000000000e+03,-1.335912834074669264e-02,0.000000000000000000e+00
1.285000000000000000e+03,-1.995828999527538283e-01,0.000000000000000000e+00
1.286000000000000000e+03,2.641381452100047822e-01,0.000000000000000000e+00
1.287000000000000000e+03,3.920531989358432834e-01,0.000000000000000000e+00
1.288000000000000000e+03,9.046033859914097697e-01,0.000000000000000000e+00
1.289000000000000000e+03,8.986173782752046035e-01,0.000000000000000000e+00
1.290000000000000000e+03,8.557739583053447507e-01,0.000000000000000000e+00
1.291000000000000000e+03,1.324361990010661128e+00,0.000000000000000000e+00
1.292000000000000000e+03,1.151974770165444584e+00,0.000000000000000000e+00
1.293000000000000000e+03,8.997282592828087511e-01,0.000000000000000000e+00
1.294000000000000000e+03,-8.467828576150679409e-02,0.000000000000000000e+00
1.295000000000000000e+03,-8.810211034152642950e-01,0.000000000000000000e+00
1.296000000000000000e+03,-1.115409625956145900e+00,0.000000000000000000e+00
1.297000000000000000e+03,-1.136869342121114013e+00,0.000000000000000000e+00
1.298000000000000000e+03,-1.333423818394469551e+00,0.000000000000000000e+00
1.299000000000000000e+03,-1.051097606801152606e+00,0.000000000000000000e+00
1.300000000000000000e+03,-1.067364403028145947e+00,0.000000000000000000e+00
1.301000000000000000e+03,-1.091547049961236082e+00,0.000000000000000000e+00
1.302000000000000000e+03,-8.709457910689667459e-01,0.000000000000000000e+00
1.303000000000000000e+03,-1.005843282232859348e+00,0.000000000000000000e+00
1.304000000000000000e+03,-3.960611195034479670e-01,0.000000000000000000e+00
1.305000000000000000e+03,-7.870142720663179103e-01,0.000000000000000000e+00
1.306000000000000000e+03,-4.310897266015681906e-01,0.000000000000000000e+00
1.307000000000000000e+03,-6.378574691544353081e-01,0.000000000000000000e+00
1.308000000000000000e+03,-6.409632263925048035e-01,0.000000000000000000e+00
1.309000000000000000e+03,-1.750852848631408165e-02,0.000000000000000000e+00
1.310000000000000000e+03,-4.207943736332130369e-01,0.000000000000000000e+00
1.311000000000000000e+03,-2.962240374697103218e-01,0.000000000000000000e+00
1.312000000000000000e+03,1.187615578842270425e-01,0.000000000000000000e+00
1.313000000000000000e+03,-1.798485978735726021e-01,0.000000000000000000e+00
1.314000000000000000e+03,-2.764304403945172517e-01,0.000000000000000000e+00
1.315000000000000000e+03,3.447677447535306139e-01,0.000000000000000000e+00
1.316000000000000000e+03,-2.980735876957732455e-01,0.000000000000000000e+00
1.317000000000000000e+03,-5.978509118139344741e-02,0.000000000000000000e+00
1.318000000000000000e+03,3.582648764467380453e-01,0.000000000000000000e+00
1.319000000000000000e+03,-4.678087300509582019e-02,0.000000000000000000e+00
1.320000000000000000e+03,6.065883786717614079e-01,0.000000000000000000e+00
1.321000000000000000e+03,-5.678136131341009474e-01,0.000000000000000000e+00
1.322000000000000000e+03,5.476495350399978035e-01,0.000000000000000000e+00
1.323000000000000000e+03,2.090569242882382717e-01,0.000000000000000000e+00
1.324000000000000000e+03,4.171207363110025768e-02,0.000000000000000000e+00
1.325000000000000000e+03,6.390875100987783997e-01,0.000000000000000000e+00
1.326000000000000000e+03,2.355914709619418845e-01,0.000000000000000000e+00
1.327000000000000000e+03,5.209584873121136245e-02,0.000000000000000000e+00
1.328000000000000000e+03,6.882295694306503897e-01,0.000000000000000000e+00
1.329000000000000000e+03,-2.818992783773865418e-01,0.000000000000000000e+00
1.330000000000000000e+03,5.702750877794913187e-01,0.000000000000000000e+00
1.331000000000000000e+03,5.084836738745547313e-01,0.000000000000000000e+00
1.332000000000000000e+03,1.559957553688033349e-01,0.000000000000000000e+00
1.333000000000000000e+03,4.816451894145768603e-02,0.000000000000000000e+00
1.334000000000000000e+03,1.280631901201993161e-01,0.000000000000000000e+00
1.335000000000000000e+03,4.665452718595734516e-01,0.000000000000000000e+00
1.336000000000000000e+03,5.466024102689495123e-01,0.000000000000000000e+00
1.337000000000000000e+03,2.458539102653801989e-02,0.000000000000000000e+00
1.338000000000000000e+03,6.647054749213638924e-01,0.000000000000000000e+00
1.339000000000000000e+03,-1.672053721984982644e-01,0.000000000000000000e+00
1.340000000000000000e+03,-2.214285654849066087e-01,0.000000000000000000e+00
1.341000000000000000e+03,4.506531149013298654e-01,0.000000000000000000e+00
1.342000000000000000e+03,-5.664568834576659551e-02,0.000000000000000000e+00
1.343000000000000000e+03,1.778948532277034866e+00,0.000000000000000000e+00
1.344000000000000000e+03,5.113320721047061035e+00,0.000000000000000000e+00
1.345000000000000000e+03,-1.095095310471188021e+00,1.000000000000000000e+00
1.346000000000000000e+03,-1.511997005353955759e+00,0.000000000000000000e+00
1.347000000000000000e+03,-4.619053414723721662e-01,0.000000000000000000e+00
1.348000000000000000e+03,-8.315224556326056282e-01,0.000000000000000000e+00
1.349000000000000000e+03,-5.605429904715923950e-01,0.000000000000000000e+00
1.350000000000000000e+03,-8.112388122624589748e-01,0.000000000000000000e+00
1.351000000000000000e+03,-1.343572676563613011e-01,0.000000000000000000e+00
1.352000000000000000e+03,-9.954407681914985428e-02,0.000000000000000000e+00
1.353000000000000000e+03,-6.206344825338557802e-01,0.000000000000000000e+00
1.354000000000000000e+03,-5.277680770766539631e-01,0.000000000000000000e+00
1.355000000000000000e+03,3.093315132640312229e-02,0.000000000000000000e+00
1.356000000000000000e+03,-1.255286746981737200e-01,0.000000000000000000e+00
1.357000000000000000e+03,5.908797849139753033e-01,0.000000000000000000e+00
1.358000000000000000e+03,-2.069988173442787460e-01,0.000000000000000000e+00
1.359000000000000000e+03,7.383607685586711655e-01,0.000000000000000000e+00
1.360000000000000000e+03,1.277568345651204362e+00,0.000000000000000000e+00
1.361000000000000000e+03,8.243307220028798232e-01,0.000000000000000000e+00
1.362000000000000000e+03,1.933076692643729499e+00,0.000000000000000000e+00
1.363000000000000000e+03,9.359257155205363832e-01,0.000000000000000000e+00
1.364000000000000000e+03,2.364280876454261104e-02,0.000000000000000000e+00
1.365000000000000000e+03,-3.565805666103593063e-01,0.000000000000000000e+00
1.366000000000000000e+03,-1.115046922227046267e+00,0.000000000000000000e+00
1.367000000000000000e+03,-1.236768135563486748e+00,0.000000000000000000e+00
1.368000000000000000e+03,-8.418239034784816832e-01,0.000000000000000000e+00
1.369000000000000000e+03,-1.444024045643428122e+00,0.000000000000000000e+00
1.370000000000000000e+03,-9.413603011919585706e-01,0.000000000000000000e+00
1.371000000000000000e+03,-9.992693770552052435e-01,0.000000000000000000e+00
1.372000000000000000e+03,-1.124491753236783076e+00,0.000000000000000000e+00
1.373000000000000000e+03,-9.158471614184998666e-01,0.000000000000000000e+00
1.374000000000000000e+03,-7.409580215134988768e-01,0.000000000000000000e+00
1.375000000000000000e+03,-4.451130332999849171e-01,0.000000000000000000e+00
1.376000000000000000e+03,-6.559193591808444301e-01,0.000000000000000000e+00
1.377000000000000000e+03,-4.681573004153163353e-01,0.000000000000000000e+00
1.378000000000000000e+03,-4.047285033422396427e-01,0.000000000000000000e+00
1.379000000000000000e+03,-1.318734146153863473e-01,0.000000000000000000e+00
1.380000000000000000e+03,-7.080984049914820222e-01,0.000000000000000000e+00
1.381000000000000000e+03,1.997186283026452791e-01,0.000000000000000000e+00
1.382000000000000000e+03,-3.787790836783530568e-01,0.000000000000000000e+00
1.383000000000000000e+03,3.695784083360975636e-02,0.000000000000000000e+00
1.384000000000000000e+03,-4.071840381963931499e-01,0.000000000000000000e+00
1.385000000000000000e+03,-3.713298800747575901e-01,0.000000000000000000e+00
1.386000000000000000e+03,-1.756288398990267583e-04,0.000000000000000000e+00
1.387000000000000000e+03,3.012430851920414598e-01,0.000000000000000000e+00
1.388000000000000000e+03,-1.132266998608268821e-01,0.000000000000000000e+00
1.389000000000000000e+03,4.806068262256533163e-01,0.000000000000000000e+00
1.390000000000000000e+03,-2.249649570916862351e-01,0.000000000000000000e+00
1.391000000000000000e+03,2.912517077832103007e-01,0.000000000000000000e+00
1.392000000000000000e+03,6.316407515505538806e-01,0.000000000000000000e+00
1.393000000000000000e+03,-1.700612894162253641e-01,0.000000000000000000e+00
1.394000000000000000e+03,3.065866488600468842e-01,0.000000000000000000e+00
1.395000000000000000e+03,1.888536371242043599e-01,0.000000000000000000e+00
1.396000000000000000e+03,3.636968944359061408e-03,0.000000000000000000e+00
1.397000000000000000e+03,6.934362339549560161e-01,0.000000000000000000e+00
1.398000000000000000e+03,1.551735315834840423e-01,0.000000000000000000e+00
1.399000000000000000e+03,1.268971125240416775e-01,0.000000000000000000e+00
1.400000000000000000e+03,1.823860629598485494e-01,0.000000000000000000e+00
1.401000000000000000e+03,6.357270043185263564e-01,0.000000000000000000e+00
1.402000000000000000e+03,3.067377758547201183e-01,0.000000000000000000e+00
1.403000000000000000e+03,5.980257511234897683e-01,0.000000000000000000e+00
1.404000000000000000e+03,1.200913143131582678e-01,0.000000000000000000e+00
1.405000000000000000e+03,6.662273061186699818e-01,0.000000000000000000e+00
1.406000000000000000e+03,-2.359048676462142391e-01,0.000000000000000000e+00
1.407000000000000000e+03,-1.445190300258371585e-01,0.000000000000000000e+00
1.408000000000000000e+03,-2.313734200279453923e-01,0.000000000000000000e+00
1.409000000000000000e+03,1.683484037347240114e-01,0.000000000000000000e+00
1.410000000000000000e+03,-2.401015326354260515e-01,0.000000000000000000e+00
1.411000000000000000e+03,4.028364603326341609e+00,0.000000000000000000e+00
1.412000000000000000e+03,3.564210335847767475e+00,0.000000000000000000e+00
1.413000000000000000e+03,-2.653933969042573615e+00,1.000000000000000000e+00
1.414000000000000000e+03,-5.971221312379666468e-01,0.000000000000000000e+00
1.415000000000000000e+03,-5.153026493946681885e-01,0.000000000000000000e+00
1.416000000000000000e+03,-3.131716270329354956e-01,0.000000000000000000e+00
1.417000000000000000e+03,-5.597920378099399130e-01,0.000000000000000000e+00
1.418000000000000000e+03,-4.666109800699831944e-01,0.000000000000000000e+00
1.419000000000000000e+03,-2.417502121818581595e-01,0.000000000000000000e+00
1.420000000000000000e+03,-2.588970812190475312e-01,0.000000000000000000e+00
1.421000000000000000e+03,-2.607615792989199585e-02,0.000000000000000000e+00
1.422000000000000000e+03,-8.990996641845093451e-02,0.000000000000000000e+00
1.423000000000000000e+03,-9.433959775650241353e-02,0.000000000000000000e+00
1.424000000000000000e+03,2.030682989710183572e-02,0.000000000000000000e+00
1.425000000000000000e+03,5.583872853856315377e-01,0.000000000000000000e+00
1.426000000000000000e+03,5.500679037269594618e-01,0.000000000000000000e+00
1.427000000000000000e+03,6.998642063834984439e-01,0.000000000000000000e+00
1.428000000000000000e+03,1.304442400385153134e+00,0.000000000000000000e+00
1.429000000000000000e+03,1.209088015053088716e+00,0.000000000000000000e+00
1.430000000000000000e+03,1.275713276227607995e+00,0.000000000000000000e+00
1.431000000000000000e+03,3.857866453644737126e-01,0.000000000000000000e+00
1.432000000000000000e+03,4.014869793945616966e-02,0.000000000000000000e+00
1.433000000000000000e+03,-4.926402992229614308e-01,0.000000000000000000e+00
1.434000000000000000e+03,-1.258986201144001393e+00,0.000000000000000000e+00
1.435000000000000000e+03,-1.219291511680828943e+00,0.000000000000000000e+00
1.436000000000000000e+03,-1.207441726697173534e+00,0.000000000000000000e+00
1.437000000000000000e+03,-1.580229054988556703e+00,0.000000000000000000e+00
1.438000000000000000e+03,-1.030186021257657458e+00,0.000000000000000000e+00
1.439000000000000000e+03,-6.266938521675268214e-01,0.000000000000000000e+00
1.440000000000000000e+03,-1.162760162667979102e+00,0.000000000000000000e+00
1.441000000000000000e+03,-7.015418702216191793e-01,0.000000000000000000e+00
1.442000000000000000e+03,-5.098876554541645900e-01,0.000000000000000000e+00
1.443000000000000000e+03,-4.650604188897848323e-01,0.000000000000000000e+00
1.444000000000000000e+03,-7.442139663352396184e-01,0.000000000000000000e+00
1.445000000000000000e+03,-7.922125174938188241e-02,0.000000000000000000e+00
1.446000000000000000e+03,-6.051527879511225949e-01,0.000000000000000000e+00
1.447000000000000000e+03,-1.085674361711901348e-01,0.000000000000000000e+00
1.448000000000000000e+03,-3.581721478462780994e-01,0.000000000000000000e+00
1.449000000000000000e+03,-6.643342743115601169e-03,0.000000000000000000e+00
1.450000000000000000e+03,-1.625326582885192744e-02,0.000000000000000000e+00
1.451000000000000000e+03,1.086121752251337919e-01,0.000000000000000000e+00
1.452000000000000000e+03,-1.952681375842430234e-01,0.000000000000000000e+00
1.453000000000000000e+03,1.327333173145792411e-01,0.000000000000000000e+00
1.454000000000000000e+03,4.157620388888285667e-01,0.000000000000000000e+00
1.455000000000000000e+03,-3.723961971783669167e-01,0.000000000000000000e+00
1.456000000000000000e+03,3.936280130574946190e-01,0.000000000000000000e+00
1.457000000000000000e+03,2.548589652513250092e-01,0.000000000000000000e+00
1.458000000000000000e+03,1.114416797202771869e-01,0.000000000000000000e+00
1.459000000000000000e+03,4.309732308869967943e-01,0.000000000000000000e+00
1.460000000000000000e+03,3.601400486542726820e-01,0.000000000000000000e+00
1.461000000000000000e+03,2.936168381206834543e-01,0.000000000000000000e+00
1.462000000000000000e+03,5.188617055121396149e-01,0.000000000000000000e+00
1.463000000000000000e+03,3.063839427189550824e-01,0.000000000000000000e+00
1.464000000000000000e+03,7.622648531144902151e-01,0.000000000000000000e+00
1.465000000000000000e+03,-7.549108866465183143e-02,0.000000000000000000e+00
1.466000000000000000e+03,2.535372594409928126e-01,0.000000000000000000e+00
1.467000000000000000e+03,4.670187934339580238e-01,0.000000000000000000e+00
1.468000000000000000e+03,5.302983472331600917e-02,0.000000000000000000e+00
1.469000000000000000e+03,8.203537519915339304e-01,0.000000000000000000e+00
1.470000000000000000e+03,1.930213919249251786e-01,0.000000000000000000e+00
1.471000000000000000e+03,5.334542687704166841e-01,0.000000000000000000e+00
1.472000000000000000e+03,2.337216537208042788e-01,0.000000000000000000e+00
1.473000000000000000e+03,8.858598159879936818e-01,0.000000000000000000e+00
1.474000000000000000e+03,2.732513879163191439e-01,0.000000000000000000e+00
1.475000000000000000e+03,1.134002005934987567e-01,0.000000000000000000e+00
1.476000000000000000e+03,-2.917325549091694392e-01,0.000000000000000000e+00
1.477000000000000000e+03,1.653618894442243081e-01,0.000000000000000000e+00
1.478000000000000000e+03,-1.265576458211448707e-01,0.000000000000000000e+00
1.479000000000000000e+03,4.421008989261753008e+00,0.000000000000000000e+00
1.480000000000000000e+03,3.208980965781121686e+00,1.000000000000000000e+00
1.481000000000000000e+03,-2.414699372841790925e+00,0.000000000000000000e+00
1.482000000000000000e+03,-6.164672651095918221e-01,0.000000000000000000e+00
1.483000000000000000e+03,-5.361265089156892483e-01,0.000000000000000000e+00
1.484000000000000000e+03,-6.610818246657582664e-01,0.000000000000000000e+00
1.485000000000000000e+03,-6.784705079799062677e-01,0.000000000000000000e+00
1.486000000000000000e+03,-3.255118294610239715e-01,0.000000000000000000e+00
1.487000000000000000e+03,-6.279507203265789483e-01,0.000000000000000000e+00
1.488000000000000000e+03,-1.091834325870940231e-01,0.000000000000000000e+00
1.489000000000000000e+03,-7.210787426956144497e-01,0.000000000000000000e+00
1.490000000000000000e+03,2.436105044827917565e-01,0.000000000000000000e+00
1.491000000000000000e+03,-5.252764417590257695e-01,0.000000000000000000e+00
1.492000000000000000e+03,2.331812891372614660e-01,0.000000000000000000e+00
1.493000000000000000e+03,2.416563531236249895e-01,0.000000000000000000e+00
1.494000000000000000e+03,2.801474499918462091e-01,0.000000000000000000e+00
1.495000000000000000e+03,1.206507872511498380e+00,0.000000000000000000e+00
1.496000000000000000e+03,8.914198041310369414e-01,0.000000000000000000e+00
1.497000000000000000e+03,1.499311491685193731e+00,0.000000000000000000e+00
1.498000000000000000e+03,1.280801299318095721e+00,0.000000000000000000e+00
1.499000000000000000e+03,6.301273588182185748e-01,0.000000000000000000e+00
1.500000000000000000e+03,-5.259352403386841762e-02,0.000000000000000000e+00
1.501000000000000000e+03,-7.742316944447565907e-01,0.000000000000000000e+00
1.502000000000000000e+03,-1.282294485127964068e+00,0.000000000000000000e+00
1.503000000000000000e+03,-1.390075408062985796e+00,0.000000000000000000e+00
1.504000000000000000e+03,-1.036299681619412105e+00,0.000000000000000000e+00
1.505000000000000000e+03,-1.500770752467142088e+00,0.000000000000000000e+00
1.506000000000000000e+03,-8.181399680060200685e-01,0.000000000000000000e+00
1.507000000000000000e+03,-8.339467075601492141e-01,0.000000000000000000e+00
1.508000000000000000e+03,-1.275200910556403722e+00,0.000000000000000000e+00
1.509000000000000000e+03,-4.628649884315809149e-01,0.000000000000000000e+00
1.510000000000000000e+03,-6.425708960009983706e-01,0.000000000000000000e+00
1.511000000000000000e+03,-3.682165521028262223e-01,0.000000000000000000e+00
1.512000000000000000e+03,-7.411783285925301890e-01,0.000000000000000000e+00
1.513000000000000000e+03,-3.994934679044885306e-01,0.000000000000000000e+00
1.514000000000000000e+03,-6.165708231418391971e-01,0.000000000000000000e+00
1.515000000000000000e+03,3.655694156061849165e-02,0.000000000000000000e+00
1.516000000000000000e+03,-1.686840125785927513e-01,0.000000000000000000e+00
1.517000000000000000e+03,-2.576058608542437511e-01,0.000000000000000000e+00
1.518000000000000000e+03,-2.318123296264318345e-01,0.000000000000000000e+00
1.519000000000000000e+03,-3.142127379895228723e-01,0.000000000000000000e+00
1.520000000000000000e+03,2.665862700424099785e-01,0.000000000000000000e+00
1.521000000000000000e+03,-1.680158382237962045e-01,0.000000000000000000e+00
1.522000000000000000e+03,1.876914002882835164e-01,0.000000000000000000e+00
1.523000000000000000e+03,-4.411374684226852805e-02,0.000000000000000000e+00
1.524000000000000000e+03,2.345019856274273562e-01,0.000000000000000000e+00
1.525000000000000000e+03,2.108457415957314673e-01,0.000000000000000000e+00
1.526000000000000000e+03,2.307465081195274326e-02,0.000000000000000000e+00
1.527000000000000000e+03,6.117441914942062242e-01,0.000000000000000000e+00
1.528000000000000000e+03,4.435861020480459382e-01,0.000000000000000000e+00
1.529000000000000000e+03,7.342682650016441048e-01,0.000000000000000000e+00
1.530000000000000000e+03,2.542670168125496510e-01,0.000000000000000000e+00
1.531000000000000000e+03,7.358596790653869624e-01,0.000000000000000000e+00
1.532000000000000000e+03,7.185084198907666364e-01,0.000000000000000000e+00
1.533000000000000000e+03,-1.391964369130915292e-02,0.000000000000000000e+00
1.534000000000000000e+03,5.926909112421655523e-01,0.000000000000000000e+00
1.535000000000000000e+03,4.149614757290257666e-02,0.000000000000000000e+00
1.536000000000000000e+03,4.048019094913560822e-01,0.000000000000000000e+00
1.537000000000000000e+03,6.036549374561744896e-01,0.000000000000000000e+00
1.538000000000000000e+03,8.615614529531465116e-02,0.000000000000000000e+00
1.539000000000000000e+03,4.127765349829304875e-01,0.000000000000000000e+00
1.540000000000000000e+03,6.410476774058651017e-01,0.000000000000000000e+00
1.541000000000000000e+03,3.645148137881535910e-01,0.000000000000000000e+00
1.542000000000000000e+03,2.033491375763621101e-01,0.000000000000000000e+00
1.543000000000000000e+03,-1.805806206602522390e-01,0.000000000000000000e+00
1.544000000000000000e+03,-3.357315030555240581e-02,0.000000000000000000e+00
1.545000000000000000e+03,2.245129129053936579e-01,0.000000000000000000e+00
1.546000000000000000e+03,-9.499945526677201491e-01,0.000000000000000000e+00
1.547000000000000000e+03,3.232347113589236987e+00,0.000000000000000000e+00
1.548000000000000000e+03,4.086126894892085026e+00,0.000000000000000000e+00
1.549000000000000000e+03,-2.506736947139065030e+00,1.000000000000000000e+00
1.550000000000000000e+03,-9.756244637234146033e-01,0.000000000000000000e+00
1.551000000000000000e+03,-1.026037439396727979e+00,0.000000000000000000e+00
1.552000000000000000e+03,-9.605712750120146692e-01,0.000000000000000000e+00
1.553000000000000000e+03,-2.854863536226728282e-01,0.000000000000000000e+00
1.554000000000000000e+03,-7.403703226928197711e-01,0.000000000000000000e+00
1.555000000000000000e+03,-6.131672839425384991e-01,0.000000000000000000e+00
1.556000000000000000e+03,-6.508723351043506078e-01,0.000000000000000000e+00
1.557000000000000000e+03,-7.777463010184656467e-01,0.000000000000000000e+00
1.558000000000000000e+03,3.289624061666156229e-02,0.000000000000000000e+00
1.559000000000000000e+03,-2.246583745627085682e-01,0.000000000000000000e+00
1.560000000000000000e+03,-4.731683547538953483e-02,0.000000000000000000e+00
1.561000000000000000e+03,9.173662410744735929e-02,0.000000000000000000e+00
1.562000000000000000e+03,5.066841931576222535e-01,0.000000000000000000e+00
1.563000000000000000e+03,4.883415677300403934e-01,0.000000000000000000e+00
1.564000000000000000e+03,1.333637271351332032e+00,0.000000000000000000e+00
1.565000000000000000e+03,1.237675600972142576e+00,0.000000000000000000e+00
1.566000000000000000e+03,1.281083862753741531e+00,0.000000000000000000e+00
1.567000000000000000e+03,7.162261599914169219e-01,0.000000000000000000e+00
1.568000000000000000e+03,-3.387187530335053487e-02,0.000000000000000000e+00
1.569000000000000000e+03,-6.558724087554291815e-01,0.000000000000000000e+00
1.570000000000000000e+03,-1.294274302628459550e+00,0.000000000000000000e+00
1.571000000000000000e+03,-1.527663109990877510e+00,0.000000000000000000e+00
1.572000000000000000e+03,-9.068300002613903787e-01,0.000000000000000000e+00
1.573000000000000000e+03,-1.058680932790862173e+00,0.000000000000000000e+00
1.574000000000000000e+03,-1.530482997513233911e+00,0.000000000000000000e+00
1.575000000000000000e+03,-1.001838949399493472e+00,0.000000000000000000e+00
1.576000000000000000e+03,-1.132286328289132449e+00,0.000000000000000000e+00
1.577000000000000000e+03,-6.122541674903112519e-01,0.000000000000000000e+00
1.578000000000000000e+03,-4.734742518940429079e-01,0.000000000000000000e+00
1.579000000000000000e+03,-9.958442286110855690e-01,0.000000000000000000e+00
1.580000000000000000e+03,-5.116745019973917286e-01,0.000000000000000000e+00
1.581000000000000000e+03,-6.655331253281600024e-01,0.000000000000000000e+00
1.582000000000000000e+03,1.890362188998332693e-01,0.000000000000000000e+00
1.583000000000000000e+03,-3.425225049333604499e-01,0.000000000000000000e+00
1.584000000000000000e+03,-6.065475911330652226e-01,0.000000000000000000e+00
1.585000000000000000e+03,-5.917291910130569044e-02,0.000000000000000000e+00
1.586000000000000000e+03,-1.437877435020613881e-01,0.000000000000000000e+00
1.587000000000000000e+03,5.826417642998739377e-02,0.000000000000000000e+00
