timestamp,ecg_measurement,qrs_detected
0.000000000000000000e+00,-2.337468702437716928e-01,0.000000000000000000e+00
1.000000000000000000e+00,-4.935115384744023781e-01,0.000000000000000000e+00
2.000000000000000000e+00,-3.533251675230282829e-01,0.000000000000000000e+00
3.000000000000000000e+00,-2.317486038629368028e-01,0.000000000000000000e+00
4.000000000000000000e+00,-3.286549810718664144e-02,0.000000000000000000e+00
5.000000000000000000e+00,-9.397403740249862802e-02,0.000000000000000000e+00
6.000000000000000000e+00,5.546548523394981105e-03,0.000000000000000000e+00
7.000000000000000000e+00,-1.858859717983351451e-02,0.000000000000000000e+00
8.000000000000000000e+00,4.495257344394265608e-02,0.000000000000000000e+00
9.000000000000000000e+00,2.497480280505213202e-01,0.000000000000000000e+00
1.000000000000000000e+01,1.475270741411562891e-01,0.000000000000000000e+00
1.100000000000000000e+01,2.423570581367862908e-01,0.000000000000000000e+00
1.200000000000000000e+01,9.440593558269740060e-02,0.000000000000000000e+00
1.300000000000000000e+01,3.305160087426177173e-01,0.000000000000000000e+00
1.400000000000000000e+01,3.475756885888298120e-01,0.000000000000000000e+00
1.500000000000000000e+01,2.359511285504956313e-01,0.000000000000000000e+00
1.600000000000000000e+01,2.401547559478521554e-01,0.000000000000000000e+00
1.700000000000000000e+01,3.048830483391213320e-01,0.000000000000000000e+00
1.800000000000000000e+01,1.403925114484921022e-01,0.000000000000000000e+00
1.900000000000000000e+01,5.496736219478038921e-01,0.000000000000000000e+00
2.000000000000000000e+01,2.402151545119167453e-02,0.000000000000000000e+00
2.100000000000000000e+01,4.543946938747053244e-01,0.000000000000000000e+00
2.200000000000000000e+01,7.377257575727271810e-01,0.000000000000000000e+00
2.300000000000000000e+01,4.083906432264583497e-01,0.000000000000000000e+00
2.400000000000000000e+01,6.818944832028051017e-02,0.000000000000000000e+00
2.500000000000000000e+01,-6.026580784533206586e-02,0.000000000000000000e+00
2.600000000000000000e+01,1.717038219587067316e-01,0.000000000000000000e+00
2.700000000000000000e+01,8.827082824708878950e-02,0.000000000000000000e+00
2.800000000000000000e+01,1.955076592294377469e-01,0.000000000000000000e+00
2.900000000000000000e+01,1.911030008122215351e+00,0.000000000000000000e+00
3.000000000000000000e+01,5.758453438378321465e+00,0.000000000000000000e+00
3.100000000000000000e+01,1.708903274121873928e+00,1.000000000000000000e+00
3.200000000000000000e+01,-9.587589034582805203e-01,0.000000000000000000e+00
3.300000000000000000e+01,-1.161155818439042475e+00,0.000000000000000000e+00
3.400000000000000000e+01,-1.110260794366081827e+00,0.000000000000000000e+00
3.500000000000000000e+01,-7.785531410674384478e-01,0.000000000000000000e+00
3.600000000000000000e+01,-7.569799756441449867e-01,0.000000000000000000e+00
3.700000000000000000e+01,-5.096450457141357138e-01,0.000000000000000000e+00
3.800000000000000000e+01,-8.213289097522706861e-01,0.000000000000000000e+00
3.900000000000000000e+01,-1.765984315232385637e-01,0.000000000000000000e+00
4.000000000000000000e+01,-2.207651935188114922e-01,0.000000000000000000e+00
4.100000000000000000e+01,-3.317357136494540615e-02,0.000000000000000000e+00
4.200000000000000000e+01,1.425208662247138269e-01,0.000000000000000000e+00
4.300000000000000000e+01,4.817540027240479472e-01,0.000000000000000000e+00
4.400000000000000000e+01,6.135547935529308550e-01,0.000000000000000000e+00
4.500000000000000000e+01,8.901009016527681172e-01,0.000000000000000000e+00
4.600000000000000000e+01,9.506491230426339367e-01,0.000000000000000000e+00
4.700000000000000000e+01,5.902729764884306202e-02,0.000000000000000000e+00
4.800000000000000000e+01,-5.625424534995988601e-01,0.000000000000000000e+00
4.900000000000000000e+01,-1.005826658287124031e+00,0.000000000000000000e+00
5.000000000000000000e+01,-1.065525004606955983e+00,0.000000000000000000e+00
5.100000000000000000e+01,-9.562130365757453010e-01,0.000000000000000000e+00
5.200000000000000000e+01,-1.366281129835190677e+00,0.000000000000000000e+00
5.300000000000000000e+01,-9.114294795771060720e-01,0.000000000000000000e+00
5.400000000000000000e+01,-8.566605447488444547e-01,0.000000000000000000e+00
5.500000000000000000e+01,-6.313757535848216751e-01,0.000000000000000000e+00
5.600000000000000000e+01,-7.368989944916826129e-01,0.000000000000000000e+00
5.700000000000000000e+01,-1.086023189481523321e+00,0.000000000000000000e+00
5.800000000000000000e+01,-3.533693724197873309e-01,0.000000000000000000e+00
5.900000000000000000e+01,-5.064672341916897080e-01,0.000000000000000000e+00
6.000000000000000000e+01,-3.229868312166642719e-01,0.000000000000000000e+00
6.100000000000000000e+01,-7.200801314334475123e-01,0.000000000000000000e+00
6.200000000000000000e+01,-4.746614724165737487e-01,0.000000000000000000e+00
6.300000000000000000e+01,1.240903838999175141e-01,0.000000000000000000e+00
6.400000000000000000e+01,-4.022674190269534544e-01,0.000000000000000000e+00
6.500000000000000000e+01,2.572976704698621830e-01,0.000000000000000000e+00
6.600000000000000000e+01,-2.648819830337901804e-01,0.000000000000000000e+00
6.700000000000000000e+01,2.487092786419400903e-01,0.000000000000000000e+00
6.800000000000000000e+01,1.327206172940621764e-01,0.000000000000000000e+00
6.900000000000000000e+01,4.129066503413590661e-02,0.000000000000000000e+00
7.000000000000000000e+01,4.348727882233630049e-01,0.000000000000000000e+00
7.100000000000000000e+01,8.393672906256718566e-03,0.000000000000000000e+00
7.200000000000000000e+01,3.700941302626413187e-01,0.000000000000000000e+00
7.300000000000000000e+01,2.123865272409916349e-01,0.000000000000000000e+00
7.400000000000000000e+01,1.025276563794153412e-01,0.000000000000000000e+00
7.500000000000000000e+01,3.033727297980319815e-01,0.000000000000000000e+00
7.600000000000000000e+01,4.132725288433987676e-01,0.000000000000000000e+00
7.700000000000000000e+01,1.943326404361069293e-01,0.000000000000000000e+00
7.800000000000000000e+01,1.414631627958116145e-01,0.000000000000000000e+00
7.900000000000000000e+01,3.571598938424874192e-01,0.000000000000000000e+00
8.000000000000000000e+01,6.523958623930888046e-02,0.000000000000000000e+00
8.100000000000000000e+01,4.578702151885344906e-01,0.000000000000000000e+00
8.200000000000000000e+01,5.033608358732972743e-01,0.000000000000000000e+00
8.300000000000000000e+01,4.525137674933545351e-01,0.000000000000000000e+00
8.400000000000000000e+01,-1.176839652115348883e-01,0.000000000000000000e+00
8.500000000000000000e+01,-8.796044230922657470e-02,0.000000000000000000e+00
8.600000000000000000e+01,-7.035017225045872569e-02,0.000000000000000000e+00
8.700000000000000000e+01,2.852502633411765909e-01,0.000000000000000000e+00
8.800000000000000000e+01,-2.754188894747928822e-03,0.000000000000000000e+00
8.900000000000000000e+01,2.560853641859977881e+00,0.000000000000000000e+00
9.000000000000000000e+01,4.474474196599047993e+00,0.000000000000000000e+00
9.100000000000000000e+01,1.853027116684462794e-01,1.000000000000000000e+00
9.200000000000000000e+01,-9.521563666065165910e-01,0.000000000000000000e+00
9.300000000000000000e+01,-1.030511000103802033e+00,0.000000000000000000e+00
9.400000000000000000e+01,-7.302226713984638629e-01,0.000000000000000000e+00
9.500000000000000000e+01,-6.789356365672466476e-01,0.000000000000000000e+00
9.600000000000000000e+01,-6.223166260131016703e-01,0.000000000000000000e+00
9.700000000000000000e+01,-3.813311442715262567e-01,0.000000000000000000e+00
9.800000000000000000e+01,-1.402840452482750078e-01,0.000000000000000000e+00
9.900000000000000000e+01,-3.731604335603720957e-01,0.000000000000000000e+00
1.000000000000000000e+02,-7.952295846743637209e-02,0.000000000000000000e+00
1.010000000000000000e+02,7.249380419126311148e-02,0.000000000000000000e+00
1.020000000000000000e+02,2.626694878360654739e-01,0.000000000000000000e+00
1.030000000000000000e+02,6.710046094515125237e-01,0.000000000000000000e+00
1.040000000000000000e+02,8.577396219982548198e-01,0.000000000000000000e+00
1.050000000000000000e+02,9.416677305144451893e-01,0.000000000000000000e+00
1.060000000000000000e+02,6.892393024610836694e-01,0.000000000000000000e+00
1.070000000000000000e+02,2.110705326075828780e-01,0.000000000000000000e+00
1.080000000000000000e+02,-5.920518998759950469e-01,0.000000000000000000e+00
1.090000000000000000e+02,-1.031174484608952113e+00,0.000000000000000000e+00
1.100000000000000000e+02,-1.206337961556474436e+00,0.000000000000000000e+00
1.110000000000000000e+02,-1.252100279113277592e+00,0.000000000000000000e+00
1.120000000000000000e+02,-1.050610807347555076e+00,0.000000000000000000e+00
1.130000000000000000e+02,-1.002017966080400280e+00,0.000000000000000000e+00
1.140000000000000000e+02,-8.880796224630195246e-01,0.000000000000000000e+00
1.150000000000000000e+02,-9.726473923886763684e-01,0.000000000000000000e+00
1.160000000000000000e+02,-6.941691615770567703e-01,0.000000000000000000e+00
1.170000000000000000e+02,-4.923802434740379153e-01,0.000000000000000000e+00
1.180000000000000000e+02,-6.929153822622423631e-01,0.000000000000000000e+00
1.190000000000000000e+02,-3.407904006434159250e-01,0.000000000000000000e+00
1.200000000000000000e+02,-5.146937471152991384e-01,0.000000000000000000e+00
1.210000000000000000e+02,-1.877123332322241378e-01,0.000000000000000000e+00
1.220000000000000000e+02,-3.052561676623126163e-01,0.000000000000000000e+00
1.230000000000000000e+02,-2.020681254825172357e-01,0.000000000000000000e+00
1.240000000000000000e+02,-2.903808251206949631e-01,0.000000000000000000e+00
1.250000000000000000e+02,-2.279172535327636251e-01,0.000000000000000000e+00
1.260000000000000000e+02,7.923879193133778753e-02,0.000000000000000000e+00
1.270000000000000000e+02,-4.702337592392839827e-02,0.000000000000000000e+00
1.280000000000000000e+02,7.964049278594294290e-02,0.000000000000000000e+00
1.290000000000000000e+02,9.003040529938201308e-02,0.000000000000000000e+00
1.300000000000000000e+02,7.290068377985278736e-02,0.000000000000000000e+00
1.310000000000000000e+02,3.079235953259258918e-01,0.000000000000000000e+00
1.320000000000000000e+02,1.442713676661264675e-02,0.000000000000000000e+00
1.330000000000000000e+02,1.893165608305223957e-01,0.000000000000000000e+00
1.340000000000000000e+02,3.470813614460634411e-01,0.000000000000000000e+00
1.350000000000000000e+02,1.833538740618861629e-01,0.000000000000000000e+00
1.360000000000000000e+02,3.605461575276627806e-01,0.000000000000000000e+00
1.370000000000000000e+02,3.072309539228351150e-01,0.000000000000000000e+00
1.380000000000000000e+02,3.016200837487199582e-01,0.000000000000000000e+00
1.390000000000000000e+02,-1.545420859429735838e-02,0.000000000000000000e+00
1.400000000000000000e+02,3.124910559472448002e-01,0.000000000000000000e+00
1.410000000000000000e+02,9.674061694359036290e-01,0.000000000000000000e+00
1.420000000000000000e+02,3.351086109434843197e-01,0.000000000000000000e+00
1.430000000000000000e+02,2.950456429769258149e-01,0.000000000000000000e+00
1.440000000000000000e+02,7.690009113890142189e-02,0.000000000000000000e+00
1.450000000000000000e+02,2.303686495377461618e-01,0.000000000000000000e+00
1.460000000000000000e+02,7.851742871563910375e-02,0.000000000000000000e+00
1.470000000000000000e+02,3.923137755268568116e-01,0.000000000000000000e+00
1.480000000000000000e+02,5.602499247771510760e-01,0.000000000000000000e+00
1.490000000000000000e+02,4.489441111437804111e+00,0.000000000000000000e+00
1.500000000000000000e+02,4.556543373510619332e+00,0.000000000000000000e+00
1.510000000000000000e+02,-8.107589518707920828e-02,1.000000000000000000e+00
1.520000000000000000e+02,-1.071185551038756012e+00,0.000000000000000000e+00
1.530000000000000000e+02,-8.495155550215797158e-01,0.000000000000000000e+00
1.540000000000000000e+02,-9.409510343156921586e-01,0.000000000000000000e+00
1.550000000000000000e+02,-7.083489244748043534e-01,0.000000000000000000e+00
1.560000000000000000e+02,-7.087439869294061001e-01,0.000000000000000000e+00
1.570000000000000000e+02,-4.601628688847793081e-01,0.000000000000000000e+00
1.580000000000000000e+02,-4.716046093466342848e-01,0.000000000000000000e+00
1.590000000000000000e+02,-4.283202879536892604e-01,0.000000000000000000e+00
1.600000000000000000e+02,8.696002457378508577e-02,0.000000000000000000e+00
1.610000000000000000e+02,1.740138210311333034e-01,0.000000000000000000e+00
1.620000000000000000e+02,3.974707583816758372e-01,0.000000000000000000e+00
1.630000000000000000e+02,4.436839096563982010e-01,0.000000000000000000e+00
1.640000000000000000e+02,9.565140426711304933e-01,0.000000000000000000e+00
1.650000000000000000e+02,7.510265875681230163e-01,0.000000000000000000e+00
1.660000000000000000e+02,7.318027828689005476e-01,0.000000000000000000e+00
1.670000000000000000e+02,8.515763107025640932e-03,0.000000000000000000e+00
1.680000000000000000e+02,-8.833711473273135883e-01,0.000000000000000000e+00
1.690000000000000000e+02,-1.119394690651958069e+00,0.000000000000000000e+00
1.700000000000000000e+02,-1.177338166101900674e+00,0.000000000000000000e+00
1.710000000000000000e+02,-1.014092192564163941e+00,0.000000000000000000e+00
1.720000000000000000e+02,-9.748906436647460927e-01,0.000000000000000000e+00
1.730000000000000000e+02,-9.342882303229985697e-01,0.000000000000000000e+00
1.740000000000000000e+02,-1.022557276582508390e+00,0.000000000000000000e+00
1.750000000000000000e+02,-7.605420470665669175e-01,0.000000000000000000e+00
1.760000000000000000e+02,-5.390972476641625599e-01,0.000000000000000000e+00
1.770000000000000000e+02,-3.247852526043849553e-01,0.000000000000000000e+00
1.780000000000000000e+02,-3.703273100820325681e-01,0.000000000000000000e+00
1.790000000000000000e+02,-3.059052428098421039e-01,0.000000000000000000e+00
1.800000000000000000e+02,-3.829735911126242454e-01,0.000000000000000000e+00
1.810000000000000000e+02,-2.916117759902889794e-01,0.000000000000000000e+00
1.820000000000000000e+02,2.401553817946462388e-01,0.000000000000000000e+00
1.830000000000000000e+02,-1.803156189620102046e-01,0.000000000000000000e+00
1.840000000000000000e+02,-4.012556525597416740e-02,0.000000000000000000e+00
1.850000000000000000e+02,8.884405120155025593e-02,0.000000000000000000e+00
1.860000000000000000e+02,-2.033421205072548088e-01,0.000000000000000000e+00
1.870000000000000000e+02,2.674234220021596831e-01,0.000000000000000000e+00
1.880000000000000000e+02,-9.627492740283515038e-02,0.000000000000000000e+00
1.890000000000000000e+02,5.872217302785015525e-02,0.000000000000000000e+00
1.900000000000000000e+02,1.822665181992448868e-01,0.000000000000000000e+00
1.910000000000000000e+02,1.025597706787081953e-01,0.000000000000000000e+00
1.920000000000000000e+02,1.081885710682197743e-01,0.000000000000000000e+00
1.930000000000000000e+02,1.957395995095776720e-01,0.000000000000000000e+00
1.940000000000000000e+02,2.149947848307880438e-01,0.000000000000000000e+00
1.950000000000000000e+02,1.253107390353211947e-01,0.000000000000000000e+00
1.960000000000000000e+02,3.932238228157718951e-01,0.000000000000000000e+00
1.970000000000000000e+02,2.827715670166554007e-01,0.000000000000000000e+00
1.980000000000000000e+02,4.048468196491013527e-01,0.000000000000000000e+00
1.990000000000000000e+02,1.338082951416774136e-01,0.000000000000000000e+00
2.000000000000000000e+02,7.278975385065649534e-03,0.000000000000000000e+00
2.010000000000000000e+02,7.636218154660759927e-01,0.000000000000000000e+00
2.020000000000000000e+02,4.274971857386793417e-01,0.000000000000000000e+00
2.030000000000000000e+02,2.770986087493107486e-01,0.000000000000000000e+00
2.040000000000000000e+02,1.608995706974966633e-02,0.000000000000000000e+00
2.050000000000000000e+02,-6.020228929367064247e-02,0.000000000000000000e+00
2.060000000000000000e+02,1.308707504767046559e-01,0.000000000000000000e+00
2.070000000000000000e+02,-1.153509078914711772e-01,0.000000000000000000e+00
2.080000000000000000e+02,8.966196156591187405e-01,0.000000000000000000e+00
2.090000000000000000e+02,5.686138451037973773e+00,0.000000000000000000e+00
2.100000000000000000e+02,3.734812733684416131e+00,1.000000000000000000e+00
2.110000000000000000e+02,-4.187344781861098708e-01,0.000000000000000000e+00
2.120000000000000000e+02,-1.215250864654873197e+00,0.000000000000000000e+00
2.130000000000000000e+02,-1.226622338150303415e+00,0.000000000000000000e+00
2.140000000000000000e+02,-8.784844232967924382e-01,0.000000000000000000e+00
2.150000000000000000e+02,-1.018201650174236583e+00,0.000000000000000000e+00
2.160000000000000000e+02,-8.186089746036057102e-01,0.000000000000000000e+00
2.170000000000000000e+02,-6.780802517249269190e-01,0.000000000000000000e+00
2.180000000000000000e+02,-2.316928335468331490e-01,0.000000000000000000e+00
2.190000000000000000e+02,-5.383976911246574071e-01,0.000000000000000000e+00
2.200000000000000000e+02,-1.087313928732347584e-01,0.000000000000000000e+00
2.210000000000000000e+02,-3.216447370955506369e-01,0.000000000000000000e+00
2.220000000000000000e+02,3.362036965893409057e-01,0.000000000000000000e+00
2.230000000000000000e+02,6.542550642582799503e-01,0.000000000000000000e+00
2.240000000000000000e+02,6.837262289934395998e-01,0.000000000000000000e+00
2.250000000000000000e+02,7.794020724498964547e-01,0.000000000000000000e+00
2.260000000000000000e+02,3.723866220943590766e-01,0.000000000000000000e+00
2.270000000000000000e+02,-3.769255955495021682e-01,0.000000000000000000e+00
2.280000000000000000e+02,-7.237288369650703990e-01,0.000000000000000000e+00
2.290000000000000000e+02,-9.859809629198406089e-01,0.000000000000000000e+00
2.300000000000000000e+02,-1.319658135008426436e+00,0.000000000000000000e+00
2.310000000000000000e+02,-1.047676540764309383e+00,0.000000000000000000e+00
2.320000000000000000e+02,-1.076963749343827548e+00,0.000000000000000000e+00
2.330000000000000000e+02,-9.193756912523645131e-01,0.000000000000000000e+00
2.340000000000000000e+02,-6.868205258488766507e-01,0.000000000000000000e+00
2.350000000000000000e+02,-5.530559929505540762e-01,0.000000000000000000e+00
2.360000000000000000e+02,-7.593921755833922260e-01,0.000000000000000000e+00
2.370000000000000000e+02,-5.619177938129791272e-01,0.000000000000000000e+00
2.380000000000000000e+02,-4.356569745774576674e-01,0.000000000000000000e+00
2.390000000000000000e+02,-3.978798977441286300e-01,0.000000000000000000e+00
2.400000000000000000e+02,-2.573418677671732713e-01,0.000000000000000000e+00
2.410000000000000000e+02,-3.209127243423077758e-01,0.000000000000000000e+00
2.420000000000000000e+02,-2.477171359045404753e-01,0.000000000000000000e+00
2.430000000000000000e+02,-2.503541021080795681e-01,0.000000000000000000e+00
2.440000000000000000e+02,8.739704052830202241e-02,0.000000000000000000e+00
2.450000000000000000e+02,-8.182870536276490303e-02,0.000000000000000000e+00
2.460000000000000000e+02,-6.735036481164516364e-02,0.000000000000000000e+00
2.470000000000000000e+02,-1.655836616397264871e-01,0.000000000000000000e+00
2.480000000000000000e+02,2.551784521662703864e-01,0.000000000000000000e+00
2.490000000000000000e+02,9.258120245211985677e-02,0.000000000000000000e+00
2.500000000000000000e+02,6.691865370513942757e-02,0.000000000000000000e+00
2.510000000000000000e+02,2.729530002011782974e-01,0.000000000000000000e+00
2.520000000000000000e+02,2.116046301750386938e-01,0.000000000000000000e+00
2.530000000000000000e+02,1.550063385755871825e-01,0.000000000000000000e+00
2.540000000000000000e+02,5.801180137937699682e-02,0.000000000000000000e+00
2.550000000000000000e+02,6.333974669085510323e-01,0.000000000000000000e+00
2.560000000000000000e+02,2.871389241450563179e-01,0.000000000000000000e+00
2.570000000000000000e+02,2.255348910734183421e-01,0.000000000000000000e+00
2.580000000000000000e+02,4.606005091917146632e-02,0.000000000000000000e+00
2.590000000000000000e+02,2.239763282019882618e-01,0.000000000000000000e+00
2.600000000000000000e+02,4.363622858821655237e-01,0.000000000000000000e+00
2.610000000000000000e+02,7.926364558238281344e-01,0.000000000000000000e+00
2.620000000000000000e+02,3.710993443982170681e-01,0.000000000000000000e+00
2.630000000000000000e+02,-1.974785590193300217e-02,0.000000000000000000e+00
2.640000000000000000e+02,1.752387029717003900e-02,0.000000000000000000e+00
2.650000000000000000e+02,2.260814546998090313e-01,0.000000000000000000e+00
2.660000000000000000e+02,1.625886262572871499e-01,0.000000000000000000e+00
2.670000000000000000e+02,4.459309292451948264e-02,0.000000000000000000e+00
2.680000000000000000e+02,2.096746706828013007e+00,0.000000000000000000e+00
2.690000000000000000e+02,6.305061320031271066e+00,0.000000000000000000e+00
2.700000000000000000e+02,2.393488037237327504e+00,1.000000000000000000e+00
2.710000000000000000e+02,-9.868749024374811052e-01,0.000000000000000000e+00
2.720000000000000000e+02,-1.177345549834242000e+00,0.000000000000000000e+00
2.730000000000000000e+02,-9.987508376964265855e-01,0.000000000000000000e+00
2.740000000000000000e+02,-1.211790091427374927e+00,0.000000000000000000e+00
2.750000000000000000e+02,-8.747488961084765036e-01,0.000000000000000000e+00
2.760000000000000000e+02,-6.107838225147141920e-01,0.000000000000000000e+00
2.770000000000000000e+02,-7.643223935935045121e-01,0.000000000000000000e+00
2.780000000000000000e+02,-3.292533621676678735e-01,0.000000000000000000e+00
2.790000000000000000e+02,-3.335258649404218567e-01,0.000000000000000000e+00
2.800000000000000000e+02,-9.384140507597409087e-02,0.000000000000000000e+00
2.810000000000000000e+02,2.230161690402056307e-01,0.000000000000000000e+00
2.820000000000000000e+02,3.907052978052167891e-01,0.000000000000000000e+00
2.830000000000000000e+02,6.664469254533326170e-01,0.000000000000000000e+00
2.840000000000000000e+02,9.913300891013896443e-01,0.000000000000000000e+00
2.850000000000000000e+02,5.777999911403683964e-01,0.000000000000000000e+00
2.860000000000000000e+02,3.299906099680152138e-01,0.000000000000000000e+00
2.870000000000000000e+02,-5.137031602156750809e-01,0.000000000000000000e+00
2.880000000000000000e+02,-1.034398825663777055e+00,0.000000000000000000e+00
2.890000000000000000e+02,-1.206826564508037603e+00,0.000000000000000000e+00
2.900000000000000000e+02,-1.045795954988621324e+00,0.000000000000000000e+00
2.910000000000000000e+02,-1.103693327450822270e+00,0.000000000000000000e+00
2.920000000000000000e+02,-1.066807835675048999e+00,0.000000000000000000e+00
2.930000000000000000e+02,-8.995039427799406129e-01,0.000000000000000000e+00
2.940000000000000000e+02,-5.472839983751613957e-01,0.000000000000000000e+00
2.950000000000000000e+02,-5.403465622048496675e-01,0.000000000000000000e+00
2.960000000000000000e+02,-5.713581191044695418e-01,0.000000000000000000e+00
2.970000000000000000e+02,-5.855642467438274545e-01,0.000000000000000000e+00
2.980000000000000000e+02,-3.258585800361529228e-01,0.000000000000000000e+00
2.990000000000000000e+02,-5.775164575904951914e-01,0.000000000000000000e+00
3.000000000000000000e+02,-2.026991549206383081e-01,0.000000000000000000e+00
3.010000000000000000e+02,5.501355249463739383e-02,0.000000000000000000e+00
3.020000000000000000e+02,-1.809059619141801245e-01,0.000000000000000000e+00
3.030000000000000000e+02,-2.073916408040042403e-01,0.000000000000000000e+00
3.040000000000000000e+02,-1.050018212899449105e-01,0.000000000000000000e+00
3.050000000000000000e+02,1.566920016367989721e-01,0.000000000000000000e+00
3.060000000000000000e+02,1.194283259070235415e-01,0.000000000000000000e+00
3.070000000000000000e+02,2.303821034537404944e-01,0.000000000000000000e+00
3.080000000000000000e+02,1.475784538917722655e-01,0.000000000000000000e+00
3.090000000000000000e+02,3.047402982184909195e-02,0.000000000000000000e+00
3.100000000000000000e+02,3.318419052409233294e-01,0.000000000000000000e+00
3.110000000000000000e+02,3.261563004467174509e-01,0.000000000000000000e+00
3.120000000000000000e+02,3.112257026877454091e-01,0.000000000000000000e+00
3.130000000000000000e+02,2.097022858367469655e-01,0.000000000000000000e+00
3.140000000000000000e+02,3.875399128005965754e-01,0.000000000000000000e+00
3.150000000000000000e+02,2.786819077667373468e-01,0.000000000000000000e+00
3.160000000000000000e+02,3.020313404075014030e-01,0.000000000000000000e+00
3.170000000000000000e+02,3.948000264819155336e-01,0.000000000000000000e+00
3.180000000000000000e+02,2.457366932988154784e-01,0.000000000000000000e+00
3.190000000000000000e+02,3.650444207565894383e-01,0.000000000000000000e+00
3.200000000000000000e+02,4.164354397507018524e-01,0.000000000000000000e+00
3.210000000000000000e+02,6.281414058267836831e-01,0.000000000000000000e+00
3.220000000000000000e+02,5.168192648278167045e-01,0.000000000000000000e+00
3.230000000000000000e+02,-3.861905784010235404e-02,0.000000000000000000e+00
3.240000000000000000e+02,1.805462596625059812e-01,0.000000000000000000e+00
3.250000000000000000e+02,-3.512554678591297934e-03,0.000000000000000000e+00
3.260000000000000000e+02,4.261482410129666110e-01,0.000000000000000000e+00
3.270000000000000000e+02,-2.251824392530369159e-02,0.000000000000000000e+00
3.280000000000000000e+02,3.784176865529765177e+00,0.000000000000000000e+00
3.290000000000000000e+02,5.958689931556683028e+00,0.000000000000000000e+00
3.300000000000000000e+02,1.175230078159855029e+00,1.000000000000000000e+00
3.310000000000000000e+02,-9.969122595941766196e-01,0.000000000000000000e+00
3.320000000000000000e+02,-1.173845128668499882e+00,0.000000000000000000e+00
3.330000000000000000e+02,-1.219020183952228997e+00,0.000000000000000000e+00
3.340000000000000000e+02,-1.096661124246178787e+00,0.000000000000000000e+00
3.350000000000000000e+02,-8.103968616705160555e-01,0.000000000000000000e+00
3.360000000000000000e+02,-6.920888960765656517e-01,0.000000000000000000e+00
3.370000000000000000e+02,-6.463207889822772945e-01,0.000000000000000000e+00
3.380000000000000000e+02,-4.716116968438028301e-01,0.000000000000000000e+00
3.390000000000000000e+02,-3.081767958092994086e-01,0.000000000000000000e+00
3.400000000000000000e+02,-1.741847875722252192e-01,0.000000000000000000e+00
3.410000000000000000e+02,2.837577773707353201e-01,0.000000000000000000e+00
3.420000000000000000e+02,2.361603631043463492e-01,0.000000000000000000e+00
3.430000000000000000e+02,8.058127152740176546e-01,0.000000000000000000e+00
3.440000000000000000e+02,7.599667340870399634e-01,0.000000000000000000e+00
3.450000000000000000e+02,7.273167906476726285e-01,0.000000000000000000e+00
3.460000000000000000e+02,1.812382175695362654e-02,0.000000000000000000e+00
3.470000000000000000e+02,-6.840638565416483630e-01,0.000000000000000000e+00
3.480000000000000000e+02,-1.236358828289701561e+00,0.000000000000000000e+00
3.490000000000000000e+02,-1.222872551086052972e+00,0.000000000000000000e+00
3.500000000000000000e+02,-1.120528730530333972e+00,0.000000000000000000e+00
3.510000000000000000e+02,-1.132887417219144321e+00,0.000000000000000000e+00
3.520000000000000000e+02,-1.176456740252902256e+00,0.000000000000000000e+00
3.530000000000000000e+02,-1.073483454184046337e+00,0.000000000000000000e+00
3.540000000000000000e+02,-6.852607554970024939e-01,0.000000000000000000e+00
3.550000000000000000e+02,-6.728201888343122716e-01,0.000000000000000000e+00
3.560000000000000000e+02,-8.157812519388862871e-01,0.000000000000000000e+00
3.570000000000000000e+02,-6.107049879333495968e-01,0.000000000000000000e+00
3.580000000000000000e+02,-5.060342115174257804e-01,0.000000000000000000e+00
3.590000000000000000e+02,-5.128973934957701264e-01,0.000000000000000000e+00
3.600000000000000000e+02,-5.052692659113424689e-01,0.000000000000000000e+00
3.610000000000000000e+02,-1.908120968040369347e-01,0.000000000000000000e+00
3.620000000000000000e+02,-2.923803803869753914e-01,0.000000000000000000e+00
3.630000000000000000e+02,-5.531305765241290723e-02,0.000000000000000000e+00
3.640000000000000000e+02,4.941551642129220906e-02,0.000000000000000000e+00
3.650000000000000000e+02,-3.284513820767493986e-01,0.000000000000000000e+00
3.660000000000000000e+02,2.405125756452604902e-01,0.000000000000000000e+00
3.670000000000000000e+02,7.024439410516203006e-03,0.000000000000000000e+00
3.680000000000000000e+02,2.564799545304899953e-01,0.000000000000000000e+00
3.690000000000000000e+02,6.331081446968195303e-02,0.000000000000000000e+00
3.700000000000000000e+02,9.904153757190084506e-02,0.000000000000000000e+00
3.710000000000000000e+02,1.051326188824088376e-01,0.000000000000000000e+00
3.720000000000000000e+02,3.483489672953425931e-01,0.000000000000000000e+00
3.730000000000000000e+02,1.423965640019189127e-01,0.000000000000000000e+00
3.740000000000000000e+02,2.792848757320102182e-01,0.000000000000000000e+00
3.750000000000000000e+02,3.022114461235670402e-01,0.000000000000000000e+00
3.760000000000000000e+02,3.145706695954410548e-01,0.000000000000000000e+00
3.770000000000000000e+02,1.746131100256421709e-01,0.000000000000000000e+00
3.780000000000000000e+02,3.118966617135869313e-01,0.000000000000000000e+00
3.790000000000000000e+02,8.796897534129825835e-02,0.000000000000000000e+00
3.800000000000000000e+02,5.081125123405179078e-01,0.000000000000000000e+00
3.810000000000000000e+02,6.795043636679122256e-01,0.000000000000000000e+00
3.820000000000000000e+02,1.510845459460614104e-01,0.000000000000000000e+00
3.830000000000000000e+02,1.141305795974587589e-01,0.000000000000000000e+00
3.840000000000000000e+02,2.932056309585152551e-02,0.000000000000000000e+00
3.850000000000000000e+02,4.119111383805119930e-02,0.000000000000000000e+00
3.860000000000000000e+02,4.483577688990111332e-01,0.000000000000000000e+00
3.870000000000000000e+02,3.942176902402163008e-01,0.000000000000000000e+00
3.880000000000000000e+02,4.713200422251016874e+00,0.000000000000000000e+00
3.890000000000000000e+02,3.369135564480151501e+00,1.000000000000000000e+00
3.900000000000000000e+02,-7.557735061453894065e-01,0.000000000000000000e+00
3.910000000000000000e+02,-7.220251268452353433e-01,0.000000000000000000e+00
3.920000000000000000e+02,-6.702177964585223080e-01,0.000000000000000000e+00
3.930000000000000000e+02,-6.445464515945746875e-01,0.000000000000000000e+00
3.940000000000000000e+02,-3.184342773504046931e-01,0.000000000000000000e+00
3.950000000000000000e+02,-3.688845761980411586e-01,0.000000000000000000e+00
3.960000000000000000e+02,-2.853125930916488029e-01,0.000000000000000000e+00
3.970000000000000000e+02,1.479591136626064729e-01,0.000000000000000000e+00
3.980000000000000000e+02,-1.174910393075180581e-01,0.000000000000000000e+00
3.990000000000000000e+02,-3.964206013934745004e-02,0.000000000000000000e+00
4.000000000000000000e+02,4.947618224455410663e-02,0.000000000000000000e+00
4.010000000000000000e+02,8.157386228776123405e-01,0.000000000000000000e+00
4.020000000000000000e+02,7.152232666153732765e-01,0.000000000000000000e+00
4.030000000000000000e+02,1.018002602749081165e+00,0.000000000000000000e+00
4.040000000000000000e+02,8.870827291313173601e-01,0.000000000000000000e+00
4.050000000000000000e+02,2.311412609228422899e-01,0.000000000000000000e+00
4.060000000000000000e+02,1.921620569110444807e-02,0.000000000000000000e+00
4.070000000000000000e+02,-8.459034270921179655e-01,0.000000000000000000e+00
4.080000000000000000e+02,-1.109054814786005316e+00,0.000000000000000000e+00
4.090000000000000000e+02,-1.056362822610323215e+00,0.000000000000000000e+00
4.100000000000000000e+02,-1.302798501688370969e+00,0.000000000000000000e+00
4.110000000000000000e+02,-8.977586671434725218e-01,0.000000000000000000e+00
4.120000000000000000e+02,-9.803083748330895242e-01,0.000000000000000000e+00
4.130000000000000000e+02,-7.071728790078839477e-01,0.000000000000000000e+00
4.140000000000000000e+02,-7.384677329353115383e-01,0.000000000000000000e+00
4.150000000000000000e+02,-5.211869766468000265e-01,0.000000000000000000e+00
4.160000000000000000e+02,-7.710894399153394030e-01,0.000000000000000000e+00
4.170000000000000000e+02,-4.103177385912984421e-01,0.000000000000000000e+00
4.180000000000000000e+02,-5.877465101865700925e-01,0.000000000000000000e+00
4.190000000000000000e+02,-2.203199457445295939e-01,0.000000000000000000e+00
4.200000000000000000e+02,-3.395796754022735175e-01,0.000000000000000000e+00
4.210000000000000000e+02,-2.377711784705426046e-01,0.000000000000000000e+00
4.220000000000000000e+02,-1.377781592777741759e-01,0.000000000000000000e+00
4.230000000000000000e+02,-2.133681447375244400e-01,0.000000000000000000e+00
4.240000000000000000e+02,-1.241016465649123907e-01,0.000000000000000000e+00
4.250000000000000000e+02,-1.428450815338805358e-01,0.000000000000000000e+00
4.260000000000000000e+02,-6.441876785763962603e-03,0.000000000000000000e+00
4.270000000000000000e+02,8.760960868168547744e-02,0.000000000000000000e+00
4.280000000000000000e+02,1.924575794344041968e-01,0.000000000000000000e+00
4.290000000000000000e+02,8.322086353622396016e-02,0.000000000000000000e+00
4.300000000000000000e+02,1.117965172473400215e-01,0.000000000000000000e+00
4.310000000000000000e+02,1.608697432535434457e-01,0.000000000000000000e+00
4.320000000000000000e+02,3.021901309296434190e-01,0.000000000000000000e+00
4.330000000000000000e+02,1.164548835552665779e-01,0.000000000000000000e+00
4.340000000000000000e+02,2.908983410962403537e-01,0.000000000000000000e+00
4.350000000000000000e+02,2.814070075679622196e-01,0.000000000000000000e+00
4.360000000000000000e+02,1.938071276834674450e-01,0.000000000000000000e+00
4.370000000000000000e+02,2.528897052988980931e-01,0.000000000000000000e+00
4.380000000000000000e+02,8.894809741816867010e-02,0.000000000000000000e+00
4.390000000000000000e+02,4.343130467147751084e-01,0.000000000000000000e+00
4.400000000000000000e+02,5.142495949549708012e-01,0.000000000000000000e+00
4.410000000000000000e+02,3.726033545071277819e-01,0.000000000000000000e+00
4.420000000000000000e+02,3.748699617392622918e-01,0.000000000000000000e+00
4.430000000000000000e+02,5.111605555593454892e-02,0.000000000000000000e+00
4.440000000000000000e+02,1.042327016706459143e-03,0.000000000000000000e+00
4.450000000000000000e+02,-1.059583707724415513e-01,0.000000000000000000e+00
4.460000000000000000e+02,1.419487872033378117e-01,0.000000000000000000e+00
4.470000000000000000e+02,1.149854264615580712e+00,0.000000000000000000e+00
4.480000000000000000e+02,5.134742679302967794e+00,0.000000000000000000e+00
4.490000000000000000e+02,1.804805815570615701e+00,1.000000000000000000e+00
4.500000000000000000e+02,-1.123319451325814455e+00,0.000000000000000000e+00
4.510000000000000000e+02,-8.655647126842551664e-01,0.000000000000000000e+00
4.520000000000000000e+02,-1.162832778134365030e+00,0.000000000000000000e+00
4.530000000000000000e+02,-6.905441462604615666e-01,0.000000000000000000e+00
4.540000000000000000e+02,-6.136922914517137784e-01,0.000000000000000000e+00
4.550000000000000000e+02,-6.430500182602875148e-01,0.000000000000000000e+00
4.560000000000000000e+02,-5.325372608936512764e-01,0.000000000000000000e+00
4.570000000000000000e+02,-3.974546071537123915e-01,0.000000000000000000e+00
4.580000000000000000e+02,-3.139822618568603452e-01,0.000000000000000000e+00
4.590000000000000000e+02,-1.215591701592629720e-01,0.000000000000000000e+00
4.600000000000000000e+02,-1.189653391206150698e-02,0.000000000000000000e+00
4.610000000000000000e+02,4.255839816901286210e-01,0.000000000000000000e+00
4.620000000000000000e+02,6.502115063406680440e-01,0.000000000000000000e+00
4.630000000000000000e+02,9.375512683337589026e-01,0.000000000000000000e+00
4.640000000000000000e+02,7.302434635546786179e-01,0.000000000000000000e+00
4.650000000000000000e+02,3.829383345200247923e-01,0.000000000000000000e+00
4.660000000000000000e+02,-4.424680197318255348e-01,0.000000000000000000e+00
4.670000000000000000e+02,-9.648520457209135426e-01,0.000000000000000000e+00
4.680000000000000000e+02,-1.214578098383676918e+00,0.000000000000000000e+00
4.690000000000000000e+02,-1.102554976792836650e+00,0.000000000000000000e+00
4.700000000000000000e+02,-1.064560862613866288e+00,0.000000000000000000e+00
4.710000000000000000e+02,-1.012763863085248683e+00,0.000000000000000000e+00
4.720000000000000000e+02,-9.844070356617430351e-01,0.000000000000000000e+00
4.730000000000000000e+02,-9.261626122554006413e-01,0.000000000000000000e+00
4.740000000000000000e+02,-6.797878758409755529e-01,0.000000000000000000e+00
4.750000000000000000e+02,-7.084616099801908096e-01,0.000000000000000000e+00
4.760000000000000000e+02,-4.366535516334512645e-01,0.000000000000000000e+00
4.770000000000000000e+02,-4.472126970185237860e-01,0.000000000000000000e+00
4.780000000000000000e+02,-4.124002567269617336e-01,0.000000000000000000e+00
4.790000000000000000e+02,-2.086926399845639990e-01,0.000000000000000000e+00
4.800000000000000000e+02,-1.767303032328758072e-01,0.000000000000000000e+00
4.810000000000000000e+02,-2.338105470176185530e-01,0.000000000000000000e+00
4.820000000000000000e+02,1.205106475961078977e-01,0.000000000000000000e+00
4.830000000000000000e+02,1.016401555748868701e-01,0.000000000000000000e+00
4.840000000000000000e+02,-3.405227398511787573e-01,0.000000000000000000e+00
4.850000000000000000e+02,4.590624470947533009e-01,0.000000000000000000e+00
4.860000000000000000e+02,2.154187956807369995e-03,0.000000000000000000e+00
4.870000000000000000e+02,-1.055729415411620423e-02,0.000000000000000000e+00
4.880000000000000000e+02,3.765663759406689404e-01,0.000000000000000000e+00
4.890000000000000000e+02,1.012319145673509918e-01,0.000000000000000000e+00
4.900000000000000000e+02,-6.072605549657172225e-02,0.000000000000000000e+00
4.910000000000000000e+02,5.925791363753136753e-01,0.000000000000000000e+00
4.920000000000000000e+02,1.716269199941425350e-01,0.000000000000000000e+00
4.930000000000000000e+02,1.007968074575185391e-01,0.000000000000000000e+00
4.940000000000000000e+02,3.579626170775703220e-01,0.000000000000000000e+00
4.950000000000000000e+02,3.414095731945355761e-01,0.000000000000000000e+00
4.960000000000000000e+02,2.144057361228009218e-01,0.000000000000000000e+00
4.970000000000000000e+02,4.580898786870131190e-01,0.000000000000000000e+00
4.980000000000000000e+02,9.409374236592625562e-02,0.000000000000000000e+00
4.990000000000000000e+02,4.425962074959349235e-01,0.000000000000000000e+00
5.000000000000000000e+02,5.082047341589748246e-01,0.000000000000000000e+00
5.010000000000000000e+02,4.444576306365948803e-01,0.000000000000000000e+00
5.020000000000000000e+02,2.003199478757918817e-01,0.000000000000000000e+00
5.030000000000000000e+02,4.576308726731087018e-01,0.000000000000000000e+00
5.040000000000000000e+02,-6.153129776912847487e-02,0.000000000000000000e+00
5.050000000000000000e+02,2.512925184456564764e-01,0.000000000000000000e+00
5.060000000000000000e+02,1.558214110477196268e-01,0.000000000000000000e+00
5.070000000000000000e+02,2.805380348649110012e+00,0.000000000000000000e+00
5.080000000000000000e+02,5.894924925934305726e+00,0.000000000000000000e+00
5.090000000000000000e+02,1.324614224032898857e+00,1.000000000000000000e+00
5.100000000000000000e+02,-1.011448261879546173e+00,0.000000000000000000e+00
5.110000000000000000e+02,-1.467317476984538960e+00,0.000000000000000000e+00
5.120000000000000000e+02,-5.201524067074333457e-01,0.000000000000000000e+00
5.130000000000000000e+02,-8.655127919610891007e-01,0.000000000000000000e+00
5.140000000000000000e+02,-6.113973229744762428e-01,0.000000000000000000e+00
5.150000000000000000e+02,-8.501350973076998718e-01,0.000000000000000000e+00
5.160000000000000000e+02,-3.769006195330691367e-01,0.000000000000000000e+00
5.170000000000000000e+02,-9.258642108819128413e-01,0.000000000000000000e+00
5.180000000000000000e+02,2.430569067191548638e-01,0.000000000000000000e+00
5.190000000000000000e+02,1.105582594802163032e-01,0.000000000000000000e+00
5.200000000000000000e+02,6.471221016618017297e-02,0.000000000000000000e+00
5.210000000000000000e+02,5.817133279111870170e-01,0.000000000000000000e+00
5.220000000000000000e+02,5.553868970109218095e-01,0.000000000000000000e+00
5.230000000000000000e+02,1.079965156978200724e+00,0.000000000000000000e+00
5.240000000000000000e+02,7.802242173146226589e-01,0.000000000000000000e+00
5.250000000000000000e+02,2.836880787223268752e-01,0.000000000000000000e+00
5.260000000000000000e+02,-8.390490141912697597e-01,0.000000000000000000e+00
5.270000000000000000e+02,-7.844197220754481892e-01,0.000000000000000000e+00
5.280000000000000000e+02,-9.562391614825624941e-01,0.000000000000000000e+00
5.290000000000000000e+02,-9.250772049435366240e-01,0.000000000000000000e+00
5.300000000000000000e+02,-1.120179811971597550e+00,0.000000000000000000e+00
5.310000000000000000e+02,-9.169216924272722835e-01,0.000000000000000000e+00
5.320000000000000000e+02,-6.726546203599982343e-01,0.000000000000000000e+00
5.330000000000000000e+02,-5.945616113745716413e-01,0.000000000000000000e+00
5.340000000000000000e+02,-7.127747461318753031e-01,0.000000000000000000e+00
5.350000000000000000e+02,-3.285665286902212934e-01,0.000000000000000000e+00
5.360000000000000000e+02,-5.111175124393444458e-01,0.000000000000000000e+00
5.370000000000000000e+02,-4.233134470370372715e-01,0.000000000000000000e+00
5.380000000000000000e+02,-6.019452217639956748e-01,0.000000000000000000e+00
5.390000000000000000e+02,-4.655427492900593989e-01,0.000000000000000000e+00
5.400000000000000000e+02,-4.828395115737250942e-02,0.000000000000000000e+00
5.410000000000000000e+02,-1.448011650399955164e-01,0.000000000000000000e+00
5.420000000000000000e+02,-2.766430242726952149e-01,0.000000000000000000e+00
5.430000000000000000e+02,2.266600498582740653e-01,0.000000000000000000e+00
5.440000000000000000e+02,-4.303112046681338843e-01,0.000000000000000000e+00
5.450000000000000000e+02,1.960936911423343532e-01,0.000000000000000000e+00
5.460000000000000000e+02,-1.519818750199699586e-01,0.000000000000000000e+00
5.470000000000000000e+02,1.179757378518175720e-01,0.000000000000000000e+00
5.480000000000000000e+02,2.222290429928592409e-02,0.000000000000000000e+00
5.490000000000000000e+02,1.932361006845859097e-01,0.000000000000000000e+00
5.500000000000000000e+02,-2.085975305616333542e-01,0.000000000000000000e+00
5.510000000000000000e+02,1.280444748062267435e-01,0.000000000000000000e+00
5.520000000000000000e+02,4.357540971162469634e-01,0.000000000000000000e+00
5.530000000000000000e+02,1.986157804305834218e-01,0.000000000000000000e+00
5.540000000000000000e+02,5.229023834522124048e-01,0.000000000000000000e+00
5.550000000000000000e+02,-1.081057237875195365e-01,0.000000000000000000e+00
5.560000000000000000e+02,1.422128755554491752e-01,0.000000000000000000e+00
5.570000000000000000e+02,3.314379794933051127e-01,0.000000000000000000e+00
5.580000000000000000e+02,6.492440269290736254e-02,0.000000000000000000e+00
5.590000000000000000e+02,3.263614002783694623e-01,0.000000000000000000e+00
5.600000000000000000e+02,4.737626648154733555e-01,0.000000000000000000e+00
5.610000000000000000e+02,1.156812132801610798e-02,0.000000000000000000e+00
5.620000000000000000e+02,6.244894892430385286e-02,0.000000000000000000e+00
5.630000000000000000e+02,2.291442590216584141e-01,0.000000000000000000e+00
5.640000000000000000e+02,-2.411926089200830681e-01,0.000000000000000000e+00
5.650000000000000000e+02,-6.681128629478767789e-02,0.000000000000000000e+00
5.660000000000000000e+02,1.323327195304483117e-01,0.000000000000000000e+00
5.670000000000000000e+02,3.959851876711483865e+00,0.000000000000000000e+00
5.680000000000000000e+02,5.619319584268281709e+00,0.000000000000000000e+00
5.690000000000000000e+02,4.612539286234693670e-01,1.000000000000000000e+00
5.700000000000000000e+02,-1.074533008884684504e+00,0.000000000000000000e+00
5.710000000000000000e+02,-1.133508444085015165e+00,0.000000000000000000e+00
5.720000000000000000e+02,-1.034971703809027144e+00,0.000000000000000000e+00
5.730000000000000000e+02,-9.874967346231307008e-01,0.000000000000000000e+00
5.740000000000000000e+02,-7.677475494676645473e-01,0.000000000000000000e+00
5.750000000000000000e+02,-7.098307920459284714e-01,0.000000000000000000e+00
5.760000000000000000e+02,-4.376030751929075868e-01,0.000000000000000000e+00
5.770000000000000000e+02,-4.670351573229428732e-01,0.000000000000000000e+00
5.780000000000000000e+02,-1.432766046103508828e-01,0.000000000000000000e+00
5.790000000000000000e+02,-2.141277326554747451e-01,0.000000000000000000e+00
5.800000000000000000e+02,2.926162093236799877e-01,0.000000000000000000e+00
5.810000000000000000e+02,3.443489775208617987e-01,0.000000000000000000e+00
5.820000000000000000e+02,8.229181755114788333e-01,0.000000000000000000e+00
5.830000000000000000e+02,9.121536298293984046e-01,0.000000000000000000e+00
5.840000000000000000e+02,6.536210877046529921e-01,0.000000000000000000e+00
5.850000000000000000e+02,1.076386147236539498e-01,0.000000000000000000e+00
5.860000000000000000e+02,-6.748623317246612574e-01,0.000000000000000000e+00
5.870000000000000000e+02,-1.229270353710141706e+00,0.000000000000000000e+00
5.880000000000000000e+02,-1.100751551345955814e+00,0.000000000000000000e+00
5.890000000000000000e+02,-9.633113798982243514e-01,0.000000000000000000e+00
5.900000000000000000e+02,-9.297580966297304128e-01,0.000000000000000000e+00
5.910000000000000000e+02,-9.276382411987090792e-01,0.000000000000000000e+00
5.920000000000000000e+02,-8.562326650429367136e-01,0.000000000000000000e+00
5.930000000000000000e+02,-8.324313291706882945e-01,0.000000000000000000e+00
5.940000000000000000e+02,-6.438634146350163956e-01,0.000000000000000000e+00
5.950000000000000000e+02,-7.019258728588990692e-01,0.000000000000000000e+00
5.960000000000000000e+02,-3.152044102418237181e-01,0.000000000000000000e+00
5.970000000000000000e+02,-3.706782428519412864e-01,0.000000000000000000e+00
5.980000000000000000e+02,-3.934606222071176385e-01,0.000000000000000000e+00
5.990000000000000000e+02,-3.248860514928084142e-01,0.000000000000000000e+00
6.000000000000000000e+02,-3.166746391631625746e-01,0.000000000000000000e+00
6.010000000000000000e+02,-1.856952165801195875e-01,0.000000000000000000e+00
6.020000000000000000e+02,1.978895566458334365e-01,0.000000000000000000e+00
6.030000000000000000e+02,3.130537585242522680e-01,0.000000000000000000e+00
6.040000000000000000e+02,1.459632759948176484e-01,0.000000000000000000e+00
6.050000000000000000e+02,3.928129419645031567e-02,0.000000000000000000e+00
6.060000000000000000e+02,3.749482505772312041e-02,0.000000000000000000e+00
6.070000000000000000e+02,3.915229466328394303e-01,0.000000000000000000e+00
6.080000000000000000e+02,3.010634586922307787e-01,0.000000000000000000e+00
6.090000000000000000e+02,3.552436336353434476e-01,0.000000000000000000e+00
6.100000000000000000e+02,1.916631932853091191e-01,0.000000000000000000e+00
6.110000000000000000e+02,2.133552108187305452e-01,0.000000000000000000e+00
6.120000000000000000e+02,2.214804881183800034e-01,0.000000000000000000e+00
6.130000000000000000e+02,4.377571077597146032e-01,0.000000000000000000e+00
6.140000000000000000e+02,5.012542596089650804e-01,0.000000000000000000e+00
6.150000000000000000e+02,3.706773748216602438e-01,0.000000000000000000e+00
6.160000000000000000e+02,1.900375454152661570e-01,0.000000000000000000e+00
6.170000000000000000e+02,3.783091687954132643e-01,0.000000000000000000e+00
6.180000000000000000e+02,1.782307273641871304e-01,0.000000000000000000e+00
6.190000000000000000e+02,9.362585921537839306e-01,0.000000000000000000e+00
6.200000000000000000e+02,4.830614910881638191e-01,0.000000000000000000e+00
6.210000000000000000e+02,2.095252481727353511e-01,0.000000000000000000e+00
6.220000000000000000e+02,2.126806318044424382e-01,0.000000000000000000e+00
6.230000000000000000e+02,2.528877418267235222e-01,0.000000000000000000e+00
6.240000000000000000e+02,1.669221449506615995e-01,0.000000000000000000e+00
6.250000000000000000e+02,2.169942162168854438e-01,0.000000000000000000e+00
6.260000000000000000e+02,8.848703313876842280e-01,0.000000000000000000e+00
6.270000000000000000e+02,5.491403779571979449e+00,0.000000000000000000e+00
6.280000000000000000e+02,4.380807247498408330e+00,0.000000000000000000e+00
6.290000000000000000e+02,-4.655074312487283428e-01,1.000000000000000000e+00
6.300000000000000000e+02,-9.384204372926173710e-01,0.000000000000000000e+00
6.310000000000000000e+02,-1.196957022262185921e+00,0.000000000000000000e+00
6.320000000000000000e+02,-7.861916174982496175e-01,0.000000000000000000e+00
6.330000000000000000e+02,-7.773052729305782726e-01,0.000000000000000000e+00
6.340000000000000000e+02,-8.541017723951528362e-01,0.000000000000000000e+00
6.350000000000000000e+02,-7.033323154100864505e-01,0.000000000000000000e+00
6.360000000000000000e+02,-5.636783617872780372e-01,0.000000000000000000e+00
6.370000000000000000e+02,-4.990232354448865815e-01,0.000000000000000000e+00
6.380000000000000000e+02,1.661287540083401099e-02,0.000000000000000000e+00
6.390000000000000000e+02,-2.062425540125716883e-01,0.000000000000000000e+00
6.400000000000000000e+02,2.122547332648738738e-01,0.000000000000000000e+00
6.410000000000000000e+02,4.633571557264055674e-01,0.000000000000000000e+00
6.420000000000000000e+02,8.659347135069045409e-01,0.000000000000000000e+00
6.430000000000000000e+02,3.989825010614992395e-01,0.000000000000000000e+00
6.440000000000000000e+02,5.721448137413518431e-01,0.000000000000000000e+00
6.450000000000000000e+02,-4.237549792800172632e-01,0.000000000000000000e+00
6.460000000000000000e+02,-9.366859383345244039e-01,0.000000000000000000e+00
6.470000000000000000e+02,-1.080995518541993716e+00,0.000000000000000000e+00
6.480000000000000000e+02,-1.479354363103962955e+00,0.000000000000000000e+00
6.490000000000000000e+02,-1.056495020005530083e+00,0.000000000000000000e+00
6.500000000000000000e+02,-1.403671540578735444e+00,0.000000000000000000e+00
6.510000000000000000e+02,-9.504096233512010494e-01,0.000000000000000000e+00
6.520000000000000000e+02,-7.846771526738377522e-01,0.000000000000000000e+00
6.530000000000000000e+02,-9.730961878190832470e-01,0.000000000000000000e+00
6.540000000000000000e+02,-9.665997871738084557e-01,0.000000000000000000e+00
6.550000000000000000e+02,-5.689441393759273602e-01,0.000000000000000000e+00
6.560000000000000000e+02,-3.923850409525288518e-01,0.000000000000000000e+00
6.570000000000000000e+02,-9.682030975172349896e-01,0.000000000000000000e+00
6.580000000000000000e+02,-4.224116249123893163e-01,0.000000000000000000e+00
6.590000000000000000e+02,-7.601309122525985451e-01,0.000000000000000000e+00
6.600000000000000000e+02,-5.309575688161206897e-02,0.000000000000000000e+00
6.610000000000000000e+02,-1.733029664869948083e-01,0.000000000000000000e+00
6.620000000000000000e+02,-1.057582997800385061e-01,0.000000000000000000e+00
6.630000000000000000e+02,-3.425998209944167705e-01,0.000000000000000000e+00
6.640000000000000000e+02,-2.349118202623147189e-01,0.000000000000000000e+00
6.650000000000000000e+02,5.769163486687224340e-01,0.000000000000000000e+00
6.660000000000000000e+02,-2.366988731264598467e-01,0.000000000000000000e+00
6.670000000000000000e+02,2.275057553813173705e-01,0.000000000000000000e+00
6.680000000000000000e+02,-1.389567154692278317e-01,0.000000000000000000e+00
6.690000000000000000e+02,2.171715208658726581e-01,0.000000000000000000e+00
6.700000000000000000e+02,2.511969061338773512e-01,0.000000000000000000e+00
6.710000000000000000e+02,2.376011421636101961e-01,0.000000000000000000e+00
6.720000000000000000e+02,1.335893807447675330e-01,0.000000000000000000e+00
6.730000000000000000e+02,1.635493856236373278e-01,0.000000000000000000e+00
6.740000000000000000e+02,4.643373980478897045e-01,0.000000000000000000e+00
6.750000000000000000e+02,5.012838461494747988e-02,0.000000000000000000e+00
6.760000000000000000e+02,3.316816486195585667e-01,0.000000000000000000e+00
6.770000000000000000e+02,1.397491018417070519e-01,0.000000000000000000e+00
6.780000000000000000e+02,2.736564740632238535e-01,0.000000000000000000e+00
6.790000000000000000e+02,8.808537074783079346e-01,0.000000000000000000e+00
6.800000000000000000e+02,1.419008498927319395e-01,0.000000000000000000e+00
6.810000000000000000e+02,2.752745824955583551e-02,0.000000000000000000e+00
6.820000000000000000e+02,-1.094312295688305292e-01,0.000000000000000000e+00
6.830000000000000000e+02,-9.082897064414613419e-02,0.000000000000000000e+00
6.840000000000000000e+02,1.451798109494796540e-01,0.000000000000000000e+00
6.850000000000000000e+02,1.410184418393560235e-01,0.000000000000000000e+00
6.860000000000000000e+02,1.525883674716269178e+00,0.000000000000000000e+00
6.870000000000000000e+02,5.918154026077128371e+00,0.000000000000000000e+00
6.880000000000000000e+02,2.200664650320037108e+00,1.000000000000000000e+00
6.890000000000000000e+02,-8.725090204041321407e-01,0.000000000000000000e+00
6.900000000000000000e+02,-1.058177790218783221e+00,0.000000000000000000e+00
6.910000000000000000e+02,-1.132867100919838776e+00,0.000000000000000000e+00
6.920000000000000000e+02,-5.586248661132959814e-01,0.000000000000000000e+00
6.930000000000000000e+02,-8.278964660760025351e-01,0.000000000000000000e+00
6.940000000000000000e+02,-3.096037620203513363e-01,0.000000000000000000e+00
6.950000000000000000e+02,-5.210771654476300530e-01,0.000000000000000000e+00
6.960000000000000000e+02,-1.930211720360232863e-01,0.000000000000000000e+00
6.970000000000000000e+02,-1.168725842380264196e-01,0.000000000000000000e+00
6.980000000000000000e+02,1.573086050366893363e-01,0.000000000000000000e+00
6.990000000000000000e+02,2.044220383849892908e-01,0.000000000000000000e+00
7.000000000000000000e+02,7.904539053931495252e-01,0.000000000000000000e+00
7.010000000000000000e+02,4.901854142343064491e-01,0.000000000000000000e+00
7.020000000000000000e+02,8.283556506951866849e-01,0.000000000000000000e+00
7.030000000000000000e+02,1.102286635850620478e+00,0.000000000000000000e+00
7.040000000000000000e+02,3.807151444658160577e-01,0.000000000000000000e+00
7.050000000000000000e+02,-2.660766809657593712e-01,0.000000000000000000e+00
7.060000000000000000e+02,-9.746818375404100454e-01,0.000000000000000000e+00
7.070000000000000000e+02,-1.079667818222523890e+00,0.000000000000000000e+00
7.080000000000000000e+02,-1.037380513944525795e+00,0.000000000000000000e+00
7.090000000000000000e+02,-8.967295307720620778e-01,0.000000000000000000e+00
7.100000000000000000e+02,-1.053553233531881572e+00,0.000000000000000000e+00
7.110000000000000000e+02,-7.478298227411962484e-01,0.000000000000000000e+00
7.120000000000000000e+02,-6.200023582772637987e-01,0.000000000000000000e+00
7.130000000000000000e+02,-7.394125640713484771e-01,0.000000000000000000e+00
7.140000000000000000e+02,-3.359277258528232668e-01,0.000000000000000000e+00
7.150000000000000000e+02,-5.634664709716170616e-01,0.000000000000000000e+00
7.160000000000000000e+02,-2.020205621547774000e-01,0.000000000000000000e+00
7.170000000000000000e+02,-4.944260079601214830e-01,0.000000000000000000e+00
7.180000000000000000e+02,-2.417468330764991902e-01,0.000000000000000000e+00
7.190000000000000000e+02,-2.638864802188644054e-01,0.000000000000000000e+00
7.200000000000000000e+02,2.031815196657710543e-01,0.000000000000000000e+00
7.210000000000000000e+02,-8.050872854713185534e-02,0.000000000000000000e+00
7.220000000000000000e+02,7.258007029877568128e-02,0.000000000000000000e+00
7.230000000000000000e+02,2.440508170502430074e-01,0.000000000000000000e+00
7.240000000000000000e+02,7.193564097858333450e-02,0.000000000000000000e+00
7.250000000000000000e+02,2.858865331183436664e-01,0.000000000000000000e+00
7.260000000000000000e+02,1.692323248813114300e-01,0.000000000000000000e+00
7.270000000000000000e+02,7.306054592146009330e-02,0.000000000000000000e+00
7.280000000000000000e+02,2.884898917482809910e-01,0.000000000000000000e+00
7.290000000000000000e+02,1.668002959852584177e-01,0.000000000000000000e+00
7.300000000000000000e+02,2.529600203693553317e-01,0.000000000000000000e+00
7.310000000000000000e+02,3.995046684391596048e-01,0.000000000000000000e+00
7.320000000000000000e+02,2.630815879154604908e-01,0.000000000000000000e+00
7.330000000000000000e+02,4.513090591046778899e-01,0.000000000000000000e+00
7.340000000000000000e+02,2.828587575495906115e-01,0.000000000000000000e+00
7.350000000000000000e+02,2.528337089695023021e-01,0.000000000000000000e+00
7.360000000000000000e+02,2.031185118137964762e-01,0.000000000000000000e+00
7.370000000000000000e+02,2.653159029838251248e-01,0.000000000000000000e+00
7.380000000000000000e+02,4.166092961189536981e-01,0.000000000000000000e+00
7.390000000000000000e+02,4.607510427369688744e-01,0.000000000000000000e+00
7.400000000000000000e+02,5.462559697337432407e-01,0.000000000000000000e+00
7.410000000000000000e+02,-2.617762413849000214e-01,0.000000000000000000e+00
7.420000000000000000e+02,1.643804906909540897e-01,0.000000000000000000e+00
7.430000000000000000e+02,1.899105714860648553e-01,0.000000000000000000e+00
7.440000000000000000e+02,1.687810354475825225e-01,0.000000000000000000e+00
7.450000000000000000e+02,-3.086424493792652365e-02,0.000000000000000000e+00
7.460000000000000000e+02,2.980085945783494950e+00,0.000000000000000000e+00
7.470000000000000000e+02,4.454127201375790435e+00,0.000000000000000000e+00
7.480000000000000000e+02,-3.842117593663789687e-01,1.000000000000000000e+00
7.490000000000000000e+02,-9.566329160680310251e-01,0.000000000000000000e+00
7.500000000000000000e+02,-7.313159721943042202e-01,0.000000000000000000e+00
7.510000000000000000e+02,-7.699165023488415693e-01,0.000000000000000000e+00
7.520000000000000000e+02,-4.725554409558600510e-01,0.000000000000000000e+00
7.530000000000000000e+02,-4.963462955342860528e-01,0.000000000000000000e+00
7.540000000000000000e+02,-4.978050860048221504e-01,0.000000000000000000e+00
7.550000000000000000e+02,-2.502308016532205914e-01,0.000000000000000000e+00
7.560000000000000000e+02,-1.633654768037393623e-01,0.000000000000000000e+00
7.570000000000000000e+02,-2.663891684391080372e-01,0.000000000000000000e+00
7.580000000000000000e+02,3.572058593979912655e-01,0.000000000000000000e+00
7.590000000000000000e+02,3.313613395545948470e-01,0.000000000000000000e+00
7.600000000000000000e+02,6.149749696074853222e-01,0.000000000000000000e+00
7.610000000000000000e+02,6.821966946993766046e-01,0.000000000000000000e+00
7.620000000000000000e+02,9.622129789547206880e-01,0.000000000000000000e+00
7.630000000000000000e+02,6.525222296812254186e-01,0.000000000000000000e+00
7.640000000000000000e+02,2.321934331138520158e-01,0.000000000000000000e+00
7.650000000000000000e+02,-5.786751555155721372e-01,0.000000000000000000e+00
7.660000000000000000e+02,-1.001518068773670889e+00,0.000000000000000000e+00
7.670000000000000000e+02,-1.137213151550689805e+00,0.000000000000000000e+00
7.680000000000000000e+02,-1.283913736863568689e+00,0.000000000000000000e+00
7.690000000000000000e+02,-1.102552525767817260e+00,0.000000000000000000e+00
7.700000000000000000e+02,-9.661722222331423637e-01,0.000000000000000000e+00
7.710000000000000000e+02,-9.400613006532260174e-01,0.000000000000000000e+00
7.720000000000000000e+02,-9.688458520721578981e-01,0.000000000000000000e+00
7.730000000000000000e+02,-7.044087409308364967e-01,0.000000000000000000e+00
7.740000000000000000e+02,-5.405220659614409229e-01,0.000000000000000000e+00
7.750000000000000000e+02,-5.783156755712652863e-01,0.000000000000000000e+00
7.760000000000000000e+02,-6.671737955346985771e-01,0.000000000000000000e+00
7.770000000000000000e+02,-2.419196569394436169e-01,0.000000000000000000e+00
7.780000000000000000e+02,-4.084236206125094748e-01,0.000000000000000000e+00
7.790000000000000000e+02,-3.163517364399154319e-01,0.000000000000000000e+00
7.800000000000000000e+02,-3.499793943616353320e-01,0.000000000000000000e+00
7.810000000000000000e+02,-1.774169751889731472e-01,0.000000000000000000e+00
7.820000000000000000e+02,-7.582046096738050134e-02,0.000000000000000000e+00
7.830000000000000000e+02,-1.900140843827159420e-01,0.000000000000000000e+00
7.840000000000000000e+02,-6.128432752679758427e-02,0.000000000000000000e+00
7.850000000000000000e+02,-1.637820897557948352e-01,0.000000000000000000e+00
7.860000000000000000e+02,-1.583334066158719258e-02,0.000000000000000000e+00
7.870000000000000000e+02,-8.874809197458406740e-02,0.000000000000000000e+00
7.880000000000000000e+02,-1.082619072182178233e-01,0.000000000000000000e+00
7.890000000000000000e+02,2.435217027830301473e-01,0.000000000000000000e+00
7.900000000000000000e+02,4.997153227152929811e-02,0.000000000000000000e+00
7.910000000000000000e+02,6.735486452909451860e-02,0.000000000000000000e+00
7.920000000000000000e+02,2.447021186160133199e-01,0.000000000000000000e+00
7.930000000000000000e+02,2.279044429447283915e-01,0.000000000000000000e+00
7.940000000000000000e+02,8.748397087600504052e-02,0.000000000000000000e+00
7.950000000000000000e+02,1.887077837618102993e-01,0.000000000000000000e+00
7.960000000000000000e+02,1.677457869551937097e-01,0.000000000000000000e+00
7.970000000000000000e+02,1.767991468689127099e-01,0.000000000000000000e+00
7.980000000000000000e+02,8.099332370934900771e-01,0.000000000000000000e+00
7.990000000000000000e+02,4.316974669676565957e-01,0.000000000000000000e+00
8.000000000000000000e+02,5.467457602263725569e-01,0.000000000000000000e+00
8.010000000000000000e+02,-1.208944380533550078e-01,0.000000000000000000e+00
8.020000000000000000e+02,3.069105138904144048e-01,0.000000000000000000e+00
8.030000000000000000e+02,-1.616472054758470167e-01,0.000000000000000000e+00
8.040000000000000000e+02,4.085936109342229727e-01,0.000000000000000000e+00
8.050000000000000000e+02,4.463069126330378444e-01,0.000000000000000000e+00
8.060000000000000000e+02,4.661217911667275615e+00,0.000000000000000000e+00
8.070000000000000000e+02,4.449995019840887522e+00,0.000000000000000000e+00
8.080000000000000000e+02,-3.568979621151134318e-01,1.000000000000000000e+00
8.090000000000000000e+02,-8.661234740949917965e-01,0.000000000000000000e+00
8.100000000000000000e+02,-9.766229062201101652e-01,0.000000000000000000e+00
8.110000000000000000e+02,-9.090309052759895092e-01,0.000000000000000000e+00
8.120000000000000000e+02,-8.666850947000693806e-01,0.000000000000000000e+00
8.130000000000000000e+02,-6.992864920654917604e-01,0.000000000000000000e+00
8.140000000000000000e+02,-6.201924557078243305e-01,0.000000000000000000e+00
8.150000000000000000e+02,-4.081450779941742657e-01,0.000000000000000000e+00
8.160000000000000000e+02,-2.736954253897550329e-02,0.000000000000000000e+00
8.170000000000000000e+02,-3.177293462552883141e-01,0.000000000000000000e+00
8.180000000000000000e+02,-5.727425759700426056e-02,0.000000000000000000e+00
8.190000000000000000e+02,2.190754111053675457e-01,0.000000000000000000e+00
8.200000000000000000e+02,4.823532347755105643e-01,0.000000000000000000e+00
8.210000000000000000e+02,8.727543994247174419e-01,0.000000000000000000e+00
8.220000000000000000e+02,9.058995903883874101e-01,0.000000000000000000e+00
8.230000000000000000e+02,4.612230383400164335e-01,0.000000000000000000e+00
8.240000000000000000e+02,-7.264810299805915528e-02,0.000000000000000000e+00
8.250000000000000000e+02,-7.470704325354942110e-01,0.000000000000000000e+00
8.260000000000000000e+02,-1.180985776181146862e+00,0.000000000000000000e+00
8.270000000000000000e+02,-1.213801756730318759e+00,0.000000000000000000e+00
8.280000000000000000e+02,-9.308318437548678270e-01,0.000000000000000000e+00
8.290000000000000000e+02,-1.189608150666306541e+00,0.000000000000000000e+00
8.300000000000000000e+02,-1.104213547090088898e+00,0.000000000000000000e+00
8.310000000000000000e+02,-3.773287512164355539e-01,0.000000000000000000e+00
8.320000000000000000e+02,-7.044292136780504476e-01,0.000000000000000000e+00
8.330000000000000000e+02,-6.817945171323696041e-01,0.000000000000000000e+00
8.340000000000000000e+02,-6.081411780177797821e-01,0.000000000000000000e+00
8.350000000000000000e+02,-5.303693476048526589e-01,0.000000000000000000e+00
8.360000000000000000e+02,-2.919145246753306333e-01,0.000000000000000000e+00
8.370000000000000000e+02,-2.328297330000361487e-01,0.000000000000000000e+00
8.380000000000000000e+02,-2.786961004288298072e-01,0.000000000000000000e+00
8.390000000000000000e+02,-2.402580496474952532e-01,0.000000000000000000e+00
8.400000000000000000e+02,-1.698475451677683989e-01,0.000000000000000000e+00
8.410000000000000000e+02,4.070462494423383870e-02,0.000000000000000000e+00
8.420000000000000000e+02,-2.726246911986913157e-01,0.000000000000000000e+00
8.430000000000000000e+02,2.005531877214732639e-01,0.000000000000000000e+00
8.440000000000000000e+02,9.955612410819006386e-02,0.000000000000000000e+00
8.450000000000000000e+02,1.065456097777760097e-01,0.000000000000000000e+00
8.460000000000000000e+02,1.627697182100251438e-01,0.000000000000000000e+00
8.470000000000000000e+02,1.319127200929552657e-02,0.000000000000000000e+00
8.480000000000000000e+02,4.057658102135615619e-01,0.000000000000000000e+00
8.490000000000000000e+02,2.057031409328867189e-01,0.000000000000000000e+00
8.500000000000000000e+02,2.796473627580796650e-01,0.000000000000000000e+00
8.510000000000000000e+02,2.095978286647838251e-01,0.000000000000000000e+00
8.520000000000000000e+02,5.926362125463179309e-01,0.000000000000000000e+00
8.530000000000000000e+02,4.789256768450506629e-01,0.000000000000000000e+00
8.540000000000000000e+02,3.769882579114524623e-01,0.000000000000000000e+00
8.550000000000000000e+02,4.095260631338393242e-01,0.000000000000000000e+00
8.560000000000000000e+02,3.583489012824609965e-01,0.000000000000000000e+00
8.570000000000000000e+02,3.006003651365663498e-01,0.000000000000000000e+00
8.580000000000000000e+02,8.355291501621707750e-01,0.000000000000000000e+00
8.590000000000000000e+02,6.442925291723112791e-01,0.000000000000000000e+00
8.600000000000000000e+02,2.701573009477696852e-01,0.000000000000000000e+00
8.610000000000000000e+02,1.270494091352820654e-01,0.000000000000000000e+00
8.620000000000000000e+02,1.831841083275079218e-01,0.000000000000000000e+00
8.630000000000000000e+02,1.020928939127757756e-01,0.000000000000000000e+00
8.640000000000000000e+02,1.259761725588137149e-01,0.000000000000000000e+00
8.650000000000000000e+02,1.104933389591888471e+00,0.000000000000000000e+00
8.660000000000000000e+02,6.036332380909738227e+00,0.000000000000000000e+00
8.670000000000000000e+02,3.247510412994214946e+00,1.000000000000000000e+00
8.680000000000000000e+02,-7.494565970639424091e-01,0.000000000000000000e+00
8.690000000000000000e+02,-1.259398251857772211e+00,0.000000000000000000e+00
8.700000000000000000e+02,-1.191076932802459298e+00,0.000000000000000000e+00
8.710000000000000000e+02,-9.341317877057085939e-01,0.000000000000000000e+00
8.720000000000000000e+02,-9.607928271541376075e-01,0.000000000000000000e+00
8.730000000000000000e+02,-6.344739835344384016e-01,0.000000000000000000e+00
8.740000000000000000e+02,-8.628386615502504631e-01,0.000000000000000000e+00
8.750000000000000000e+02,-3.165108979151654012e-01,0.000000000000000000e+00
8.760000000000000000e+02,-2.094209231609780730e-01,0.000000000000000000e+00
8.770000000000000000e+02,-3.195464848891831355e-01,0.000000000000000000e+00
8.780000000000000000e+02,-5.748146685314871329e-02,0.000000000000000000e+00
8.790000000000000000e+02,3.534820627560543160e-01,0.000000000000000000e+00
8.800000000000000000e+02,5.067763022170320708e-01,0.000000000000000000e+00
8.810000000000000000e+02,9.110683481754267010e-01,0.000000000000000000e+00
8.820000000000000000e+02,7.603168882391652117e-01,0.000000000000000000e+00
8.830000000000000000e+02,2.853997918625880148e-01,0.000000000000000000e+00
8.840000000000000000e+02,-3.716069177505113563e-01,0.000000000000000000e+00
8.850000000000000000e+02,-8.586137238216660084e-01,0.000000000000000000e+00
8.860000000000000000e+02,-1.023372045844244571e+00,0.000000000000000000e+00
8.870000000000000000e+02,-1.218847793798953028e+00,0.000000000000000000e+00
8.880000000000000000e+02,-8.562349908680710886e-01,0.000000000000000000e+00
8.890000000000000000e+02,-9.418699618691688258e-01,0.000000000000000000e+00
8.900000000000000000e+02,-8.297207186845378946e-01,0.000000000000000000e+00
8.910000000000000000e+02,-8.323927078801862667e-01,0.000000000000000000e+00
8.920000000000000000e+02,-5.024059417086653712e-01,0.000000000000000000e+00
8.930000000000000000e+02,-4.874094863315015513e-01,0.000000000000000000e+00
8.940000000000000000e+02,-6.929333761670751768e-01,0.000000000000000000e+00
8.950000000000000000e+02,-2.295385375373856507e-01,0.000000000000000000e+00
8.960000000000000000e+02,-6.762257793610630952e-01,0.000000000000000000e+00
8.970000000000000000e+02,-7.089175174273189273e-02,0.000000000000000000e+00
8.980000000000000000e+02,-4.609579415256599977e-01,0.000000000000000000e+00
8.990000000000000000e+02,-1.842531321403465330e-02,0.000000000000000000e+00
9.000000000000000000e+02,-4.119421249931173312e-01,0.000000000000000000e+00
9.010000000000000000e+02,1.299300474486859425e-01,0.000000000000000000e+00
9.020000000000000000e+02,-8.685202785949494575e-02,0.000000000000000000e+00
9.030000000000000000e+02,1.157921359074302464e-01,0.000000000000000000e+00
9.040000000000000000e+02,-3.115372842030630918e-01,0.000000000000000000e+00
9.050000000000000000e+02,2.170034299074964090e-01,0.000000000000000000e+00
9.060000000000000000e+02,-4.632293410268019211e-03,0.000000000000000000e+00
9.070000000000000000e+02,4.059526198148869502e-01,0.000000000000000000e+00
9.080000000000000000e+02,1.187122935663729312e-02,0.000000000000000000e+00
9.090000000000000000e+02,-7.518534106078058991e-03,0.000000000000000000e+00
9.100000000000000000e+02,1.763147159158499067e-01,0.000000000000000000e+00
9.110000000000000000e+02,7.816838194233123593e-02,0.000000000000000000e+00
9.120000000000000000e+02,3.228815681687937089e-01,0.000000000000000000e+00
9.130000000000000000e+02,3.147674125237016063e-01,0.000000000000000000e+00
9.140000000000000000e+02,1.868680591321360968e-02,0.000000000000000000e+00
9.150000000000000000e+02,2.020698042685737938e-01,0.000000000000000000e+00
9.160000000000000000e+02,4.207022968410208813e-02,0.000000000000000000e+00
9.170000000000000000e+02,5.381062784218965112e-01,0.000000000000000000e+00
9.180000000000000000e+02,3.983179086477666164e-01,0.000000000000000000e+00
9.190000000000000000e+02,4.271912984317615680e-01,0.000000000000000000e+00
9.200000000000000000e+02,-9.829624077685238104e-02,0.000000000000000000e+00
9.210000000000000000e+02,8.474038907566651402e-02,0.000000000000000000e+00
9.220000000000000000e+02,-7.194528810490694037e-02,0.000000000000000000e+00
9.230000000000000000e+02,1.989318534188143917e-01,0.000000000000000000e+00
9.240000000000000000e+02,-6.922214119135976229e-02,0.000000000000000000e+00
9.250000000000000000e+02,2.441006789310713465e+00,0.000000000000000000e+00
9.260000000000000000e+02,6.156058358861739244e+00,0.000000000000000000e+00
9.270000000000000000e+02,1.712895480631209111e+00,1.000000000000000000e+00
9.280000000000000000e+02,-8.422651832207322942e-01,0.000000000000000000e+00
9.290000000000000000e+02,-1.243900549128209132e+00,0.000000000000000000e+00
9.300000000000000000e+02,-1.224412350555792450e+00,0.000000000000000000e+00
9.310000000000000000e+02,-9.470992406146074849e-01,0.000000000000000000e+00
9.320000000000000000e+02,-9.598921119805398083e-01,0.000000000000000000e+00
9.330000000000000000e+02,-7.085559564784899012e-01,0.000000000000000000e+00
9.340000000000000000e+02,-7.834587513118408397e-01,0.000000000000000000e+00
9.350000000000000000e+02,-5.363419396305499909e-01,0.000000000000000000e+00
9.360000000000000000e+02,-4.365254346546610376e-01,0.000000000000000000e+00
9.370000000000000000e+02,-1.228068401674996118e-01,0.000000000000000000e+00
9.380000000000000000e+02,-8.128168142518757411e-02,0.000000000000000000e+00
9.390000000000000000e+02,1.369290826884432266e-01,0.000000000000000000e+00
9.400000000000000000e+02,6.414324235740745950e-01,0.000000000000000000e+00
9.410000000000000000e+02,6.547309721841947372e-01,0.000000000000000000e+00
9.420000000000000000e+02,6.407233028358656490e-01,0.000000000000000000e+00
9.430000000000000000e+02,5.591825214021223928e-02,0.000000000000000000e+00
9.440000000000000000e+02,-7.574114202571277099e-01,0.000000000000000000e+00
9.450000000000000000e+02,-9.564795043853876466e-01,0.000000000000000000e+00
9.460000000000000000e+02,-1.240781604792347004e+00,0.000000000000000000e+00
9.470000000000000000e+02,-1.215224074136131316e+00,0.000000000000000000e+00
9.480000000000000000e+02,-1.176508635545722603e+00,0.000000000000000000e+00
9.490000000000000000e+02,-1.121443035853627812e+00,0.000000000000000000e+00
9.500000000000000000e+02,-1.089467872560776263e+00,0.000000000000000000e+00
9.510000000000000000e+02,-9.525744400075321083e-01,0.000000000000000000e+00
9.520000000000000000e+02,-5.922075934758647131e-01,0.000000000000000000e+00
9.530000000000000000e+02,-5.394008471856370779e-01,0.000000000000000000e+00
9.540000000000000000e+02,-6.564186914322097666e-01,0.000000000000000000e+00
9.550000000000000000e+02,-4.141514078474252125e-01,0.000000000000000000e+00
9.560000000000000000e+02,-5.685625073604452240e-01,0.000000000000000000e+00
9.570000000000000000e+02,-1.011267188947922030e-01,0.000000000000000000e+00
9.580000000000000000e+02,-2.387474142759835882e-01,0.000000000000000000e+00
9.590000000000000000e+02,-8.330052600899261195e-02,0.000000000000000000e+00
9.600000000000000000e+02,-2.007894404720577397e-01,0.000000000000000000e+00
9.610000000000000000e+02,-7.913063610199379261e-02,0.000000000000000000e+00
9.620000000000000000e+02,8.989356463656950069e-02,0.000000000000000000e+00
9.630000000000000000e+02,1.568945427679891702e-01,0.000000000000000000e+00
9.640000000000000000e+02,1.164991786500907678e-01,0.000000000000000000e+00
9.650000000000000000e+02,1.344572019625915882e-01,0.000000000000000000e+00
9.660000000000000000e+02,3.621204589846503397e-01,0.000000000000000000e+00
9.670000000000000000e+02,2.252164673381838456e-01,0.000000000000000000e+00
9.680000000000000000e+02,3.913398574075002689e-01,0.000000000000000000e+00
9.690000000000000000e+02,4.107289161364341967e-01,0.000000000000000000e+00
9.700000000000000000e+02,6.252975288433101908e-02,0.000000000000000000e+00
9.710000000000000000e+02,6.443683850907528932e-01,0.000000000000000000e+00
9.720000000000000000e+02,2.451569826332209989e-01,0.000000000000000000e+00
9.730000000000000000e+02,5.400268760438086124e-01,0.000000000000000000e+00
9.740000000000000000e+02,2.404219270371077133e-01,0.000000000000000000e+00
9.750000000000000000e+02,5.614440269002455297e-01,0.000000000000000000e+00
9.760000000000000000e+02,3.986243212855982154e-01,0.000000000000000000e+00
9.770000000000000000e+02,6.811171401639267708e-01,0.000000000000000000e+00
9.780000000000000000e+02,6.443909774649846378e-01,0.000000000000000000e+00
9.790000000000000000e+02,4.398133827634576609e-01,0.000000000000000000e+00
9.800000000000000000e+02,1.185131558518182915e-01,0.000000000000000000e+00
9.810000000000000000e+02,5.803552745638843602e-01,0.000000000000000000e+00
9.820000000000000000e+02,9.069534754736301163e-02,0.000000000000000000e+00
9.830000000000000000e+02,5.719775026612859969e-01,0.000000000000000000e+00
9.840000000000000000e+02,5.111054247936190897e-01,0.000000000000000000e+00
9.850000000000000000e+02,3.759195339211510500e+00,0.000000000000000000e+00
9.860000000000000000e+02,4.931338429407655433e+00,0.000000000000000000e+00
9.870000000000000000e+02,-1.034309036049013836e-01,1.000000000000000000e+00
9.880000000000000000e+02,-8.378639442368900347e-01,0.000000000000000000e+00
9.890000000000000000e+02,-5.309263842243460152e-01,0.000000000000000000e+00
9.900000000000000000e+02,-6.505146059727006103e-01,0.000000000000000000e+00
9.910000000000000000e+02,-5.869105751328532738e-01,0.000000000000000000e+00
9.920000000000000000e+02,-1.300575863644866659e-01,0.000000000000000000e+00
9.930000000000000000e+02,-4.070407393788681438e-01,0.000000000000000000e+00
9.940000000000000000e+02,-3.206909367512452702e-01,0.000000000000000000e+00
9.950000000000000000e+02,-3.262369868811079709e-02,0.000000000000000000e+00
9.960000000000000000e+02,-8.473446747465812612e-02,0.000000000000000000e+00
9.970000000000000000e+02,2.628321716027159916e-01,0.000000000000000000e+00
9.980000000000000000e+02,4.554767233576237362e-01,0.000000000000000000e+00
9.990000000000000000e+02,5.793129878884607509e-01,0.000000000000000000e+00
1.000000000000000000e+03,9.450888951569698104e-01,0.000000000000000000e+00
1.001000000000000000e+03,8.047118173275172870e-01,0.000000000000000000e+00
1.002000000000000000e+03,7.389769536386775473e-01,0.000000000000000000e+00
1.003000000000000000e+03,5.606984578457733376e-02,0.000000000000000000e+00
1.004000000000000000e+03,-9.280381973025517706e-01,0.000000000000000000e+00
1.005000000000000000e+03,-1.048612677223830447e+00,0.000000000000000000e+00
1.006000000000000000e+03,-1.103688237681003548e+00,0.000000000000000000e+00
1.007000000000000000e+03,-1.295146072192921993e+00,0.000000000000000000e+00
1.008000000000000000e+03,-8.768416146983630810e-01,0.000000000000000000e+00
1.009000000000000000e+03,-8.386824880578156449e-01,0.000000000000000000e+00
1.010000000000000000e+03,-9.287378110953221633e-01,0.000000000000000000e+00
1.011000000000000000e+03,-9.544538529175947694e-01,0.000000000000000000e+00
1.012000000000000000e+03,-7.684445399979695779e-01,0.000000000000000000e+00
1.013000000000000000e+03,-2.438534699663743588e-01,0.000000000000000000e+00
1.014000000000000000e+03,-3.238528406050973918e-01,0.000000000000000000e+00
1.015000000000000000e+03,-7.519490399026519389e-01,0.000000000000000000e+00
1.016000000000000000e+03,-3.932470459754111025e-01,0.000000000000000000e+00
1.017000000000000000e+03,9.282163015372067727e-02,0.000000000000000000e+00
1.018000000000000000e+03,-3.911494647427900540e-01,0.000000000000000000e+00
1.019000000000000000e+03,-4.830865169236957524e-01,0.000000000000000000e+00
1.020000000000000000e+03,-1.351505574415634015e-01,0.000000000000000000e+00
1.021000000000000000e+03,-1.118989973213163763e-01,0.000000000000000000e+00
1.022000000000000000e+03,-1.850944139213718809e-01,0.000000000000000000e+00
1.023000000000000000e+03,2.203009684752172959e-01,0.000000000000000000e+00
1.024000000000000000e+03,-1.491175290298742684e-01,0.000000000000000000e+00
1.025000000000000000e+03,1.099016201435659701e-01,0.000000000000000000e+00
1.026000000000000000e+03,-2.003549257653691393e-02,0.000000000000000000e+00
1.027000000000000000e+03,2.172191863194911920e-01,0.000000000000000000e+00
1.028000000000000000e+03,-7.339822009394346425e-02,0.000000000000000000e+00
1.029000000000000000e+03,1.475073580181583688e-01,0.000000000000000000e+00
1.030000000000000000e+03,1.308874453618634470e-01,0.000000000000000000e+00
1.031000000000000000e+03,3.610394621567480228e-02,0.000000000000000000e+00
1.032000000000000000e+03,4.682624163311181475e-01,0.000000000000000000e+00
1.033000000000000000e+03,2.558961715011556781e-01,0.000000000000000000e+00
1.034000000000000000e+03,6.030927526483397666e-02,0.000000000000000000e+00
1.035000000000000000e+03,1.354155435937088592e-01,0.000000000000000000e+00
1.036000000000000000e+03,7.383506565636387131e-02,0.000000000000000000e+00
1.037000000000000000e+03,7.626827764721603176e-01,0.000000000000000000e+00
1.038000000000000000e+03,5.001392512096893839e-01,0.000000000000000000e+00
1.039000000000000000e+03,1.081675157151870126e-01,0.000000000000000000e+00
1.040000000000000000e+03,8.634997215761702760e-02,0.000000000000000000e+00
1.041000000000000000e+03,3.030801755557505431e-02,0.000000000000000000e+00
1.042000000000000000e+03,-4.074126349005640496e-02,0.000000000000000000e+00
1.043000000000000000e+03,2.496667905939014276e-01,0.000000000000000000e+00
1.044000000000000000e+03,4.017870782472278135e-01,0.000000000000000000e+00
1.045000000000000000e+03,4.235383597925276078e+00,0.000000000000000000e+00
1.046000000000000000e+03,3.038880260998519489e+00,1.000000000000000000e+00
1.047000000000000000e+03,-7.336955840521489636e-01,0.000000000000000000e+00
1.048000000000000000e+03,-8.292105149241671969e-01,0.000000000000000000e+00
1.049000000000000000e+03,-9.525942905572892805e-01,0.000000000000000000e+00
1.050000000000000000e+03,-5.444772224008829209e-01,0.000000000000000000e+00
1.051000000000000000e+03,-7.551973649668806132e-01,0.000000000000000000e+00
1.052000000000000000e+03,-4.784062419432790203e-01,0.000000000000000000e+00
1.053000000000000000e+03,-2.445906890589874261e-01,0.000000000000000000e+00
1.054000000000000000e+03,-4.289799776865670378e-01,0.000000000000000000e+00
1.055000000000000000e+03,-1.625144117710348446e-01,0.000000000000000000e+00
1.056000000000000000e+03,-3.995281844829608464e-01,0.000000000000000000e+00
1.057000000000000000e+03,6.657368400213882487e-02,0.000000000000000000e+00
1.058000000000000000e+03,5.889987650881063352e-01,0.000000000000000000e+00
1.059000000000000000e+03,4.706017803379436426e-01,0.000000000000000000e+00
1.060000000000000000e+03,8.545994452580626399e-01,0.000000000000000000e+00
1.061000000000000000e+03,9.434389089188203181e-01,0.000000000000000000e+00
1.062000000000000000e+03,4.460369766451515589e-02,0.000000000000000000e+00
1.063000000000000000e+03,-2.205731231682223625e-01,0.000000000000000000e+00
1.064000000000000000e+03,-5.511004062065832931e-01,0.000000000000000000e+00
1.065000000000000000e+03,-1.156667089518775393e+00,0.000000000000000000e+00
1.066000000000000000e+03,-1.191439047359234227e+00,0.000000000000000000e+00
1.067000000000000000e+03,-1.146391261954462060e+00,0.000000000000000000e+00
1.068000000000000000e+03,-1.083149270940694242e+00,0.000000000000000000e+00
1.069000000000000000e+03,-7.891201352215556630e-01,0.000000000000000000e+00
1.070000000000000000e+03,-9.495793894851293215e-01,0.000000000000000000e+00
1.071000000000000000e+03,-7.736579076070579930e-01,0.000000000000000000e+00
1.072000000000000000e+03,-5.544538221620675111e-01,0.000000000000000000e+00
1.073000000000000000e+03,-6.866811710248094114e-01,0.000000000000000000e+00
1.074000000000000000e+03,-2.402989445118633716e-01,0.000000000000000000e+00
1.075000000000000000e+03,-5.402934163675938706e-01,0.000000000000000000e+00
1.076000000000000000e+03,-2.214191705990549153e-01,0.000000000000000000e+00
1.077000000000000000e+03,-3.099362754111332774e-01,0.000000000000000000e+00
1.078000000000000000e+03,-9.489182599116803563e-02,0.000000000000000000e+00
1.079000000000000000e+03,-1.566523457597924496e-01,0.000000000000000000e+00
1.080000000000000000e+03,-1.818595384848489260e-01,0.000000000000000000e+00
1.081000000000000000e+03,5.906325615850305938e-02,0.000000000000000000e+00
1.082000000000000000e+03,-1.175948116395899717e-01,0.000000000000000000e+00
1.083000000000000000e+03,-8.072718792991176451e-02,0.000000000000000000e+00
1.084000000000000000e+03,1.048483143005860957e-01,0.000000000000000000e+00
1.085000000000000000e+03,2.109866839885085887e-01,0.000000000000000000e+00
1.086000000000000000e+03,-5.590647244708896180e-02,0.000000000000000000e+00
1.087000000000000000e+03,1.373462309102809753e-01,0.000000000000000000e+00
1.088000000000000000e+03,2.161128244579501312e-01,0.000000000000000000e+00
1.089000000000000000e+03,1.928213472706625797e-01,0.000000000000000000e+00
1.090000000000000000e+03,1.401220527863350496e-01,0.000000000000000000e+00
1.091000000000000000e+03,3.173997672195980058e-01,0.000000000000000000e+00
1.092000000000000000e+03,2.299582039005938772e-01,0.000000000000000000e+00
1.093000000000000000e+03,2.441507636861072750e-01,0.000000000000000000e+00
1.094000000000000000e+03,3.304402021355311581e-01,0.000000000000000000e+00
1.095000000000000000e+03,1.399738276464269904e-01,0.000000000000000000e+00
1.096000000000000000e+03,1.456763060111678776e-01,0.000000000000000000e+00
1.097000000000000000e+03,8.869228147229227810e-01,0.000000000000000000e+00
1.098000000000000000e+03,3.456515316138438210e-01,0.000000000000000000e+00
1.099000000000000000e+03,4.724646752264251015e-01,0.000000000000000000e+00
1.100000000000000000e+03,6.245737322353111382e-02,0.000000000000000000e+00
1.101000000000000000e+03,1.519644938564445116e-02,0.000000000000000000e+00
1.102000000000000000e+03,2.665901674105646268e-01,0.000000000000000000e+00
1.103000000000000000e+03,1.395264267741747888e-01,0.000000000000000000e+00
1.104000000000000000e+03,1.650918025960462776e+00,0.000000000000000000e+00
1.105000000000000000e+03,5.953341654089658874e+00,0.000000000000000000e+00
1.106000000000000000e+03,2.461458441124637186e+00,1.000000000000000000e+00
1.107000000000000000e+03,-7.478811746274037775e-01,0.000000000000000000e+00
1.108000000000000000e+03,-1.191489894889692591e+00,0.000000000000000000e+00
1.109000000000000000e+03,-9.966579414854783714e-01,0.000000000000000000e+00
1.110000000000000000e+03,-9.849529307937439082e-01,0.000000000000000000e+00
1.111000000000000000e+03,-7.319634062164023236e-01,0.000000000000000000e+00
1.112000000000000000e+03,-5.588895245322660355e-01,0.000000000000000000e+00
1.113000000000000000e+03,-6.537934380691718950e-01,0.000000000000000000e+00
1.114000000000000000e+03,-5.398123476177422164e-01,0.000000000000000000e+00
1.115000000000000000e+03,-3.551073443699398480e-01,0.000000000000000000e+00
1.116000000000000000e+03,-9.677474999196147842e-02,0.000000000000000000e+00
1.117000000000000000e+03,2.108557609919232134e-01,0.000000000000000000e+00
1.118000000000000000e+03,3.088257709121159378e-01,0.000000000000000000e+00
1.119000000000000000e+03,6.831353793278234221e-01,0.000000000000000000e+00
1.120000000000000000e+03,9.254620204142631756e-01,0.000000000000000000e+00
1.121000000000000000e+03,5.842759550116382039e-01,0.000000000000000000e+00
1.122000000000000000e+03,3.816322951028298660e-01,0.000000000000000000e+00
1.123000000000000000e+03,-4.988676305363662911e-01,0.000000000000000000e+00
1.124000000000000000e+03,-9.071395211136912273e-01,0.000000000000000000e+00
1.125000000000000000e+03,-1.117095035636419986e+00,0.000000000000000000e+00
1.126000000000000000e+03,-8.210056539458711056e-01,0.000000000000000000e+00
1.127000000000000000e+03,-1.316837895938651082e+00,0.000000000000000000e+00
1.128000000000000000e+03,-9.428284532599237044e-01,0.000000000000000000e+00
1.129000000000000000e+03,-7.105213401351095914e-01,0.000000000000000000e+00
1.130000000000000000e+03,-6.797842952829057372e-01,0.000000000000000000e+00
1.131000000000000000e+03,-6.514087678338456033e-01,0.000000000000000000e+00
1.132000000000000000e+03,-4.522516566703768115e-01,0.000000000000000000e+00
1.133000000000000000e+03,-3.140133908877334457e-01,0.000000000000000000e+00
1.134000000000000000e+03,-5.337788880031846261e-01,0.000000000000000000e+00
1.135000000000000000e+03,-2.910764667611156487e-01,0.000000000000000000e+00
1.136000000000000000e+03,-4.034390115401259025e-01,0.000000000000000000e+00
1.137000000000000000e+03,-1.836359171351860942e-01,0.000000000000000000e+00
1.138000000000000000e+03,8.517326110219269886e-02,0.000000000000000000e+00
1.139000000000000000e+03,-3.393794699999763687e-01,0.000000000000000000e+00
1.140000000000000000e+03,5.960325602454303456e-02,0.000000000000000000e+00
1.141000000000000000e+03,-5.160284572855513251e-03,0.000000000000000000e+00
1.142000000000000000e+03,-5.387343759017677869e-02,0.000000000000000000e+00
1.143000000000000000e+03,2.568283505839386027e-01,0.000000000000000000e+00
1.144000000000000000e+03,-6.140183252686248067e-02,0.000000000000000000e+00
1.145000000000000000e+03,8.804679776071042217e-04,0.000000000000000000e+00
1.146000000000000000e+03,3.611688277780480405e-01,0.000000000000000000e+00
1.147000000000000000e+03,7.419010778377911619e-02,0.000000000000000000e+00
1.148000000000000000e+03,1.870263784985898015e-01,0.000000000000000000e+00
1.149000000000000000e+03,3.717009313702271389e-01,0.000000000000000000e+00
1.150000000000000000e+03,-7.759126410736390950e-03,0.000000000000000000e+00
1.151000000000000000e+03,3.825992725495758751e-01,0.000000000000000000e+00
1.152000000000000000e+03,4.035707696914546672e-01,0.000000000000000000e+00
1.153000000000000000e+03,-7.838496654202528613e-02,0.000000000000000000e+00
1.154000000000000000e+03,5.395760069689167215e-01,0.000000000000000000e+00
1.155000000000000000e+03,-2.147031287104753106e-01,0.000000000000000000e+00
1.156000000000000000e+03,6.505829098326146864e-01,0.000000000000000000e+00
1.157000000000000000e+03,6.234030964299717148e-01,0.000000000000000000e+00
1.158000000000000000e+03,4.303766362628810294e-01,0.000000000000000000e+00
1.159000000000000000e+03,-4.221480420734251976e-02,0.000000000000000000e+00
1.160000000000000000e+03,1.769923349278695046e-01,0.000000000000000000e+00
1.161000000000000000e+03,-1.309022288432897807e-01,0.000000000000000000e+00
1.162000000000000000e+03,2.961355938171357782e-01,0.000000000000000000e+00
1.163000000000000000e+03,-5.920592540574010770e-02,0.000000000000000000e+00
1.164000000000000000e+03,2.362943854118873865e+00,0.000000000000000000e+00
1.165000000000000000e+03,6.314198054236608293e+00,0.000000000000000000e+00
1.166000000000000000e+03,1.385055368815112598e+00,1.000000000000000000e+00
1.167000000000000000e+03,-8.735350746566307167e-01,0.000000000000000000e+00
1.168000000000000000e+03,-1.250597471190179721e+00,0.000000000000000000e+00
1.169000000000000000e+03,-1.128849478820819652e+00,0.000000000000000000e+00
1.170000000000000000e+03,-1.061890499752562445e+00,0.000000000000000000e+00
1.171000000000000000e+03,-8.363313087536493606e-01,0.000000000000000000e+00
1.172000000000000000e+03,-7.165948188074171554e-01,0.000000000000000000e+00
1.173000000000000000e+03,-7.830564780120454760e-01,0.000000000000000000e+00
1.174000000000000000e+03,-4.413810141808287013e-01,0.000000000000000000e+00
1.175000000000000000e+03,-3.910197790779961213e-01,0.000000000000000000e+00
1.176000000000000000e+03,-1.215756985260610379e-01,0.000000000000000000e+00
1.177000000000000000e+03,4.864939820178675739e-02,0.000000000000000000e+00
1.178000000000000000e+03,4.267300967784803944e-01,0.000000000000000000e+00
1.179000000000000000e+03,5.558955880661672344e-01,0.000000000000000000e+00
1.180000000000000000e+03,9.008493353037763107e-01,0.000000000000000000e+00
1.181000000000000000e+03,6.944168527205587527e-01,0.000000000000000000e+00
1.182000000000000000e+03,1.798801744127153934e-01,0.000000000000000000e+00
1.183000000000000000e+03,-5.572196545707166493e-01,0.000000000000000000e+00
1.184000000000000000e+03,-1.128008049086050013e+00,0.000000000000000000e+00
1.185000000000000000e+03,-1.047621330611045121e+00,0.000000000000000000e+00
1.186000000000000000e+03,-1.183713230061281596e+00,0.000000000000000000e+00
1.187000000000000000e+03,-1.048975850417021682e+00,0.000000000000000000e+00
1.188000000000000000e+03,-1.050459317600069387e+00,0.000000000000000000e+00
1.189000000000000000e+03,-8.060564732964350387e-01,0.000000000000000000e+00
1.190000000000000000e+03,-7.185606534836508352e-01,0.000000000000000000e+00
1.191000000000000000e+03,-8.001826677388832465e-01,0.000000000000000000e+00
1.192000000000000000e+03,-6.407482346764942216e-01,0.000000000000000000e+00
1.193000000000000000e+03,-6.802205240134225894e-01,0.000000000000000000e+00
1.194000000000000000e+03,-1.364519604877678649e-01,0.000000000000000000e+00
1.195000000000000000e+03,-5.758003204990639334e-01,0.000000000000000000e+00
1.196000000000000000e+03,-3.580328594959999444e-01,0.000000000000000000e+00
1.197000000000000000e+03,2.495672932115947096e-02,0.000000000000000000e+00
1.198000000000000000e+03,-2.287160902409764718e-01,0.000000000000000000e+00
1.199000000000000000e+03,-3.033492463435970010e-01,0.000000000000000000e+00
1.200000000000000000e+03,1.700885499546723745e-01,0.000000000000000000e+00
1.201000000000000000e+03,-2.088486847599564100e-01,0.000000000000000000e+00
1.202000000000000000e+03,1.540416680616888689e-01,0.000000000000000000e+00
1.203000000000000000e+03,1.306062403454116283e-01,0.000000000000000000e+00
1.204000000000000000e+03,1.200305681645986861e-01,0.000000000000000000e+00
1.205000000000000000e+03,5.786198209487674465e-02,0.000000000000000000e+00
1.206000000000000000e+03,2.750520799211057521e-01,0.000000000000000000e+00
1.207000000000000000e+03,3.468369639762695078e-01,0.000000000000000000e+00
1.208000000000000000e+03,2.043258447021895352e-01,0.000000000000000000e+00
1.209000000000000000e+03,2.408482269873175041e-01,0.000000000000000000e+00
1.210000000000000000e+03,5.445352532400205003e-01,0.000000000000000000e+00
1.211000000000000000e+03,3.976526361530487441e-01,0.000000000000000000e+00
1.212000000000000000e+03,4.195281124102274162e-01,0.000000000000000000e+00
1.213000000000000000e+03,3.827909780454075150e-01,0.000000000000000000e+00
1.214000000000000000e+03,3.456351508088611468e-01,0.000000000000000000e+00
1.215000000000000000e+03,2.082682037626251703e-01,0.000000000000000000e+00
1.216000000000000000e+03,9.804547843170539068e-01,0.000000000000000000e+00
1.217000000000000000e+03,6.307100877705346109e-01,0.000000000000000000e+00
1.218000000000000000e+03,4.381259357594660120e-01,0.000000000000000000e+00
1.219000000000000000e+03,-9.361590887556427154e-02,0.000000000000000000e+00
1.220000000000000000e+03,3.368684549962192021e-01,0.000000000000000000e+00
1.221000000000000000e+03,-5.069476545930063499e-02,0.000000000000000000e+00
1.222000000000000000e+03,4.878506048460314326e-01,0.000000000000000000e+00
1.223000000000000000e+03,1.299047723105913599e-01,0.000000000000000000e+00
1.224000000000000000e+03,4.433548012417361406e+00,0.000000000000000000e+00
1.225000000000000000e+03,5.477695465943941855e+00,0.000000000000000000e+00
1.226000000000000000e+03,-2.618008014436506038e-03,1.000000000000000000e+00
1.227000000000000000e+03,-9.988752417177935161e-01,0.000000000000000000e+00
1.228000000000000000e+03,-1.038657813232632732e+00,0.000000000000000000e+00
1.229000000000000000e+03,-9.196073280215142365e-01,0.000000000000000000e+00
1.230000000000000000e+03,-8.290306007779048025e-01,0.000000000000000000e+00
1.231000000000000000e+03,-7.192125394886422773e-01,0.000000000000000000e+00
1.232000000000000000e+03,-6.648164332840821311e-01,0.000000000000000000e+00
1.233000000000000000e+03,-3.121834105101193857e-01,0.000000000000000000e+00
1.234000000000000000e+03,-6.261765207678916534e-01,0.000000000000000000e+00
1.235000000000000000e+03,8.010534390246364100e-02,0.000000000000000000e+00
1.236000000000000000e+03,-7.456609617977406901e-02,0.000000000000000000e+00
1.237000000000000000e+03,2.068820098551016062e-01,0.000000000000000000e+00
1.238000000000000000e+03,1.409941476396233129e-01,0.000000000000000000e+00
1.239000000000000000e+03,6.926299141923812908e-01,0.000000000000000000e+00
1.240000000000000000e+03,7.493634614094711877e-01,0.000000000000000000e+00
1.241000000000000000e+03,8.480528619158289594e-01,0.000000000000000000e+00
1.242000000000000000e+03,-3.957614804609398962e-01,0.000000000000000000e+00
1.243000000000000000e+03,-6.706628188601259088e-01,0.000000000000000000e+00
1.244000000000000000e+03,-1.152693403341829237e+00,0.000000000000000000e+00
1.245000000000000000e+03,-1.257483701821715982e+00,0.000000000000000000e+00
1.246000000000000000e+03,-1.141795707405819371e+00,0.000000000000000000e+00
1.247000000000000000e+03,-1.089946479396006307e+00,0.000000000000000000e+00
1.248000000000000000e+03,-1.155114534503117518e+00,0.000000000000000000e+00
1.249000000000000000e+03,-6.956233911900967515e-01,0.000000000000000000e+00
1.250000000000000000e+03,-6.341101403811615356e-01,0.000000000000000000e+00
1.251000000000000000e+03,-8.434778055648447515e-01,0.000000000000000000e+00
1.252000000000000000e+03,-5.373463512438130252e-01,0.000000000000000000e+00
1.253000000000000000e+03,-4.541903067424330476e-01,0.000000000000000000e+00
1.254000000000000000e+03,-3.058249474637174115e-01,0.000000000000000000e+00
1.255000000000000000e+03,-3.580130480368292067e-01,0.000000000000000000e+00
1.256000000000000000e+03,-2.174682554006480417e-01,0.000000000000000000e+00
1.257000000000000000e+03,-2.806988490222649402e-01,0.000000000000000000e+00
1.258000000000000000e+03,-6.367409289200114467e-03,0.000000000000000000e+00
1.259000000000000000e+03,-9.804842816432750296e-02,0.000000000000000000e+00
1.260000000000000000e+03,-7.537166473391453125e-02,0.000000000000000000e+00
1.261000000000000000e+03,5.660506373241089989e-02,0.000000000000000000e+00
1.262000000000000000e+03,9.109104911866583443e-02,0.000000000000000000e+00
1.263000000000000000e+03,1.408104110065458159e-01,0.000000000000000000e+00
1.264000000000000000e+03,2.764797970303100594e-01,0.000000000000000000e+00
1.265000000000000000e+03,-9.452901198228126634e-02,0.000000000000000000e+00
1.266000000000000000e+03,1.337026149673794517e-01,0.000000000000000000e+00
1.267000000000000000e+03,1.488361607919351792e-01,0.000000000000000000e+00
1.268000000000000000e+03,3.155780641140659148e-01,0.000000000000000000e+00
1.269000000000000000e+03,6.473340302489171035e-03,0.000000000000000000e+00
1.270000000000000000e+03,2.285070960523192252e-01,0.000000000000000000e+00
1.271000000000000000e+03,4.544742073526524262e-01,0.000000000000000000e+00
1.272000000000000000e+03,1.513232779786644056e-01,0.000000000000000000e+00
1.273000000000000000e+03,1.810483257633567766e-01,0.000000000000000000e+00
1.274000000000000000e+03,4.923714438203747878e-01,0.000000000000000000e+00
1.275000000000000000e+03,4.960033211923666613e-02,0.000000000000000000e+00
1.276000000000000000e+03,9.782857482135792759e-01,0.000000000000000000e+00
1.277000000000000000e+03,6.083724930269693854e-01,0.000000000000000000e+00
1.278000000000000000e+03,1.032817030627105892e-01,0.000000000000000000e+00
1.279000000000000000e+03,1.036524649814653948e-01,0.000000000000000000e+00
1.280000000000000000e+03,2.414930653555493190e-01,0.000000000000000000e+00
1.281000000000000000e+03,1.652080016415994890e-01,0.000000000000000000e+00
1.282000000000000000e+03,2.496931169488697810e-01,0.000000000000000000e+00
1.283000000000000000e+03,8.528545600143891958e-01,0.000000000000000000e+00
1.284000000000000000e+03,5.516571803051583345e+00,0.000000000000000000e+00
1.285000000000000000e+03,4.155327716770928603e+00,1.000000000000000000e+00
1.286000000000000000e+03,-4.229602192349095069e-01,0.000000000000000000e+00
1.287000000000000000e+03,-9.082611358309014005e-01,0.000000000000000000e+00
1.288000000000000000e+03,-1.207249631347141694e+00,0.000000000000000000e+00
1.289000000000000000e+03,-1.146511006700706492e+00,0.000000000000000000e+00
1.290000000000000000e+03,-1.089169696016210276e+00,0.000000000000000000e+00
1.291000000000000000e+03,-4.255226463991076402e-01,0.000000000000000000e+00
1.292000000000000000e+03,-7.489931091160151322e-01,0.000000000000000000e+00
1.293000000000000000e+03,-4.616913193271452998e-01,0.000000000000000000e+00
1.294000000000000000e+03,-6.545232264268270317e-01,0.000000000000000000e+00
1.295000000000000000e+03,6.680705757298370517e-02,0.000000000000000000e+00
1.296000000000000000e+03,-1.881113499286748980e-01,0.000000000000000000e+00
1.297000000000000000e+03,3.783479303908804381e-01,0.000000000000000000e+00
1.298000000000000000e+03,4.573707801203488188e-01,0.000000000000000000e+00
1.299000000000000000e+03,8.594758182101307487e-01,0.000000000000000000e+00
1.300000000000000000e+03,5.187191486219200343e-01,0.000000000000000000e+00
1.301000000000000000e+03,5.568999924360614751e-01,0.000000000000000000e+00
1.302000000000000000e+03,-3.135872382076515530e-01,0.000000000000000000e+00
1.303000000000000000e+03,-1.049540983034284114e+00,0.000000000000000000e+00
1.304000000000000000e+03,-1.277347146348921436e+00,0.000000000000000000e+00
1.305000000000000000e+03,-1.153756869677393881e+00,0.000000000000000000e+00
1.306000000000000000e+03,-1.491746704873037954e+00,0.000000000000000000e+00
1.307000000000000000e+03,-9.434807753241637451e-01,0.000000000000000000e+00
1.308000000000000000e+03,-8.472314687829819446e-01,0.000000000000000000e+00
1.309000000000000000e+03,-9.499763981362970844e-01,0.000000000000000000e+00
1.310000000000000000e+03,-8.251903501707350541e-01,0.000000000000000000e+00
1.311000000000000000e+03,-6.736194203994061436e-01,0.000000000000000000e+00
1.312000000000000000e+03,-7.037163241913274581e-01,0.000000000000000000e+00
1.313000000000000000e+03,-2.876327050191034851e-01,0.000000000000000000e+00
1.314000000000000000e+03,-6.029839298134175296e-01,0.000000000000000000e+00
1.315000000000000000e+03,-1.711333445698430544e-01,0.000000000000000000e+00
1.316000000000000000e+03,-3.574734106311789894e-01,0.000000000000000000e+00
1.317000000000000000e+03,-2.475126722272466828e-01,0.000000000000000000e+00
1.318000000000000000e+03,-1.215499464495723853e-01,0.000000000000000000e+00
1.319000000000000000e+03,-1.316463153347213477e-01,0.000000000000000000e+00
1.320000000000000000e+03,2.399241479896640772e-01,0.000000000000000000e+00
1.321000000000000000e+03,-1.284442371537174166e-01,0.000000000000000000e+00
1.322000000000000000e+03,2.620771200631343608e-03,0.000000000000000000e+00
1.323000000000000000e+03,2.089339706920100015e-01,0.000000000000000000e+00
1.324000000000000000e+03,6.726261495425220338e-02,0.000000000000000000e+00
1.325000000000000000e+03,8.950190231097454596e-02,0.000000000000000000e+00
1.326000000000000000e+03,2.006048487834604932e-01,0.000000000000000000e+00
1.327000000000000000e+03,-1.931961043772986719e-02,0.000000000000000000e+00
1.328000000000000000e+03,2.571497348468290145e-01,0.000000000000000000e+00
1.329000000000000000e+03,2.045418757091249651e-01,0.000000000000000000e+00
1.330000000000000000e+03,4.062733220521731470e-01,0.000000000000000000e+00
1.331000000000000000e+03,1.091715816915264370e-01,0.000000000000000000e+00
1.332000000000000000e+03,3.277150998397765358e-01,0.000000000000000000e+00
1.333000000000000000e+03,2.077583862955512395e-01,0.000000000000000000e+00
1.334000000000000000e+03,-2.494869466272327252e-02,0.000000000000000000e+00
1.335000000000000000e+03,7.197025139888505452e-01,0.000000000000000000e+00
1.336000000000000000e+03,7.899873618693364907e-01,0.000000000000000000e+00
1.337000000000000000e+03,2.594914675239113344e-01,0.000000000000000000e+00
1.338000000000000000e+03,-2.729802236049475583e-01,0.000000000000000000e+00
1.339000000000000000e+03,2.046338403968086250e-01,0.000000000000000000e+00
1.340000000000000000e+03,-8.508969156076347934e-03,0.000000000000000000e+00
1.341000000000000000e+03,2.870242676683820715e-01,0.000000000000000000e+00
1.342000000000000000e+03,2.553809541112351811e-01,0.000000000000000000e+00
1.343000000000000000e+03,2.251684606889162055e+00,0.000000000000000000e+00
1.344000000000000000e+03,6.253034491889606805e+00,0.000000000000000000e+00
1.345000000000000000e+03,1.711586884270108966e+00,1.000000000000000000e+00
1.346000000000000000e+03,-1.107832062285965868e+00,0.000000000000000000e+00
1.347000000000000000e+03,-7.687125219222331607e-01,0.000000000000000000e+00
1.348000000000000000e+03,-1.179362226385218149e+00,0.000000000000000000e+00
1.349000000000000000e+03,-9.011220272607383119e-01,0.000000000000000000e+00
1.350000000000000000e+03,-9.414539301935075377e-01,0.000000000000000000e+00
1.351000000000000000e+03,-9.324959737818714345e-01,0.000000000000000000e+00
1.352000000000000000e+03,-6.349749530171734380e-01,0.000000000000000000e+00
1.353000000000000000e+03,-4.808530397374113918e-01,0.000000000000000000e+00
1.354000000000000000e+03,-2.150032723228439413e-01,0.000000000000000000e+00
1.355000000000000000e+03,-2.282952192072581488e-01,0.000000000000000000e+00
1.356000000000000000e+03,4.224201324288460319e-02,0.000000000000000000e+00
1.357000000000000000e+03,3.832104249338662560e-01,0.000000000000000000e+00
1.358000000000000000e+03,7.828783778468574317e-01,0.000000000000000000e+00
1.359000000000000000e+03,8.622715066824372387e-01,0.000000000000000000e+00
1.360000000000000000e+03,7.592622676792882830e-01,0.000000000000000000e+00
1.361000000000000000e+03,1.597389607812234047e-01,0.000000000000000000e+00
1.362000000000000000e+03,-6.619140793806571610e-01,0.000000000000000000e+00
1.363000000000000000e+03,-8.490594122866548243e-01,0.000000000000000000e+00
1.364000000000000000e+03,-1.180309319684143210e+00,0.000000000000000000e+00
1.365000000000000000e+03,-1.116701715676858164e+00,0.000000000000000000e+00
1.366000000000000000e+03,-1.092030626616453448e+00,0.000000000000000000e+00
1.367000000000000000e+03,-1.193252888199470396e+00,0.000000000000000000e+00
1.368000000000000000e+03,-8.855809403838540428e-01,0.000000000000000000e+00
1.369000000000000000e+03,-7.839574206835852044e-01,0.000000000000000000e+00
1.370000000000000000e+03,-7.701692734683056596e-01,0.000000000000000000e+00
1.371000000000000000e+03,-6.808395909453045514e-01,0.000000000000000000e+00
1.372000000000000000e+03,-6.164445744674789118e-01,0.000000000000000000e+00
1.373000000000000000e+03,-5.379600238183436245e-01,0.000000000000000000e+00
1.374000000000000000e+03,-1.929629664508261955e-01,0.000000000000000000e+00
1.375000000000000000e+03,-2.835849901515908877e-01,0.000000000000000000e+00
1.376000000000000000e+03,-2.358853244115998449e-01,0.000000000000000000e+00
1.377000000000000000e+03,-3.766701277016150651e-01,0.000000000000000000e+00
1.378000000000000000e+03,1.386990415304608093e-01,0.000000000000000000e+00
1.379000000000000000e+03,-2.212755123366576537e-01,0.000000000000000000e+00
1.380000000000000000e+03,1.989905382128891176e-01,0.000000000000000000e+00
1.381000000000000000e+03,7.472119703703650195e-02,0.000000000000000000e+00
1.382000000000000000e+03,-5.068986053058169294e-02,0.000000000000000000e+00
1.383000000000000000e+03,4.023375531500095192e-01,0.000000000000000000e+00
1.384000000000000000e+03,-5.194173949814649000e-02,0.000000000000000000e+00
1.385000000000000000e+03,9.118162214891800676e-02,0.000000000000000000e+00
1.386000000000000000e+03,1.806032860450925148e-01,0.000000000000000000e+00
1.387000000000000000e+03,8.973207930640166030e-02,0.000000000000000000e+00
1.388000000000000000e+03,1.949486361129487422e-01,0.000000000000000000e+00
1.389000000000000000e+03,2.655297462982349477e-01,0.000000000000000000e+00
1.390000000000000000e+03,3.550191371867767454e-01,0.000000000000000000e+00
1.391000000000000000e+03,4.078677995195624240e-01,0.000000000000000000e+00
1.392000000000000000e+03,2.149011968359353930e-01,0.000000000000000000e+00
1.393000000000000000e+03,3.075101370475080143e-01,0.000000000000000000e+00
1.394000000000000000e+03,2.264810324681335862e-01,0.000000000000000000e+00
1.395000000000000000e+03,6.833211042663084323e-01,0.000000000000000000e+00
1.396000000000000000e+03,5.777242005556206816e-01,0.000000000000000000e+00
1.397000000000000000e+03,5.316400888834039717e-01,0.000000000000000000e+00
1.398000000000000000e+03,2.674149102375201759e-01,0.000000000000000000e+00
1.399000000000000000e+03,3.718267359121732452e-01,0.000000000000000000e+00
1.400000000000000000e+03,1.105309511434532099e-01,0.000000000000000000e+00
1.401000000000000000e+03,4.230105729541582815e-01,0.000000000000000000e+00
1.402000000000000000e+03,2.535819550510720610e-01,0.000000000000000000e+00
1.403000000000000000e+03,3.302179976673440542e+00,0.000000000000000000e+00
1.404000000000000000e+03,5.199640894775411581e+00,0.000000000000000000e+00
1.405000000000000000e+03,1.793321867230671385e-01,1.000000000000000000e+00
1.406000000000000000e+03,-8.920692773997049851e-01,0.000000000000000000e+00
1.407000000000000000e+03,-8.690059300040694490e-01,0.000000000000000000e+00
1.408000000000000000e+03,-4.063701645794658424e-01,0.000000000000000000e+00
1.409000000000000000e+03,-3.543048137070475834e-01,0.000000000000000000e+00
1.410000000000000000e+03,-1.304874287760292018e-01,0.000000000000000000e+00
1.411000000000000000e+03,-4.042376971393633611e-01,0.000000000000000000e+00
1.412000000000000000e+03,-1.383514114301047718e-02,0.000000000000000000e+00
1.413000000000000000e+03,-3.479342680500865925e-01,0.000000000000000000e+00
1.414000000000000000e+03,-1.168985373891205139e-02,0.000000000000000000e+00
1.415000000000000000e+03,3.050722946279595393e-01,0.000000000000000000e+00
1.416000000000000000e+03,2.207032881601590502e-01,0.000000000000000000e+00
1.417000000000000000e+03,9.033284168537444314e-01,0.000000000000000000e+00
1.418000000000000000e+03,6.758084100378097814e-01,0.000000000000000000e+00
1.419000000000000000e+03,1.041953089547680289e+00,0.000000000000000000e+00
1.420000000000000000e+03,4.952860514785914492e-01,0.000000000000000000e+00
1.421000000000000000e+03,1.338059513539634482e-01,0.000000000000000000e+00
1.422000000000000000e+03,-5.765924361307690482e-01,0.000000000000000000e+00
1.423000000000000000e+03,-1.065328185809885753e+00,0.000000000000000000e+00
1.424000000000000000e+03,-1.287132269122754025e+00,0.000000000000000000e+00
1.425000000000000000e+03,-9.909485172053219548e-01,0.000000000000000000e+00
1.426000000000000000e+03,-1.055238254666378550e+00,0.000000000000000000e+00
1.427000000000000000e+03,-8.533347693861377259e-01,0.000000000000000000e+00
1.428000000000000000e+03,-8.685043335340453252e-01,0.000000000000000000e+00
1.429000000000000000e+03,-8.146213692237500581e-01,0.000000000000000000e+00
1.430000000000000000e+03,-5.896964223720408960e-01,0.000000000000000000e+00
1.431000000000000000e+03,-2.333114460725569939e-01,0.000000000000000000e+00
1.432000000000000000e+03,-5.407857897832455407e-01,0.000000000000000000e+00
1.433000000000000000e+03,-5.732793286103367025e-01,0.000000000000000000e+00
1.434000000000000000e+03,-3.781750469303227224e-01,0.000000000000000000e+00
1.435000000000000000e+03,-2.881921308734470277e-01,0.000000000000000000e+00
1.436000000000000000e+03,-1.898167396188476796e-01,0.000000000000000000e+00
1.437000000000000000e+03,-5.185675458200008497e-02,0.000000000000000000e+00
1.438000000000000000e+03,-4.422223642439799263e-01,0.000000000000000000e+00
1.439000000000000000e+03,-1.690660492163372219e-01,0.000000000000000000e+00
1.440000000000000000e+03,-2.116231002584042786e-01,0.000000000000000000e+00
1.441000000000000000e+03,-1.063987909203394783e-01,0.000000000000000000e+00
1.442000000000000000e+03,-9.226656145077949400e-02,0.000000000000000000e+00
1.443000000000000000e+03,5.950342707722310054e-02,0.000000000000000000e+00
1.444000000000000000e+03,-8.820603918845601465e-02,0.000000000000000000e+00
1.445000000000000000e+03,-8.295085223716298917e-02,0.000000000000000000e+00
1.446000000000000000e+03,-5.073172018841162062e-02,0.000000000000000000e+00
1.447000000000000000e+03,5.655313593193980054e-02,0.000000000000000000e+00
1.448000000000000000e+03,2.068663867081072666e-02,0.000000000000000000e+00
1.449000000000000000e+03,-7.388324304294347465e-03,0.000000000000000000e+00
1.450000000000000000e+03,2.242301864989602045e-01,0.000000000000000000e+00
1.451000000000000000e+03,6.882594813402198586e-02,0.000000000000000000e+00
1.452000000000000000e+03,8.235649327050763302e-02,0.000000000000000000e+00
1.453000000000000000e+03,1.506959945101844223e-01,0.000000000000000000e+00
1.454000000000000000e+03,1.412440552800614361e-02,0.000000000000000000e+00
1.455000000000000000e+03,4.431346007259174269e-01,0.000000000000000000e+00
1.456000000000000000e+03,2.614214339144601551e-01,0.000000000000000000e+00
1.457000000000000000e+03,2.605110989622332895e-01,0.000000000000000000e+00
1.458000000000000000e+03,-3.109469059602788521e-01,0.000000000000000000e+00
1.459000000000000000e+03,1.985092141547815103e-01,0.000000000000000000e+00
1.460000000000000000e+03,3.820096156474798998e-02,0.000000000000000000e+00
1.461000000000000000e+03,8.442119703605423242e-02,0.000000000000000000e+00
1.462000000000000000e+03,1.621548807244665158e-01,0.000000000000000000e+00
1.463000000000000000e+03,4.464431026601214825e+00,0.000000000000000000e+00
1.464000000000000000e+03,3.284078325461982306e+00,1.000000000000000000e+00
1.465000000000000000e+03,-9.704628246081625775e-01,0.000000000000000000e+00
1.466000000000000000e+03,-5.929814978502903067e-01,0.000000000000000000e+00
1.467000000000000000e+03,-6.580763003159058044e-01,0.000000000000000000e+00
1.468000000000000000e+03,-9.198307772263638604e-01,0.000000000000000000e+00
1.469000000000000000e+03,-5.296846536710674291e-01,0.000000000000000000e+00
1.470000000000000000e+03,-1.223615081174198593e-01,0.000000000000000000e+00
1.471000000000000000e+03,-4.923349460487529972e-01,0.000000000000000000e+00
1.472000000000000000e+03,-2.974208827544005951e-02,0.000000000000000000e+00
1.473000000000000000e+03,-6.740532685481078756e-01,0.000000000000000000e+00
1.474000000000000000e+03,3.948919286035926790e-01,0.000000000000000000e+00
1.475000000000000000e+03,1.959422433741137282e-01,0.000000000000000000e+00
1.476000000000000000e+03,3.721685889119499824e-01,0.000000000000000000e+00
1.477000000000000000e+03,5.864972839939122107e-01,0.000000000000000000e+00
1.478000000000000000e+03,9.161808492992563613e-01,0.000000000000000000e+00
1.479000000000000000e+03,1.022406241915847502e+00,0.000000000000000000e+00
1.480000000000000000e+03,4.267005319428472943e-01,0.000000000000000000e+00
1.481000000000000000e+03,-8.114766400161861626e-02,0.000000000000000000e+00
1.482000000000000000e+03,-9.075475147042292301e-01,0.000000000000000000e+00
1.483000000000000000e+03,-1.026195319943701501e+00,0.000000000000000000e+00
1.484000000000000000e+03,-1.135501153910937200e+00,0.000000000000000000e+00
1.485000000000000000e+03,-1.196304033586346627e+00,0.000000000000000000e+00
1.486000000000000000e+03,-8.966567941936224306e-01,0.000000000000000000e+00
1.487000000000000000e+03,-9.506411800975057558e-01,0.000000000000000000e+00
1.488000000000000000e+03,-7.844820711757113374e-01,0.000000000000000000e+00
1.489000000000000000e+03,-8.109400325564315448e-01,0.000000000000000000e+00
1.490000000000000000e+03,-6.120040700201316852e-01,0.000000000000000000e+00
1.491000000000000000e+03,-6.382930789339859023e-01,0.000000000000000000e+00
1.492000000000000000e+03,-5.564099359406885492e-01,0.000000000000000000e+00
1.493000000000000000e+03,-2.156395886585285582e-01,0.000000000000000000e+00
1.494000000000000000e+03,-2.359215170177715037e-01,0.000000000000000000e+00
1.495000000000000000e+03,-1.292598054945216790e-01,0.000000000000000000e+00
1.496000000000000000e+03,-2.921890202725720975e-01,0.000000000000000000e+00
1.497000000000000000e+03,-2.523609313887594241e-01,0.000000000000000000e+00
1.498000000000000000e+03,6.422736495291155034e-02,0.000000000000000000e+00
1.499000000000000000e+03,1.953118380786719455e-01,0.000000000000000000e+00
1.500000000000000000e+03,1.164846621577813740e-01,0.000000000000000000e+00
1.501000000000000000e+03,-5.879559515780733575e-02,0.000000000000000000e+00
1.502000000000000000e+03,1.975575049203457945e-01,0.000000000000000000e+00
1.503000000000000000e+03,7.688542524129901579e-02,0.000000000000000000e+00
1.504000000000000000e+03,1.324223557629634063e-01,0.000000000000000000e+00
1.505000000000000000e+03,1.879206142611133390e-01,0.000000000000000000e+00
1.506000000000000000e+03,3.799155779872234739e-01,0.000000000000000000e+00
1.507000000000000000e+03,1.498744082793520005e-01,0.000000000000000000e+00
1.508000000000000000e+03,2.027239334322771813e-01,0.000000000000000000e+00
1.509000000000000000e+03,4.138790964089955615e-01,0.000000000000000000e+00
1.510000000000000000e+03,3.494960030519906335e-01,0.000000000000000000e+00
1.511000000000000000e+03,1.990855958381495261e-01,0.000000000000000000e+00
1.512000000000000000e+03,3.119467962828244012e-01,0.000000000000000000e+00
1.513000000000000000e+03,1.963051464198102836e-01,0.000000000000000000e+00
1.514000000000000000e+03,2.462206704956541314e-01,0.000000000000000000e+00
1.515000000000000000e+03,7.743671912136800284e-01,0.000000000000000000e+00
1.516000000000000000e+03,4.974511970373796110e-01,0.000000000000000000e+00
1.517000000000000000e+03,3.766164222963079844e-01,0.000000000000000000e+00
1.518000000000000000e+03,-6.400876394293743277e-02,0.000000000000000000e+00
1.519000000000000000e+03,1.179822953505219735e-01,0.000000000000000000e+00
1.520000000000000000e+03,1.357575178914438019e-01,0.000000000000000000e+00
1.521000000000000000e+03,6.717792144195386395e-02,0.000000000000000000e+00
1.522000000000000000e+03,1.241036745904865901e+00,0.000000000000000000e+00
1.523000000000000000e+03,5.556694432944447648e+00,0.000000000000000000e+00
1.524000000000000000e+03,3.008384792234524596e+00,1.000000000000000000e+00
1.525000000000000000e+03,-6.825563015653254295e-01,0.000000000000000000e+00
1.526000000000000000e+03,-1.058039241666113073e+00,0.000000000000000000e+00
1.527000000000000000e+03,-1.148559621129151775e+00,0.000000000000000000e+00
1.528000000000000000e+03,-6.763057455547741847e-01,0.000000000000000000e+00
1.529000000000000000e+03,-7.878751027462900236e-01,0.000000000000000000e+00
1.530000000000000000e+03,-5.020330666316196178e-01,0.000000000000000000e+00
1.531000000000000000e+03,-7.429009479670710681e-01,0.000000000000000000e+00
1.532000000000000000e+03,-2.903967584584006278e-01,0.000000000000000000e+00
1.533000000000000000e+03,-3.406454368081422990e-01,0.000000000000000000e+00
1.534000000000000000e+03,-2.844960438249248824e-01,0.000000000000000000e+00
1.535000000000000000e+03,-1.050432081286470365e-01,0.000000000000000000e+00
1.536000000000000000e+03,6.979311212691625688e-01,0.000000000000000000e+00
1.537000000000000000e+03,5.519100403933299148e-01,0.000000000000000000e+00
1.538000000000000000e+03,7.373650474709801950e-01,0.000000000000000000e+00
1.539000000000000000e+03,7.031562713894310424e-01,0.000000000000000000e+00
1.540000000000000000e+03,3.631055370006997518e-01,0.000000000000000000e+00
1.541000000000000000e+03,-2.936325079803634441e-01,0.000000000000000000e+00
1.542000000000000000e+03,-8.701239405222164214e-01,0.000000000000000000e+00
1.543000000000000000e+03,-1.151462729724562983e+00,0.000000000000000000e+00
1.544000000000000000e+03,-1.059790663640997499e+00,0.000000000000000000e+00
1.545000000000000000e+03,-9.648623025654290419e-01,0.000000000000000000e+00
1.546000000000000000e+03,-1.045697442425310264e+00,0.000000000000000000e+00
1.547000000000000000e+03,-7.865835019554445751e-01,0.000000000000000000e+00
1.548000000000000000e+03,-5.667444057982468086e-01,0.000000000000000000e+00
1.549000000000000000e+03,-5.664724511482494007e-01,0.000000000000000000e+00
1.550000000000000000e+03,-8.447288685737035507e-01,0.000000000000000000e+00
1.551000000000000000e+03,-3.429373726807053990e-01,0.000000000000000000e+00
1.552000000000000000e+03,-4.760150244214651494e-01,0.000000000000000000e+00
1.553000000000000000e+03,-2.678770562816608081e-01,0.000000000000000000e+00
1.554000000000000000e+03,-3.002698852357122417e-01,0.000000000000000000e+00
1.555000000000000000e+03,-7.077874845347680022e-02,0.000000000000000000e+00
1.556000000000000000e+03,-3.209384709304363703e-01,0.000000000000000000e+00
1.557000000000000000e+03,-3.233267460160064166e-01,0.000000000000000000e+00
1.558000000000000000e+03,4.102584831046948155e-01,0.000000000000000000e+00
1.559000000000000000e+03,-1.820567824295743209e-01,0.000000000000000000e+00
1.560000000000000000e+03,-7.575743636456652719e-02,0.000000000000000000e+00
1.561000000000000000e+03,6.105161179810672523e-02,0.000000000000000000e+00
1.562000000000000000e+03,-2.166366889009098962e-01,0.000000000000000000e+00
1.563000000000000000e+03,2.136265044227490528e-01,0.000000000000000000e+00
1.564000000000000000e+03,3.084831835304555070e-01,0.000000000000000000e+00
1.565000000000000000e+03,1.217592146766005579e-01,0.000000000000000000e+00
1.566000000000000000e+03,1.403012998812193934e-01,0.000000000000000000e+00
1.567000000000000000e+03,1.980408515784121692e-01,0.000000000000000000e+00
1.568000000000000000e+03,1.391895994408687831e-01,0.000000000000000000e+00
1.569000000000000000e+03,3.117040864312296544e-01,0.000000000000000000e+00
1.570000000000000000e+03,4.474181626361532493e-01,0.000000000000000000e+00
1.571000000000000000e+03,5.503565304532429675e-02,0.000000000000000000e+00
1.572000000000000000e+03,1.687260802566369622e-01,0.000000000000000000e+00
1.573000000000000000e+03,4.634389037535788236e-02,0.000000000000000000e+00
1.574000000000000000e+03,5.736102653395465101e-01,0.000000000000000000e+00
1.575000000000000000e+03,5.596971799829822958e-01,0.000000000000000000e+00
1.576000000000000000e+03,3.250341550113233224e-01,0.000000000000000000e+00
1.577000000000000000e+03,6.662254518204346887e-02,0.000000000000000000e+00
1.578000000000000000e+03,-1.681527692688455922e-01,0.000000000000000000e+00
1.579000000000000000e+03,2.993303053902121938e-02,0.000000000000000000e+00
1.580000000000000000e+03,6.165456819324021537e-02,0.000000000000000000e+00
1.581000000000000000e+03,5.382303241854372857e-04,0.000000000000000000e+00
1.582000000000000000e+03,2.470356769049294687e+00,0.000000000000000000e+00
1.583000000000000000e+03,5.965143307678300921e+00,0.000000000000000000e+00
1.584000000000000000e+03,1.455211209757346857e+00,1.000000000000000000e+00
1.585000000000000000e+03,-1.189576068893001048e+00,0.000000000000000000e+00
1.586000000000000000e+03,-1.094154168593960641e+00,0.000000000000000000e+00
1.587000000000000000e+03,-1.180304852999285226e+00,0.000000000000000000e+00
