timestamp,ecg_measurement,qrs_detected
0.000000000000000000e+00,3.464328807865442172e-01,0.000000000000000000e+00
1.000000000000000000e+00,1.714567892389673442e-01,0.000000000000000000e+00
2.000000000000000000e+00,3.256617525833034321e+00,0.000000000000000000e+00
3.000000000000000000e+00,5.912414759086252580e+00,0.000000000000000000e+00
4.000000000000000000e+00,9.269852618747347339e-01,0.000000000000000000e+00
5.000000000000000000e+00,-8.472752447240616824e-01,0.000000000000000000e+00
6.000000000000000000e+00,-1.026777086398329430e+00,0.000000000000000000e+00
7.000000000000000000e+00,-7.976779746280551198e-01,1.000000000000000000e+00
8.000000000000000000e+00,-8.945436374054260842e-01,0.000000000000000000e+00
9.000000000000000000e+00,-5.274357100772569806e-01,0.000000000000000000e+00
1.000000000000000000e+01,-6.516871814940266017e-01,0.000000000000000000e+00
1.100000000000000000e+01,-4.402894038549436950e-01,0.000000000000000000e+00
1.200000000000000000e+01,-3.456879621094826049e-01,0.000000000000000000e+00
1.300000000000000000e+01,-2.169485837642794457e-01,0.000000000000000000e+00
1.400000000000000000e+01,-1.003251646855994605e-01,0.000000000000000000e+00
1.500000000000000000e+01,7.040020414580770713e-02,0.000000000000000000e+00
1.600000000000000000e+01,5.539199366276084113e-01,0.000000000000000000e+00
1.700000000000000000e+01,6.127155081525766933e-01,0.000000000000000000e+00
1.800000000000000000e+01,8.013110323200457463e-01,0.000000000000000000e+00
1.900000000000000000e+01,5.546623224841911171e-01,0.000000000000000000e+00
2.000000000000000000e+01,5.195656981202451813e-02,0.000000000000000000e+00
2.100000000000000000e+01,-7.830649724242474408e-01,0.000000000000000000e+00
2.200000000000000000e+01,-1.267412602490588069e+00,0.000000000000000000e+00
2.300000000000000000e+01,-1.133023087369956938e+00,0.000000000000000000e+00
2.400000000000000000e+01,-1.116659906386233247e+00,0.000000000000000000e+00
2.500000000000000000e+01,-1.111831102574147634e+00,0.000000000000000000e+00
2.600000000000000000e+01,-9.777915921118103260e-01,0.000000000000000000e+00
2.700000000000000000e+01,-1.130955298631732830e+00,0.000000000000000000e+00
2.800000000000000000e+01,-7.753800856406840580e-01,0.000000000000000000e+00
2.900000000000000000e+01,-8.228362910152635656e-01,0.000000000000000000e+00
3.000000000000000000e+01,-5.928998617541786365e-01,0.000000000000000000e+00
3.100000000000000000e+01,-4.129858427018917033e-01,0.000000000000000000e+00
3.200000000000000000e+01,-5.186597323357994282e-01,0.000000000000000000e+00
3.300000000000000000e+01,-4.412674623204143054e-01,0.000000000000000000e+00
3.400000000000000000e+01,-2.199029447971461992e-01,0.000000000000000000e+00
3.500000000000000000e+01,-1.859138608704087037e-01,0.000000000000000000e+00
3.600000000000000000e+01,-3.212820266731684221e-02,0.000000000000000000e+00
3.700000000000000000e+01,4.730311429946496699e-02,0.000000000000000000e+00
3.800000000000000000e+01,-2.485843254606461949e-03,0.000000000000000000e+00
3.900000000000000000e+01,5.164572945461456954e-02,0.000000000000000000e+00
4.000000000000000000e+01,1.434001503939572597e-01,0.000000000000000000e+00
4.100000000000000000e+01,1.431405097190125986e-01,0.000000000000000000e+00
4.200000000000000000e+01,2.131952167216838445e-01,0.000000000000000000e+00
4.300000000000000000e+01,2.794460727101090794e-02,0.000000000000000000e+00
4.400000000000000000e+01,8.682895636991989907e-02,0.000000000000000000e+00
4.500000000000000000e+01,1.626732105678998508e-01,0.000000000000000000e+00
4.600000000000000000e+01,2.813828063799007628e-01,0.000000000000000000e+00
4.700000000000000000e+01,1.585674268326813241e-01,0.000000000000000000e+00
4.800000000000000000e+01,2.249937779323033515e-01,0.000000000000000000e+00
4.900000000000000000e+01,2.648129076679016092e-01,0.000000000000000000e+00
5.000000000000000000e+01,3.892160785752398211e-01,0.000000000000000000e+00
5.100000000000000000e+01,3.554830311821955968e-01,0.000000000000000000e+00
5.200000000000000000e+01,3.967083432089603123e-01,0.000000000000000000e+00
5.300000000000000000e+01,3.030462297372901181e-01,0.000000000000000000e+00
5.400000000000000000e+01,5.018688277846748980e-01,0.000000000000000000e+00
5.500000000000000000e+01,6.163596004936403583e-01,0.000000000000000000e+00
5.600000000000000000e+01,4.958785279105406008e-01,0.000000000000000000e+00
5.700000000000000000e+01,1.553480158589653215e-01,0.000000000000000000e+00
5.800000000000000000e+01,2.979102267262889736e-01,0.000000000000000000e+00
5.900000000000000000e+01,-1.032829494796777201e-02,0.000000000000000000e+00
6.000000000000000000e+01,3.925058782364362897e-01,0.000000000000000000e+00
6.100000000000000000e+01,3.236298821934263659e-01,0.000000000000000000e+00
6.200000000000000000e+01,3.775158145567509393e+00,0.000000000000000000e+00
6.300000000000000000e+01,3.528743169071721475e+00,0.000000000000000000e+00
6.400000000000000000e+01,-6.298486809071963677e-01,1.000000000000000000e+00
6.500000000000000000e+01,-9.587111611890100082e-01,0.000000000000000000e+00
6.600000000000000000e+01,-7.352330934704284227e-01,0.000000000000000000e+00
6.700000000000000000e+01,-4.923236653137301744e-01,0.000000000000000000e+00
6.800000000000000000e+01,-3.251614236061164398e-01,0.000000000000000000e+00
6.900000000000000000e+01,-2.443239104646756088e-01,0.000000000000000000e+00
7.000000000000000000e+01,-5.321546342464328339e-01,0.000000000000000000e+00
7.100000000000000000e+01,7.130280297689092772e-02,0.000000000000000000e+00
7.200000000000000000e+01,-8.083331337876432932e-02,0.000000000000000000e+00
7.300000000000000000e+01,6.466071403316375754e-02,0.000000000000000000e+00
7.400000000000000000e+01,2.186265900093699865e-01,0.000000000000000000e+00
7.500000000000000000e+01,3.403324625498411748e-01,0.000000000000000000e+00
7.600000000000000000e+01,7.049517661244201205e-01,0.000000000000000000e+00
7.700000000000000000e+01,8.037420711115288441e-01,0.000000000000000000e+00
7.800000000000000000e+01,9.480920426040735371e-01,0.000000000000000000e+00
7.900000000000000000e+01,4.331692009430262447e-01,0.000000000000000000e+00
8.000000000000000000e+01,9.631230353474323769e-02,0.000000000000000000e+00
8.100000000000000000e+01,-8.438891082075274941e-01,0.000000000000000000e+00
8.200000000000000000e+01,-1.223690121164043187e+00,0.000000000000000000e+00
8.300000000000000000e+01,-9.121079941221191811e-01,0.000000000000000000e+00
8.400000000000000000e+01,-1.184284253911730644e+00,0.000000000000000000e+00
8.500000000000000000e+01,-1.332035546383395941e+00,0.000000000000000000e+00
8.600000000000000000e+01,-1.026396022901697291e+00,0.000000000000000000e+00
8.700000000000000000e+01,-8.810006753839428884e-01,0.000000000000000000e+00
8.800000000000000000e+01,-8.145401275227681648e-01,0.000000000000000000e+00
8.900000000000000000e+01,-6.886082467744262248e-01,0.000000000000000000e+00
9.000000000000000000e+01,-7.809385240781258064e-01,0.000000000000000000e+00
9.100000000000000000e+01,-3.577492989314706162e-01,0.000000000000000000e+00
9.200000000000000000e+01,-6.323121186413405148e-01,0.000000000000000000e+00
9.300000000000000000e+01,-2.980320543997372340e-01,0.000000000000000000e+00
9.400000000000000000e+01,-2.244664909083796955e-01,0.000000000000000000e+00
9.500000000000000000e+01,-2.519265759554641382e-01,0.000000000000000000e+00
9.600000000000000000e+01,-2.840150398520851494e-01,0.000000000000000000e+00
9.700000000000000000e+01,-1.534935944660722473e-01,0.000000000000000000e+00
9.800000000000000000e+01,-1.233037476711583563e-01,0.000000000000000000e+00
9.900000000000000000e+01,-3.275681456687098425e-01,0.000000000000000000e+00
1.000000000000000000e+02,-1.254623144092657620e-02,0.000000000000000000e+00
1.010000000000000000e+02,-3.719981739210347915e-01,0.000000000000000000e+00
1.020000000000000000e+02,1.100812466113474664e-01,0.000000000000000000e+00
1.030000000000000000e+02,-2.387535403138292822e-01,0.000000000000000000e+00
1.040000000000000000e+02,1.422808885097482379e-01,0.000000000000000000e+00
1.050000000000000000e+02,-1.400443953035809541e-01,0.000000000000000000e+00
1.060000000000000000e+02,2.452504601429691122e-01,0.000000000000000000e+00
1.070000000000000000e+02,2.377743091107133444e-01,0.000000000000000000e+00
1.080000000000000000e+02,1.916604308340744134e-01,0.000000000000000000e+00
1.090000000000000000e+02,2.989849644856129585e-01,0.000000000000000000e+00
1.100000000000000000e+02,-8.062999150470946674e-02,0.000000000000000000e+00
1.110000000000000000e+02,1.707198067936623320e-01,0.000000000000000000e+00
1.120000000000000000e+02,2.863343562351053362e-01,0.000000000000000000e+00
1.130000000000000000e+02,1.642593041785263275e-01,0.000000000000000000e+00
1.140000000000000000e+02,5.756744255235892727e-01,0.000000000000000000e+00
1.150000000000000000e+02,4.322681566696919830e-01,0.000000000000000000e+00
1.160000000000000000e+02,4.127283657920972071e-01,0.000000000000000000e+00
1.170000000000000000e+02,1.396452342951546022e-01,0.000000000000000000e+00
1.180000000000000000e+02,2.485647333622678645e-01,0.000000000000000000e+00
1.190000000000000000e+02,-3.297753071681049086e-02,0.000000000000000000e+00
1.200000000000000000e+02,3.243176090670101264e-01,0.000000000000000000e+00
1.210000000000000000e+02,7.981476092172223868e-01,0.000000000000000000e+00
1.220000000000000000e+02,4.702855825662108913e+00,0.000000000000000000e+00
1.230000000000000000e+02,3.656692528891278826e+00,0.000000000000000000e+00
1.240000000000000000e+02,-2.262459786787061611e-01,1.000000000000000000e+00
1.250000000000000000e+02,-8.014515640928252527e-01,0.000000000000000000e+00
1.260000000000000000e+02,-7.711918481939201708e-01,0.000000000000000000e+00
1.270000000000000000e+02,-6.857642236469286834e-01,0.000000000000000000e+00
1.280000000000000000e+02,-8.153647979646090338e-01,0.000000000000000000e+00
1.290000000000000000e+02,-6.963633683539289798e-01,0.000000000000000000e+00
1.300000000000000000e+02,-2.166119183096520406e-01,0.000000000000000000e+00
1.310000000000000000e+02,-3.288985182448553868e-01,0.000000000000000000e+00
1.320000000000000000e+02,-4.173001516986885595e-01,0.000000000000000000e+00
1.330000000000000000e+02,-6.482345046293530588e-02,0.000000000000000000e+00
1.340000000000000000e+02,2.650095140842296249e-01,0.000000000000000000e+00
1.350000000000000000e+02,3.672241173985559826e-01,0.000000000000000000e+00
1.360000000000000000e+02,5.658118074012320475e-01,0.000000000000000000e+00
1.370000000000000000e+02,6.684870150252913978e-01,0.000000000000000000e+00
1.380000000000000000e+02,8.586554734356334206e-01,0.000000000000000000e+00
1.390000000000000000e+02,6.589992251833874937e-01,0.000000000000000000e+00
1.400000000000000000e+02,-1.984052097092103839e-01,0.000000000000000000e+00
1.410000000000000000e+02,-6.728035932832627797e-01,0.000000000000000000e+00
1.420000000000000000e+02,-1.076507967602852167e+00,0.000000000000000000e+00
1.430000000000000000e+02,-1.010687099787994647e+00,0.000000000000000000e+00
1.440000000000000000e+02,-1.035720448514322545e+00,0.000000000000000000e+00
1.450000000000000000e+02,-1.053249952512294918e+00,0.000000000000000000e+00
1.460000000000000000e+02,-8.353510521011165979e-01,0.000000000000000000e+00
1.470000000000000000e+02,-8.901745523604877031e-01,0.000000000000000000e+00
1.480000000000000000e+02,-3.886190206359872445e-01,0.000000000000000000e+00
1.490000000000000000e+02,-5.011549862479950379e-01,0.000000000000000000e+00
1.500000000000000000e+02,-5.601648833439847319e-01,0.000000000000000000e+00
1.510000000000000000e+02,-4.842611955144269231e-01,0.000000000000000000e+00
1.520000000000000000e+02,-2.509829165719148492e-01,0.000000000000000000e+00
1.530000000000000000e+02,-3.613551812580720335e-01,0.000000000000000000e+00
1.540000000000000000e+02,-3.060985849716755386e-02,0.000000000000000000e+00
1.550000000000000000e+02,-2.580990045428345758e-01,0.000000000000000000e+00
1.560000000000000000e+02,1.148442440995180430e-03,0.000000000000000000e+00
1.570000000000000000e+02,-2.450288030701688602e-01,0.000000000000000000e+00
1.580000000000000000e+02,5.763678030022410283e-03,0.000000000000000000e+00
1.590000000000000000e+02,1.377028165056270737e-01,0.000000000000000000e+00
1.600000000000000000e+02,6.570553032492078283e-02,0.000000000000000000e+00
1.610000000000000000e+02,-1.496651052549338549e-02,0.000000000000000000e+00
1.620000000000000000e+02,-7.666414032366418441e-02,0.000000000000000000e+00
1.630000000000000000e+02,4.700744497957540236e-01,0.000000000000000000e+00
1.640000000000000000e+02,4.947247130439703933e-02,0.000000000000000000e+00
1.650000000000000000e+02,8.322972662768991781e-02,0.000000000000000000e+00
1.660000000000000000e+02,-6.812689900810368383e-03,0.000000000000000000e+00
1.670000000000000000e+02,1.592149336089928591e-01,0.000000000000000000e+00
1.680000000000000000e+02,2.671873297314475981e-01,0.000000000000000000e+00
1.690000000000000000e+02,3.572588279116593046e-01,0.000000000000000000e+00
1.700000000000000000e+02,5.986286334335851750e-02,0.000000000000000000e+00
1.710000000000000000e+02,2.438965697246524567e-01,0.000000000000000000e+00
1.720000000000000000e+02,2.864270516885754347e-02,0.000000000000000000e+00
1.730000000000000000e+02,2.458854190558647790e-01,0.000000000000000000e+00
1.740000000000000000e+02,3.495120301774169991e-01,0.000000000000000000e+00
1.750000000000000000e+02,4.638663628259034333e-01,0.000000000000000000e+00
1.760000000000000000e+02,1.252663753946580694e-01,0.000000000000000000e+00
1.770000000000000000e+02,7.914058127709137913e-02,0.000000000000000000e+00
1.780000000000000000e+02,5.016434035573643507e-02,0.000000000000000000e+00
1.790000000000000000e+02,-2.332584135033896264e-02,0.000000000000000000e+00
1.800000000000000000e+02,2.379391882628412169e-01,0.000000000000000000e+00
1.810000000000000000e+02,9.780178191272598243e-01,0.000000000000000000e+00
1.820000000000000000e+02,5.195467710059340938e+00,0.000000000000000000e+00
1.830000000000000000e+02,3.207473990820524534e+00,1.000000000000000000e+00
1.840000000000000000e+02,-7.577523534869506916e-01,0.000000000000000000e+00
1.850000000000000000e+02,-1.017619146943415931e+00,0.000000000000000000e+00
1.860000000000000000e+02,-1.058154902042476531e+00,0.000000000000000000e+00
1.870000000000000000e+02,-9.009806843445200553e-01,0.000000000000000000e+00
1.880000000000000000e+02,-7.715076862802309199e-01,0.000000000000000000e+00
1.890000000000000000e+02,-5.065617104977769847e-01,0.000000000000000000e+00
1.900000000000000000e+02,-7.488862953384282095e-01,0.000000000000000000e+00
1.910000000000000000e+02,-4.021094457961283397e-01,0.000000000000000000e+00
1.920000000000000000e+02,-2.003612829389359584e-01,0.000000000000000000e+00
1.930000000000000000e+02,1.271266983791544125e-02,0.000000000000000000e+00
1.940000000000000000e+02,-1.901473107961397860e-02,0.000000000000000000e+00
1.950000000000000000e+02,4.530281479216839990e-01,0.000000000000000000e+00
1.960000000000000000e+02,5.602251745045456754e-01,0.000000000000000000e+00
1.970000000000000000e+02,6.962611914459930773e-01,0.000000000000000000e+00
1.980000000000000000e+02,6.917166620010293254e-01,0.000000000000000000e+00
1.990000000000000000e+02,6.377729217371439496e-01,0.000000000000000000e+00
2.000000000000000000e+02,-4.819918183926481525e-01,0.000000000000000000e+00
2.010000000000000000e+02,-8.975951726766189243e-01,0.000000000000000000e+00
2.020000000000000000e+02,-1.178666115119994640e+00,0.000000000000000000e+00
2.030000000000000000e+02,-1.126529318269004598e+00,0.000000000000000000e+00
2.040000000000000000e+02,-1.023295993789528291e+00,0.000000000000000000e+00
2.050000000000000000e+02,-8.916993953179773724e-01,0.000000000000000000e+00
2.060000000000000000e+02,-1.056346885166394634e+00,0.000000000000000000e+00
2.070000000000000000e+02,-7.750779446253689420e-01,0.000000000000000000e+00
2.080000000000000000e+02,-6.140776304484959480e-01,0.000000000000000000e+00
2.090000000000000000e+02,-7.764190296389135160e-01,0.000000000000000000e+00
2.100000000000000000e+02,-4.946495989204665600e-01,0.000000000000000000e+00
2.110000000000000000e+02,-4.739526889977913049e-01,0.000000000000000000e+00
2.120000000000000000e+02,-2.202999729583431099e-01,0.000000000000000000e+00
2.130000000000000000e+02,-1.880011748824166329e-01,0.000000000000000000e+00
2.140000000000000000e+02,-2.962927959548702361e-01,0.000000000000000000e+00
2.150000000000000000e+02,-1.910293332337656136e-01,0.000000000000000000e+00
2.160000000000000000e+02,-3.899669712113981029e-02,0.000000000000000000e+00
2.170000000000000000e+02,7.929805808706140435e-02,0.000000000000000000e+00
2.180000000000000000e+02,1.089292877224897899e-01,0.000000000000000000e+00
2.190000000000000000e+02,-1.633184215694565566e-01,0.000000000000000000e+00
2.200000000000000000e+02,-2.078233325882458335e-02,0.000000000000000000e+00
2.210000000000000000e+02,2.361876745073362982e-01,0.000000000000000000e+00
2.220000000000000000e+02,2.610617716863795623e-01,0.000000000000000000e+00
2.230000000000000000e+02,1.207351505174755202e-01,0.000000000000000000e+00
2.240000000000000000e+02,2.861232389882357730e-01,0.000000000000000000e+00
2.250000000000000000e+02,4.491801025347026580e-05,0.000000000000000000e+00
2.260000000000000000e+02,4.325899923501843602e-01,0.000000000000000000e+00
2.270000000000000000e+02,2.306065277896152954e-01,0.000000000000000000e+00
2.280000000000000000e+02,5.746754911015142797e-01,0.000000000000000000e+00
2.290000000000000000e+02,4.483216264905898751e-01,0.000000000000000000e+00
2.300000000000000000e+02,1.001885561421513304e-01,0.000000000000000000e+00
2.310000000000000000e+02,2.593928876347166845e-01,0.000000000000000000e+00
2.320000000000000000e+02,3.841898794010111251e-01,0.000000000000000000e+00
2.330000000000000000e+02,3.684676297474774875e-01,0.000000000000000000e+00
2.340000000000000000e+02,5.872797027611266207e-01,0.000000000000000000e+00
2.350000000000000000e+02,3.793250557529111444e-01,0.000000000000000000e+00
2.360000000000000000e+02,2.487490672303367678e-01,0.000000000000000000e+00
2.370000000000000000e+02,-1.205459690949470947e-02,0.000000000000000000e+00
2.380000000000000000e+02,5.049888231520974213e-02,0.000000000000000000e+00
2.390000000000000000e+02,-2.215578666822627663e-02,0.000000000000000000e+00
2.400000000000000000e+02,2.163747817550612865e-02,0.000000000000000000e+00
2.410000000000000000e+02,1.577863573993898205e+00,0.000000000000000000e+00
2.420000000000000000e+02,5.779673234206476273e+00,0.000000000000000000e+00
2.430000000000000000e+02,2.686074910404856908e+00,1.000000000000000000e+00
2.440000000000000000e+02,-8.423319559310058491e-01,0.000000000000000000e+00
2.450000000000000000e+02,-8.281430571888164227e-01,0.000000000000000000e+00
2.460000000000000000e+02,-1.207638930870743588e+00,0.000000000000000000e+00
2.470000000000000000e+02,-9.082968033051168621e-01,0.000000000000000000e+00
2.480000000000000000e+02,-8.377263157512699898e-01,0.000000000000000000e+00
2.490000000000000000e+02,-7.276225411009190625e-01,0.000000000000000000e+00
2.500000000000000000e+02,-4.889224260672029310e-01,0.000000000000000000e+00
2.510000000000000000e+02,-3.692220469374820624e-01,0.000000000000000000e+00
2.520000000000000000e+02,-2.936587240542499755e-01,0.000000000000000000e+00
2.530000000000000000e+02,-2.058142786355105780e-01,0.000000000000000000e+00
2.540000000000000000e+02,-1.111426018995784713e-02,0.000000000000000000e+00
2.550000000000000000e+02,2.592877757714043829e-01,0.000000000000000000e+00
2.560000000000000000e+02,6.799915429539319378e-01,0.000000000000000000e+00
2.570000000000000000e+02,7.458470607986554812e-01,0.000000000000000000e+00
2.580000000000000000e+02,5.997881281808919995e-01,0.000000000000000000e+00
2.590000000000000000e+02,3.121706759504127571e-01,0.000000000000000000e+00
2.600000000000000000e+02,-4.913357003869769923e-01,0.000000000000000000e+00
2.610000000000000000e+02,-9.754577311259134964e-01,0.000000000000000000e+00
2.620000000000000000e+02,-1.121289740153901704e+00,0.000000000000000000e+00
2.630000000000000000e+02,-1.203128238664991523e+00,0.000000000000000000e+00
2.640000000000000000e+02,-9.964368610392773107e-01,0.000000000000000000e+00
2.650000000000000000e+02,-1.024442353491998414e+00,0.000000000000000000e+00
2.660000000000000000e+02,-8.426818351356597514e-01,0.000000000000000000e+00
2.670000000000000000e+02,-8.469779977188347520e-01,0.000000000000000000e+00
2.680000000000000000e+02,-7.998402115550509173e-01,0.000000000000000000e+00
2.690000000000000000e+02,-4.653373707155970540e-01,0.000000000000000000e+00
2.700000000000000000e+02,-3.802321912739822229e-01,0.000000000000000000e+00
2.710000000000000000e+02,-3.950026862681256801e-01,0.000000000000000000e+00
2.720000000000000000e+02,-4.444370672588858207e-01,0.000000000000000000e+00
2.730000000000000000e+02,-2.959798576316169938e-01,0.000000000000000000e+00
2.740000000000000000e+02,-1.432554609799330525e-01,0.000000000000000000e+00
2.750000000000000000e+02,-1.390893195963369411e-01,0.000000000000000000e+00
2.760000000000000000e+02,7.645230431458256704e-02,0.000000000000000000e+00
2.770000000000000000e+02,-1.537282805312239174e-02,0.000000000000000000e+00
2.780000000000000000e+02,-5.614213832292492407e-02,0.000000000000000000e+00
2.790000000000000000e+02,-4.568849979890114710e-02,0.000000000000000000e+00
2.800000000000000000e+02,1.305972232586730120e-01,0.000000000000000000e+00
2.810000000000000000e+02,2.069777617444914508e-01,0.000000000000000000e+00
2.820000000000000000e+02,-3.544850476248402604e-02,0.000000000000000000e+00
2.830000000000000000e+02,3.091669994155775703e-01,0.000000000000000000e+00
2.840000000000000000e+02,-4.096709717439304607e-03,0.000000000000000000e+00
2.850000000000000000e+02,3.385172756037947983e-01,0.000000000000000000e+00
2.860000000000000000e+02,1.753085699439110301e-01,0.000000000000000000e+00
2.870000000000000000e+02,2.989513918323361552e-01,0.000000000000000000e+00
2.880000000000000000e+02,2.883069395402008128e-01,0.000000000000000000e+00
2.890000000000000000e+02,3.146892285192163241e-01,0.000000000000000000e+00
2.900000000000000000e+02,3.439524645380152013e-01,0.000000000000000000e+00
2.910000000000000000e+02,2.585507795937337372e-01,0.000000000000000000e+00
2.920000000000000000e+02,3.263322542737467358e-01,0.000000000000000000e+00
2.930000000000000000e+02,4.858562795372939336e-01,0.000000000000000000e+00
2.940000000000000000e+02,6.062792062409655403e-01,0.000000000000000000e+00
2.950000000000000000e+02,6.737493590923703257e-01,0.000000000000000000e+00
2.960000000000000000e+02,5.701758162743252728e-02,0.000000000000000000e+00
2.970000000000000000e+02,2.068467832326629507e-01,0.000000000000000000e+00
2.980000000000000000e+02,-2.786861055434238302e-02,0.000000000000000000e+00
2.990000000000000000e+02,2.233305458174820179e-01,0.000000000000000000e+00
3.000000000000000000e+02,5.871792482031879673e-02,0.000000000000000000e+00
3.010000000000000000e+02,2.257902579967695722e+00,0.000000000000000000e+00
3.020000000000000000e+02,5.872337915654582297e+00,0.000000000000000000e+00
3.030000000000000000e+02,1.522996637386954122e+00,1.000000000000000000e+00
3.040000000000000000e+02,-1.154490682753011921e+00,0.000000000000000000e+00
3.050000000000000000e+02,-1.193004410361834244e+00,0.000000000000000000e+00
3.060000000000000000e+02,-8.883822388074749110e-01,0.000000000000000000e+00
3.070000000000000000e+02,-8.922417401870131881e-01,0.000000000000000000e+00
3.080000000000000000e+02,-6.424757990933389618e-01,0.000000000000000000e+00
3.090000000000000000e+02,-6.435984778743375490e-01,0.000000000000000000e+00
3.100000000000000000e+02,-4.208666444194044676e-01,0.000000000000000000e+00
3.110000000000000000e+02,-4.830091615767265201e-01,0.000000000000000000e+00
3.120000000000000000e+02,-1.047030847910140477e-01,0.000000000000000000e+00
3.130000000000000000e+02,-4.940496977460436673e-02,0.000000000000000000e+00
3.140000000000000000e+02,-5.335867214469450226e-02,0.000000000000000000e+00
3.150000000000000000e+02,6.746015014788954156e-01,0.000000000000000000e+00
3.160000000000000000e+02,7.672878036258615753e-01,0.000000000000000000e+00
3.170000000000000000e+02,7.248393162784776411e-01,0.000000000000000000e+00
3.180000000000000000e+02,7.301648121610289088e-01,0.000000000000000000e+00
3.190000000000000000e+02,1.559553789373084864e-01,0.000000000000000000e+00
3.200000000000000000e+02,-7.259953766059056290e-01,0.000000000000000000e+00
3.210000000000000000e+02,-9.980465380219585292e-01,0.000000000000000000e+00
3.220000000000000000e+02,-1.312353952195289830e+00,0.000000000000000000e+00
3.230000000000000000e+02,-1.161045052088926388e+00,0.000000000000000000e+00
3.240000000000000000e+02,-1.209109065137668582e+00,0.000000000000000000e+00
3.250000000000000000e+02,-1.091093411886938869e+00,0.000000000000000000e+00
3.260000000000000000e+02,-9.192378538868426485e-01,0.000000000000000000e+00
3.270000000000000000e+02,-7.633920130917998259e-01,0.000000000000000000e+00
3.280000000000000000e+02,-7.902396007519132404e-01,0.000000000000000000e+00
3.290000000000000000e+02,-5.265251743183917421e-01,0.000000000000000000e+00
3.300000000000000000e+02,-5.277581623225424678e-01,0.000000000000000000e+00
3.310000000000000000e+02,-5.380392500529630473e-01,0.000000000000000000e+00
3.320000000000000000e+02,-3.421588839531929382e-01,0.000000000000000000e+00
3.330000000000000000e+02,-3.135475725533750091e-01,0.000000000000000000e+00
3.340000000000000000e+02,-2.779628766826589548e-01,0.000000000000000000e+00
3.350000000000000000e+02,-2.722735716536984762e-01,0.000000000000000000e+00
3.360000000000000000e+02,-1.729672454526837710e-01,0.000000000000000000e+00
3.370000000000000000e+02,-1.447481602752171415e-01,0.000000000000000000e+00
3.380000000000000000e+02,-4.672665597435449875e-02,0.000000000000000000e+00
3.390000000000000000e+02,2.202226945690466120e-01,0.000000000000000000e+00
3.400000000000000000e+02,-1.091571732967476505e-01,0.000000000000000000e+00
3.410000000000000000e+02,1.706743502402723045e-01,0.000000000000000000e+00
3.420000000000000000e+02,1.665228525146956740e-01,0.000000000000000000e+00
3.430000000000000000e+02,2.300512759196027823e-01,0.000000000000000000e+00
3.440000000000000000e+02,1.325626568067111710e-01,0.000000000000000000e+00
3.450000000000000000e+02,3.663558892391735045e-01,0.000000000000000000e+00
3.460000000000000000e+02,1.216872385202600049e-01,0.000000000000000000e+00
3.470000000000000000e+02,6.315041612639618607e-02,0.000000000000000000e+00
3.480000000000000000e+02,3.993314971521987888e-01,0.000000000000000000e+00
3.490000000000000000e+02,4.134202827921183432e-01,0.000000000000000000e+00
3.500000000000000000e+02,2.377424431654618919e-01,0.000000000000000000e+00
3.510000000000000000e+02,3.113781647470824088e-01,0.000000000000000000e+00
3.520000000000000000e+02,7.922503681446763091e-02,0.000000000000000000e+00
3.530000000000000000e+02,6.091257652581604232e-01,0.000000000000000000e+00
3.540000000000000000e+02,5.611876241698318113e-01,0.000000000000000000e+00
3.550000000000000000e+02,5.879012106687091510e-01,0.000000000000000000e+00
3.560000000000000000e+02,1.596400713825378015e-01,0.000000000000000000e+00
3.570000000000000000e+02,2.469028178526918582e-01,0.000000000000000000e+00
3.580000000000000000e+02,1.475169506171755129e-01,0.000000000000000000e+00
3.590000000000000000e+02,3.798312996517169693e-01,0.000000000000000000e+00
3.600000000000000000e+02,-8.466274124889507091e-02,0.000000000000000000e+00
3.610000000000000000e+02,2.814452859300684118e+00,0.000000000000000000e+00
3.620000000000000000e+02,4.551355090463686359e+00,0.000000000000000000e+00
3.630000000000000000e+02,1.439238808228110456e-01,1.000000000000000000e+00
3.640000000000000000e+02,-7.588144640428114984e-01,0.000000000000000000e+00
3.650000000000000000e+02,-8.465428772975248650e-01,0.000000000000000000e+00
3.660000000000000000e+02,-4.660295828551628272e-01,0.000000000000000000e+00
3.670000000000000000e+02,-7.962545953637814033e-01,0.000000000000000000e+00
3.680000000000000000e+02,-2.748399187271839406e-01,0.000000000000000000e+00
3.690000000000000000e+02,-1.406121355255970373e-01,0.000000000000000000e+00
3.700000000000000000e+02,-2.308740486223722632e-01,0.000000000000000000e+00
3.710000000000000000e+02,-1.238608211973499240e-01,0.000000000000000000e+00
3.720000000000000000e+02,6.488286460683891088e-02,0.000000000000000000e+00
3.730000000000000000e+02,-5.553934661332519951e-02,0.000000000000000000e+00
3.740000000000000000e+02,5.326347571151942573e-01,0.000000000000000000e+00
3.750000000000000000e+02,6.083935332744221380e-01,0.000000000000000000e+00
3.760000000000000000e+02,7.427077217435590351e-01,0.000000000000000000e+00
3.770000000000000000e+02,7.471506036597590494e-01,0.000000000000000000e+00
3.780000000000000000e+02,6.923889081449396965e-01,0.000000000000000000e+00
3.790000000000000000e+02,1.473145928256550108e-01,0.000000000000000000e+00
3.800000000000000000e+02,-6.786838039633751318e-01,0.000000000000000000e+00
3.810000000000000000e+02,-9.551242406704739674e-01,0.000000000000000000e+00
3.820000000000000000e+02,-1.170862966608454236e+00,0.000000000000000000e+00
3.830000000000000000e+02,-1.315355204030826286e+00,0.000000000000000000e+00
3.840000000000000000e+02,-9.605410866548352855e-01,0.000000000000000000e+00
3.850000000000000000e+02,-1.128066552641785014e+00,0.000000000000000000e+00
3.860000000000000000e+02,-8.737940395118214409e-01,0.000000000000000000e+00
3.870000000000000000e+02,-7.987789861238517863e-01,0.000000000000000000e+00
3.880000000000000000e+02,-9.144955145495428095e-01,0.000000000000000000e+00
3.890000000000000000e+02,-4.105533778443608561e-01,0.000000000000000000e+00
3.900000000000000000e+02,-6.312753796937826678e-01,0.000000000000000000e+00
3.910000000000000000e+02,-3.796482081902703976e-01,0.000000000000000000e+00
3.920000000000000000e+02,-2.895338706764751802e-01,0.000000000000000000e+00
3.930000000000000000e+02,-5.406357406945782040e-01,0.000000000000000000e+00
3.940000000000000000e+02,-8.245454396744299197e-02,0.000000000000000000e+00
3.950000000000000000e+02,-1.757368051019208843e-01,0.000000000000000000e+00
3.960000000000000000e+02,-2.306673336173350186e-01,0.000000000000000000e+00
3.970000000000000000e+02,-1.625511586735802483e-01,0.000000000000000000e+00
3.980000000000000000e+02,-4.165294865831446064e-02,0.000000000000000000e+00
3.990000000000000000e+02,-1.391535755002274166e-01,0.000000000000000000e+00
4.000000000000000000e+02,4.204549285388749225e-02,0.000000000000000000e+00
4.010000000000000000e+02,-1.379540154974243094e-01,0.000000000000000000e+00
4.020000000000000000e+02,-2.340973277817346571e-02,0.000000000000000000e+00
4.030000000000000000e+02,5.697956517143515365e-02,0.000000000000000000e+00
4.040000000000000000e+02,8.748453761656009575e-02,0.000000000000000000e+00
4.050000000000000000e+02,3.513201323117629005e-02,0.000000000000000000e+00
4.060000000000000000e+02,1.546918036047168626e-02,0.000000000000000000e+00
4.070000000000000000e+02,2.415999119100464554e-01,0.000000000000000000e+00
4.080000000000000000e+02,3.414384763808727685e-01,0.000000000000000000e+00
4.090000000000000000e+02,3.363025192435959987e-01,0.000000000000000000e+00
4.100000000000000000e+02,1.551429141379067345e-01,0.000000000000000000e+00
4.110000000000000000e+02,2.542511074637102686e-01,0.000000000000000000e+00
4.120000000000000000e+02,1.791238799904974477e-01,0.000000000000000000e+00
4.130000000000000000e+02,7.163187963702104533e-01,0.000000000000000000e+00
4.140000000000000000e+02,6.413333940090032437e-01,0.000000000000000000e+00
4.150000000000000000e+02,3.941713643534164868e-01,0.000000000000000000e+00
4.160000000000000000e+02,9.684184067728833500e-02,0.000000000000000000e+00
4.170000000000000000e+02,3.202155087400325173e-01,0.000000000000000000e+00
4.180000000000000000e+02,-1.278327747436368012e-01,0.000000000000000000e+00
4.190000000000000000e+02,4.265206786255718030e-01,0.000000000000000000e+00
4.200000000000000000e+02,1.835759971328158879e-01,0.000000000000000000e+00
4.210000000000000000e+02,4.419348040662507415e+00,0.000000000000000000e+00
4.220000000000000000e+02,4.489494646706073233e+00,0.000000000000000000e+00
4.230000000000000000e+02,-9.668611819492403670e-02,1.000000000000000000e+00
4.240000000000000000e+02,-6.775229262414775855e-01,0.000000000000000000e+00
4.250000000000000000e+02,-1.225718528099918991e+00,0.000000000000000000e+00
4.260000000000000000e+02,-6.877816186328834513e-01,0.000000000000000000e+00
4.270000000000000000e+02,-9.185968177147106895e-01,0.000000000000000000e+00
4.280000000000000000e+02,-3.932246568613279591e-01,0.000000000000000000e+00
4.290000000000000000e+02,-6.197391820494791981e-01,0.000000000000000000e+00
4.300000000000000000e+02,-4.452254999048023687e-01,0.000000000000000000e+00
4.310000000000000000e+02,-4.122862692012359553e-01,0.000000000000000000e+00
4.320000000000000000e+02,-1.285521476699379717e-01,0.000000000000000000e+00
4.330000000000000000e+02,9.903783383498274140e-02,0.000000000000000000e+00
4.340000000000000000e+02,1.720831175871417873e-01,0.000000000000000000e+00
4.350000000000000000e+02,4.345664777002578028e-01,0.000000000000000000e+00
4.360000000000000000e+02,7.563084592022761843e-01,0.000000000000000000e+00
4.370000000000000000e+02,6.465003643594218197e-01,0.000000000000000000e+00
4.380000000000000000e+02,5.178999709852235567e-01,0.000000000000000000e+00
4.390000000000000000e+02,-4.184199585695779766e-01,0.000000000000000000e+00
4.400000000000000000e+02,-8.117670689794487249e-01,0.000000000000000000e+00
4.410000000000000000e+02,-8.878096374118835676e-01,0.000000000000000000e+00
4.420000000000000000e+02,-1.264459297314554753e+00,0.000000000000000000e+00
4.430000000000000000e+02,-1.037024371941719370e+00,0.000000000000000000e+00
4.440000000000000000e+02,-9.478621766277783856e-01,0.000000000000000000e+00
4.450000000000000000e+02,-9.231729995708091163e-01,0.000000000000000000e+00
4.460000000000000000e+02,-7.419745418299255046e-01,0.000000000000000000e+00
4.470000000000000000e+02,-5.307408559540227611e-01,0.000000000000000000e+00
4.480000000000000000e+02,-6.134056783411788727e-01,0.000000000000000000e+00
4.490000000000000000e+02,-5.252825721555766103e-01,0.000000000000000000e+00
4.500000000000000000e+02,-3.282224911091601860e-01,0.000000000000000000e+00
4.510000000000000000e+02,-3.686646810480860847e-01,0.000000000000000000e+00
4.520000000000000000e+02,-2.338539466883675366e-01,0.000000000000000000e+00
4.530000000000000000e+02,-2.307765398861313100e-01,0.000000000000000000e+00
4.540000000000000000e+02,-3.368709835150937026e-01,0.000000000000000000e+00
4.550000000000000000e+02,8.400768259145333094e-02,0.000000000000000000e+00
4.560000000000000000e+02,-9.055810611170796165e-02,0.000000000000000000e+00
4.570000000000000000e+02,-1.051141232908190393e-01,0.000000000000000000e+00
4.580000000000000000e+02,-2.508049479510540344e-02,0.000000000000000000e+00
4.590000000000000000e+02,-6.932915339921628950e-02,0.000000000000000000e+00
4.600000000000000000e+02,1.933265115585647009e-01,0.000000000000000000e+00
4.610000000000000000e+02,8.607253489545314828e-02,0.000000000000000000e+00
4.620000000000000000e+02,1.900261747150605030e-01,0.000000000000000000e+00
4.630000000000000000e+02,3.672106936142474076e-01,0.000000000000000000e+00
4.640000000000000000e+02,1.073866221591358860e-01,0.000000000000000000e+00
4.650000000000000000e+02,2.303589558590891095e-01,0.000000000000000000e+00
4.660000000000000000e+02,2.867260401500004163e-01,0.000000000000000000e+00
4.670000000000000000e+02,5.711575640481232341e-01,0.000000000000000000e+00
4.680000000000000000e+02,3.643489571677611116e-01,0.000000000000000000e+00
4.690000000000000000e+02,3.933035171171108679e-01,0.000000000000000000e+00
4.700000000000000000e+02,1.642149321483977742e-01,0.000000000000000000e+00
4.710000000000000000e+02,1.679441838998553815e-01,0.000000000000000000e+00
4.720000000000000000e+02,2.563965765666771368e-01,0.000000000000000000e+00
4.730000000000000000e+02,6.286118191553931034e-01,0.000000000000000000e+00
4.740000000000000000e+02,5.686784032463665373e-01,0.000000000000000000e+00
4.750000000000000000e+02,3.243495414624170126e-01,0.000000000000000000e+00
4.760000000000000000e+02,1.110718573113956831e-01,0.000000000000000000e+00
4.770000000000000000e+02,2.004271116835814881e-01,0.000000000000000000e+00
4.780000000000000000e+02,-9.769849598200311055e-03,0.000000000000000000e+00
4.790000000000000000e+02,1.605993993661443131e-01,0.000000000000000000e+00
4.800000000000000000e+02,4.235670960650554373e-01,0.000000000000000000e+00
4.810000000000000000e+02,4.909297308055507791e+00,0.000000000000000000e+00
4.820000000000000000e+02,4.382604941453903002e+00,0.000000000000000000e+00
4.830000000000000000e+02,-3.596124464611819560e-01,1.000000000000000000e+00
4.840000000000000000e+02,-1.065381717851134669e+00,0.000000000000000000e+00
4.850000000000000000e+02,-1.074067487064171988e+00,0.000000000000000000e+00
4.860000000000000000e+02,-8.210756535572267811e-01,0.000000000000000000e+00
4.870000000000000000e+02,-1.138303072377158554e+00,0.000000000000000000e+00
4.880000000000000000e+02,-6.928283463994552305e-01,0.000000000000000000e+00
4.890000000000000000e+02,-5.729676066060885864e-01,0.000000000000000000e+00
4.900000000000000000e+02,-6.711618079902493816e-01,0.000000000000000000e+00
4.910000000000000000e+02,-4.628747269401639608e-01,0.000000000000000000e+00
4.920000000000000000e+02,-2.059234650992422533e-01,0.000000000000000000e+00
4.930000000000000000e+02,-7.679184022871250737e-02,0.000000000000000000e+00
4.940000000000000000e+02,1.650078573521211456e-01,0.000000000000000000e+00
4.950000000000000000e+02,4.965149292517529456e-01,0.000000000000000000e+00
4.960000000000000000e+02,5.851816392564257452e-01,0.000000000000000000e+00
4.970000000000000000e+02,8.898888753582889777e-01,0.000000000000000000e+00
4.980000000000000000e+02,3.430820547257487085e-01,0.000000000000000000e+00
4.990000000000000000e+02,-2.319413477854641858e-01,0.000000000000000000e+00
5.000000000000000000e+02,-7.798292974236942232e-01,0.000000000000000000e+00
5.010000000000000000e+02,-1.306207852434045691e+00,0.000000000000000000e+00
5.020000000000000000e+02,-1.137963839908291641e+00,0.000000000000000000e+00
5.030000000000000000e+02,-1.204783374979793820e+00,0.000000000000000000e+00
5.040000000000000000e+02,-1.061825717543353198e+00,0.000000000000000000e+00
5.050000000000000000e+02,-8.759402523903582205e-01,0.000000000000000000e+00
5.060000000000000000e+02,-8.763039266924919080e-01,0.000000000000000000e+00
5.070000000000000000e+02,-7.869545383098541791e-01,0.000000000000000000e+00
5.080000000000000000e+02,-4.801066377922666994e-01,0.000000000000000000e+00
5.090000000000000000e+02,-5.981033538284117324e-01,0.000000000000000000e+00
5.100000000000000000e+02,-3.478317948508408697e-01,0.000000000000000000e+00
5.110000000000000000e+02,-4.765086471548178881e-01,0.000000000000000000e+00
5.120000000000000000e+02,-3.433675994547094601e-01,0.000000000000000000e+00
5.130000000000000000e+02,-3.643168953144247380e-01,0.000000000000000000e+00
5.140000000000000000e+02,-1.160806393667704606e-01,0.000000000000000000e+00
5.150000000000000000e+02,-2.171376890689455108e-01,0.000000000000000000e+00
5.160000000000000000e+02,-1.549976813043147661e-01,0.000000000000000000e+00
5.170000000000000000e+02,5.833256972329611129e-02,0.000000000000000000e+00
5.180000000000000000e+02,-2.055348853727614056e-01,0.000000000000000000e+00
5.190000000000000000e+02,2.163578128103489095e-01,0.000000000000000000e+00
5.200000000000000000e+02,9.309114145428594445e-02,0.000000000000000000e+00
5.210000000000000000e+02,1.567182294142843713e-02,0.000000000000000000e+00
5.220000000000000000e+02,9.829436121826617967e-02,0.000000000000000000e+00
5.230000000000000000e+02,1.935332397601385312e-01,0.000000000000000000e+00
5.240000000000000000e+02,4.942889342295295751e-01,0.000000000000000000e+00
5.250000000000000000e+02,2.048184245640695400e-01,0.000000000000000000e+00
5.260000000000000000e+02,2.575788894887583447e-01,0.000000000000000000e+00
5.270000000000000000e+02,2.195973532168845610e-01,0.000000000000000000e+00
5.280000000000000000e+02,5.673013760701635100e-01,0.000000000000000000e+00
5.290000000000000000e+02,2.792601952397156806e-01,0.000000000000000000e+00
5.300000000000000000e+02,6.017232918103294637e-01,0.000000000000000000e+00
5.310000000000000000e+02,1.483214475781995667e-01,0.000000000000000000e+00
5.320000000000000000e+02,5.735579400310303333e-01,0.000000000000000000e+00
5.330000000000000000e+02,8.615214071728823919e-01,0.000000000000000000e+00
5.340000000000000000e+02,5.754654633610755132e-01,0.000000000000000000e+00
5.350000000000000000e+02,5.419341264543793280e-01,0.000000000000000000e+00
5.360000000000000000e+02,6.655593795925796030e-02,0.000000000000000000e+00
5.370000000000000000e+02,1.031461097721918657e-01,0.000000000000000000e+00
5.380000000000000000e+02,1.549407916282821152e-01,0.000000000000000000e+00
5.390000000000000000e+02,3.002696002852952017e-01,0.000000000000000000e+00
5.400000000000000000e+02,9.741572044772244254e-01,0.000000000000000000e+00
5.410000000000000000e+02,5.734268920440575457e+00,0.000000000000000000e+00
5.420000000000000000e+02,3.609767092454070347e+00,1.000000000000000000e+00
5.430000000000000000e+02,-7.248064108912363190e-01,0.000000000000000000e+00
5.440000000000000000e+02,-8.831412521670294336e-01,0.000000000000000000e+00
5.450000000000000000e+02,-1.323358944311892937e+00,0.000000000000000000e+00
5.460000000000000000e+02,-8.000775304735695537e-01,0.000000000000000000e+00
5.470000000000000000e+02,-1.117837618874263583e+00,0.000000000000000000e+00
5.480000000000000000e+02,-7.979570250572644019e-01,0.000000000000000000e+00
5.490000000000000000e+02,-8.278489240311648345e-01,0.000000000000000000e+00
5.500000000000000000e+02,-4.888490448256924692e-01,0.000000000000000000e+00
5.510000000000000000e+02,-3.206659602974366030e-01,0.000000000000000000e+00
5.520000000000000000e+02,-2.088448140158523925e-01,0.000000000000000000e+00
5.530000000000000000e+02,-3.458089788587268010e-02,0.000000000000000000e+00
5.540000000000000000e+02,1.815605939349008435e-01,0.000000000000000000e+00
5.550000000000000000e+02,4.240300260196792625e-01,0.000000000000000000e+00
5.560000000000000000e+02,8.400793256943390741e-01,0.000000000000000000e+00
5.570000000000000000e+02,5.111700498947717719e-01,0.000000000000000000e+00
5.580000000000000000e+02,4.963090193579102749e-01,0.000000000000000000e+00
5.590000000000000000e+02,-3.862496628826652123e-01,0.000000000000000000e+00
5.600000000000000000e+02,-9.861394643724504805e-01,0.000000000000000000e+00
5.610000000000000000e+02,-1.213583752423025297e+00,0.000000000000000000e+00
5.620000000000000000e+02,-1.281254686319932778e+00,0.000000000000000000e+00
5.630000000000000000e+02,-1.245804202400016658e+00,0.000000000000000000e+00
5.640000000000000000e+02,-9.365165408222290155e-01,0.000000000000000000e+00
5.650000000000000000e+02,-1.031228741126144488e+00,0.000000000000000000e+00
5.660000000000000000e+02,-7.537014503306385116e-01,0.000000000000000000e+00
5.670000000000000000e+02,-8.732823013843922233e-01,0.000000000000000000e+00
5.680000000000000000e+02,-7.325823542573507430e-01,0.000000000000000000e+00
5.690000000000000000e+02,-6.441895629930035616e-01,0.000000000000000000e+00
5.700000000000000000e+02,-3.995496637578061505e-01,0.000000000000000000e+00
5.710000000000000000e+02,-4.533796008331127392e-01,0.000000000000000000e+00
5.720000000000000000e+02,-2.608927033930421580e-01,0.000000000000000000e+00
5.730000000000000000e+02,-2.578184220378113567e-01,0.000000000000000000e+00
5.740000000000000000e+02,-1.948946089561742201e-01,0.000000000000000000e+00
5.750000000000000000e+02,-2.593308470347936434e-01,0.000000000000000000e+00
5.760000000000000000e+02,-4.396915618012173926e-02,0.000000000000000000e+00
5.770000000000000000e+02,2.494519910154770724e-03,0.000000000000000000e+00
5.780000000000000000e+02,-3.194753563152982062e-02,0.000000000000000000e+00
5.790000000000000000e+02,-1.886790101435429842e-02,0.000000000000000000e+00
5.800000000000000000e+02,-3.393521557165683072e-02,0.000000000000000000e+00
5.810000000000000000e+02,1.776331318148109129e-01,0.000000000000000000e+00
5.820000000000000000e+02,1.008292062699622377e-01,0.000000000000000000e+00
5.830000000000000000e+02,1.961815438416830426e-01,0.000000000000000000e+00
5.840000000000000000e+02,2.959604287957336988e-01,0.000000000000000000e+00
5.850000000000000000e+02,1.896933605980166970e-01,0.000000000000000000e+00
5.860000000000000000e+02,2.463365705289229657e-01,0.000000000000000000e+00
5.870000000000000000e+02,3.963895955311452779e-01,0.000000000000000000e+00
5.880000000000000000e+02,5.346051413283400278e-01,0.000000000000000000e+00
5.890000000000000000e+02,1.872360477126889522e-01,0.000000000000000000e+00
5.900000000000000000e+02,6.143945396648377022e-01,0.000000000000000000e+00
5.910000000000000000e+02,1.310367941926245672e-01,0.000000000000000000e+00
5.920000000000000000e+02,3.611013022840705577e-01,0.000000000000000000e+00
5.930000000000000000e+02,7.662225488693102937e-01,0.000000000000000000e+00
5.940000000000000000e+02,5.383411098026760211e-01,0.000000000000000000e+00
5.950000000000000000e+02,3.083752308959100685e-01,0.000000000000000000e+00
5.960000000000000000e+02,1.852093858512470492e-01,0.000000000000000000e+00
5.970000000000000000e+02,2.396487514034163768e-01,0.000000000000000000e+00
5.980000000000000000e+02,7.013065738354175294e-02,0.000000000000000000e+00
5.990000000000000000e+02,3.329661950250868974e-01,0.000000000000000000e+00
6.000000000000000000e+02,1.562046351768145769e+00,0.000000000000000000e+00
6.010000000000000000e+02,5.086434654059972083e+00,0.000000000000000000e+00
6.020000000000000000e+02,1.957952246789910200e+00,1.000000000000000000e+00
6.030000000000000000e+02,-1.111287914476427607e+00,0.000000000000000000e+00
6.040000000000000000e+02,-5.185089927032613399e-01,0.000000000000000000e+00
6.050000000000000000e+02,-6.978418549702464224e-01,0.000000000000000000e+00
6.060000000000000000e+02,-3.547049788679508819e-01,0.000000000000000000e+00
6.070000000000000000e+02,-6.275705821976409471e-01,0.000000000000000000e+00
6.080000000000000000e+02,-3.098879910270467830e-01,0.000000000000000000e+00
6.090000000000000000e+02,-3.235114389319404538e-01,0.000000000000000000e+00
6.100000000000000000e+02,-3.513451163335692268e-02,0.000000000000000000e+00
6.110000000000000000e+02,-1.774775647162176173e-01,0.000000000000000000e+00
6.120000000000000000e+02,1.175710832186445814e-01,0.000000000000000000e+00
6.130000000000000000e+02,2.834779833344855393e-01,0.000000000000000000e+00
6.140000000000000000e+02,6.857248215280734582e-01,0.000000000000000000e+00
6.150000000000000000e+02,7.603092665296077302e-01,0.000000000000000000e+00
6.160000000000000000e+02,8.890409286021213608e-01,0.000000000000000000e+00
6.170000000000000000e+02,7.666232305651573542e-01,0.000000000000000000e+00
6.180000000000000000e+02,3.657783752660124788e-01,0.000000000000000000e+00
6.190000000000000000e+02,-5.282908669880465036e-01,0.000000000000000000e+00
6.200000000000000000e+02,-1.120438989272443786e+00,0.000000000000000000e+00
6.210000000000000000e+02,-1.271890289140543251e+00,0.000000000000000000e+00
6.220000000000000000e+02,-1.176745593386057998e+00,0.000000000000000000e+00
6.230000000000000000e+02,-1.017327046995182505e+00,0.000000000000000000e+00
6.240000000000000000e+02,-1.205665350819616011e+00,0.000000000000000000e+00
6.250000000000000000e+02,-8.602835714949012003e-01,0.000000000000000000e+00
6.260000000000000000e+02,-9.249801874879977071e-01,0.000000000000000000e+00
6.270000000000000000e+02,-6.294273776567407275e-01,0.000000000000000000e+00
6.280000000000000000e+02,-6.224144729343806803e-01,0.000000000000000000e+00
6.290000000000000000e+02,-5.748240415013458060e-01,0.000000000000000000e+00
6.300000000000000000e+02,-3.032880639572345105e-01,0.000000000000000000e+00
6.310000000000000000e+02,-6.816019713601921826e-01,0.000000000000000000e+00
6.320000000000000000e+02,-3.713337122182563399e-01,0.000000000000000000e+00
6.330000000000000000e+02,-2.723281620309617179e-01,0.000000000000000000e+00
6.340000000000000000e+02,-7.584840371449996788e-02,0.000000000000000000e+00
6.350000000000000000e+02,-2.690759187581840406e-01,0.000000000000000000e+00
6.360000000000000000e+02,1.027266888870756803e-02,0.000000000000000000e+00
6.370000000000000000e+02,-5.452498371955869644e-02,0.000000000000000000e+00
6.380000000000000000e+02,-9.828303837909985186e-02,0.000000000000000000e+00
6.390000000000000000e+02,1.190756077268018825e-01,0.000000000000000000e+00
6.400000000000000000e+02,-1.461249958349937136e-02,0.000000000000000000e+00
6.410000000000000000e+02,5.675694841296043125e-02,0.000000000000000000e+00
6.420000000000000000e+02,-9.987470571944047359e-02,0.000000000000000000e+00
6.430000000000000000e+02,3.948432123254629056e-02,0.000000000000000000e+00
6.440000000000000000e+02,2.204373066725411057e-01,0.000000000000000000e+00
6.450000000000000000e+02,9.589754788975028699e-02,0.000000000000000000e+00
6.460000000000000000e+02,1.577753032528441401e-01,0.000000000000000000e+00
6.470000000000000000e+02,4.271618460689906582e-01,0.000000000000000000e+00
6.480000000000000000e+02,2.445263126468837089e-01,0.000000000000000000e+00
6.490000000000000000e+02,1.353255800614360238e-01,0.000000000000000000e+00
6.500000000000000000e+02,3.067569155009263193e-01,0.000000000000000000e+00
6.510000000000000000e+02,3.538071381644269930e-02,0.000000000000000000e+00
6.520000000000000000e+02,4.526339679380131931e-01,0.000000000000000000e+00
6.530000000000000000e+02,6.039307230213438737e-01,0.000000000000000000e+00
6.540000000000000000e+02,2.854509493131669462e-01,0.000000000000000000e+00
6.550000000000000000e+02,1.354653281555927291e-01,0.000000000000000000e+00
6.560000000000000000e+02,1.232032324035822191e-01,0.000000000000000000e+00
6.570000000000000000e+02,1.859625984819504307e-01,0.000000000000000000e+00
6.580000000000000000e+02,1.531848862326248284e-01,0.000000000000000000e+00
6.590000000000000000e+02,-2.570498981646977127e-02,0.000000000000000000e+00
6.600000000000000000e+02,2.694207022698477338e+00,0.000000000000000000e+00
6.610000000000000000e+02,5.202404119150585871e+00,0.000000000000000000e+00
6.620000000000000000e+02,8.355569048477402561e-01,1.000000000000000000e+00
6.630000000000000000e+02,-1.002839064879234909e+00,0.000000000000000000e+00
6.640000000000000000e+02,-1.031535717330592572e+00,0.000000000000000000e+00
6.650000000000000000e+02,-6.441821646036425264e-01,0.000000000000000000e+00
6.660000000000000000e+02,-7.068479306696613396e-01,0.000000000000000000e+00
6.670000000000000000e+02,-6.881828153010336457e-01,0.000000000000000000e+00
6.680000000000000000e+02,-5.285515057744228917e-01,0.000000000000000000e+00
6.690000000000000000e+02,-4.669772150665805199e-01,0.000000000000000000e+00
6.700000000000000000e+02,-2.491718414632447531e-01,0.000000000000000000e+00
6.710000000000000000e+02,-1.492031550471913659e-01,0.000000000000000000e+00
6.720000000000000000e+02,-1.782733245125664168e-01,0.000000000000000000e+00
6.730000000000000000e+02,9.142510652937210769e-02,0.000000000000000000e+00
6.740000000000000000e+02,4.028497412600015037e-01,0.000000000000000000e+00
6.750000000000000000e+02,7.720760922409136695e-01,0.000000000000000000e+00
6.760000000000000000e+02,7.192064885463586021e-01,0.000000000000000000e+00
6.770000000000000000e+02,7.288962335751670851e-01,0.000000000000000000e+00
6.780000000000000000e+02,1.060536635689291948e-02,0.000000000000000000e+00
6.790000000000000000e+02,-4.871901075033560069e-01,0.000000000000000000e+00
6.800000000000000000e+02,-8.593910170617804489e-01,0.000000000000000000e+00
6.810000000000000000e+02,-1.320224556308896124e+00,0.000000000000000000e+00
6.820000000000000000e+02,-8.609997929134324268e-01,0.000000000000000000e+00
6.830000000000000000e+02,-1.080843139517151830e+00,0.000000000000000000e+00
6.840000000000000000e+02,-1.058879070170269721e+00,0.000000000000000000e+00
6.850000000000000000e+02,-7.680898992323933472e-01,0.000000000000000000e+00
6.860000000000000000e+02,-6.644894534965958277e-01,0.000000000000000000e+00
6.870000000000000000e+02,-5.460247625468392929e-01,0.000000000000000000e+00
6.880000000000000000e+02,-6.221497056576879015e-01,0.000000000000000000e+00
6.890000000000000000e+02,-5.092562442264565448e-01,0.000000000000000000e+00
6.900000000000000000e+02,-2.694698945892408659e-01,0.000000000000000000e+00
6.910000000000000000e+02,-5.075477000208322709e-01,0.000000000000000000e+00
6.920000000000000000e+02,-1.783394352465215160e-01,0.000000000000000000e+00
6.930000000000000000e+02,-3.477056106971846972e-01,0.000000000000000000e+00
6.940000000000000000e+02,-2.275846829970959717e-01,0.000000000000000000e+00
6.950000000000000000e+02,-2.543042185299333457e-01,0.000000000000000000e+00
6.960000000000000000e+02,1.938471499896713690e-01,0.000000000000000000e+00
6.970000000000000000e+02,-1.040039825966901921e-01,0.000000000000000000e+00
6.980000000000000000e+02,3.188708100239370236e-01,0.000000000000000000e+00
6.990000000000000000e+02,-2.671652590841153696e-01,0.000000000000000000e+00
7.000000000000000000e+02,3.753655299633223280e-02,0.000000000000000000e+00
7.010000000000000000e+02,2.756981955772823678e-01,0.000000000000000000e+00
7.020000000000000000e+02,9.984712496566261475e-02,0.000000000000000000e+00
7.030000000000000000e+02,1.356806639401264558e-01,0.000000000000000000e+00
7.040000000000000000e+02,2.386771094847734559e-02,0.000000000000000000e+00
7.050000000000000000e+02,2.066831323586502123e-01,0.000000000000000000e+00
7.060000000000000000e+02,1.620043148705108405e-01,0.000000000000000000e+00
7.070000000000000000e+02,2.563297876852626000e-01,0.000000000000000000e+00
7.080000000000000000e+02,2.638663583088972642e-01,0.000000000000000000e+00
7.090000000000000000e+02,1.024072073221433260e-01,0.000000000000000000e+00
7.100000000000000000e+02,4.487762903135150694e-01,0.000000000000000000e+00
7.110000000000000000e+02,3.412469088948738571e-02,0.000000000000000000e+00
7.120000000000000000e+02,3.750245109249507047e-01,0.000000000000000000e+00
7.130000000000000000e+02,5.375574218188424735e-01,0.000000000000000000e+00
7.140000000000000000e+02,4.553605524182411934e-01,0.000000000000000000e+00
7.150000000000000000e+02,1.884115786736870884e-02,0.000000000000000000e+00
7.160000000000000000e+02,-8.865994557913955965e-02,0.000000000000000000e+00
7.170000000000000000e+02,-5.166627758161536355e-02,0.000000000000000000e+00
7.180000000000000000e+02,2.160341803959687501e-01,0.000000000000000000e+00
7.190000000000000000e+02,-3.416275806136623988e-02,0.000000000000000000e+00
7.200000000000000000e+02,3.359183139403576046e+00,0.000000000000000000e+00
7.210000000000000000e+02,5.152516817265163418e+00,0.000000000000000000e+00
7.220000000000000000e+02,6.548105161000425944e-01,1.000000000000000000e+00
7.230000000000000000e+02,-9.255357254067436701e-01,0.000000000000000000e+00
7.240000000000000000e+02,-1.261393716311256297e+00,0.000000000000000000e+00
7.250000000000000000e+02,-6.317931402073582170e-01,0.000000000000000000e+00
7.260000000000000000e+02,-8.047405099098782211e-01,0.000000000000000000e+00
7.270000000000000000e+02,-6.971542721335011183e-01,0.000000000000000000e+00
7.280000000000000000e+02,-5.049404702747459783e-01,0.000000000000000000e+00
7.290000000000000000e+02,-4.868203164247931758e-01,0.000000000000000000e+00
7.300000000000000000e+02,-5.258949433664257267e-01,0.000000000000000000e+00
7.310000000000000000e+02,-3.084002902318069284e-01,0.000000000000000000e+00
7.320000000000000000e+02,1.680445091726852358e-01,0.000000000000000000e+00
7.330000000000000000e+02,3.169391953364882331e-01,0.000000000000000000e+00
7.340000000000000000e+02,4.438623046263383554e-01,0.000000000000000000e+00
7.350000000000000000e+02,7.091221535003278120e-01,0.000000000000000000e+00
7.360000000000000000e+02,6.456960209554160057e-01,0.000000000000000000e+00
7.370000000000000000e+02,6.578753411892147573e-01,0.000000000000000000e+00
7.380000000000000000e+02,5.572206312273874501e-02,0.000000000000000000e+00
7.390000000000000000e+02,-6.239930144834191506e-01,0.000000000000000000e+00
7.400000000000000000e+02,-8.783355806305610525e-01,0.000000000000000000e+00
7.410000000000000000e+02,-1.424553472953810962e+00,0.000000000000000000e+00
7.420000000000000000e+02,-1.122315331923790849e+00,0.000000000000000000e+00
7.430000000000000000e+02,-8.690040084070590476e-01,0.000000000000000000e+00
7.440000000000000000e+02,-7.707302812592715657e-01,0.000000000000000000e+00
7.450000000000000000e+02,-5.380290937658750439e-01,0.000000000000000000e+00
7.460000000000000000e+02,-7.303673786535551660e-01,0.000000000000000000e+00
7.470000000000000000e+02,-7.331151842672829488e-01,0.000000000000000000e+00
7.480000000000000000e+02,-3.394245313727414226e-01,0.000000000000000000e+00
7.490000000000000000e+02,-5.356916979040767801e-01,0.000000000000000000e+00
7.500000000000000000e+02,-4.183557438980484711e-01,0.000000000000000000e+00
7.510000000000000000e+02,-4.300682594461275321e-01,0.000000000000000000e+00
7.520000000000000000e+02,-2.473081400579948408e-01,0.000000000000000000e+00
7.530000000000000000e+02,-4.005393837470806462e-01,0.000000000000000000e+00
7.540000000000000000e+02,7.458203745674699126e-02,0.000000000000000000e+00
7.550000000000000000e+02,-2.031546773100932346e-01,0.000000000000000000e+00
7.560000000000000000e+02,7.511009020893200105e-02,0.000000000000000000e+00
7.570000000000000000e+02,5.003138701400812460e-02,0.000000000000000000e+00
7.580000000000000000e+02,1.178242669415385802e-01,0.000000000000000000e+00
7.590000000000000000e+02,5.728213378239070674e-02,0.000000000000000000e+00
7.600000000000000000e+02,1.782183668834046719e-01,0.000000000000000000e+00
7.610000000000000000e+02,2.793963282526814029e-01,0.000000000000000000e+00
7.620000000000000000e+02,3.971526420665518753e-01,0.000000000000000000e+00
7.630000000000000000e+02,2.928761837912111088e-01,0.000000000000000000e+00
7.640000000000000000e+02,3.481752665539625813e-01,0.000000000000000000e+00
7.650000000000000000e+02,3.491662361075016374e-01,0.000000000000000000e+00
7.660000000000000000e+02,4.184322162343268037e-01,0.000000000000000000e+00
7.670000000000000000e+02,5.151143092562674441e-01,0.000000000000000000e+00
7.680000000000000000e+02,4.766838871110531395e-01,0.000000000000000000e+00
7.690000000000000000e+02,1.248782243354599475e-01,0.000000000000000000e+00
7.700000000000000000e+02,4.637155941634953926e-01,0.000000000000000000e+00
7.710000000000000000e+02,3.034927865547098480e-01,0.000000000000000000e+00
7.720000000000000000e+02,7.172970823128825835e-01,0.000000000000000000e+00
7.730000000000000000e+02,5.520488532104221857e-01,0.000000000000000000e+00
7.740000000000000000e+02,6.076759956118444883e-01,0.000000000000000000e+00
7.750000000000000000e+02,2.328128985151832996e-03,0.000000000000000000e+00
7.760000000000000000e+02,2.889756828631324659e-01,0.000000000000000000e+00
7.770000000000000000e+02,-1.034477392148231388e-02,0.000000000000000000e+00
7.780000000000000000e+02,2.982325273172062308e-01,0.000000000000000000e+00
7.790000000000000000e+02,3.066604524387801511e-01,0.000000000000000000e+00
7.800000000000000000e+02,4.202746836544928755e+00,0.000000000000000000e+00
7.810000000000000000e+02,4.945301221868352748e+00,0.000000000000000000e+00
7.820000000000000000e+02,-9.743472265494844409e-03,1.000000000000000000e+00
7.830000000000000000e+02,-1.089312352998832445e+00,0.000000000000000000e+00
7.840000000000000000e+02,-1.078705191284236697e+00,0.000000000000000000e+00
7.850000000000000000e+02,-9.557617609877694376e-01,0.000000000000000000e+00
7.860000000000000000e+02,-9.784665537015474479e-01,0.000000000000000000e+00
7.870000000000000000e+02,-6.629751410876761897e-01,0.000000000000000000e+00
7.880000000000000000e+02,-5.837342683228533557e-01,0.000000000000000000e+00
7.890000000000000000e+02,-4.508244941230768466e-01,0.000000000000000000e+00
7.900000000000000000e+02,-3.737756400568074122e-01,0.000000000000000000e+00
7.910000000000000000e+02,-3.850784549684911351e-01,0.000000000000000000e+00
7.920000000000000000e+02,-1.977450684243386991e-01,0.000000000000000000e+00
7.930000000000000000e+02,1.791521906915639895e-01,0.000000000000000000e+00
7.940000000000000000e+02,6.038107182049727850e-01,0.000000000000000000e+00
7.950000000000000000e+02,8.086620136307407503e-01,0.000000000000000000e+00
7.960000000000000000e+02,5.990796022864652848e-01,0.000000000000000000e+00
7.970000000000000000e+02,3.957418007496262824e-01,0.000000000000000000e+00
7.980000000000000000e+02,-1.460863700253499722e-02,0.000000000000000000e+00
7.990000000000000000e+02,-9.521620948165340215e-01,0.000000000000000000e+00
8.000000000000000000e+02,-9.730204658593230027e-01,0.000000000000000000e+00
8.010000000000000000e+02,-1.391511176186592813e+00,0.000000000000000000e+00
8.020000000000000000e+02,-1.108383458088771034e+00,0.000000000000000000e+00
8.030000000000000000e+02,-1.006583397258488333e+00,0.000000000000000000e+00
8.040000000000000000e+02,-8.186050897005382465e-01,0.000000000000000000e+00
8.050000000000000000e+02,-7.205573794547887045e-01,0.000000000000000000e+00
8.060000000000000000e+02,-8.356414584390503553e-01,0.000000000000000000e+00
8.070000000000000000e+02,-6.358695305938262265e-01,0.000000000000000000e+00
8.080000000000000000e+02,-5.922003076626314311e-01,0.000000000000000000e+00
8.090000000000000000e+02,-5.503606749373883833e-01,0.000000000000000000e+00
8.100000000000000000e+02,-2.699052283579987388e-01,0.000000000000000000e+00
8.110000000000000000e+02,-5.430416295837693363e-01,0.000000000000000000e+00
8.120000000000000000e+02,-4.633853760098117225e-01,0.000000000000000000e+00
8.130000000000000000e+02,-1.473235990811893881e-01,0.000000000000000000e+00
8.140000000000000000e+02,-2.762052042380396810e-01,0.000000000000000000e+00
8.150000000000000000e+02,6.380928109639583123e-02,0.000000000000000000e+00
8.160000000000000000e+02,-2.543030680293572043e-01,0.000000000000000000e+00
8.170000000000000000e+02,1.675231013206787134e-01,0.000000000000000000e+00
8.180000000000000000e+02,-8.419990719679940061e-02,0.000000000000000000e+00
8.190000000000000000e+02,-3.062456780172085821e-02,0.000000000000000000e+00
8.200000000000000000e+02,3.391186124206679170e-02,0.000000000000000000e+00
8.210000000000000000e+02,2.153880306655114318e-01,0.000000000000000000e+00
8.220000000000000000e+02,1.259122062349282423e-01,0.000000000000000000e+00
8.230000000000000000e+02,1.987589755532736813e-01,0.000000000000000000e+00
8.240000000000000000e+02,5.540222198757663308e-02,0.000000000000000000e+00
8.250000000000000000e+02,8.929642664361925330e-02,0.000000000000000000e+00
8.260000000000000000e+02,3.116299914700601525e-01,0.000000000000000000e+00
8.270000000000000000e+02,3.826751403413781727e-01,0.000000000000000000e+00
8.280000000000000000e+02,-1.087948801805839211e-03,0.000000000000000000e+00
8.290000000000000000e+02,2.974751446259062404e-01,0.000000000000000000e+00
8.300000000000000000e+02,1.571049451396873686e-01,0.000000000000000000e+00
8.310000000000000000e+02,1.753279586732564566e-01,0.000000000000000000e+00
8.320000000000000000e+02,7.301933435504384118e-01,0.000000000000000000e+00
8.330000000000000000e+02,4.033905617554476297e-01,0.000000000000000000e+00
8.340000000000000000e+02,5.479372045328068097e-01,0.000000000000000000e+00
8.350000000000000000e+02,8.148445306488610873e-02,0.000000000000000000e+00
8.360000000000000000e+02,3.720408305354826473e-01,0.000000000000000000e+00
8.370000000000000000e+02,-6.542687271693570228e-02,0.000000000000000000e+00
8.380000000000000000e+02,2.214681966015010217e-01,0.000000000000000000e+00
8.390000000000000000e+02,6.456569035933077405e-01,0.000000000000000000e+00
8.400000000000000000e+02,5.060498297922637612e+00,0.000000000000000000e+00
8.410000000000000000e+02,4.514324503603337924e+00,0.000000000000000000e+00
8.420000000000000000e+02,-1.914653607815313408e-01,1.000000000000000000e+00
8.430000000000000000e+02,-1.061283426011517150e+00,0.000000000000000000e+00
8.440000000000000000e+02,-1.087972308651288689e+00,0.000000000000000000e+00
8.450000000000000000e+02,-7.952543641183563716e-01,0.000000000000000000e+00
8.460000000000000000e+02,-9.489366660175071466e-01,0.000000000000000000e+00
8.470000000000000000e+02,-7.893233934753624004e-01,0.000000000000000000e+00
8.480000000000000000e+02,-6.732161092200652508e-01,0.000000000000000000e+00
8.490000000000000000e+02,-3.991605042289874672e-01,0.000000000000000000e+00
8.500000000000000000e+02,-4.032108168366552725e-01,0.000000000000000000e+00
8.510000000000000000e+02,-2.330099512268785089e-01,0.000000000000000000e+00
8.520000000000000000e+02,-9.931234848434028484e-02,0.000000000000000000e+00
8.530000000000000000e+02,1.619287058589603812e-01,0.000000000000000000e+00
8.540000000000000000e+02,4.683949489926084175e-01,0.000000000000000000e+00
8.550000000000000000e+02,5.151371794739527665e-01,0.000000000000000000e+00
8.560000000000000000e+02,7.905044629582163029e-01,0.000000000000000000e+00
8.570000000000000000e+02,4.847510240862619724e-01,0.000000000000000000e+00
8.580000000000000000e+02,-2.043854831611244260e-01,0.000000000000000000e+00
8.590000000000000000e+02,-1.059535295188814175e+00,0.000000000000000000e+00
8.600000000000000000e+02,-1.241764886765776010e+00,0.000000000000000000e+00
8.610000000000000000e+02,-1.399929540601177358e+00,0.000000000000000000e+00
8.620000000000000000e+02,-1.195672692358773714e+00,0.000000000000000000e+00
8.630000000000000000e+02,-8.985918208060964529e-01,0.000000000000000000e+00
8.640000000000000000e+02,-1.200038377829159675e+00,0.000000000000000000e+00
8.650000000000000000e+02,-8.348868340986639325e-01,0.000000000000000000e+00
8.660000000000000000e+02,-1.025608929285721338e+00,0.000000000000000000e+00
8.670000000000000000e+02,-5.248033886082078547e-01,0.000000000000000000e+00
8.680000000000000000e+02,-5.609805247602998035e-01,0.000000000000000000e+00
8.690000000000000000e+02,-6.022384654676232740e-01,0.000000000000000000e+00
8.700000000000000000e+02,-3.830942098026065556e-01,0.000000000000000000e+00
8.710000000000000000e+02,-5.473377310959948172e-01,0.000000000000000000e+00
8.720000000000000000e+02,-1.571563102573123871e-01,0.000000000000000000e+00
8.730000000000000000e+02,-2.928662843151364631e-02,0.000000000000000000e+00
8.740000000000000000e+02,-1.085905183737000124e-01,0.000000000000000000e+00
8.750000000000000000e+02,-9.906688080233068405e-02,0.000000000000000000e+00
8.760000000000000000e+02,-2.552294516048336237e-01,0.000000000000000000e+00
8.770000000000000000e+02,2.568342746034000257e-01,0.000000000000000000e+00
8.780000000000000000e+02,-3.163719233916480883e-02,0.000000000000000000e+00
8.790000000000000000e+02,3.059533584458584143e-01,0.000000000000000000e+00
8.800000000000000000e+02,6.019492787777653425e-02,0.000000000000000000e+00
8.810000000000000000e+02,1.766283364452897187e-01,0.000000000000000000e+00
8.820000000000000000e+02,4.488408093871477655e-01,0.000000000000000000e+00
8.830000000000000000e+02,2.622508412641631481e-01,0.000000000000000000e+00
8.840000000000000000e+02,3.489025296837051093e-01,0.000000000000000000e+00
8.850000000000000000e+02,3.350243179613983657e-01,0.000000000000000000e+00
8.860000000000000000e+02,5.017020624092902725e-01,0.000000000000000000e+00
8.870000000000000000e+02,3.960548876855429778e-01,0.000000000000000000e+00
8.880000000000000000e+02,1.480021644311363127e-01,0.000000000000000000e+00
8.890000000000000000e+02,6.868663923262806614e-01,0.000000000000000000e+00
8.900000000000000000e+02,1.835238728587530732e-01,0.000000000000000000e+00
8.910000000000000000e+02,2.688175142288605768e-01,0.000000000000000000e+00
8.920000000000000000e+02,8.151655186687691845e-01,0.000000000000000000e+00
8.930000000000000000e+02,5.449802675033142974e-01,0.000000000000000000e+00
8.940000000000000000e+02,3.283610524530357622e-01,0.000000000000000000e+00
8.950000000000000000e+02,3.855275334953139899e-01,0.000000000000000000e+00
8.960000000000000000e+02,2.648609001452913517e-02,0.000000000000000000e+00
8.970000000000000000e+02,1.054071972031527527e-01,0.000000000000000000e+00
8.980000000000000000e+02,5.631135804658459199e-01,0.000000000000000000e+00
8.990000000000000000e+02,9.362091008567363648e-01,0.000000000000000000e+00
9.000000000000000000e+02,5.181156521996634901e+00,0.000000000000000000e+00
9.010000000000000000e+02,2.437045576858977380e+00,1.000000000000000000e+00
9.020000000000000000e+02,-1.336980563443918690e+00,0.000000000000000000e+00
9.030000000000000000e+02,-6.811876097706005551e-01,0.000000000000000000e+00
9.040000000000000000e+02,-4.178052382679990351e-01,0.000000000000000000e+00
9.050000000000000000e+02,-4.945177681027230210e-01,0.000000000000000000e+00
9.060000000000000000e+02,-5.865662647845906186e-01,0.000000000000000000e+00
9.070000000000000000e+02,-2.663207837812853751e-01,0.000000000000000000e+00
9.080000000000000000e+02,-2.840232983938805189e-01,0.000000000000000000e+00
9.090000000000000000e+02,-1.455242998994878967e-01,0.000000000000000000e+00
9.100000000000000000e+02,-1.388452319016025560e-01,0.000000000000000000e+00
9.110000000000000000e+02,1.699957034189139293e-01,0.000000000000000000e+00
9.120000000000000000e+02,2.209132968505888028e-01,0.000000000000000000e+00
9.130000000000000000e+02,5.618884697357091618e-01,0.000000000000000000e+00
9.140000000000000000e+02,6.480138082408478661e-01,0.000000000000000000e+00
9.150000000000000000e+02,9.880904253272013715e-01,0.000000000000000000e+00
9.160000000000000000e+02,8.354689635064107556e-01,0.000000000000000000e+00
9.170000000000000000e+02,4.957450413198486450e-01,0.000000000000000000e+00
9.180000000000000000e+02,-4.174505789910922249e-01,0.000000000000000000e+00
9.190000000000000000e+02,-1.069948567978393106e+00,0.000000000000000000e+00
9.200000000000000000e+02,-1.514059670448654193e+00,0.000000000000000000e+00
9.210000000000000000e+02,-1.058109398209294172e+00,0.000000000000000000e+00
9.220000000000000000e+02,-1.184746593644349089e+00,0.000000000000000000e+00
9.230000000000000000e+02,-1.368815842560238583e+00,0.000000000000000000e+00
9.240000000000000000e+02,-8.644682539060924986e-01,0.000000000000000000e+00
9.250000000000000000e+02,-1.107166772211148675e+00,0.000000000000000000e+00
9.260000000000000000e+02,-6.632507988288207645e-01,0.000000000000000000e+00
9.270000000000000000e+02,-9.874323576413919223e-01,0.000000000000000000e+00
9.280000000000000000e+02,-6.571460824754024044e-01,0.000000000000000000e+00
9.290000000000000000e+02,-5.299352087305028158e-01,0.000000000000000000e+00
9.300000000000000000e+02,-5.164345096661343559e-01,0.000000000000000000e+00
9.310000000000000000e+02,-1.923034135583060467e-01,0.000000000000000000e+00
9.320000000000000000e+02,-2.687593995523955281e-01,0.000000000000000000e+00
9.330000000000000000e+02,-1.914773419584667180e-01,0.000000000000000000e+00
9.340000000000000000e+02,-1.833412446635977744e-01,0.000000000000000000e+00
9.350000000000000000e+02,-2.163890109395692207e-01,0.000000000000000000e+00
9.360000000000000000e+02,-5.604538600586263936e-02,0.000000000000000000e+00
9.370000000000000000e+02,-4.876018895325109903e-02,0.000000000000000000e+00
9.380000000000000000e+02,-4.349901288133777716e-02,0.000000000000000000e+00
9.390000000000000000e+02,3.021314988898502960e-02,0.000000000000000000e+00
9.400000000000000000e+02,2.165004318153899709e-01,0.000000000000000000e+00
9.410000000000000000e+02,4.752023072210524030e-02,0.000000000000000000e+00
9.420000000000000000e+02,-1.294376764180910910e-01,0.000000000000000000e+00
9.430000000000000000e+02,7.496123295259367325e-02,0.000000000000000000e+00
9.440000000000000000e+02,3.037068440873713082e-01,0.000000000000000000e+00
9.450000000000000000e+02,1.900615349557363554e-01,0.000000000000000000e+00
9.460000000000000000e+02,7.182289564189722753e-02,0.000000000000000000e+00
9.470000000000000000e+02,6.451781477982980739e-01,0.000000000000000000e+00
9.480000000000000000e+02,1.459830123933406332e-01,0.000000000000000000e+00
9.490000000000000000e+02,9.914048160445820823e-02,0.000000000000000000e+00
9.500000000000000000e+02,1.686184959484750279e-01,0.000000000000000000e+00
9.510000000000000000e+02,2.912279635425854551e-01,0.000000000000000000e+00
9.520000000000000000e+02,6.313118659143225342e-01,0.000000000000000000e+00
9.530000000000000000e+02,5.518930424522050515e-01,0.000000000000000000e+00
9.540000000000000000e+02,-2.822402382610399441e-01,0.000000000000000000e+00
9.550000000000000000e+02,1.880636977660367914e-01,0.000000000000000000e+00
9.560000000000000000e+02,7.068154072611415595e-02,0.000000000000000000e+00
9.570000000000000000e+02,1.243472790932021177e-01,0.000000000000000000e+00
9.580000000000000000e+02,2.903733318035703337e-01,0.000000000000000000e+00
9.590000000000000000e+02,1.474189761425377387e+00,0.000000000000000000e+00
9.600000000000000000e+02,5.064985521745023256e+00,0.000000000000000000e+00
9.610000000000000000e+02,1.782104849499286825e+00,1.000000000000000000e+00
9.620000000000000000e+02,-1.019947293031445712e+00,0.000000000000000000e+00
9.630000000000000000e+02,-9.437434524047205731e-01,0.000000000000000000e+00
9.640000000000000000e+02,-5.883628683358674838e-01,0.000000000000000000e+00
9.650000000000000000e+02,-4.734037042127264838e-01,0.000000000000000000e+00
9.660000000000000000e+02,-4.892980090203822297e-01,0.000000000000000000e+00
9.670000000000000000e+02,-3.503045751489641257e-01,0.000000000000000000e+00
9.680000000000000000e+02,-4.563727561356433204e-01,0.000000000000000000e+00
9.690000000000000000e+02,-7.444684814175356324e-02,0.000000000000000000e+00
9.700000000000000000e+02,-1.148939393424231736e-01,0.000000000000000000e+00
9.710000000000000000e+02,8.168701576893856731e-02,0.000000000000000000e+00
9.720000000000000000e+02,4.558957292793123714e-03,0.000000000000000000e+00
9.730000000000000000e+02,5.761378209682883611e-01,0.000000000000000000e+00
9.740000000000000000e+02,6.201919811322819109e-01,0.000000000000000000e+00
9.750000000000000000e+02,1.003336879387907832e+00,0.000000000000000000e+00
9.760000000000000000e+02,5.901693147907536297e-01,0.000000000000000000e+00
9.770000000000000000e+02,3.268960388160047081e-01,0.000000000000000000e+00
9.780000000000000000e+02,-1.039662945186205223e-01,0.000000000000000000e+00
9.790000000000000000e+02,-9.850036249675335753e-01,0.000000000000000000e+00
9.800000000000000000e+02,-1.144020153155247410e+00,0.000000000000000000e+00
9.810000000000000000e+02,-1.241823799330660005e+00,0.000000000000000000e+00
9.820000000000000000e+02,-1.103040845893888289e+00,0.000000000000000000e+00
9.830000000000000000e+02,-9.406836880593255623e-01,0.000000000000000000e+00
9.840000000000000000e+02,-1.012049661273416001e+00,0.000000000000000000e+00
9.850000000000000000e+02,-8.994118470853227354e-01,0.000000000000000000e+00
9.860000000000000000e+02,-7.553854195246838543e-01,0.000000000000000000e+00
9.870000000000000000e+02,-7.589047011986668201e-01,0.000000000000000000e+00
9.880000000000000000e+02,-5.148599682954411172e-01,0.000000000000000000e+00
9.890000000000000000e+02,-5.611936616431685287e-01,0.000000000000000000e+00
9.900000000000000000e+02,-3.442968638102429924e-01,0.000000000000000000e+00
9.910000000000000000e+02,-2.116490316099999547e-01,0.000000000000000000e+00
9.920000000000000000e+02,-3.825421384525907742e-01,0.000000000000000000e+00
9.930000000000000000e+02,-1.998703083213407283e-01,0.000000000000000000e+00
9.940000000000000000e+02,-3.050623963781378886e-02,0.000000000000000000e+00
9.950000000000000000e+02,6.759801699050577151e-02,0.000000000000000000e+00
9.960000000000000000e+02,5.666804168213532972e-02,0.000000000000000000e+00
9.970000000000000000e+02,1.241469197345684838e-01,0.000000000000000000e+00
9.980000000000000000e+02,1.419004214230595688e-02,0.000000000000000000e+00
9.990000000000000000e+02,1.176671262118364064e-01,0.000000000000000000e+00
1.000000000000000000e+03,2.761800481381731509e-01,0.000000000000000000e+00
1.001000000000000000e+03,6.610629122471828323e-02,0.000000000000000000e+00
1.002000000000000000e+03,3.880619553101896657e-01,0.000000000000000000e+00
1.003000000000000000e+03,-3.372639645709286232e-02,0.000000000000000000e+00
1.004000000000000000e+03,3.013106633584307081e-01,0.000000000000000000e+00
1.005000000000000000e+03,1.683260606778197166e-01,0.000000000000000000e+00
1.006000000000000000e+03,2.834071344059645448e-01,0.000000000000000000e+00
1.007000000000000000e+03,3.852874835670579423e-01,0.000000000000000000e+00
1.008000000000000000e+03,2.089086221035798829e-01,0.000000000000000000e+00
1.009000000000000000e+03,2.847174586173245592e-01,0.000000000000000000e+00
1.010000000000000000e+03,2.488972499140764405e-01,0.000000000000000000e+00
1.011000000000000000e+03,3.614835855200557169e-01,0.000000000000000000e+00
1.012000000000000000e+03,8.493461036145417697e-01,0.000000000000000000e+00
1.013000000000000000e+03,3.679761218864208150e-01,0.000000000000000000e+00
1.014000000000000000e+03,2.111690384815402555e-01,0.000000000000000000e+00
1.015000000000000000e+03,-1.243971715768613399e-03,0.000000000000000000e+00
1.016000000000000000e+03,4.504540735035805071e-02,0.000000000000000000e+00
1.017000000000000000e+03,2.169169370225018101e-01,0.000000000000000000e+00
1.018000000000000000e+03,1.682913347566182272e-01,0.000000000000000000e+00
1.019000000000000000e+03,2.604018284881598699e+00,0.000000000000000000e+00
1.020000000000000000e+03,5.452613860929981904e+00,0.000000000000000000e+00
1.021000000000000000e+03,1.178299843098127075e+00,1.000000000000000000e+00
1.022000000000000000e+03,-7.185872782051604402e-01,0.000000000000000000e+00
1.023000000000000000e+03,-8.613852107316488649e-01,0.000000000000000000e+00
1.024000000000000000e+03,-9.167549924088326252e-01,0.000000000000000000e+00
1.025000000000000000e+03,-1.083297816391848079e+00,0.000000000000000000e+00
1.026000000000000000e+03,-6.134788779925760549e-01,0.000000000000000000e+00
1.027000000000000000e+03,-5.463267445990410698e-01,0.000000000000000000e+00
1.028000000000000000e+03,-2.560634554946965569e-01,0.000000000000000000e+00
1.029000000000000000e+03,-4.267414419200470377e-01,0.000000000000000000e+00
1.030000000000000000e+03,-8.567044027905565406e-02,0.000000000000000000e+00
1.031000000000000000e+03,-2.481258274748575909e-01,0.000000000000000000e+00
1.032000000000000000e+03,3.514088126061125084e-01,0.000000000000000000e+00
1.033000000000000000e+03,3.918300636100026657e-01,0.000000000000000000e+00
1.034000000000000000e+03,7.016533397993648391e-01,0.000000000000000000e+00
1.035000000000000000e+03,9.031960132899555793e-01,0.000000000000000000e+00
1.036000000000000000e+03,5.740343630108882822e-01,0.000000000000000000e+00
1.037000000000000000e+03,1.467910832346471239e-01,0.000000000000000000e+00
1.038000000000000000e+03,-6.740588227825674572e-01,0.000000000000000000e+00
1.039000000000000000e+03,-1.212754051630155594e+00,0.000000000000000000e+00
1.040000000000000000e+03,-1.057188470273006331e+00,0.000000000000000000e+00
1.041000000000000000e+03,-1.350380498618554359e+00,0.000000000000000000e+00
1.042000000000000000e+03,-9.896636069105354538e-01,0.000000000000000000e+00
1.043000000000000000e+03,-9.983891750490018202e-01,0.000000000000000000e+00
1.044000000000000000e+03,-1.011539534482934766e+00,0.000000000000000000e+00
1.045000000000000000e+03,-6.654313484944772705e-01,0.000000000000000000e+00
1.046000000000000000e+03,-1.033589005681422313e+00,0.000000000000000000e+00
1.047000000000000000e+03,-5.813681660333132051e-01,0.000000000000000000e+00
1.048000000000000000e+03,-4.683022964412880129e-01,0.000000000000000000e+00
1.049000000000000000e+03,-5.425470893754331669e-01,0.000000000000000000e+00
1.050000000000000000e+03,-5.315471009792557266e-01,0.000000000000000000e+00
1.051000000000000000e+03,-2.704003887111110505e-01,0.000000000000000000e+00
1.052000000000000000e+03,-4.499631168350998744e-01,0.000000000000000000e+00
1.053000000000000000e+03,-2.576574133708121189e-02,0.000000000000000000e+00
1.054000000000000000e+03,-3.576686975263958929e-02,0.000000000000000000e+00
1.055000000000000000e+03,-1.195359893884390956e-01,0.000000000000000000e+00
1.056000000000000000e+03,-1.293338105981895469e-01,0.000000000000000000e+00
1.057000000000000000e+03,-1.316141095168128945e-02,0.000000000000000000e+00
1.058000000000000000e+03,2.031133264357858625e-01,0.000000000000000000e+00
1.059000000000000000e+03,1.549248904358719592e-01,0.000000000000000000e+00
1.060000000000000000e+03,5.689761485541280223e-02,0.000000000000000000e+00
1.061000000000000000e+03,5.202425709703873552e-02,0.000000000000000000e+00
1.062000000000000000e+03,2.462607116324348200e-01,0.000000000000000000e+00
1.063000000000000000e+03,1.534422514270450122e-01,0.000000000000000000e+00
1.064000000000000000e+03,1.837654612936435172e-01,0.000000000000000000e+00
1.065000000000000000e+03,2.192113529373877212e-01,0.000000000000000000e+00
1.066000000000000000e+03,3.238414477682558523e-01,0.000000000000000000e+00
1.067000000000000000e+03,2.347477168152576898e-01,0.000000000000000000e+00
1.068000000000000000e+03,3.093408062664380620e-01,0.000000000000000000e+00
1.069000000000000000e+03,5.636008862608044012e-01,0.000000000000000000e+00
1.070000000000000000e+03,1.363942958240885184e-01,0.000000000000000000e+00
1.071000000000000000e+03,5.783310382249523540e-01,0.000000000000000000e+00
1.072000000000000000e+03,7.317600702207718300e-01,0.000000000000000000e+00
1.073000000000000000e+03,5.406108774228456371e-01,0.000000000000000000e+00
1.074000000000000000e+03,1.967274519460389393e-01,0.000000000000000000e+00
1.075000000000000000e+03,1.768999950333473570e-01,0.000000000000000000e+00
1.076000000000000000e+03,-1.717420019638533565e-02,0.000000000000000000e+00
1.077000000000000000e+03,3.276184979033725519e-01,0.000000000000000000e+00
1.078000000000000000e+03,1.097260557938139064e-01,0.000000000000000000e+00
1.079000000000000000e+03,3.113419540914620143e+00,0.000000000000000000e+00
1.080000000000000000e+03,5.670572896035110944e+00,0.000000000000000000e+00
1.081000000000000000e+03,1.013366101919246587e+00,1.000000000000000000e+00
1.082000000000000000e+03,-8.393347020553605375e-01,0.000000000000000000e+00
1.083000000000000000e+03,-1.230110246321549639e+00,0.000000000000000000e+00
1.084000000000000000e+03,-8.618221557171571456e-01,0.000000000000000000e+00
1.085000000000000000e+03,-8.507875576444438037e-01,0.000000000000000000e+00
1.086000000000000000e+03,-5.722952232502050984e-01,0.000000000000000000e+00
1.087000000000000000e+03,-6.871257201858849140e-01,0.000000000000000000e+00
1.088000000000000000e+03,-6.409482176538824350e-01,0.000000000000000000e+00
1.089000000000000000e+03,-5.002676903441128919e-01,0.000000000000000000e+00
1.090000000000000000e+03,-2.376589635256434185e-01,0.000000000000000000e+00
1.091000000000000000e+03,-2.918532516911944152e-01,0.000000000000000000e+00
1.092000000000000000e+03,3.601479824524833617e-02,0.000000000000000000e+00
1.093000000000000000e+03,4.797380314397106105e-01,0.000000000000000000e+00
1.094000000000000000e+03,3.703388810135775921e-01,0.000000000000000000e+00
1.095000000000000000e+03,6.138028449565439137e-01,0.000000000000000000e+00
1.096000000000000000e+03,5.314339896209996361e-01,0.000000000000000000e+00
1.097000000000000000e+03,-2.993317975714007706e-01,0.000000000000000000e+00
1.098000000000000000e+03,-6.455810013042280193e-01,0.000000000000000000e+00
1.099000000000000000e+03,-8.778476962968764230e-01,0.000000000000000000e+00
1.100000000000000000e+03,-1.262695080098854561e+00,0.000000000000000000e+00
1.101000000000000000e+03,-1.258730940253948827e+00,0.000000000000000000e+00
1.102000000000000000e+03,-1.169331364374301740e+00,0.000000000000000000e+00
1.103000000000000000e+03,-1.093558772995833150e+00,0.000000000000000000e+00
1.104000000000000000e+03,-6.720018386510908659e-01,0.000000000000000000e+00
1.105000000000000000e+03,-4.947883263744422000e-01,0.000000000000000000e+00
1.106000000000000000e+03,-8.024369991015974923e-01,0.000000000000000000e+00
1.107000000000000000e+03,-5.412007527569768772e-01,0.000000000000000000e+00
1.108000000000000000e+03,-4.451914601843707242e-01,0.000000000000000000e+00
1.109000000000000000e+03,-2.779259312581531249e-01,0.000000000000000000e+00
1.110000000000000000e+03,-2.999050667834679551e-01,0.000000000000000000e+00
1.111000000000000000e+03,-4.160890127861173460e-02,0.000000000000000000e+00
1.112000000000000000e+03,-2.778106309599355783e-01,0.000000000000000000e+00
1.113000000000000000e+03,-1.513619009350103232e-02,0.000000000000000000e+00
1.114000000000000000e+03,-8.446563956701381992e-02,0.000000000000000000e+00
1.115000000000000000e+03,2.588974869931022216e-01,0.000000000000000000e+00
1.116000000000000000e+03,-3.049184132981330730e-01,0.000000000000000000e+00
1.117000000000000000e+03,3.329185119147625715e-01,0.000000000000000000e+00
1.118000000000000000e+03,1.115340405953324926e-01,0.000000000000000000e+00
1.119000000000000000e+03,8.840031647690806127e-02,0.000000000000000000e+00
1.120000000000000000e+03,2.707727983850578557e-01,0.000000000000000000e+00
1.121000000000000000e+03,3.552469291441422983e-01,0.000000000000000000e+00
1.122000000000000000e+03,2.450600304447169558e-02,0.000000000000000000e+00
1.123000000000000000e+03,3.707253530519483142e-01,0.000000000000000000e+00
1.124000000000000000e+03,4.147858830310059419e-01,0.000000000000000000e+00
1.125000000000000000e+03,1.671464228040385469e-01,0.000000000000000000e+00
1.126000000000000000e+03,3.945235286415968989e-01,0.000000000000000000e+00
1.127000000000000000e+03,3.047334892704419151e-01,0.000000000000000000e+00
1.128000000000000000e+03,3.490205183237873321e-01,0.000000000000000000e+00
1.129000000000000000e+03,3.378669618516667583e-01,0.000000000000000000e+00
1.130000000000000000e+03,3.540204915877744885e-01,0.000000000000000000e+00
1.131000000000000000e+03,7.672568631865107625e-01,0.000000000000000000e+00
1.132000000000000000e+03,4.506671826423008786e-01,0.000000000000000000e+00
1.133000000000000000e+03,4.142730270894152134e-01,0.000000000000000000e+00
1.134000000000000000e+03,3.903119493639458509e-02,0.000000000000000000e+00
1.135000000000000000e+03,3.953817309758866916e-02,0.000000000000000000e+00
1.136000000000000000e+03,4.132678580224433823e-02,0.000000000000000000e+00
1.137000000000000000e+03,3.677925022426648538e-01,0.000000000000000000e+00
1.138000000000000000e+03,1.512185395490814044e-01,0.000000000000000000e+00
1.139000000000000000e+03,4.498974665085618163e+00,0.000000000000000000e+00
1.140000000000000000e+03,4.885481288213422424e+00,0.000000000000000000e+00
1.141000000000000000e+03,6.941003842619153374e-02,1.000000000000000000e+00
1.142000000000000000e+03,-1.228638786116589277e+00,0.000000000000000000e+00
1.143000000000000000e+03,-1.020584490927644028e+00,0.000000000000000000e+00
1.144000000000000000e+03,-8.616393114016802635e-01,0.000000000000000000e+00
1.145000000000000000e+03,-1.042913986824128836e+00,0.000000000000000000e+00
1.146000000000000000e+03,-8.506444886053357024e-01,0.000000000000000000e+00
1.147000000000000000e+03,-8.875449738861947990e-01,0.000000000000000000e+00
1.148000000000000000e+03,-4.519348947466904076e-01,0.000000000000000000e+00
1.149000000000000000e+03,-5.786192262077437531e-01,0.000000000000000000e+00
1.150000000000000000e+03,-9.215924817791687484e-02,0.000000000000000000e+00
1.151000000000000000e+03,-2.228171380695656845e-01,0.000000000000000000e+00
1.152000000000000000e+03,2.361367736494956737e-01,0.000000000000000000e+00
1.153000000000000000e+03,3.387043214016959847e-01,0.000000000000000000e+00
1.154000000000000000e+03,8.017698826602651652e-01,0.000000000000000000e+00
1.155000000000000000e+03,6.637892499522031198e-01,0.000000000000000000e+00
1.156000000000000000e+03,4.544456379160363713e-01,0.000000000000000000e+00
1.157000000000000000e+03,7.738229432231431837e-02,0.000000000000000000e+00
1.158000000000000000e+03,-8.347764709933526150e-01,0.000000000000000000e+00
1.159000000000000000e+03,-1.221908583040681950e+00,0.000000000000000000e+00
1.160000000000000000e+03,-1.155446127046119376e+00,0.000000000000000000e+00
1.161000000000000000e+03,-1.116585708812394939e+00,0.000000000000000000e+00
1.162000000000000000e+03,-1.107319975748427332e+00,0.000000000000000000e+00
1.163000000000000000e+03,-9.496396274120471048e-01,0.000000000000000000e+00
1.164000000000000000e+03,-9.276123436385018683e-01,0.000000000000000000e+00
1.165000000000000000e+03,-7.394588992096041702e-01,0.000000000000000000e+00
1.166000000000000000e+03,-4.185766973417404113e-01,0.000000000000000000e+00
1.167000000000000000e+03,-6.523043557962392436e-01,0.000000000000000000e+00
1.168000000000000000e+03,-4.371523545194535010e-01,0.000000000000000000e+00
1.169000000000000000e+03,-1.926249115214245244e-01,0.000000000000000000e+00
1.170000000000000000e+03,-2.769108847965004450e-01,0.000000000000000000e+00
1.171000000000000000e+03,-6.391997874618149389e-02,0.000000000000000000e+00
1.172000000000000000e+03,-9.609975528937356182e-02,0.000000000000000000e+00
1.173000000000000000e+03,-6.464227069290877370e-02,0.000000000000000000e+00
1.174000000000000000e+03,-1.849477010125141208e-01,0.000000000000000000e+00
1.175000000000000000e+03,-6.073821007842342828e-02,0.000000000000000000e+00
1.176000000000000000e+03,2.138947245705017652e-01,0.000000000000000000e+00
1.177000000000000000e+03,-1.308797957150670821e-01,0.000000000000000000e+00
1.178000000000000000e+03,7.815339787601299770e-02,0.000000000000000000e+00
1.179000000000000000e+03,1.097510343617113665e-01,0.000000000000000000e+00
1.180000000000000000e+03,4.362076138989802454e-02,0.000000000000000000e+00
1.181000000000000000e+03,3.776908981716173841e-01,0.000000000000000000e+00
1.182000000000000000e+03,-2.573468461421915196e-02,0.000000000000000000e+00
1.183000000000000000e+03,2.334971945579950303e-01,0.000000000000000000e+00
1.184000000000000000e+03,2.710917152684026443e-01,0.000000000000000000e+00
1.185000000000000000e+03,2.186886794339690243e-01,0.000000000000000000e+00
1.186000000000000000e+03,4.845789993265601225e-01,0.000000000000000000e+00
1.187000000000000000e+03,2.401730594403516383e-01,0.000000000000000000e+00
1.188000000000000000e+03,3.254570994099729719e-01,0.000000000000000000e+00
1.189000000000000000e+03,4.002431361785467878e-01,0.000000000000000000e+00
1.190000000000000000e+03,2.257929334124448295e-01,0.000000000000000000e+00
1.191000000000000000e+03,8.422767435190308127e-01,0.000000000000000000e+00
1.192000000000000000e+03,6.165261041137333198e-01,0.000000000000000000e+00
1.193000000000000000e+03,3.639931469592382896e-01,0.000000000000000000e+00
1.194000000000000000e+03,2.039046918867059299e-01,0.000000000000000000e+00
1.195000000000000000e+03,7.799859794105802602e-02,0.000000000000000000e+00
1.196000000000000000e+03,2.395112939467714530e-01,0.000000000000000000e+00
1.197000000000000000e+03,5.642210745999824695e-02,0.000000000000000000e+00
1.198000000000000000e+03,5.915560716435885880e-01,0.000000000000000000e+00
1.199000000000000000e+03,4.479990476621435569e+00,0.000000000000000000e+00
1.200000000000000000e+03,3.420496243624500110e+00,1.000000000000000000e+00
1.201000000000000000e+03,-8.145763217979924420e-01,0.000000000000000000e+00
1.202000000000000000e+03,-8.754414944897360717e-01,0.000000000000000000e+00
1.203000000000000000e+03,-1.136574389627492243e+00,0.000000000000000000e+00
1.204000000000000000e+03,-5.162402176529947706e-01,0.000000000000000000e+00
1.205000000000000000e+03,-4.156895431449188494e-01,0.000000000000000000e+00
1.206000000000000000e+03,-6.161553235881189750e-01,0.000000000000000000e+00
1.207000000000000000e+03,-4.513263081264347054e-01,0.000000000000000000e+00
1.208000000000000000e+03,-2.233716004107008934e-01,0.000000000000000000e+00
1.209000000000000000e+03,-3.137780711262358468e-01,0.000000000000000000e+00
1.210000000000000000e+03,-5.047384925237757836e-02,0.000000000000000000e+00
1.211000000000000000e+03,2.686430371841964648e-01,0.000000000000000000e+00
1.212000000000000000e+03,4.041523077640089001e-01,0.000000000000000000e+00
1.213000000000000000e+03,5.294398503313066939e-01,0.000000000000000000e+00
1.214000000000000000e+03,7.489932388852587053e-01,0.000000000000000000e+00
1.215000000000000000e+03,8.899798777622375257e-01,0.000000000000000000e+00
1.216000000000000000e+03,5.863826461457931627e-01,0.000000000000000000e+00
1.217000000000000000e+03,-2.425959120385001722e-01,0.000000000000000000e+00
1.218000000000000000e+03,-1.000896433378213324e+00,0.000000000000000000e+00
1.219000000000000000e+03,-1.076877710397654564e+00,0.000000000000000000e+00
1.220000000000000000e+03,-1.527915554102967421e+00,0.000000000000000000e+00
1.221000000000000000e+03,-1.191818652539286205e+00,0.000000000000000000e+00
1.222000000000000000e+03,-9.847068608219610164e-01,0.000000000000000000e+00
1.223000000000000000e+03,-9.438095709162902525e-01,0.000000000000000000e+00
1.224000000000000000e+03,-1.054124180013984002e+00,0.000000000000000000e+00
1.225000000000000000e+03,-7.199002107863858857e-01,0.000000000000000000e+00
1.226000000000000000e+03,-8.492411561685289101e-01,0.000000000000000000e+00
1.227000000000000000e+03,-2.089438100042219082e-01,0.000000000000000000e+00
1.228000000000000000e+03,-4.240148030704031235e-01,0.000000000000000000e+00
1.229000000000000000e+03,-4.410048168955448267e-01,0.000000000000000000e+00
1.230000000000000000e+03,-2.753554764841402713e-01,0.000000000000000000e+00
1.231000000000000000e+03,2.948281449828088832e-02,0.000000000000000000e+00
1.232000000000000000e+03,-2.521077479789929354e-01,0.000000000000000000e+00
1.233000000000000000e+03,-8.436386312346316058e-03,0.000000000000000000e+00
1.234000000000000000e+03,3.877963782537627996e-02,0.000000000000000000e+00
1.235000000000000000e+03,-3.135582157520986346e-01,0.000000000000000000e+00
1.236000000000000000e+03,-8.651504898559235490e-02,0.000000000000000000e+00
1.237000000000000000e+03,1.096188326332390994e-01,0.000000000000000000e+00
1.238000000000000000e+03,-9.703923926182382587e-02,0.000000000000000000e+00
1.239000000000000000e+03,4.430615719335006392e-02,0.000000000000000000e+00
1.240000000000000000e+03,2.426930309381225837e-01,0.000000000000000000e+00
1.241000000000000000e+03,-4.333897697337522198e-02,0.000000000000000000e+00
1.242000000000000000e+03,1.680303036586447696e-01,0.000000000000000000e+00
1.243000000000000000e+03,1.366945699299603467e-01,0.000000000000000000e+00
1.244000000000000000e+03,1.689713052553567518e-01,0.000000000000000000e+00
1.245000000000000000e+03,8.547867214727311591e-02,0.000000000000000000e+00
1.246000000000000000e+03,3.207919584158758775e-01,0.000000000000000000e+00
1.247000000000000000e+03,8.334614390975253473e-02,0.000000000000000000e+00
1.248000000000000000e+03,3.908336788853749577e-01,0.000000000000000000e+00
1.249000000000000000e+03,-1.778673172686531800e-02,0.000000000000000000e+00
1.250000000000000000e+03,3.024398534566765662e-01,0.000000000000000000e+00
1.251000000000000000e+03,5.903838056816516078e-01,0.000000000000000000e+00
1.252000000000000000e+03,4.167038460104500741e-01,0.000000000000000000e+00
1.253000000000000000e+03,-6.652894779436342720e-02,0.000000000000000000e+00
1.254000000000000000e+03,3.124364744091350232e-01,0.000000000000000000e+00
1.255000000000000000e+03,3.748059082905506184e-02,0.000000000000000000e+00
1.256000000000000000e+03,2.368583412355319273e-01,0.000000000000000000e+00
1.257000000000000000e+03,-8.058673790878133347e-02,0.000000000000000000e+00
1.258000000000000000e+03,1.126059424028442946e+00,0.000000000000000000e+00
1.259000000000000000e+03,4.750637191780273660e+00,0.000000000000000000e+00
1.260000000000000000e+03,1.871304488587629100e+00,1.000000000000000000e+00
1.261000000000000000e+03,-8.661074900641726471e-01,0.000000000000000000e+00
1.262000000000000000e+03,-9.166138378243454676e-01,0.000000000000000000e+00
1.263000000000000000e+03,-7.434751790936059423e-01,0.000000000000000000e+00
1.264000000000000000e+03,-6.102794968320578439e-01,0.000000000000000000e+00
1.265000000000000000e+03,-6.256504708346982691e-01,0.000000000000000000e+00
1.266000000000000000e+03,-3.316319891228268202e-01,0.000000000000000000e+00
1.267000000000000000e+03,-2.979883709941762437e-01,0.000000000000000000e+00
1.268000000000000000e+03,-3.694123778244545186e-01,0.000000000000000000e+00
1.269000000000000000e+03,-2.852064196945704871e-02,0.000000000000000000e+00
1.270000000000000000e+03,1.323349448172631004e-01,0.000000000000000000e+00
1.271000000000000000e+03,1.781719469291957181e-01,0.000000000000000000e+00
1.272000000000000000e+03,4.913060591613064854e-01,0.000000000000000000e+00
1.273000000000000000e+03,8.301070959329698296e-01,0.000000000000000000e+00
1.274000000000000000e+03,1.105925104834538875e+00,0.000000000000000000e+00
1.275000000000000000e+03,7.708511266686201013e-01,0.000000000000000000e+00
1.276000000000000000e+03,4.177776188007429337e-01,0.000000000000000000e+00
1.277000000000000000e+03,-2.222098104028164545e-01,0.000000000000000000e+00
1.278000000000000000e+03,-7.965465910264567517e-01,0.000000000000000000e+00
1.279000000000000000e+03,-1.173433667494358845e+00,0.000000000000000000e+00
1.280000000000000000e+03,-9.752601187492313528e-01,0.000000000000000000e+00
1.281000000000000000e+03,-1.138216330829914247e+00,0.000000000000000000e+00
1.282000000000000000e+03,-9.073611055004036086e-01,0.000000000000000000e+00
1.283000000000000000e+03,-8.044558123770912950e-01,0.000000000000000000e+00
1.284000000000000000e+03,-7.884251519512446293e-01,0.000000000000000000e+00
1.285000000000000000e+03,-7.189548432760912711e-01,0.000000000000000000e+00
1.286000000000000000e+03,-6.001957818109887599e-01,0.000000000000000000e+00
1.287000000000000000e+03,-3.303848790402398872e-01,0.000000000000000000e+00
1.288000000000000000e+03,-3.234059056291106460e-01,0.000000000000000000e+00
1.289000000000000000e+03,-2.481359211412821064e-01,0.000000000000000000e+00
1.290000000000000000e+03,-3.122040778668300764e-01,0.000000000000000000e+00
1.291000000000000000e+03,-1.846312075106596451e-01,0.000000000000000000e+00
1.292000000000000000e+03,1.509420571500376396e-02,0.000000000000000000e+00
1.293000000000000000e+03,-2.331646359449923434e-01,0.000000000000000000e+00
1.294000000000000000e+03,-3.975875241741522181e-02,0.000000000000000000e+00
1.295000000000000000e+03,-1.767197231751645725e-01,0.000000000000000000e+00
1.296000000000000000e+03,1.553542402860761673e-01,0.000000000000000000e+00
1.297000000000000000e+03,-1.763748075991710892e-02,0.000000000000000000e+00
1.298000000000000000e+03,-1.248392128891228914e-01,0.000000000000000000e+00
1.299000000000000000e+03,-1.696117304780698498e-01,0.000000000000000000e+00
1.300000000000000000e+03,1.772089203398830581e-01,0.000000000000000000e+00
1.301000000000000000e+03,2.222269720856054065e-01,0.000000000000000000e+00
1.302000000000000000e+03,2.903274909209739227e-02,0.000000000000000000e+00
1.303000000000000000e+03,2.745171907531226418e-01,0.000000000000000000e+00
1.304000000000000000e+03,-6.754695286321346420e-04,0.000000000000000000e+00
1.305000000000000000e+03,5.405599683722760451e-01,0.000000000000000000e+00
1.306000000000000000e+03,3.225598226133382651e-01,0.000000000000000000e+00
1.307000000000000000e+03,2.227282510636726665e-01,0.000000000000000000e+00
1.308000000000000000e+03,1.714395813004918889e-01,0.000000000000000000e+00
1.309000000000000000e+03,2.878833103720189746e-01,0.000000000000000000e+00
1.310000000000000000e+03,3.463148792135220533e-01,0.000000000000000000e+00
1.311000000000000000e+03,7.006492981517640217e-01,0.000000000000000000e+00
1.312000000000000000e+03,2.257496289283277835e-01,0.000000000000000000e+00
1.313000000000000000e+03,2.775270039314667869e-01,0.000000000000000000e+00
1.314000000000000000e+03,1.910925127063367313e-01,0.000000000000000000e+00
1.315000000000000000e+03,1.981910862195369535e-02,0.000000000000000000e+00
1.316000000000000000e+03,-9.119695542606766347e-02,0.000000000000000000e+00
1.317000000000000000e+03,2.280732701376139426e-01,0.000000000000000000e+00
1.318000000000000000e+03,1.844798571966642209e+00,0.000000000000000000e+00
1.319000000000000000e+03,5.589945800550067290e+00,0.000000000000000000e+00
1.320000000000000000e+03,1.760134821014043505e+00,1.000000000000000000e+00
1.321000000000000000e+03,-8.435778163011603548e-01,0.000000000000000000e+00
1.322000000000000000e+03,-9.752019665018377692e-01,0.000000000000000000e+00
1.323000000000000000e+03,-1.050965938222807150e+00,0.000000000000000000e+00
1.324000000000000000e+03,-6.812561996332640035e-01,0.000000000000000000e+00
1.325000000000000000e+03,-9.242552770294928388e-01,0.000000000000000000e+00
1.326000000000000000e+03,-6.635949262250703251e-01,0.000000000000000000e+00
1.327000000000000000e+03,-4.664808909661047331e-01,0.000000000000000000e+00
1.328000000000000000e+03,-5.435821631754438332e-01,0.000000000000000000e+00
1.329000000000000000e+03,-3.350653152454324823e-01,0.000000000000000000e+00
1.330000000000000000e+03,-3.511744166326455363e-02,0.000000000000000000e+00
1.331000000000000000e+03,1.770760904571810068e-01,0.000000000000000000e+00
1.332000000000000000e+03,3.929851455814989403e-01,0.000000000000000000e+00
1.333000000000000000e+03,5.840494674631048211e-01,0.000000000000000000e+00
1.334000000000000000e+03,8.170636835586345681e-01,0.000000000000000000e+00
1.335000000000000000e+03,9.573326050432920953e-01,0.000000000000000000e+00
1.336000000000000000e+03,-2.113934850780019650e-02,0.000000000000000000e+00
1.337000000000000000e+03,-2.365322191016172304e-01,0.000000000000000000e+00
1.338000000000000000e+03,-7.182918831017464090e-01,0.000000000000000000e+00
1.339000000000000000e+03,-1.159979572153247096e+00,0.000000000000000000e+00
1.340000000000000000e+03,-1.074269404626787550e+00,0.000000000000000000e+00
1.341000000000000000e+03,-1.102409457071583443e+00,0.000000000000000000e+00
1.342000000000000000e+03,-1.089164203772662542e+00,0.000000000000000000e+00
1.343000000000000000e+03,-6.563905195220717248e-01,0.000000000000000000e+00
1.344000000000000000e+03,-5.842762858277216198e-01,0.000000000000000000e+00
1.345000000000000000e+03,-6.571515081925288770e-01,0.000000000000000000e+00
1.346000000000000000e+03,-6.215096882560042779e-01,0.000000000000000000e+00
1.347000000000000000e+03,-5.640447379239311720e-01,0.000000000000000000e+00
1.348000000000000000e+03,-1.491184967716807919e-01,0.000000000000000000e+00
1.349000000000000000e+03,-4.414554066048811953e-01,0.000000000000000000e+00
1.350000000000000000e+03,-8.742065764217261947e-02,0.000000000000000000e+00
1.351000000000000000e+03,-2.053416972610580260e-01,0.000000000000000000e+00
1.352000000000000000e+03,-7.932675775923279937e-02,0.000000000000000000e+00
1.353000000000000000e+03,-1.258171477257699067e-01,0.000000000000000000e+00
1.354000000000000000e+03,-6.631683156178040661e-02,0.000000000000000000e+00
1.355000000000000000e+03,5.706833125182082800e-02,0.000000000000000000e+00
1.356000000000000000e+03,6.338303792879655674e-02,0.000000000000000000e+00
1.357000000000000000e+03,1.436031361969188347e-01,0.000000000000000000e+00
1.358000000000000000e+03,2.072086856442432734e-01,0.000000000000000000e+00
1.359000000000000000e+03,2.067097505141971547e-01,0.000000000000000000e+00
1.360000000000000000e+03,9.216478658308673022e-02,0.000000000000000000e+00
1.361000000000000000e+03,1.115900246282814368e-01,0.000000000000000000e+00
1.362000000000000000e+03,1.534855926975274010e-01,0.000000000000000000e+00
1.363000000000000000e+03,4.055533094867747046e-01,0.000000000000000000e+00
1.364000000000000000e+03,9.388626336638473957e-02,0.000000000000000000e+00
1.365000000000000000e+03,2.437903543270684703e-01,0.000000000000000000e+00
1.366000000000000000e+03,1.377573413663664426e-01,0.000000000000000000e+00
1.367000000000000000e+03,1.615874101393552087e-01,0.000000000000000000e+00
1.368000000000000000e+03,3.196225425934745012e-01,0.000000000000000000e+00
1.369000000000000000e+03,6.727510928791187450e-02,0.000000000000000000e+00
1.370000000000000000e+03,5.927647533695608040e-01,0.000000000000000000e+00
1.371000000000000000e+03,6.124719595453936849e-01,0.000000000000000000e+00
1.372000000000000000e+03,3.531818880797786830e-01,0.000000000000000000e+00
1.373000000000000000e+03,1.616769592167259517e-01,0.000000000000000000e+00
1.374000000000000000e+03,1.485249491466255067e-01,0.000000000000000000e+00
1.375000000000000000e+03,1.330050846125359620e-01,0.000000000000000000e+00
1.376000000000000000e+03,3.252534618136160849e-01,0.000000000000000000e+00
1.377000000000000000e+03,1.040923734342458773e-01,0.000000000000000000e+00
1.378000000000000000e+03,2.761251757764366488e+00,0.000000000000000000e+00
1.379000000000000000e+03,5.750283983649318920e+00,0.000000000000000000e+00
1.380000000000000000e+03,1.179456816385714202e+00,1.000000000000000000e+00
1.381000000000000000e+03,-8.042855851057590932e-01,0.000000000000000000e+00
1.382000000000000000e+03,-9.317828419093293624e-01,0.000000000000000000e+00
1.383000000000000000e+03,-9.839518342716812027e-01,0.000000000000000000e+00
1.384000000000000000e+03,-8.656694630677744806e-01,0.000000000000000000e+00
1.385000000000000000e+03,-8.270082305817219037e-01,0.000000000000000000e+00
1.386000000000000000e+03,-4.904306617530712620e-01,0.000000000000000000e+00
1.387000000000000000e+03,-5.828415781364135739e-01,0.000000000000000000e+00
1.388000000000000000e+03,-5.234186598340810903e-01,0.000000000000000000e+00
1.389000000000000000e+03,-3.019974605783041222e-01,0.000000000000000000e+00
1.390000000000000000e+03,-2.561846729131234679e-01,0.000000000000000000e+00
1.391000000000000000e+03,3.249765838783592181e-02,0.000000000000000000e+00
1.392000000000000000e+03,3.674709920584250944e-01,0.000000000000000000e+00
1.393000000000000000e+03,5.938109526196356791e-01,0.000000000000000000e+00
1.394000000000000000e+03,5.716165581702136178e-01,0.000000000000000000e+00
1.395000000000000000e+03,6.654611557267674504e-01,0.000000000000000000e+00
1.396000000000000000e+03,-5.216317616544932645e-02,0.000000000000000000e+00
1.397000000000000000e+03,-5.513473300938469546e-01,0.000000000000000000e+00
1.398000000000000000e+03,-1.093676515082444789e+00,0.000000000000000000e+00
1.399000000000000000e+03,-1.180419174239099478e+00,0.000000000000000000e+00
1.400000000000000000e+03,-1.152107637679221419e+00,0.000000000000000000e+00
1.401000000000000000e+03,-1.321326509504038738e+00,0.000000000000000000e+00
1.402000000000000000e+03,-1.015746627035733152e+00,0.000000000000000000e+00
1.403000000000000000e+03,-9.598321853232057999e-01,0.000000000000000000e+00
1.404000000000000000e+03,-7.319796566955476536e-01,0.000000000000000000e+00
1.405000000000000000e+03,-7.175179463600778185e-01,0.000000000000000000e+00
1.406000000000000000e+03,-6.606102774800718391e-01,0.000000000000000000e+00
1.407000000000000000e+03,-5.263428534962983907e-01,0.000000000000000000e+00
1.408000000000000000e+03,-4.628060452393408797e-01,0.000000000000000000e+00
1.409000000000000000e+03,-4.733561612899196969e-01,0.000000000000000000e+00
1.410000000000000000e+03,-2.287375320864889205e-01,0.000000000000000000e+00
1.411000000000000000e+03,-7.493777914369821602e-02,0.000000000000000000e+00
1.412000000000000000e+03,6.270842861115860645e-02,0.000000000000000000e+00
1.413000000000000000e+03,-3.882436036802232593e-01,0.000000000000000000e+00
1.414000000000000000e+03,-2.222073710921489975e-01,0.000000000000000000e+00
1.415000000000000000e+03,1.946168821923642545e-01,0.000000000000000000e+00
1.416000000000000000e+03,8.761534666601314414e-02,0.000000000000000000e+00
1.417000000000000000e+03,1.097403065806571293e-01,0.000000000000000000e+00
1.418000000000000000e+03,-2.302879753263254239e-02,0.000000000000000000e+00
1.419000000000000000e+03,1.072671735885910027e-01,0.000000000000000000e+00
1.420000000000000000e+03,2.429852798192989050e-01,0.000000000000000000e+00
1.421000000000000000e+03,-5.612344986130730906e-02,0.000000000000000000e+00
1.422000000000000000e+03,1.891884471873255813e-01,0.000000000000000000e+00
1.423000000000000000e+03,1.191418577505759385e-01,0.000000000000000000e+00
1.424000000000000000e+03,2.989167439147600858e-01,0.000000000000000000e+00
1.425000000000000000e+03,2.440193406847932234e-01,0.000000000000000000e+00
1.426000000000000000e+03,1.600474627014839557e-01,0.000000000000000000e+00
1.427000000000000000e+03,3.224673109133390780e-01,0.000000000000000000e+00
1.428000000000000000e+03,1.284277459221952467e-01,0.000000000000000000e+00
1.429000000000000000e+03,7.931398520904880955e-02,0.000000000000000000e+00
1.430000000000000000e+03,2.793119392656497890e-01,0.000000000000000000e+00
1.431000000000000000e+03,1.107220924808222984e+00,0.000000000000000000e+00
1.432000000000000000e+03,2.999498221497199912e-01,0.000000000000000000e+00
1.433000000000000000e+03,-6.352688023537071682e-02,0.000000000000000000e+00
1.434000000000000000e+03,2.191706538959608819e-01,0.000000000000000000e+00
1.435000000000000000e+03,-1.747390829405388590e-01,0.000000000000000000e+00
1.436000000000000000e+03,4.820765418157206272e-01,0.000000000000000000e+00
1.437000000000000000e+03,-2.943745485632480105e-02,0.000000000000000000e+00
1.438000000000000000e+03,3.714154479763655647e+00,0.000000000000000000e+00
1.439000000000000000e+03,5.704702885685977165e+00,0.000000000000000000e+00
1.440000000000000000e+03,5.527849045963154628e-01,1.000000000000000000e+00
1.441000000000000000e+03,-1.048289487667672937e+00,0.000000000000000000e+00
1.442000000000000000e+03,-1.003409463316373706e+00,0.000000000000000000e+00
1.443000000000000000e+03,-8.370630076397953534e-01,0.000000000000000000e+00
1.444000000000000000e+03,-8.354018381891080702e-01,0.000000000000000000e+00
1.445000000000000000e+03,-9.131021698377642659e-01,0.000000000000000000e+00
1.446000000000000000e+03,-5.850346869533263883e-01,0.000000000000000000e+00
1.447000000000000000e+03,-4.674067481697740112e-01,0.000000000000000000e+00
1.448000000000000000e+03,-3.905196165965899024e-01,0.000000000000000000e+00
1.449000000000000000e+03,-2.664721812908257270e-01,0.000000000000000000e+00
1.450000000000000000e+03,-8.206543864061333071e-02,0.000000000000000000e+00
1.451000000000000000e+03,2.443082474776988866e-01,0.000000000000000000e+00
1.452000000000000000e+03,5.760252401567244052e-01,0.000000000000000000e+00
1.453000000000000000e+03,8.222256375920328209e-01,0.000000000000000000e+00
1.454000000000000000e+03,7.099813074873702057e-01,0.000000000000000000e+00
1.455000000000000000e+03,8.576691414533599289e-01,0.000000000000000000e+00
1.456000000000000000e+03,-2.348928893180395050e-02,0.000000000000000000e+00
1.457000000000000000e+03,-4.929464921746832817e-01,0.000000000000000000e+00
1.458000000000000000e+03,-8.580867891334544861e-01,0.000000000000000000e+00
1.459000000000000000e+03,-1.357666721361587614e+00,0.000000000000000000e+00
1.460000000000000000e+03,-1.062294024657720160e+00,0.000000000000000000e+00
1.461000000000000000e+03,-7.783490802154847676e-01,0.000000000000000000e+00
1.462000000000000000e+03,-8.871485377435838204e-01,0.000000000000000000e+00
1.463000000000000000e+03,-6.321374410310783842e-01,0.000000000000000000e+00
1.464000000000000000e+03,-8.720956963381411020e-01,0.000000000000000000e+00
1.465000000000000000e+03,-5.300162495767738458e-01,0.000000000000000000e+00
1.466000000000000000e+03,-6.207538649781453310e-01,0.000000000000000000e+00
1.467000000000000000e+03,-6.075561361099044433e-01,0.000000000000000000e+00
1.468000000000000000e+03,-1.910069805168994883e-01,0.000000000000000000e+00
1.469000000000000000e+03,-4.383587652215168440e-01,0.000000000000000000e+00
1.470000000000000000e+03,-3.128115532458046189e-01,0.000000000000000000e+00
1.471000000000000000e+03,-1.585850888581166462e-01,0.000000000000000000e+00
1.472000000000000000e+03,4.933739935077031263e-02,0.000000000000000000e+00
1.473000000000000000e+03,-2.593874708325266676e-01,0.000000000000000000e+00
1.474000000000000000e+03,5.874194720693970417e-02,0.000000000000000000e+00
1.475000000000000000e+03,-5.570792845477216815e-02,0.000000000000000000e+00
1.476000000000000000e+03,5.345947782375502777e-02,0.000000000000000000e+00
1.477000000000000000e+03,7.047852204632590323e-02,0.000000000000000000e+00
1.478000000000000000e+03,-1.520803697732504844e-02,0.000000000000000000e+00
1.479000000000000000e+03,6.903588414145535312e-02,0.000000000000000000e+00
1.480000000000000000e+03,8.956993509915785190e-02,0.000000000000000000e+00
1.481000000000000000e+03,8.242134576952403480e-02,0.000000000000000000e+00
1.482000000000000000e+03,1.986852019811273240e-01,0.000000000000000000e+00
1.483000000000000000e+03,5.271577476677368618e-02,0.000000000000000000e+00
1.484000000000000000e+03,1.946770302561745825e-01,0.000000000000000000e+00
1.485000000000000000e+03,2.714027482556270465e-01,0.000000000000000000e+00
1.486000000000000000e+03,1.689880779701299629e-01,0.000000000000000000e+00
1.487000000000000000e+03,1.110001459827166664e-01,0.000000000000000000e+00
1.488000000000000000e+03,3.620163136676078919e-01,0.000000000000000000e+00
1.489000000000000000e+03,2.242881314237865353e-01,0.000000000000000000e+00
1.490000000000000000e+03,5.609414603217764972e-01,0.000000000000000000e+00
1.491000000000000000e+03,5.763126856675006016e-01,0.000000000000000000e+00
1.492000000000000000e+03,4.271756209432231444e-01,0.000000000000000000e+00
1.493000000000000000e+03,-1.081081373606791324e-01,0.000000000000000000e+00
1.494000000000000000e+03,2.741977113523568765e-01,0.000000000000000000e+00
1.495000000000000000e+03,-3.443146245850754045e-02,0.000000000000000000e+00
1.496000000000000000e+03,2.096990581158732214e-01,0.000000000000000000e+00
1.497000000000000000e+03,3.432272058435916207e-01,0.000000000000000000e+00
1.498000000000000000e+03,4.510124885908705750e+00,0.000000000000000000e+00
1.499000000000000000e+03,3.823983857461309643e+00,0.000000000000000000e+00
1.500000000000000000e+03,-3.350606221278121799e-01,1.000000000000000000e+00
1.501000000000000000e+03,-8.917953105316135387e-01,0.000000000000000000e+00
1.502000000000000000e+03,-9.620953748885753276e-01,0.000000000000000000e+00
1.503000000000000000e+03,-6.642916344113650728e-01,0.000000000000000000e+00
1.504000000000000000e+03,-5.115834219892859691e-01,0.000000000000000000e+00
1.505000000000000000e+03,-4.271197519646352525e-01,0.000000000000000000e+00
1.506000000000000000e+03,-4.245505105873241258e-01,0.000000000000000000e+00
1.507000000000000000e+03,-1.927057763447969641e-01,0.000000000000000000e+00
1.508000000000000000e+03,-2.798008112282298065e-01,0.000000000000000000e+00
1.509000000000000000e+03,9.031626582904762890e-02,0.000000000000000000e+00
1.510000000000000000e+03,1.258666155565176525e-01,0.000000000000000000e+00
1.511000000000000000e+03,6.045138154158895549e-01,0.000000000000000000e+00
1.512000000000000000e+03,7.507834134937600989e-01,0.000000000000000000e+00
1.513000000000000000e+03,8.557975617679923763e-01,0.000000000000000000e+00
1.514000000000000000e+03,8.404457871770257826e-01,0.000000000000000000e+00
1.515000000000000000e+03,5.318097371462608969e-01,0.000000000000000000e+00
1.516000000000000000e+03,-7.424770951532948249e-02,0.000000000000000000e+00
1.517000000000000000e+03,-8.177729304277308042e-01,0.000000000000000000e+00
1.518000000000000000e+03,-1.093308635577922239e+00,0.000000000000000000e+00
1.519000000000000000e+03,-1.282981744871342533e+00,0.000000000000000000e+00
1.520000000000000000e+03,-1.094295027265070219e+00,0.000000000000000000e+00
1.521000000000000000e+03,-8.577329274229639200e-01,0.000000000000000000e+00
1.522000000000000000e+03,-1.015870151934249010e+00,0.000000000000000000e+00
1.523000000000000000e+03,-7.876973593788865191e-01,0.000000000000000000e+00
1.524000000000000000e+03,-1.088433337203348117e+00,0.000000000000000000e+00
1.525000000000000000e+03,-3.950115105874685284e-01,0.000000000000000000e+00
1.526000000000000000e+03,-6.513220204951258863e-01,0.000000000000000000e+00
1.527000000000000000e+03,-3.394955367763382581e-01,0.000000000000000000e+00
1.528000000000000000e+03,-4.386765949206878346e-01,0.000000000000000000e+00
1.529000000000000000e+03,-3.073164869726963122e-01,0.000000000000000000e+00
1.530000000000000000e+03,-2.732339540145690138e-01,0.000000000000000000e+00
1.531000000000000000e+03,4.037353486997278390e-02,0.000000000000000000e+00
1.532000000000000000e+03,-2.353150820961970313e-01,0.000000000000000000e+00
1.533000000000000000e+03,8.254401283377253706e-02,0.000000000000000000e+00
1.534000000000000000e+03,-2.205496541728913518e-01,0.000000000000000000e+00
1.535000000000000000e+03,1.238604422350247924e-01,0.000000000000000000e+00
1.536000000000000000e+03,1.874790957080126330e-01,0.000000000000000000e+00
1.537000000000000000e+03,6.655217334106529325e-02,0.000000000000000000e+00
1.538000000000000000e+03,-5.161296919700040370e-02,0.000000000000000000e+00
1.539000000000000000e+03,6.134169531217719545e-02,0.000000000000000000e+00
1.540000000000000000e+03,2.786551316630527242e-01,0.000000000000000000e+00
1.541000000000000000e+03,1.984615024488614321e-01,0.000000000000000000e+00
1.542000000000000000e+03,9.555679987747080217e-02,0.000000000000000000e+00
1.543000000000000000e+03,3.063123845621464891e-01,0.000000000000000000e+00
1.544000000000000000e+03,1.527680779141487866e-01,0.000000000000000000e+00
1.545000000000000000e+03,4.519907581871507873e-01,0.000000000000000000e+00
1.546000000000000000e+03,3.393644687673658678e-01,0.000000000000000000e+00
1.547000000000000000e+03,1.908967159273566860e-01,0.000000000000000000e+00
1.548000000000000000e+03,2.468701985257938658e-01,0.000000000000000000e+00
1.549000000000000000e+03,3.504420711275436084e-01,0.000000000000000000e+00
1.550000000000000000e+03,6.391959280429403423e-01,0.000000000000000000e+00
1.551000000000000000e+03,4.269666471548699271e-01,0.000000000000000000e+00
1.552000000000000000e+03,5.118686160879550862e-01,0.000000000000000000e+00
1.553000000000000000e+03,3.437915984952870374e-02,0.000000000000000000e+00
1.554000000000000000e+03,2.086700739163753482e-01,0.000000000000000000e+00
1.555000000000000000e+03,-4.449916907759855073e-02,0.000000000000000000e+00
1.556000000000000000e+03,2.107686049436020836e-01,0.000000000000000000e+00
1.557000000000000000e+03,5.948364553045174530e-01,0.000000000000000000e+00
1.558000000000000000e+03,4.570772279995508391e+00,0.000000000000000000e+00
1.559000000000000000e+03,2.675346540153245023e+00,1.000000000000000000e+00
1.560000000000000000e+03,-1.000762602897146580e+00,0.000000000000000000e+00
1.561000000000000000e+03,-7.692826266579028127e-01,0.000000000000000000e+00
1.562000000000000000e+03,-9.933351068216870194e-01,0.000000000000000000e+00
1.563000000000000000e+03,-5.437258074586718282e-01,0.000000000000000000e+00
1.564000000000000000e+03,-7.620184633201741997e-01,0.000000000000000000e+00
1.565000000000000000e+03,-3.394332633672267896e-01,0.000000000000000000e+00
1.566000000000000000e+03,-6.162430275513571809e-01,0.000000000000000000e+00
1.567000000000000000e+03,-3.656571545232135123e-01,0.000000000000000000e+00
1.568000000000000000e+03,-1.910154335090731570e-01,0.000000000000000000e+00
1.569000000000000000e+03,-5.686579025362799994e-02,0.000000000000000000e+00
1.570000000000000000e+03,1.245442396417904413e-01,0.000000000000000000e+00
1.571000000000000000e+03,4.302672429172138546e-01,0.000000000000000000e+00
1.572000000000000000e+03,5.114862692486680240e-01,0.000000000000000000e+00
1.573000000000000000e+03,6.968427043743484761e-01,0.000000000000000000e+00
1.574000000000000000e+03,9.492146018420566378e-01,0.000000000000000000e+00
1.575000000000000000e+03,4.366089690694610059e-01,0.000000000000000000e+00
1.576000000000000000e+03,-1.760793842868238757e-01,0.000000000000000000e+00
1.577000000000000000e+03,-7.863738399528397149e-01,0.000000000000000000e+00
1.578000000000000000e+03,-1.388447926804216248e+00,0.000000000000000000e+00
1.579000000000000000e+03,-1.216963079446186535e+00,0.000000000000000000e+00
1.580000000000000000e+03,-1.073494531455613910e+00,0.000000000000000000e+00
1.581000000000000000e+03,-9.466433578271505889e-01,0.000000000000000000e+00
1.582000000000000000e+03,-9.737071401405443805e-01,0.000000000000000000e+00
1.583000000000000000e+03,-1.039598574008100629e+00,0.000000000000000000e+00
1.584000000000000000e+03,-8.352234010411176968e-01,0.000000000000000000e+00
1.585000000000000000e+03,-6.279410086156518300e-01,0.000000000000000000e+00
1.586000000000000000e+03,-5.345861287118250926e-01,0.000000000000000000e+00
1.587000000000000000e+03,-2.804126404021568542e-01,0.000000000000000000e+00
