timestamp,ecg_measurement,qrs_detected
0.000000000000000000e+00,2.332324079134430808e-02,0.000000000000000000e+00
1.000000000000000000e+00,7.348961011142131350e-02,0.000000000000000000e+00
2.000000000000000000e+00,1.685293997975966240e-01,0.000000000000000000e+00
3.000000000000000000e+00,3.129194491517953702e-01,0.000000000000000000e+00
4.000000000000000000e+00,2.409934433830808465e-01,0.000000000000000000e+00
5.000000000000000000e+00,4.090021596652503727e-02,0.000000000000000000e+00
6.000000000000000000e+00,-1.058722364154135315e-01,0.000000000000000000e+00
7.000000000000000000e+00,-2.580080240698633398e-01,0.000000000000000000e+00
8.000000000000000000e+00,-8.267235741896508672e-02,0.000000000000000000e+00
9.000000000000000000e+00,-1.931217842845343313e-01,0.000000000000000000e+00
1.000000000000000000e+01,1.636248438257828855e-02,0.000000000000000000e+00
1.100000000000000000e+01,-5.229291244815748030e-01,0.000000000000000000e+00
1.200000000000000000e+01,2.332999462673755353e+00,0.000000000000000000e+00
1.300000000000000000e+01,4.700639308996470866e+00,0.000000000000000000e+00
1.400000000000000000e+01,-1.272254977936764009e+00,1.000000000000000000e+00
1.500000000000000000e+01,-1.212398092365180924e+00,0.000000000000000000e+00
1.600000000000000000e+01,-8.011153986278910510e-01,0.000000000000000000e+00
1.700000000000000000e+01,-4.937226246859284795e-01,0.000000000000000000e+00
1.800000000000000000e+01,-4.935898137519759699e-01,0.000000000000000000e+00
1.900000000000000000e+01,-3.192454985386416477e-01,0.000000000000000000e+00
2.000000000000000000e+01,-2.768119986355678797e-01,0.000000000000000000e+00
2.100000000000000000e+01,-1.497081781919721577e-01,0.000000000000000000e+00
2.200000000000000000e+01,-1.201421958557568337e-01,0.000000000000000000e+00
2.300000000000000000e+01,1.222401003997908853e-01,0.000000000000000000e+00
2.400000000000000000e+01,1.555958115189319535e-01,0.000000000000000000e+00
2.500000000000000000e+01,4.037580592161984505e-01,0.000000000000000000e+00
2.600000000000000000e+01,6.821940899601097730e-01,0.000000000000000000e+00
2.700000000000000000e+01,1.057518441314937219e+00,0.000000000000000000e+00
2.800000000000000000e+01,1.249565157773598889e+00,0.000000000000000000e+00
2.900000000000000000e+01,1.308751370222432264e+00,0.000000000000000000e+00
3.000000000000000000e+01,9.593719134217346678e-01,0.000000000000000000e+00
3.100000000000000000e+01,2.729797616956392559e-01,0.000000000000000000e+00
3.200000000000000000e+01,-3.109360808980750068e-01,0.000000000000000000e+00
3.300000000000000000e+01,-6.547473859067635127e-01,0.000000000000000000e+00
3.400000000000000000e+01,-7.572239096518926793e-01,0.000000000000000000e+00
3.500000000000000000e+01,-7.238154411165615976e-01,0.000000000000000000e+00
3.600000000000000000e+01,-6.714588100384459857e-01,0.000000000000000000e+00
3.700000000000000000e+01,-6.082883837782609993e-01,0.000000000000000000e+00
3.800000000000000000e+01,-5.985259233617997721e-01,0.000000000000000000e+00
3.900000000000000000e+01,-6.006230372329973699e-01,0.000000000000000000e+00
4.000000000000000000e+01,-3.575812923844542968e-01,0.000000000000000000e+00
4.100000000000000000e+01,-2.981819132343689893e-01,0.000000000000000000e+00
4.200000000000000000e+01,-2.396942347801118145e-01,0.000000000000000000e+00
4.300000000000000000e+01,-1.494870869763599286e-01,0.000000000000000000e+00
4.400000000000000000e+01,-1.401561097821958368e-01,0.000000000000000000e+00
4.500000000000000000e+01,-1.648664457762557822e-01,0.000000000000000000e+00
4.600000000000000000e+01,-8.883523993843478461e-02,0.000000000000000000e+00
4.700000000000000000e+01,-1.267150135220478924e-01,0.000000000000000000e+00
4.800000000000000000e+01,-5.213199339210621355e-04,0.000000000000000000e+00
4.900000000000000000e+01,-6.798718003712905800e-02,0.000000000000000000e+00
5.000000000000000000e+01,-2.710560191614988512e-02,0.000000000000000000e+00
5.100000000000000000e+01,-2.597936901199363047e-02,0.000000000000000000e+00
5.200000000000000000e+01,2.084258174568056343e-01,0.000000000000000000e+00
5.300000000000000000e+01,2.153876262637430539e-01,0.000000000000000000e+00
5.400000000000000000e+01,4.707588653288264924e-01,0.000000000000000000e+00
5.500000000000000000e+01,3.802901590498312112e-01,0.000000000000000000e+00
5.600000000000000000e+01,2.901036529240050843e-01,0.000000000000000000e+00
5.700000000000000000e+01,-2.939714503077996144e-02,0.000000000000000000e+00
5.800000000000000000e+01,-9.397655272878563393e-02,0.000000000000000000e+00
5.900000000000000000e+01,-1.484494775435976632e-01,0.000000000000000000e+00
6.000000000000000000e+01,3.998451389283872587e-02,0.000000000000000000e+00
6.100000000000000000e+01,-1.595366531620201755e-01,0.000000000000000000e+00
6.200000000000000000e+01,-1.041607412286705073e-02,0.000000000000000000e+00
6.300000000000000000e+01,9.337976977359477293e-02,0.000000000000000000e+00
6.400000000000000000e+01,4.999369665720524658e+00,0.000000000000000000e+00
6.500000000000000000e+01,1.709747384675166071e+00,1.000000000000000000e+00
6.600000000000000000e+01,-2.037965469606966451e+00,0.000000000000000000e+00
6.700000000000000000e+01,-5.586154285031975641e-01,0.000000000000000000e+00
6.800000000000000000e+01,-9.449930981492167259e-01,0.000000000000000000e+00
6.900000000000000000e+01,-2.836832747725478443e-01,0.000000000000000000e+00
7.000000000000000000e+01,-6.117447810300900013e-01,0.000000000000000000e+00
7.100000000000000000e+01,-1.571967400621860078e-01,0.000000000000000000e+00
7.200000000000000000e+01,-3.163419208239998670e-01,0.000000000000000000e+00
7.300000000000000000e+01,-9.681609348612896238e-02,0.000000000000000000e+00
7.400000000000000000e+01,-1.019264560030847533e-01,0.000000000000000000e+00
7.500000000000000000e+01,1.701923819789726566e-01,0.000000000000000000e+00
7.600000000000000000e+01,1.527272679195967042e-01,0.000000000000000000e+00
7.700000000000000000e+01,5.741354902049801145e-01,0.000000000000000000e+00
7.800000000000000000e+01,7.043544112023528703e-01,0.000000000000000000e+00
7.900000000000000000e+01,1.237821907701316615e+00,0.000000000000000000e+00
8.000000000000000000e+01,1.190190759031865220e+00,0.000000000000000000e+00
8.100000000000000000e+01,1.172427595552012702e+00,0.000000000000000000e+00
8.200000000000000000e+01,4.106054465625023631e-01,0.000000000000000000e+00
8.300000000000000000e+01,-4.379052268083004351e-02,0.000000000000000000e+00
8.400000000000000000e+01,-6.277442401872853628e-01,0.000000000000000000e+00
8.500000000000000000e+01,-6.708856900155422132e-01,0.000000000000000000e+00
8.600000000000000000e+01,-8.857873278855525889e-01,0.000000000000000000e+00
8.700000000000000000e+01,-7.203795408784485765e-01,0.000000000000000000e+00
8.800000000000000000e+01,-8.178266857833643710e-01,0.000000000000000000e+00
8.900000000000000000e+01,-5.759973260390727212e-01,0.000000000000000000e+00
9.000000000000000000e+01,-6.427058695995699900e-01,0.000000000000000000e+00
9.100000000000000000e+01,-4.984725112189737906e-01,0.000000000000000000e+00
9.200000000000000000e+01,-5.251419179259902981e-01,0.000000000000000000e+00
9.300000000000000000e+01,-2.877613247246013084e-01,0.000000000000000000e+00
9.400000000000000000e+01,-3.410371082659670039e-01,0.000000000000000000e+00
9.500000000000000000e+01,-1.235902199689297293e-01,0.000000000000000000e+00
9.600000000000000000e+01,-3.457300758287126796e-01,0.000000000000000000e+00
9.700000000000000000e+01,-1.540078785238110648e-01,0.000000000000000000e+00
9.800000000000000000e+01,-1.928439933734493184e-01,0.000000000000000000e+00
9.900000000000000000e+01,-8.536072985784216860e-02,0.000000000000000000e+00
1.000000000000000000e+02,-1.867531223626940906e-01,0.000000000000000000e+00
1.010000000000000000e+02,-4.944618589185471175e-02,0.000000000000000000e+00
1.020000000000000000e+02,-1.135524796268620323e-01,0.000000000000000000e+00
1.030000000000000000e+02,8.792811230624787699e-02,0.000000000000000000e+00
1.040000000000000000e+02,9.141555652248167796e-02,0.000000000000000000e+00
1.050000000000000000e+02,3.341935409735763973e-01,0.000000000000000000e+00
1.060000000000000000e+02,3.209736561013190048e-01,0.000000000000000000e+00
1.070000000000000000e+02,3.757817829483964811e-01,0.000000000000000000e+00
1.080000000000000000e+02,1.741437552269914715e-02,0.000000000000000000e+00
1.090000000000000000e+02,-5.029207129305400537e-02,0.000000000000000000e+00
1.100000000000000000e+02,-2.894744780875949108e-01,0.000000000000000000e+00
1.110000000000000000e+02,-4.271310875053432876e-02,0.000000000000000000e+00
1.120000000000000000e+02,-3.031210464969508744e-01,0.000000000000000000e+00
1.130000000000000000e+02,2.048033602841424494e-02,0.000000000000000000e+00
1.140000000000000000e+02,-5.982896393539299806e-01,0.000000000000000000e+00
1.150000000000000000e+02,2.628614937990656486e+00,0.000000000000000000e+00
1.160000000000000000e+02,4.656680180368620192e+00,0.000000000000000000e+00
1.170000000000000000e+02,-1.607434123452289754e+00,1.000000000000000000e+00
1.180000000000000000e+02,-1.243261117965839713e+00,0.000000000000000000e+00
1.190000000000000000e+02,-8.978352494163921449e-01,0.000000000000000000e+00
1.200000000000000000e+02,-6.292669474100917038e-01,0.000000000000000000e+00
1.210000000000000000e+02,-5.971146257679948999e-01,0.000000000000000000e+00
1.220000000000000000e+02,-4.286431748216616988e-01,0.000000000000000000e+00
1.230000000000000000e+02,-3.363736677814959664e-01,0.000000000000000000e+00
1.240000000000000000e+02,-2.472905405346272623e-01,0.000000000000000000e+00
1.250000000000000000e+02,-1.468796419780957485e-01,0.000000000000000000e+00
1.260000000000000000e+02,-1.845366934971335443e-02,0.000000000000000000e+00
1.270000000000000000e+02,1.528587404406081540e-01,0.000000000000000000e+00
1.280000000000000000e+02,3.453737990577185890e-01,0.000000000000000000e+00
1.290000000000000000e+02,6.595424537509060325e-01,0.000000000000000000e+00
1.300000000000000000e+02,9.240645880080935459e-01,0.000000000000000000e+00
1.310000000000000000e+02,1.227345658328974354e+00,0.000000000000000000e+00
1.320000000000000000e+02,1.221289620927487052e+00,0.000000000000000000e+00
1.330000000000000000e+02,8.642638654811699572e-01,0.000000000000000000e+00
1.340000000000000000e+02,2.015880540135797372e-01,0.000000000000000000e+00
1.350000000000000000e+02,-3.154111159456597924e-01,0.000000000000000000e+00
1.360000000000000000e+02,-7.653472237075672480e-01,0.000000000000000000e+00
1.370000000000000000e+02,-7.142919671937560944e-01,0.000000000000000000e+00
1.380000000000000000e+02,-7.960192775013060773e-01,0.000000000000000000e+00
1.390000000000000000e+02,-7.282581052185339576e-01,0.000000000000000000e+00
1.400000000000000000e+02,-7.446000621945124687e-01,0.000000000000000000e+00
1.410000000000000000e+02,-5.947909268230066049e-01,0.000000000000000000e+00
1.420000000000000000e+02,-5.577324518035121637e-01,0.000000000000000000e+00
1.430000000000000000e+02,-3.934335436250677165e-01,0.000000000000000000e+00
1.440000000000000000e+02,-4.589047418339179951e-01,0.000000000000000000e+00
1.450000000000000000e+02,-2.078758986493630390e-01,0.000000000000000000e+00
1.460000000000000000e+02,-3.484968161105281292e-01,0.000000000000000000e+00
1.470000000000000000e+02,-2.646605700419163987e-01,0.000000000000000000e+00
1.480000000000000000e+02,-2.646337827196912906e-01,0.000000000000000000e+00
1.490000000000000000e+02,-2.233044890497241364e-01,0.000000000000000000e+00
1.500000000000000000e+02,-2.699449817093185766e-01,0.000000000000000000e+00
1.510000000000000000e+02,-1.018254106264697284e-01,0.000000000000000000e+00
1.520000000000000000e+02,-1.768799463014774920e-01,0.000000000000000000e+00
1.530000000000000000e+02,3.895028769910637706e-02,0.000000000000000000e+00
1.540000000000000000e+02,-1.353169912707563594e-01,0.000000000000000000e+00
1.550000000000000000e+02,1.529792875432296195e-01,0.000000000000000000e+00
1.560000000000000000e+02,1.599463045853735110e-01,0.000000000000000000e+00
1.570000000000000000e+02,4.409723911789318884e-01,0.000000000000000000e+00
1.580000000000000000e+02,4.245829269357682123e-01,0.000000000000000000e+00
1.590000000000000000e+02,2.351949916018737097e-01,0.000000000000000000e+00
1.600000000000000000e+02,-5.348479558228484698e-02,0.000000000000000000e+00
1.610000000000000000e+02,-6.133270436079973909e-02,0.000000000000000000e+00
1.620000000000000000e+02,-1.692292374048325332e-01,0.000000000000000000e+00
1.630000000000000000e+02,4.579009155578726148e-02,0.000000000000000000e+00
1.640000000000000000e+02,-1.588467530321609755e-01,0.000000000000000000e+00
1.650000000000000000e+02,-7.096484915038583918e-02,0.000000000000000000e+00
1.660000000000000000e+02,2.496501527130136622e-01,0.000000000000000000e+00
1.670000000000000000e+02,5.196130044494605471e+00,0.000000000000000000e+00
1.680000000000000000e+02,1.339639278115642984e+00,1.000000000000000000e+00
1.690000000000000000e+02,-2.176913461564248475e+00,0.000000000000000000e+00
1.700000000000000000e+02,-5.808355962857494337e-01,0.000000000000000000e+00
1.710000000000000000e+02,-8.601669874831451290e-01,0.000000000000000000e+00
1.720000000000000000e+02,-2.780226299181771665e-01,0.000000000000000000e+00
1.730000000000000000e+02,-4.728764811625811304e-01,0.000000000000000000e+00
1.740000000000000000e+02,-1.952062585562069352e-01,0.000000000000000000e+00
1.750000000000000000e+02,-2.669852115175768148e-01,0.000000000000000000e+00
1.760000000000000000e+02,-1.752636257662979966e-02,0.000000000000000000e+00
1.770000000000000000e+02,1.386026254237170217e-03,0.000000000000000000e+00
1.780000000000000000e+02,3.378918763507547940e-01,0.000000000000000000e+00
1.790000000000000000e+02,2.432191225405618273e-01,0.000000000000000000e+00
1.800000000000000000e+02,6.239291665815988042e-01,0.000000000000000000e+00
1.810000000000000000e+02,8.562596421988873940e-01,0.000000000000000000e+00
1.820000000000000000e+02,1.225736013450240636e+00,0.000000000000000000e+00
1.830000000000000000e+02,1.281347525827113421e+00,0.000000000000000000e+00
1.840000000000000000e+02,1.174221597412919760e+00,0.000000000000000000e+00
1.850000000000000000e+02,5.109339270169299674e-01,0.000000000000000000e+00
1.860000000000000000e+02,-6.615819387975947763e-02,0.000000000000000000e+00
1.870000000000000000e+02,-6.164053357460614890e-01,0.000000000000000000e+00
1.880000000000000000e+02,-7.260321892446808256e-01,0.000000000000000000e+00
1.890000000000000000e+02,-8.292021866715499900e-01,0.000000000000000000e+00
1.900000000000000000e+02,-7.396648265395989741e-01,0.000000000000000000e+00
1.910000000000000000e+02,-8.402366975224689893e-01,0.000000000000000000e+00
1.920000000000000000e+02,-6.438533981123525374e-01,0.000000000000000000e+00
1.930000000000000000e+02,-6.069356682041242568e-01,0.000000000000000000e+00
1.940000000000000000e+02,-4.046738976574013602e-01,0.000000000000000000e+00
1.950000000000000000e+02,-4.128688248823949580e-01,0.000000000000000000e+00
1.960000000000000000e+02,-2.759492513975585481e-01,0.000000000000000000e+00
1.970000000000000000e+02,-3.106375012357192600e-01,0.000000000000000000e+00
1.980000000000000000e+02,-1.609753054951814644e-01,0.000000000000000000e+00
1.990000000000000000e+02,-2.409187604498109203e-01,0.000000000000000000e+00
2.000000000000000000e+02,-2.050546848537161126e-01,0.000000000000000000e+00
2.010000000000000000e+02,-2.182323010463983193e-01,0.000000000000000000e+00
2.020000000000000000e+02,-2.118909697854853558e-01,0.000000000000000000e+00
2.030000000000000000e+02,-1.199489529509779745e-01,0.000000000000000000e+00
2.040000000000000000e+02,-6.276199608562950394e-02,0.000000000000000000e+00
2.050000000000000000e+02,-1.498067010584369085e-01,0.000000000000000000e+00
2.060000000000000000e+02,1.209738664632721387e-03,0.000000000000000000e+00
2.070000000000000000e+02,3.937019751723159350e-02,0.000000000000000000e+00
2.080000000000000000e+02,2.188360928945461137e-01,0.000000000000000000e+00
2.090000000000000000e+02,3.285131928103682264e-01,0.000000000000000000e+00
2.100000000000000000e+02,2.479800464190768661e-01,0.000000000000000000e+00
2.110000000000000000e+02,5.730107729021757801e-03,0.000000000000000000e+00
2.120000000000000000e+02,-1.305754031100112011e-01,0.000000000000000000e+00
2.130000000000000000e+02,-2.735715932641333281e-01,0.000000000000000000e+00
2.140000000000000000e+02,-1.430882317934205339e-01,0.000000000000000000e+00
2.150000000000000000e+02,-1.784478977429295732e-01,0.000000000000000000e+00
2.160000000000000000e+02,7.133370860138117837e-03,0.000000000000000000e+00
2.170000000000000000e+02,-5.066825342956000622e-01,0.000000000000000000e+00
2.180000000000000000e+02,2.311402498345278556e+00,0.000000000000000000e+00
2.190000000000000000e+02,4.787614618593334370e+00,0.000000000000000000e+00
2.200000000000000000e+02,-1.492491826814551059e+00,1.000000000000000000e+00
2.210000000000000000e+02,-1.337246850783782248e+00,0.000000000000000000e+00
2.220000000000000000e+02,-8.117320295694511190e-01,0.000000000000000000e+00
2.230000000000000000e+02,-6.272838120155690422e-01,0.000000000000000000e+00
2.240000000000000000e+02,-4.710265148860093287e-01,0.000000000000000000e+00
2.250000000000000000e+02,-4.068017333612857778e-01,0.000000000000000000e+00
2.260000000000000000e+02,-2.472654721568010028e-01,0.000000000000000000e+00
2.270000000000000000e+02,-1.810978526150858747e-01,0.000000000000000000e+00
2.280000000000000000e+02,-1.202110073962492920e-01,0.000000000000000000e+00
2.290000000000000000e+02,2.249295948850314059e-02,0.000000000000000000e+00
2.300000000000000000e+02,1.355810433011274130e-01,0.000000000000000000e+00
2.310000000000000000e+02,3.420541128967269917e-01,0.000000000000000000e+00
2.320000000000000000e+02,5.696949223715696009e-01,0.000000000000000000e+00
2.330000000000000000e+02,9.531311945013462017e-01,0.000000000000000000e+00
2.340000000000000000e+02,1.136832214344032810e+00,0.000000000000000000e+00
2.350000000000000000e+02,1.152086915807767120e+00,0.000000000000000000e+00
2.360000000000000000e+02,8.450455929533207122e-01,0.000000000000000000e+00
2.370000000000000000e+02,1.954936165433120154e-01,0.000000000000000000e+00
2.380000000000000000e+02,-3.670634281775008168e-01,0.000000000000000000e+00
2.390000000000000000e+02,-6.862637537157637579e-01,0.000000000000000000e+00
2.400000000000000000e+02,-7.793927664606032923e-01,0.000000000000000000e+00
2.410000000000000000e+02,-7.767627537353652967e-01,0.000000000000000000e+00
2.420000000000000000e+02,-7.623205454855733754e-01,0.000000000000000000e+00
2.430000000000000000e+02,-6.687583848432149258e-01,0.000000000000000000e+00
2.440000000000000000e+02,-5.899271631583156150e-01,0.000000000000000000e+00
2.450000000000000000e+02,-4.813416491899180638e-01,0.000000000000000000e+00
2.460000000000000000e+02,-3.853671186042633701e-01,0.000000000000000000e+00
2.470000000000000000e+02,-2.780092601614996828e-01,0.000000000000000000e+00
2.480000000000000000e+02,-1.763331095031096252e-01,0.000000000000000000e+00
2.490000000000000000e+02,-1.369905258310538942e-01,0.000000000000000000e+00
2.500000000000000000e+02,-1.469347004394561673e-01,0.000000000000000000e+00
2.510000000000000000e+02,-1.085678353291529841e-01,0.000000000000000000e+00
2.520000000000000000e+02,-1.455786858161312036e-01,0.000000000000000000e+00
2.530000000000000000e+02,-9.607341189146781368e-02,0.000000000000000000e+00
2.540000000000000000e+02,-7.177169013215102533e-02,0.000000000000000000e+00
2.550000000000000000e+02,-2.832551306221108012e-02,0.000000000000000000e+00
2.560000000000000000e+02,-2.742138575014411994e-02,0.000000000000000000e+00
2.570000000000000000e+02,-2.666536226144434075e-03,0.000000000000000000e+00
2.580000000000000000e+02,2.520156343825912804e-01,0.000000000000000000e+00
2.590000000000000000e+02,3.320628177039908202e-01,0.000000000000000000e+00
2.600000000000000000e+02,4.456983881786296120e-01,0.000000000000000000e+00
2.610000000000000000e+02,3.353960207301116547e-01,0.000000000000000000e+00
2.620000000000000000e+02,2.100348483879284356e-01,0.000000000000000000e+00
2.630000000000000000e+02,-2.556158546328295492e-02,0.000000000000000000e+00
2.640000000000000000e+02,-8.090112434991986179e-02,0.000000000000000000e+00
2.650000000000000000e+02,1.592244263318869785e-02,0.000000000000000000e+00
2.660000000000000000e+02,-5.736301966926887763e-02,0.000000000000000000e+00
2.670000000000000000e+02,5.904623529146695721e-02,0.000000000000000000e+00
2.680000000000000000e+02,-2.466347153358810218e-01,0.000000000000000000e+00
2.690000000000000000e+02,1.324396138435062653e+00,0.000000000000000000e+00
2.700000000000000000e+02,5.109408357799054556e+00,0.000000000000000000e+00
2.710000000000000000e+02,-2.982963587898286861e-01,1.000000000000000000e+00
2.720000000000000000e+02,-1.681870698855994162e+00,0.000000000000000000e+00
2.730000000000000000e+02,-4.973997035750830631e-01,0.000000000000000000e+00
2.740000000000000000e+02,-7.421079065686092546e-01,0.000000000000000000e+00
2.750000000000000000e+02,-2.892295460188064049e-01,0.000000000000000000e+00
2.760000000000000000e+02,-3.354251892514588107e-01,0.000000000000000000e+00
2.770000000000000000e+02,-2.039541851763254365e-01,0.000000000000000000e+00
2.780000000000000000e+02,-1.272970687017673797e-01,0.000000000000000000e+00
2.790000000000000000e+02,-1.556069243731529779e-02,0.000000000000000000e+00
2.800000000000000000e+02,1.106342988627310314e-02,0.000000000000000000e+00
2.810000000000000000e+02,1.630832724514401366e-01,0.000000000000000000e+00
2.820000000000000000e+02,3.334694955323728727e-01,0.000000000000000000e+00
2.830000000000000000e+02,6.191757518243836689e-01,0.000000000000000000e+00
2.840000000000000000e+02,9.469153863872402654e-01,0.000000000000000000e+00
2.850000000000000000e+02,1.127777801726369988e+00,0.000000000000000000e+00
2.860000000000000000e+02,1.172667679854914269e+00,0.000000000000000000e+00
2.870000000000000000e+02,9.582715816831099964e-01,0.000000000000000000e+00
2.880000000000000000e+02,2.094919072912741209e-01,0.000000000000000000e+00
2.890000000000000000e+02,-2.127050506869242463e-01,0.000000000000000000e+00
2.900000000000000000e+02,-6.707403247900772802e-01,0.000000000000000000e+00
2.910000000000000000e+02,-8.437959876364065082e-01,0.000000000000000000e+00
2.920000000000000000e+02,-8.737279650695750632e-01,0.000000000000000000e+00
2.930000000000000000e+02,-7.581106876179022347e-01,0.000000000000000000e+00
2.940000000000000000e+02,-8.068118780968573933e-01,0.000000000000000000e+00
2.950000000000000000e+02,-6.235398759802068813e-01,0.000000000000000000e+00
2.960000000000000000e+02,-6.093870822092379846e-01,0.000000000000000000e+00
2.970000000000000000e+02,-4.806084135929026280e-01,0.000000000000000000e+00
2.980000000000000000e+02,-3.727655115330856805e-01,0.000000000000000000e+00
2.990000000000000000e+02,-3.312187629625297780e-01,0.000000000000000000e+00
3.000000000000000000e+02,-3.077836709847109886e-01,0.000000000000000000e+00
3.010000000000000000e+02,-2.264994953525901189e-01,0.000000000000000000e+00
3.020000000000000000e+02,-3.056855305187993199e-01,0.000000000000000000e+00
3.030000000000000000e+02,-1.861037435211526370e-01,0.000000000000000000e+00
3.040000000000000000e+02,-3.157655911645753100e-01,0.000000000000000000e+00
3.050000000000000000e+02,-2.121266761614349905e-01,0.000000000000000000e+00
3.060000000000000000e+02,-2.031325397076584882e-01,0.000000000000000000e+00
3.070000000000000000e+02,-1.078022785438804282e-01,0.000000000000000000e+00
3.080000000000000000e+02,-1.832325709320099805e-01,0.000000000000000000e+00
3.090000000000000000e+02,1.126025921404651964e-01,0.000000000000000000e+00
3.100000000000000000e+02,-5.185963345518789826e-03,0.000000000000000000e+00
3.110000000000000000e+02,2.853780310606186532e-01,0.000000000000000000e+00
3.120000000000000000e+02,3.043980048975753472e-01,0.000000000000000000e+00
3.130000000000000000e+02,9.422868250767794940e-02,0.000000000000000000e+00
3.140000000000000000e+02,-1.693495169924076060e-01,0.000000000000000000e+00
3.150000000000000000e+02,-1.695693722500726530e-01,0.000000000000000000e+00
3.160000000000000000e+02,-2.524014788732551473e-01,0.000000000000000000e+00
3.170000000000000000e+02,-7.849515190818612265e-02,0.000000000000000000e+00
3.180000000000000000e+02,-2.005758949491149024e-01,0.000000000000000000e+00
3.190000000000000000e+02,-2.088466416442935347e-01,0.000000000000000000e+00
3.200000000000000000e+02,1.829045193566047056e-01,0.000000000000000000e+00
3.210000000000000000e+02,4.931078560499543961e+00,0.000000000000000000e+00
3.220000000000000000e+02,1.434536029485197206e+00,1.000000000000000000e+00
3.230000000000000000e+02,-2.074423895701693610e+00,0.000000000000000000e+00
3.240000000000000000e+02,-5.946189407633354351e-01,0.000000000000000000e+00
3.250000000000000000e+02,-8.952538576400888015e-01,0.000000000000000000e+00
3.260000000000000000e+02,-3.407102671112971493e-01,0.000000000000000000e+00
3.270000000000000000e+02,-6.118461941182971042e-01,0.000000000000000000e+00
3.280000000000000000e+02,-1.655274270736236120e-01,0.000000000000000000e+00
3.290000000000000000e+02,-3.158380675730218523e-01,0.000000000000000000e+00
3.300000000000000000e+02,-3.935886621993399392e-02,0.000000000000000000e+00
3.310000000000000000e+02,-2.546079358550118119e-02,0.000000000000000000e+00
3.320000000000000000e+02,1.242438153797729428e-01,0.000000000000000000e+00
3.330000000000000000e+02,1.933221510594261006e-01,0.000000000000000000e+00
3.340000000000000000e+02,6.030479934532116948e-01,0.000000000000000000e+00
3.350000000000000000e+02,8.039154871262703672e-01,0.000000000000000000e+00
3.360000000000000000e+02,1.176841952903995514e+00,0.000000000000000000e+00
3.370000000000000000e+02,1.259492931097810020e+00,0.000000000000000000e+00
3.380000000000000000e+02,1.091036075074017786e+00,0.000000000000000000e+00
3.390000000000000000e+02,4.104874182427995510e-01,0.000000000000000000e+00
3.400000000000000000e+02,-9.706743042661965248e-02,0.000000000000000000e+00
3.410000000000000000e+02,-7.022812314643840370e-01,0.000000000000000000e+00
3.420000000000000000e+02,-7.357854365831612009e-01,0.000000000000000000e+00
3.430000000000000000e+02,-8.716617559742202426e-01,0.000000000000000000e+00
3.440000000000000000e+02,-7.650289262667623325e-01,0.000000000000000000e+00
3.450000000000000000e+02,-7.563169499668045415e-01,0.000000000000000000e+00
3.460000000000000000e+02,-6.371193581087903901e-01,0.000000000000000000e+00
3.470000000000000000e+02,-6.364458204532458252e-01,0.000000000000000000e+00
3.480000000000000000e+02,-4.983947533473451763e-01,0.000000000000000000e+00
3.490000000000000000e+02,-4.274413651981084361e-01,0.000000000000000000e+00
3.500000000000000000e+02,-3.240049505678651021e-01,0.000000000000000000e+00
3.510000000000000000e+02,-2.680954212927992852e-01,0.000000000000000000e+00
3.520000000000000000e+02,-1.642657872236475136e-01,0.000000000000000000e+00
3.530000000000000000e+02,-2.316744487225503024e-01,0.000000000000000000e+00
3.540000000000000000e+02,-1.553046964781716055e-01,0.000000000000000000e+00
3.550000000000000000e+02,-2.458713315787064424e-01,0.000000000000000000e+00
3.560000000000000000e+02,-5.637587044378650214e-02,0.000000000000000000e+00
3.570000000000000000e+02,-1.921820414832227930e-01,0.000000000000000000e+00
3.580000000000000000e+02,-5.880039628304299659e-02,0.000000000000000000e+00
3.590000000000000000e+02,-6.410656747212642448e-02,0.000000000000000000e+00
3.600000000000000000e+02,2.528888072170577470e-02,0.000000000000000000e+00
3.610000000000000000e+02,8.187465800858322040e-02,0.000000000000000000e+00
3.620000000000000000e+02,2.259431371143436895e-01,0.000000000000000000e+00
3.630000000000000000e+02,4.635013063477267936e-01,0.000000000000000000e+00
3.640000000000000000e+02,4.152052053270228749e-01,0.000000000000000000e+00
3.650000000000000000e+02,8.211311123048536942e-02,0.000000000000000000e+00
3.660000000000000000e+02,-9.019385169835081317e-03,0.000000000000000000e+00
3.670000000000000000e+02,-1.425096053523044748e-01,0.000000000000000000e+00
3.680000000000000000e+02,-5.351270749782871192e-03,0.000000000000000000e+00
3.690000000000000000e+02,-9.470068596580931419e-02,0.000000000000000000e+00
3.700000000000000000e+02,4.716495246820893994e-02,0.000000000000000000e+00
3.710000000000000000e+02,-4.937436456992815303e-01,0.000000000000000000e+00
3.720000000000000000e+02,1.886351027353612819e+00,0.000000000000000000e+00
3.730000000000000000e+02,5.175444861717857670e+00,0.000000000000000000e+00
3.740000000000000000e+02,-7.858301059367842623e-01,1.000000000000000000e+00
3.750000000000000000e+02,-1.369588653553212243e+00,0.000000000000000000e+00
3.760000000000000000e+02,-6.677769255822549876e-01,0.000000000000000000e+00
3.770000000000000000e+02,-6.400251392046378829e-01,0.000000000000000000e+00
3.780000000000000000e+02,-3.595478044658267369e-01,0.000000000000000000e+00
3.790000000000000000e+02,-3.403001941444969702e-01,0.000000000000000000e+00
3.800000000000000000e+02,-2.592910356027346430e-01,0.000000000000000000e+00
3.810000000000000000e+02,-1.451537142554496507e-01,0.000000000000000000e+00
3.820000000000000000e+02,1.055439918966236687e-03,0.000000000000000000e+00
3.830000000000000000e+02,1.706981881699339704e-02,0.000000000000000000e+00
3.840000000000000000e+02,2.387440034803504640e-01,0.000000000000000000e+00
3.850000000000000000e+02,3.373164267121623316e-01,0.000000000000000000e+00
3.860000000000000000e+02,6.666368489764471494e-01,0.000000000000000000e+00
3.870000000000000000e+02,9.327524566793345961e-01,0.000000000000000000e+00
3.880000000000000000e+02,1.277128325160819866e+00,0.000000000000000000e+00
3.890000000000000000e+02,1.200272914216959252e+00,0.000000000000000000e+00
3.900000000000000000e+02,1.005005174159296688e+00,0.000000000000000000e+00
3.910000000000000000e+02,2.510395957191660088e-01,0.000000000000000000e+00
3.920000000000000000e+02,-3.729105045131276830e-01,0.000000000000000000e+00
3.930000000000000000e+02,-6.474289743611253423e-01,0.000000000000000000e+00
3.940000000000000000e+02,-8.718089947576075360e-01,0.000000000000000000e+00
3.950000000000000000e+02,-7.704185622758653595e-01,0.000000000000000000e+00
3.960000000000000000e+02,-7.901692016593035994e-01,0.000000000000000000e+00
3.970000000000000000e+02,-7.850735579431593614e-01,0.000000000000000000e+00
3.980000000000000000e+02,-6.304726861835319163e-01,0.000000000000000000e+00
3.990000000000000000e+02,-7.779649516002935528e-01,0.000000000000000000e+00
4.000000000000000000e+02,-5.489986255153068706e-01,0.000000000000000000e+00
4.010000000000000000e+02,-3.642512977769395977e-01,0.000000000000000000e+00
4.020000000000000000e+02,-2.784753512413420395e-01,0.000000000000000000e+00
4.030000000000000000e+02,-3.647021960421620301e-01,0.000000000000000000e+00
4.040000000000000000e+02,-1.758294326115260042e-01,0.000000000000000000e+00
4.050000000000000000e+02,-3.841409174109858271e-01,0.000000000000000000e+00
4.060000000000000000e+02,-1.459897082299405624e-01,0.000000000000000000e+00
4.070000000000000000e+02,-2.244672190887552488e-01,0.000000000000000000e+00
4.080000000000000000e+02,-1.427301333676515294e-01,0.000000000000000000e+00
4.090000000000000000e+02,-2.342098164955037087e-01,0.000000000000000000e+00
4.100000000000000000e+02,1.522689263180919232e-02,0.000000000000000000e+00
4.110000000000000000e+02,-1.508423287050696948e-01,0.000000000000000000e+00
4.120000000000000000e+02,1.126664975547873454e-01,0.000000000000000000e+00
4.130000000000000000e+02,6.504154077242164933e-02,0.000000000000000000e+00
4.140000000000000000e+02,3.791154661212923216e-01,0.000000000000000000e+00
4.150000000000000000e+02,2.730687947296645546e-01,0.000000000000000000e+00
4.160000000000000000e+02,2.469574172069239348e-01,0.000000000000000000e+00
4.170000000000000000e+02,4.427025051434432812e-02,0.000000000000000000e+00
4.180000000000000000e+02,-4.816247501977211770e-02,0.000000000000000000e+00
4.190000000000000000e+02,-2.240095613035403832e-01,0.000000000000000000e+00
4.200000000000000000e+02,4.749659354048304388e-03,0.000000000000000000e+00
4.210000000000000000e+02,-2.400501372250023469e-01,0.000000000000000000e+00
4.220000000000000000e+02,2.038108392949646019e-01,0.000000000000000000e+00
4.230000000000000000e+02,-5.645447191665978748e-01,0.000000000000000000e+00
4.240000000000000000e+02,3.565421780346542224e+00,0.000000000000000000e+00
4.250000000000000000e+02,3.926120287725335167e+00,0.000000000000000000e+00
4.260000000000000000e+02,-2.051476799578685561e+00,1.000000000000000000e+00
4.270000000000000000e+02,-8.763088835665288068e-01,0.000000000000000000e+00
4.280000000000000000e+02,-8.799911240489440845e-01,0.000000000000000000e+00
4.290000000000000000e+02,-4.765379444171481960e-01,0.000000000000000000e+00
4.300000000000000000e+02,-5.077063777660200117e-01,0.000000000000000000e+00
4.310000000000000000e+02,-2.535735203734146848e-01,0.000000000000000000e+00
4.320000000000000000e+02,-2.795360870988171653e-01,0.000000000000000000e+00
4.330000000000000000e+02,-1.483254819906957567e-01,0.000000000000000000e+00
4.340000000000000000e+02,-1.012905700860766978e-01,0.000000000000000000e+00
4.350000000000000000e+02,1.059500504414388894e-01,0.000000000000000000e+00
4.360000000000000000e+02,1.614998560812716255e-01,0.000000000000000000e+00
4.370000000000000000e+02,4.545447912716994443e-01,0.000000000000000000e+00
4.380000000000000000e+02,6.468396022663914779e-01,0.000000000000000000e+00
4.390000000000000000e+02,1.038751739462081769e+00,0.000000000000000000e+00
4.400000000000000000e+02,1.147042250920921269e+00,0.000000000000000000e+00
4.410000000000000000e+02,1.215632210650005263e+00,0.000000000000000000e+00
4.420000000000000000e+02,7.081148954404288265e-01,0.000000000000000000e+00
4.430000000000000000e+02,3.913033556986580258e-02,0.000000000000000000e+00
4.440000000000000000e+02,-4.956923105867760415e-01,0.000000000000000000e+00
4.450000000000000000e+02,-7.591941365260997943e-01,0.000000000000000000e+00
4.460000000000000000e+02,-8.160585280005405728e-01,0.000000000000000000e+00
4.470000000000000000e+02,-8.074445065840704094e-01,0.000000000000000000e+00
4.480000000000000000e+02,-8.242281114989089552e-01,0.000000000000000000e+00
4.490000000000000000e+02,-7.144196990766039645e-01,0.000000000000000000e+00
4.500000000000000000e+02,-6.202398573789985603e-01,0.000000000000000000e+00
4.510000000000000000e+02,-6.287749648090286136e-01,0.000000000000000000e+00
4.520000000000000000e+02,-4.220453101434064047e-01,0.000000000000000000e+00
4.530000000000000000e+02,-3.730011941895213234e-01,0.000000000000000000e+00
4.540000000000000000e+02,-3.295527415276616745e-01,0.000000000000000000e+00
4.550000000000000000e+02,-2.295447778862833854e-01,0.000000000000000000e+00
4.560000000000000000e+02,-2.223245280620675668e-01,0.000000000000000000e+00
4.570000000000000000e+02,-2.553514414026202828e-01,0.000000000000000000e+00
4.580000000000000000e+02,-1.116052281827147191e-01,0.000000000000000000e+00
4.590000000000000000e+02,-1.598916434155933097e-01,0.000000000000000000e+00
4.600000000000000000e+02,-6.584621225463312133e-02,0.000000000000000000e+00
4.610000000000000000e+02,-9.499458525704086720e-02,0.000000000000000000e+00
4.620000000000000000e+02,-3.726898579621501506e-02,0.000000000000000000e+00
4.630000000000000000e+02,2.439742472063468476e-02,0.000000000000000000e+00
4.640000000000000000e+02,2.114957655413159943e-01,0.000000000000000000e+00
4.650000000000000000e+02,2.226758906162454588e-01,0.000000000000000000e+00
4.660000000000000000e+02,3.984710011839212584e-01,0.000000000000000000e+00
4.670000000000000000e+02,5.228225329939297783e-01,0.000000000000000000e+00
4.680000000000000000e+02,3.811788966897927122e-01,0.000000000000000000e+00
4.690000000000000000e+02,2.089420805365462541e-01,0.000000000000000000e+00
4.700000000000000000e+02,6.632493100162469013e-02,0.000000000000000000e+00
4.710000000000000000e+02,-9.138993868000566678e-02,0.000000000000000000e+00
4.720000000000000000e+02,9.355363311474967913e-02,0.000000000000000000e+00
4.730000000000000000e+02,-8.955497539207281366e-02,0.000000000000000000e+00
4.740000000000000000e+02,2.049937617447806226e-01,0.000000000000000000e+00
4.750000000000000000e+02,-4.417961604767889905e-01,0.000000000000000000e+00
4.760000000000000000e+02,3.394767046362401341e+00,0.000000000000000000e+00
4.770000000000000000e+02,4.181885583327620282e+00,0.000000000000000000e+00
4.780000000000000000e+02,-1.762226677956657328e+00,1.000000000000000000e+00
4.790000000000000000e+02,-8.505132829018590135e-01,0.000000000000000000e+00
4.800000000000000000e+02,-8.308860007822596039e-01,0.000000000000000000e+00
4.810000000000000000e+02,-3.858503262939445011e-01,0.000000000000000000e+00
4.820000000000000000e+02,-5.216212855026611805e-01,0.000000000000000000e+00
4.830000000000000000e+02,-2.078105062145555182e-01,0.000000000000000000e+00
4.840000000000000000e+02,-2.622397681037630379e-01,0.000000000000000000e+00
4.850000000000000000e+02,-1.556174784964271807e-01,0.000000000000000000e+00
4.860000000000000000e+02,-1.225282699014353105e-01,0.000000000000000000e+00
4.870000000000000000e+02,1.782781869251404694e-01,0.000000000000000000e+00
4.880000000000000000e+02,9.811640284300375547e-02,0.000000000000000000e+00
4.890000000000000000e+02,4.688713685197035685e-01,0.000000000000000000e+00
4.900000000000000000e+02,6.320000041544979741e-01,0.000000000000000000e+00
4.910000000000000000e+02,1.047239982429683636e+00,0.000000000000000000e+00
4.920000000000000000e+02,1.088875415639932509e+00,0.000000000000000000e+00
4.930000000000000000e+02,1.218087049076006956e+00,0.000000000000000000e+00
4.940000000000000000e+02,6.971458689345043647e-01,0.000000000000000000e+00
4.950000000000000000e+02,9.820372987218879950e-04,0.000000000000000000e+00
4.960000000000000000e+02,-5.207043257457947272e-01,0.000000000000000000e+00
4.970000000000000000e+02,-8.288944495578424165e-01,0.000000000000000000e+00
4.980000000000000000e+02,-8.995089155902407096e-01,0.000000000000000000e+00
4.990000000000000000e+02,-7.932340045133681183e-01,0.000000000000000000e+00
5.000000000000000000e+02,-8.771187358956140656e-01,0.000000000000000000e+00
5.010000000000000000e+02,-8.098908968233952121e-01,0.000000000000000000e+00
5.020000000000000000e+02,-6.901574214762008497e-01,0.000000000000000000e+00
5.030000000000000000e+02,-6.001988441496038940e-01,0.000000000000000000e+00
5.040000000000000000e+02,-4.993299563821450571e-01,0.000000000000000000e+00
5.050000000000000000e+02,-3.968110492520195431e-01,0.000000000000000000e+00
5.060000000000000000e+02,-3.191768773859297026e-01,0.000000000000000000e+00
5.070000000000000000e+02,-2.738355244514050213e-01,0.000000000000000000e+00
5.080000000000000000e+02,-1.917544268671321495e-01,0.000000000000000000e+00
5.090000000000000000e+02,-1.761100722303609867e-01,0.000000000000000000e+00
5.100000000000000000e+02,-1.998972425259099850e-01,0.000000000000000000e+00
5.110000000000000000e+02,-1.659918435260648861e-01,0.000000000000000000e+00
5.120000000000000000e+02,-5.503587365979387136e-02,0.000000000000000000e+00
5.130000000000000000e+02,-1.000912671304677592e-01,0.000000000000000000e+00
5.140000000000000000e+02,-1.175112784125242477e-01,0.000000000000000000e+00
5.150000000000000000e+02,-6.274108378824630461e-02,0.000000000000000000e+00
5.160000000000000000e+02,6.260144421761580646e-02,0.000000000000000000e+00
5.170000000000000000e+02,2.157376788580047944e-01,0.000000000000000000e+00
5.180000000000000000e+02,3.145163384141958507e-01,0.000000000000000000e+00
5.190000000000000000e+02,4.188829446233693354e-01,0.000000000000000000e+00
5.200000000000000000e+02,1.977244345966476802e-01,0.000000000000000000e+00
5.210000000000000000e+02,-3.362476827049055983e-02,0.000000000000000000e+00
5.220000000000000000e+02,-8.028217201431069039e-02,0.000000000000000000e+00
5.230000000000000000e+02,-1.224871473217646056e-01,0.000000000000000000e+00
5.240000000000000000e+02,-7.877748760722995403e-03,0.000000000000000000e+00
5.250000000000000000e+02,-2.252240504253621156e-01,0.000000000000000000e+00
5.260000000000000000e+02,9.211511534299937631e-02,0.000000000000000000e+00
5.270000000000000000e+02,-5.301776814301293328e-01,0.000000000000000000e+00
5.280000000000000000e+02,3.297319355461538759e+00,0.000000000000000000e+00
5.290000000000000000e+02,4.232223752088819069e+00,0.000000000000000000e+00
5.300000000000000000e+02,-1.891390825274094745e+00,1.000000000000000000e+00
5.310000000000000000e+02,-9.263203696042018320e-01,0.000000000000000000e+00
5.320000000000000000e+02,-1.022071011779113192e+00,0.000000000000000000e+00
5.330000000000000000e+02,-4.495186119430565341e-01,0.000000000000000000e+00
5.340000000000000000e+02,-6.130285501846670648e-01,0.000000000000000000e+00
5.350000000000000000e+02,-2.663579322568923047e-01,0.000000000000000000e+00
5.360000000000000000e+02,-4.330007380674097961e-01,0.000000000000000000e+00
5.370000000000000000e+02,-1.164422326827121573e-01,0.000000000000000000e+00
5.380000000000000000e+02,-2.658756097259332152e-01,0.000000000000000000e+00
5.390000000000000000e+02,8.678066657605069956e-02,0.000000000000000000e+00
5.400000000000000000e+02,9.907408138086819249e-02,0.000000000000000000e+00
5.410000000000000000e+02,3.977905110385610565e-01,0.000000000000000000e+00
5.420000000000000000e+02,5.431044159902710389e-01,0.000000000000000000e+00
5.430000000000000000e+02,1.098716583314976125e+00,0.000000000000000000e+00
5.440000000000000000e+02,1.103555497264602892e+00,0.000000000000000000e+00
5.450000000000000000e+02,1.286274179437425502e+00,0.000000000000000000e+00
5.460000000000000000e+02,6.075653710897769288e-01,0.000000000000000000e+00
5.470000000000000000e+02,7.282579009474780818e-02,0.000000000000000000e+00
5.480000000000000000e+02,-5.389978257091750935e-01,0.000000000000000000e+00
5.490000000000000000e+02,-7.805723695468171908e-01,0.000000000000000000e+00
5.500000000000000000e+02,-9.478753796892794847e-01,0.000000000000000000e+00
5.510000000000000000e+02,-7.978856514936912836e-01,0.000000000000000000e+00
5.520000000000000000e+02,-7.411431499146743374e-01,0.000000000000000000e+00
5.530000000000000000e+02,-6.537498777386603344e-01,0.000000000000000000e+00
5.540000000000000000e+02,-7.499803272919084440e-01,0.000000000000000000e+00
5.550000000000000000e+02,-5.528732516694861987e-01,0.000000000000000000e+00
5.560000000000000000e+02,-5.596617087595013862e-01,0.000000000000000000e+00
5.570000000000000000e+02,-3.273099881000296474e-01,0.000000000000000000e+00
5.580000000000000000e+02,-3.633047463910796249e-01,0.000000000000000000e+00
5.590000000000000000e+02,-1.461466264682725336e-01,0.000000000000000000e+00
5.600000000000000000e+02,-2.793636133675375111e-01,0.000000000000000000e+00
5.610000000000000000e+02,-1.924344222130661974e-01,0.000000000000000000e+00
5.620000000000000000e+02,-2.202783416606074185e-01,0.000000000000000000e+00
5.630000000000000000e+02,-9.475723645165910758e-02,0.000000000000000000e+00
5.640000000000000000e+02,-2.250179566214722815e-01,0.000000000000000000e+00
5.650000000000000000e+02,-7.062220968337540317e-02,0.000000000000000000e+00
5.660000000000000000e+02,-1.364691933676503155e-01,0.000000000000000000e+00
5.670000000000000000e+02,-6.062981227412033575e-02,0.000000000000000000e+00
5.680000000000000000e+02,1.646125088133534344e-03,0.000000000000000000e+00
5.690000000000000000e+02,1.723321018425001960e-01,0.000000000000000000e+00
5.700000000000000000e+02,2.058204934516087159e-01,0.000000000000000000e+00
5.710000000000000000e+02,5.012048037445734350e-01,0.000000000000000000e+00
5.720000000000000000e+02,2.664615593087364398e-01,0.000000000000000000e+00
5.730000000000000000e+02,1.330741534839558204e-01,0.000000000000000000e+00
5.740000000000000000e+02,-6.546132682401750724e-02,0.000000000000000000e+00
5.750000000000000000e+02,-8.512021644101423756e-02,0.000000000000000000e+00
5.760000000000000000e+02,-1.098156024697332679e-02,0.000000000000000000e+00
5.770000000000000000e+02,-2.487118346018514156e-02,0.000000000000000000e+00
5.780000000000000000e+02,1.076022241818421765e-01,0.000000000000000000e+00
5.790000000000000000e+02,-2.544305149854772519e-01,0.000000000000000000e+00
5.800000000000000000e+02,2.173469021300652670e+00,0.000000000000000000e+00
5.810000000000000000e+02,4.990964297823730078e+00,0.000000000000000000e+00
5.820000000000000000e+02,-1.092910607600671824e+00,1.000000000000000000e+00
5.830000000000000000e+02,-1.311697697916000438e+00,0.000000000000000000e+00
5.840000000000000000e+02,-6.778879360457719105e-01,0.000000000000000000e+00
5.850000000000000000e+02,-4.531799200680047823e-01,0.000000000000000000e+00
5.860000000000000000e+02,-3.757704056054760877e-01,0.000000000000000000e+00
5.870000000000000000e+02,-1.781585531249845755e-01,0.000000000000000000e+00
5.880000000000000000e+02,-2.419156419210309883e-01,0.000000000000000000e+00
5.890000000000000000e+02,-4.204883418275317392e-02,0.000000000000000000e+00
5.900000000000000000e+02,-4.254761979014554107e-02,0.000000000000000000e+00
5.910000000000000000e+02,1.671614012093445567e-01,0.000000000000000000e+00
5.920000000000000000e+02,2.482205327205204981e-01,0.000000000000000000e+00
5.930000000000000000e+02,5.156033624022275941e-01,0.000000000000000000e+00
5.940000000000000000e+02,6.337053154616328898e-01,0.000000000000000000e+00
5.950000000000000000e+02,1.054543883275355087e+00,0.000000000000000000e+00
5.960000000000000000e+02,1.258061382528374628e+00,0.000000000000000000e+00
5.970000000000000000e+02,1.330381618473273964e+00,0.000000000000000000e+00
5.980000000000000000e+02,8.999752620820176130e-01,0.000000000000000000e+00
5.990000000000000000e+02,3.275561764797541575e-01,0.000000000000000000e+00
6.000000000000000000e+02,-3.497328999943474792e-01,0.000000000000000000e+00
6.010000000000000000e+02,-5.531062970371971588e-01,0.000000000000000000e+00
6.020000000000000000e+02,-7.760466975403443879e-01,0.000000000000000000e+00
6.030000000000000000e+02,-6.571916849647307934e-01,0.000000000000000000e+00
6.040000000000000000e+02,-7.515381301850254658e-01,0.000000000000000000e+00
6.050000000000000000e+02,-6.530868349237527459e-01,0.000000000000000000e+00
6.060000000000000000e+02,-5.808718664452598990e-01,0.000000000000000000e+00
6.070000000000000000e+02,-4.429976969475473147e-01,0.000000000000000000e+00
6.080000000000000000e+02,-4.328333795020712360e-01,0.000000000000000000e+00
6.090000000000000000e+02,-2.777578151942827200e-01,0.000000000000000000e+00
6.100000000000000000e+02,-2.619835569380210560e-01,0.000000000000000000e+00
6.110000000000000000e+02,-1.741719762508588121e-01,0.000000000000000000e+00
6.120000000000000000e+02,-2.131470440938818267e-01,0.000000000000000000e+00
6.130000000000000000e+02,-8.350797040096512303e-02,0.000000000000000000e+00
6.140000000000000000e+02,-1.653033883162596529e-01,0.000000000000000000e+00
6.150000000000000000e+02,-1.193407438867468418e-01,0.000000000000000000e+00
6.160000000000000000e+02,-1.504968755151186166e-01,0.000000000000000000e+00
6.170000000000000000e+02,-9.846228865993282564e-02,0.000000000000000000e+00
6.180000000000000000e+02,-1.788961502743074694e-01,0.000000000000000000e+00
6.190000000000000000e+02,-5.373867042472098288e-02,0.000000000000000000e+00
6.200000000000000000e+02,-1.466975879307327868e-01,0.000000000000000000e+00
6.210000000000000000e+02,1.077488066042803921e-01,0.000000000000000000e+00
6.220000000000000000e+02,7.570741528821763044e-02,0.000000000000000000e+00
6.230000000000000000e+02,3.195280802507198814e-01,0.000000000000000000e+00
6.240000000000000000e+02,1.578834002986671814e-01,0.000000000000000000e+00
6.250000000000000000e+02,1.364126560522440634e-01,0.000000000000000000e+00
6.260000000000000000e+02,-1.986442285342160663e-01,0.000000000000000000e+00
6.270000000000000000e+02,-1.830650350333540011e-01,0.000000000000000000e+00
6.280000000000000000e+02,-1.885728538291437384e-01,0.000000000000000000e+00
6.290000000000000000e+02,-1.242288018878001110e-01,0.000000000000000000e+00
6.300000000000000000e+02,-7.215565267933250759e-02,0.000000000000000000e+00
6.310000000000000000e+02,-4.085163441055582045e-01,0.000000000000000000e+00
6.320000000000000000e+02,1.450021208105092274e+00,0.000000000000000000e+00
6.330000000000000000e+02,4.859373111379790444e+00,0.000000000000000000e+00
6.340000000000000000e+02,-9.211097040005750136e-01,1.000000000000000000e+00
6.350000000000000000e+02,-1.522633852904082818e+00,0.000000000000000000e+00
6.360000000000000000e+02,-8.080875482822159617e-01,0.000000000000000000e+00
6.370000000000000000e+02,-6.469428028067435443e-01,0.000000000000000000e+00
6.380000000000000000e+02,-6.472484306919455976e-01,0.000000000000000000e+00
6.390000000000000000e+02,-4.072142587944551084e-01,0.000000000000000000e+00
6.400000000000000000e+02,-4.581436882820423273e-01,0.000000000000000000e+00
6.410000000000000000e+02,-2.105949517337045440e-01,0.000000000000000000e+00
6.420000000000000000e+02,-2.657925618711573512e-01,0.000000000000000000e+00
6.430000000000000000e+02,-8.960459166420124688e-02,0.000000000000000000e+00
6.440000000000000000e+02,-1.286793489218479407e-02,0.000000000000000000e+00
6.450000000000000000e+02,2.974483849348142916e-01,0.000000000000000000e+00
6.460000000000000000e+02,4.856569831233801815e-01,0.000000000000000000e+00
6.470000000000000000e+02,8.585609556348912097e-01,0.000000000000000000e+00
6.480000000000000000e+02,9.317336137885752212e-01,0.000000000000000000e+00
6.490000000000000000e+02,1.236185745243991940e+00,0.000000000000000000e+00
6.500000000000000000e+02,7.772323556124275390e-01,0.000000000000000000e+00
6.510000000000000000e+02,1.918148054998566054e-01,0.000000000000000000e+00
6.520000000000000000e+02,-3.470152202017849352e-01,0.000000000000000000e+00
6.530000000000000000e+02,-6.675402670854899689e-01,0.000000000000000000e+00
6.540000000000000000e+02,-1.031240877019606206e+00,0.000000000000000000e+00
6.550000000000000000e+02,-8.093051870446223983e-01,0.000000000000000000e+00
6.560000000000000000e+02,-8.890799105948214986e-01,0.000000000000000000e+00
6.570000000000000000e+02,-7.197515406024586060e-01,0.000000000000000000e+00
6.580000000000000000e+02,-7.747338436212265478e-01,0.000000000000000000e+00
6.590000000000000000e+02,-5.967190393624608458e-01,0.000000000000000000e+00
6.600000000000000000e+02,-6.438462798143550492e-01,0.000000000000000000e+00
6.610000000000000000e+02,-4.175960978258541623e-01,0.000000000000000000e+00
6.620000000000000000e+02,-4.547770360865503458e-01,0.000000000000000000e+00
6.630000000000000000e+02,-1.608447439932048084e-01,0.000000000000000000e+00
6.640000000000000000e+02,-2.475443166180330556e-01,0.000000000000000000e+00
6.650000000000000000e+02,-2.376482331081566646e-01,0.000000000000000000e+00
6.660000000000000000e+02,-2.600083475383334619e-01,0.000000000000000000e+00
6.670000000000000000e+02,-1.132219235664525536e-01,0.000000000000000000e+00
6.680000000000000000e+02,-2.108596402893526123e-01,0.000000000000000000e+00
6.690000000000000000e+02,-5.082155646124521947e-02,0.000000000000000000e+00
6.700000000000000000e+02,-4.052108823333231552e-02,0.000000000000000000e+00
6.710000000000000000e+02,2.716799625306216132e-02,0.000000000000000000e+00
6.720000000000000000e+02,-7.323547231510189881e-02,0.000000000000000000e+00
6.730000000000000000e+02,2.914552273692659345e-01,0.000000000000000000e+00
6.740000000000000000e+02,1.401996435083828207e-01,0.000000000000000000e+00
6.750000000000000000e+02,4.862960138162704116e-01,0.000000000000000000e+00
6.760000000000000000e+02,3.326323501135029503e-01,0.000000000000000000e+00
6.770000000000000000e+02,2.649608064740308078e-01,0.000000000000000000e+00
6.780000000000000000e+02,-3.738326586622056635e-02,0.000000000000000000e+00
6.790000000000000000e+02,-2.805473462801115481e-02,0.000000000000000000e+00
6.800000000000000000e+02,-1.897842021613278807e-01,0.000000000000000000e+00
6.810000000000000000e+02,-4.003815323348014141e-03,0.000000000000000000e+00
6.820000000000000000e+02,-1.696408656459974240e-01,0.000000000000000000e+00
6.830000000000000000e+02,5.491910523924380810e-02,0.000000000000000000e+00
6.840000000000000000e+02,-6.186451762501721935e-02,0.000000000000000000e+00
6.850000000000000000e+02,4.862019432772410887e+00,0.000000000000000000e+00
6.860000000000000000e+02,2.148023853875756561e+00,1.000000000000000000e+00
6.870000000000000000e+02,-1.997304170027021319e+00,0.000000000000000000e+00
6.880000000000000000e+02,-6.745278368052327611e-01,0.000000000000000000e+00
6.890000000000000000e+02,-8.495276465921065556e-01,0.000000000000000000e+00
6.900000000000000000e+02,-4.175915197402748635e-01,0.000000000000000000e+00
6.910000000000000000e+02,-5.441135150007870847e-01,0.000000000000000000e+00
6.920000000000000000e+02,-1.889006828685181605e-01,0.000000000000000000e+00
6.930000000000000000e+02,-2.656642329001968617e-01,0.000000000000000000e+00
6.940000000000000000e+02,-4.265563830467895834e-02,0.000000000000000000e+00
6.950000000000000000e+02,-4.559272518348089082e-02,0.000000000000000000e+00
6.960000000000000000e+02,1.719575684822800543e-01,0.000000000000000000e+00
6.970000000000000000e+02,2.598448777134308996e-01,0.000000000000000000e+00
6.980000000000000000e+02,5.365125739579498232e-01,0.000000000000000000e+00
6.990000000000000000e+02,8.981375381489176135e-01,0.000000000000000000e+00
7.000000000000000000e+02,1.200340001384429645e+00,0.000000000000000000e+00
7.010000000000000000e+02,1.259640062069842248e+00,0.000000000000000000e+00
7.020000000000000000e+02,1.217310841133453891e+00,0.000000000000000000e+00
7.030000000000000000e+02,6.789079887236975086e-01,0.000000000000000000e+00
7.040000000000000000e+02,-7.499239756384440403e-02,0.000000000000000000e+00
7.050000000000000000e+02,-4.653307505672564237e-01,0.000000000000000000e+00
7.060000000000000000e+02,-7.096121433816824364e-01,0.000000000000000000e+00
7.070000000000000000e+02,-7.692271765033960040e-01,0.000000000000000000e+00
7.080000000000000000e+02,-6.938259784162550403e-01,0.000000000000000000e+00
7.090000000000000000e+02,-6.399901973050491355e-01,0.000000000000000000e+00
7.100000000000000000e+02,-6.286237045480267405e-01,0.000000000000000000e+00
7.110000000000000000e+02,-5.474141888217491925e-01,0.000000000000000000e+00
7.120000000000000000e+02,-5.405257886223885366e-01,0.000000000000000000e+00
7.130000000000000000e+02,-4.404645067938884884e-01,0.000000000000000000e+00
7.140000000000000000e+02,-3.790804425577827264e-01,0.000000000000000000e+00
7.150000000000000000e+02,-2.340623951668770464e-01,0.000000000000000000e+00
7.160000000000000000e+02,-2.547971234556745679e-01,0.000000000000000000e+00
7.170000000000000000e+02,-1.545180005519591893e-01,0.000000000000000000e+00
7.180000000000000000e+02,-2.060547859939791671e-01,0.000000000000000000e+00
7.190000000000000000e+02,-1.091379740628539430e-01,0.000000000000000000e+00
7.200000000000000000e+02,-1.634044251728239416e-01,0.000000000000000000e+00
7.210000000000000000e+02,-1.388806818855265746e-01,0.000000000000000000e+00
7.220000000000000000e+02,-7.234616310476334015e-03,0.000000000000000000e+00
7.230000000000000000e+02,4.583144963721158538e-02,0.000000000000000000e+00
7.240000000000000000e+02,-4.276508977287400703e-02,0.000000000000000000e+00
7.250000000000000000e+02,1.120761871103040791e-01,0.000000000000000000e+00
7.260000000000000000e+02,1.689961138833023513e-01,0.000000000000000000e+00
7.270000000000000000e+02,4.512963468697574476e-01,0.000000000000000000e+00
7.280000000000000000e+02,3.850366880760054400e-01,0.000000000000000000e+00
7.290000000000000000e+02,3.172032057801671967e-01,0.000000000000000000e+00
7.300000000000000000e+02,9.570175977001241230e-02,0.000000000000000000e+00
7.310000000000000000e+02,-5.016852020953278812e-02,0.000000000000000000e+00
7.320000000000000000e+02,-1.405905956106237309e-01,0.000000000000000000e+00
7.330000000000000000e+02,3.837190423493735958e-02,0.000000000000000000e+00
7.340000000000000000e+02,-2.150759327821128164e-01,0.000000000000000000e+00
7.350000000000000000e+02,2.033794049458641229e-01,0.000000000000000000e+00
7.360000000000000000e+02,-5.378368168300484697e-01,0.000000000000000000e+00
7.370000000000000000e+02,3.314297178243888808e+00,0.000000000000000000e+00
7.380000000000000000e+02,4.259239922676498757e+00,0.000000000000000000e+00
7.390000000000000000e+02,-1.797527484768312034e+00,1.000000000000000000e+00
7.400000000000000000e+02,-8.608208058914652572e-01,0.000000000000000000e+00
7.410000000000000000e+02,-9.360121378141739168e-01,0.000000000000000000e+00
7.420000000000000000e+02,-5.016829246290485100e-01,0.000000000000000000e+00
7.430000000000000000e+02,-5.588147524117293985e-01,0.000000000000000000e+00
7.440000000000000000e+02,-2.710839743868227458e-01,0.000000000000000000e+00
7.450000000000000000e+02,-3.168083028978105342e-01,0.000000000000000000e+00
7.460000000000000000e+02,-1.883545638696372537e-01,0.000000000000000000e+00
7.470000000000000000e+02,-1.833152510186691619e-01,0.000000000000000000e+00
7.480000000000000000e+02,5.368131631562313849e-02,0.000000000000000000e+00
7.490000000000000000e+02,5.818595160181723458e-02,0.000000000000000000e+00
7.500000000000000000e+02,4.530484584106655443e-01,0.000000000000000000e+00
7.510000000000000000e+02,5.992416375614082469e-01,0.000000000000000000e+00
7.520000000000000000e+02,1.003074561222328187e+00,0.000000000000000000e+00
7.530000000000000000e+02,1.220250775521007691e+00,0.000000000000000000e+00
7.540000000000000000e+02,1.225158042450391171e+00,0.000000000000000000e+00
7.550000000000000000e+02,7.749431167987290703e-01,0.000000000000000000e+00
7.560000000000000000e+02,8.967221607392683591e-02,0.000000000000000000e+00
7.570000000000000000e+02,-4.923147353297670503e-01,0.000000000000000000e+00
7.580000000000000000e+02,-7.862941805087311220e-01,0.000000000000000000e+00
7.590000000000000000e+02,-8.464660282952619630e-01,0.000000000000000000e+00
7.600000000000000000e+02,-8.310583095591407288e-01,0.000000000000000000e+00
7.610000000000000000e+02,-8.471698971808274692e-01,0.000000000000000000e+00
7.620000000000000000e+02,-7.294351359864486017e-01,0.000000000000000000e+00
7.630000000000000000e+02,-7.089568208907979230e-01,0.000000000000000000e+00
7.640000000000000000e+02,-6.353911838265843270e-01,0.000000000000000000e+00
7.650000000000000000e+02,-5.072387514518678087e-01,0.000000000000000000e+00
7.660000000000000000e+02,-4.509939186622535789e-01,0.000000000000000000e+00
7.670000000000000000e+02,-3.875116346170390247e-01,0.000000000000000000e+00
7.680000000000000000e+02,-2.958993964494292528e-01,0.000000000000000000e+00
7.690000000000000000e+02,-2.511944473974664360e-01,0.000000000000000000e+00
7.700000000000000000e+02,-2.426687019592081995e-01,0.000000000000000000e+00
7.710000000000000000e+02,-1.649033893179686905e-01,0.000000000000000000e+00
7.720000000000000000e+02,-2.260097655675201989e-01,0.000000000000000000e+00
7.730000000000000000e+02,-1.464456048088090823e-01,0.000000000000000000e+00
7.740000000000000000e+02,-9.589700651724260283e-02,0.000000000000000000e+00
7.750000000000000000e+02,-3.102076909614987291e-02,0.000000000000000000e+00
7.760000000000000000e+02,-2.871903355632889759e-02,0.000000000000000000e+00
7.770000000000000000e+02,7.640625557508951005e-02,0.000000000000000000e+00
7.780000000000000000e+02,2.833422281246813501e-01,0.000000000000000000e+00
7.790000000000000000e+02,3.652581047885053445e-01,0.000000000000000000e+00
7.800000000000000000e+02,5.693338427321142925e-01,0.000000000000000000e+00
7.810000000000000000e+02,3.613019254041497930e-01,0.000000000000000000e+00
7.820000000000000000e+02,3.090579476963931649e-01,0.000000000000000000e+00
7.830000000000000000e+02,1.803827163370366055e-02,0.000000000000000000e+00
7.840000000000000000e+02,-8.170460642768222204e-02,0.000000000000000000e+00
7.850000000000000000e+02,1.398123212566914908e-01,0.000000000000000000e+00
7.860000000000000000e+02,-6.158664705534529216e-02,0.000000000000000000e+00
7.870000000000000000e+02,2.492336288352543783e-01,0.000000000000000000e+00
7.880000000000000000e+02,-3.780713668512918901e-01,0.000000000000000000e+00
7.890000000000000000e+02,2.583374934982047844e+00,0.000000000000000000e+00
7.900000000000000000e+02,5.163783421145883956e+00,0.000000000000000000e+00
7.910000000000000000e+02,-1.205602755278843974e+00,1.000000000000000000e+00
7.920000000000000000e+02,-1.065430533317437867e+00,0.000000000000000000e+00
7.930000000000000000e+02,-6.861784682894002119e-01,0.000000000000000000e+00
7.940000000000000000e+02,-4.057098174867993512e-01,0.000000000000000000e+00
7.950000000000000000e+02,-4.062367560130404343e-01,0.000000000000000000e+00
7.960000000000000000e+02,-1.153639811026207218e-01,0.000000000000000000e+00
7.970000000000000000e+02,-8.413888734821395321e-02,0.000000000000000000e+00
7.980000000000000000e+02,-1.764213131652082531e-02,0.000000000000000000e+00
7.990000000000000000e+02,9.650781204884181785e-02,0.000000000000000000e+00
8.000000000000000000e+02,1.672205739148957537e-01,0.000000000000000000e+00
8.010000000000000000e+02,2.990149432785518258e-01,0.000000000000000000e+00
8.020000000000000000e+02,6.054650577524665067e-01,0.000000000000000000e+00
8.030000000000000000e+02,8.332876495175772780e-01,0.000000000000000000e+00
8.040000000000000000e+02,1.136207923965145694e+00,0.000000000000000000e+00
8.050000000000000000e+02,1.394805781359682362e+00,0.000000000000000000e+00
8.060000000000000000e+02,1.415455351559113062e+00,0.000000000000000000e+00
8.070000000000000000e+02,1.052073451377335100e+00,0.000000000000000000e+00
8.080000000000000000e+02,3.600133371673810978e-01,0.000000000000000000e+00
8.090000000000000000e+02,-1.947063701402693414e-01,0.000000000000000000e+00
8.100000000000000000e+02,-6.444970315746750833e-01,0.000000000000000000e+00
8.110000000000000000e+02,-7.791465474615578701e-01,0.000000000000000000e+00
8.120000000000000000e+02,-6.658616273467173885e-01,0.000000000000000000e+00
8.130000000000000000e+02,-7.277805245926356470e-01,0.000000000000000000e+00
8.140000000000000000e+02,-5.195577676115871180e-01,0.000000000000000000e+00
8.150000000000000000e+02,-5.831166770958401413e-01,0.000000000000000000e+00
8.160000000000000000e+02,-5.229246782148855299e-01,0.000000000000000000e+00
8.170000000000000000e+02,-3.491553647638809266e-01,0.000000000000000000e+00
8.180000000000000000e+02,-3.731111122688392512e-01,0.000000000000000000e+00
8.190000000000000000e+02,-3.588652807032157166e-01,0.000000000000000000e+00
8.200000000000000000e+02,-2.344205399596491213e-01,0.000000000000000000e+00
8.210000000000000000e+02,-2.843616156859334332e-01,0.000000000000000000e+00
8.220000000000000000e+02,-3.578586839516457174e-01,0.000000000000000000e+00
8.230000000000000000e+02,-2.846487171632138824e-01,0.000000000000000000e+00
8.240000000000000000e+02,-3.606794871900456112e-01,0.000000000000000000e+00
8.250000000000000000e+02,-2.955347037228313600e-01,0.000000000000000000e+00
8.260000000000000000e+02,-3.840775844748108847e-01,0.000000000000000000e+00
8.270000000000000000e+02,-3.254143518325862683e-01,0.000000000000000000e+00
8.280000000000000000e+02,-3.213931427655672968e-01,0.000000000000000000e+00
8.290000000000000000e+02,-1.530175819914738888e-01,0.000000000000000000e+00
8.300000000000000000e+02,-5.852071928634896419e-02,0.000000000000000000e+00
8.310000000000000000e+02,2.618149934929986378e-02,0.000000000000000000e+00
8.320000000000000000e+02,1.569317484321580136e-01,0.000000000000000000e+00
8.330000000000000000e+02,3.894522338059630551e-02,0.000000000000000000e+00
8.340000000000000000e+02,-2.784665666586049748e-01,0.000000000000000000e+00
8.350000000000000000e+02,-3.182931338916409891e-01,0.000000000000000000e+00
8.360000000000000000e+02,-4.146672363960223762e-01,0.000000000000000000e+00
8.370000000000000000e+02,-2.358409252079275431e-01,0.000000000000000000e+00
8.380000000000000000e+02,-4.382931112441064148e-01,0.000000000000000000e+00
8.390000000000000000e+02,-2.149640511953190003e-01,0.000000000000000000e+00
8.400000000000000000e+02,-6.851003962060462360e-01,0.000000000000000000e+00
8.410000000000000000e+02,3.003893159099977783e+00,0.000000000000000000e+00
8.420000000000000000e+02,3.768806136251290351e+00,0.000000000000000000e+00
8.430000000000000000e+02,-2.286171182788159228e+00,1.000000000000000000e+00
8.440000000000000000e+02,-1.247060189325687407e+00,0.000000000000000000e+00
8.450000000000000000e+02,-1.139039138397949680e+00,0.000000000000000000e+00
8.460000000000000000e+02,-7.108686219216099333e-01,0.000000000000000000e+00
8.470000000000000000e+02,-8.541430235338142163e-01,0.000000000000000000e+00
8.480000000000000000e+02,-4.932162236069999040e-01,0.000000000000000000e+00
8.490000000000000000e+02,-6.104235514240313742e-01,0.000000000000000000e+00
8.500000000000000000e+02,-3.664911015954075979e-01,0.000000000000000000e+00
8.510000000000000000e+02,-4.706111601997132188e-01,0.000000000000000000e+00
8.520000000000000000e+02,-1.601747077454427903e-01,0.000000000000000000e+00
8.530000000000000000e+02,-2.626118737977816142e-01,0.000000000000000000e+00
8.540000000000000000e+02,2.207139716522807660e-01,0.000000000000000000e+00
8.550000000000000000e+02,2.884867617898903003e-01,0.000000000000000000e+00
8.560000000000000000e+02,8.443155794148676785e-01,0.000000000000000000e+00
8.570000000000000000e+02,8.681266633628976770e-01,0.000000000000000000e+00
8.580000000000000000e+02,9.657528191739054302e-01,0.000000000000000000e+00
8.590000000000000000e+02,3.950923507615677899e-01,0.000000000000000000e+00
8.600000000000000000e+02,-1.900816105862453975e-01,0.000000000000000000e+00
8.610000000000000000e+02,-7.918330464233336308e-01,0.000000000000000000e+00
8.620000000000000000e+02,-1.008875200308066544e+00,0.000000000000000000e+00
8.630000000000000000e+02,-1.094926108420383848e+00,0.000000000000000000e+00
8.640000000000000000e+02,-1.057687581943826727e+00,0.000000000000000000e+00
8.650000000000000000e+02,-1.086216504178142639e+00,0.000000000000000000e+00
8.660000000000000000e+02,-9.595691282920288945e-01,0.000000000000000000e+00
8.670000000000000000e+02,-8.918377165418641672e-01,0.000000000000000000e+00
8.680000000000000000e+02,-7.312166930479971905e-01,0.000000000000000000e+00
8.690000000000000000e+02,-6.587406173990196789e-01,0.000000000000000000e+00
8.700000000000000000e+02,-5.523278116600783827e-01,0.000000000000000000e+00
8.710000000000000000e+02,-4.903995852745737238e-01,0.000000000000000000e+00
8.720000000000000000e+02,-3.387415084211357619e-01,0.000000000000000000e+00
8.730000000000000000e+02,-3.821926406949897603e-01,0.000000000000000000e+00
8.740000000000000000e+02,-2.158752755686575431e-01,0.000000000000000000e+00
8.750000000000000000e+02,-3.295431934317644695e-01,0.000000000000000000e+00
8.760000000000000000e+02,-9.637657681081199246e-02,0.000000000000000000e+00
8.770000000000000000e+02,-2.047556307333431580e-01,0.000000000000000000e+00
8.780000000000000000e+02,-5.520034345060898309e-03,0.000000000000000000e+00
8.790000000000000000e+02,-6.051844650074744009e-02,0.000000000000000000e+00
8.800000000000000000e+02,1.337076845035951034e-01,0.000000000000000000e+00
8.810000000000000000e+02,1.126360821824776565e-01,0.000000000000000000e+00
8.820000000000000000e+02,5.131207733408768012e-01,0.000000000000000000e+00
8.830000000000000000e+02,3.639089152435370234e-01,0.000000000000000000e+00
8.840000000000000000e+02,7.646167981095701727e-01,0.000000000000000000e+00
8.850000000000000000e+02,6.986780926859015306e-01,0.000000000000000000e+00
8.860000000000000000e+02,5.845845344427645918e-01,0.000000000000000000e+00
8.870000000000000000e+02,2.875969945507603764e-01,0.000000000000000000e+00
8.880000000000000000e+02,3.631588665157874929e-01,0.000000000000000000e+00
8.890000000000000000e+02,1.885180444958723944e-01,0.000000000000000000e+00
8.900000000000000000e+02,4.769685813563591670e-01,0.000000000000000000e+00
8.910000000000000000e+02,2.995230426330077189e-01,0.000000000000000000e+00
8.920000000000000000e+02,2.185203310940838917e-01,0.000000000000000000e+00
8.930000000000000000e+02,1.146276501219628541e+00,0.000000000000000000e+00
8.940000000000000000e+02,5.884503251337189766e+00,0.000000000000000000e+00
8.950000000000000000e+02,1.107896170210243003e+00,1.000000000000000000e+00
8.960000000000000000e+02,-1.402137442029907755e+00,0.000000000000000000e+00
8.970000000000000000e+02,-2.490450091291079859e-01,0.000000000000000000e+00
8.980000000000000000e+02,-3.849349152281107966e-01,0.000000000000000000e+00
8.990000000000000000e+02,-5.711751884881719615e-02,0.000000000000000000e+00
9.000000000000000000e+02,-8.797924552592543967e-02,0.000000000000000000e+00
9.010000000000000000e+02,3.702719995474022113e-02,0.000000000000000000e+00
9.020000000000000000e+02,3.927189462191244679e-02,0.000000000000000000e+00
9.030000000000000000e+02,1.934062007248944781e-01,0.000000000000000000e+00
9.040000000000000000e+02,2.359062124487898982e-01,0.000000000000000000e+00
9.050000000000000000e+02,4.171921747755048537e-01,0.000000000000000000e+00
9.060000000000000000e+02,4.806543540405872617e-01,0.000000000000000000e+00
9.070000000000000000e+02,7.796002558161876372e-01,0.000000000000000000e+00
9.080000000000000000e+02,1.099869006659967452e+00,0.000000000000000000e+00
9.090000000000000000e+02,1.313616099863437636e+00,0.000000000000000000e+00
9.100000000000000000e+02,1.573644647491507342e+00,0.000000000000000000e+00
9.110000000000000000e+02,1.174717270298695437e+00,0.000000000000000000e+00
9.120000000000000000e+02,4.173442600519740031e-01,0.000000000000000000e+00
9.130000000000000000e+02,-5.384893225586799559e-02,0.000000000000000000e+00
9.140000000000000000e+02,-5.581249223938559156e-01,0.000000000000000000e+00
9.150000000000000000e+02,-7.266765606741855121e-01,0.000000000000000000e+00
9.160000000000000000e+02,-7.233237581189327914e-01,0.000000000000000000e+00
9.170000000000000000e+02,-7.400414814561595556e-01,0.000000000000000000e+00
9.180000000000000000e+02,-6.536865785963776876e-01,0.000000000000000000e+00
9.190000000000000000e+02,-6.196207305107619412e-01,0.000000000000000000e+00
9.200000000000000000e+02,-5.529695391487001732e-01,0.000000000000000000e+00
9.210000000000000000e+02,-5.271594868121820543e-01,0.000000000000000000e+00
9.220000000000000000e+02,-4.656426397347125379e-01,0.000000000000000000e+00
9.230000000000000000e+02,-3.691480448791137348e-01,0.000000000000000000e+00
9.240000000000000000e+02,-2.786619533114192970e-01,0.000000000000000000e+00
9.250000000000000000e+02,-2.933691219557222896e-01,0.000000000000000000e+00
9.260000000000000000e+02,-1.907692478057566310e-01,0.000000000000000000e+00
9.270000000000000000e+02,-2.135156425946295178e-01,0.000000000000000000e+00
9.280000000000000000e+02,-1.715548719583691317e-01,0.000000000000000000e+00
9.290000000000000000e+02,-2.178910677994046752e-01,0.000000000000000000e+00
9.300000000000000000e+02,-1.941759640646042728e-01,0.000000000000000000e+00
9.310000000000000000e+02,-9.899010920489295651e-02,0.000000000000000000e+00
9.320000000000000000e+02,3.845822420363700922e-02,0.000000000000000000e+00
9.330000000000000000e+02,-1.246211288924246596e-01,0.000000000000000000e+00
9.340000000000000000e+02,2.060566091941348765e-01,0.000000000000000000e+00
9.350000000000000000e+02,1.457976140595384495e-01,0.000000000000000000e+00
9.360000000000000000e+02,4.268723888393186616e-01,0.000000000000000000e+00
9.370000000000000000e+02,2.828429314343083312e-01,0.000000000000000000e+00
9.380000000000000000e+02,2.559177307777001920e-01,0.000000000000000000e+00
9.390000000000000000e+02,-9.032036010291971673e-02,0.000000000000000000e+00
9.400000000000000000e+02,-1.922928143863915362e-01,0.000000000000000000e+00
9.410000000000000000e+02,-2.539118810002730653e-01,0.000000000000000000e+00
9.420000000000000000e+02,-4.671519444563695250e-02,0.000000000000000000e+00
9.430000000000000000e+02,-2.038711631086713161e-01,0.000000000000000000e+00
9.440000000000000000e+02,-4.088935887488302084e-02,0.000000000000000000e+00
9.450000000000000000e+02,2.381504037425166698e-02,0.000000000000000000e+00
9.460000000000000000e+02,5.076446917625209387e+00,0.000000000000000000e+00
9.470000000000000000e+02,1.657487995757066512e+00,1.000000000000000000e+00
9.480000000000000000e+02,-2.296996930540144977e+00,0.000000000000000000e+00
9.490000000000000000e+02,-5.756442778982986397e-01,0.000000000000000000e+00
9.500000000000000000e+02,-9.322297398570096316e-01,0.000000000000000000e+00
9.510000000000000000e+02,-3.975497895611200261e-01,0.000000000000000000e+00
9.520000000000000000e+02,-6.328223404069536207e-01,0.000000000000000000e+00
9.530000000000000000e+02,-2.342407355973961658e-01,0.000000000000000000e+00
9.540000000000000000e+02,-4.051966250995468477e-01,0.000000000000000000e+00
9.550000000000000000e+02,-1.040880039499031962e-01,0.000000000000000000e+00
9.560000000000000000e+02,-1.813982842084423397e-01,0.000000000000000000e+00
9.570000000000000000e+02,1.089223794706132287e-01,0.000000000000000000e+00
9.580000000000000000e+02,1.540579563492504578e-01,0.000000000000000000e+00
9.590000000000000000e+02,4.376104269321529072e-01,0.000000000000000000e+00
9.600000000000000000e+02,7.338991380613911764e-01,0.000000000000000000e+00
9.610000000000000000e+02,9.820201630592487740e-01,0.000000000000000000e+00
9.620000000000000000e+02,1.203448673420729476e+00,0.000000000000000000e+00
9.630000000000000000e+02,9.910251253484844147e-01,0.000000000000000000e+00
9.640000000000000000e+02,3.768566915079445967e-01,0.000000000000000000e+00
9.650000000000000000e+02,-2.393954307097047873e-01,0.000000000000000000e+00
9.660000000000000000e+02,-6.706383603329975074e-01,0.000000000000000000e+00
9.670000000000000000e+02,-9.384523714320929244e-01,0.000000000000000000e+00
9.680000000000000000e+02,-1.039775248158164578e+00,0.000000000000000000e+00
9.690000000000000000e+02,-9.721792353803786479e-01,0.000000000000000000e+00
9.700000000000000000e+02,-8.372864537534349116e-01,0.000000000000000000e+00
9.710000000000000000e+02,-7.379647522028294215e-01,0.000000000000000000e+00
9.720000000000000000e+02,-7.011196052739328000e-01,0.000000000000000000e+00
9.730000000000000000e+02,-7.935358222641089032e-01,0.000000000000000000e+00
9.740000000000000000e+02,-4.872441536762708858e-01,0.000000000000000000e+00
9.750000000000000000e+02,-4.742306307890262751e-01,0.000000000000000000e+00
9.760000000000000000e+02,-4.724638260542444734e-01,0.000000000000000000e+00
9.770000000000000000e+02,-3.519858714464382810e-01,0.000000000000000000e+00
9.780000000000000000e+02,-3.309350890021905411e-01,0.000000000000000000e+00
9.790000000000000000e+02,-2.845790579419198996e-01,0.000000000000000000e+00
9.800000000000000000e+02,-2.664326559456666743e-01,0.000000000000000000e+00
9.810000000000000000e+02,-1.599877059071283802e-01,0.000000000000000000e+00
9.820000000000000000e+02,-2.179195261155348062e-01,0.000000000000000000e+00
9.830000000000000000e+02,-2.451786629902745485e-01,0.000000000000000000e+00
9.840000000000000000e+02,-8.986284563443683315e-02,0.000000000000000000e+00
9.850000000000000000e+02,-1.558977269284189116e-01,0.000000000000000000e+00
9.860000000000000000e+02,1.407674317343645676e-01,0.000000000000000000e+00
9.870000000000000000e+02,1.369708543761483654e-01,0.000000000000000000e+00
9.880000000000000000e+02,3.833640328467176062e-01,0.000000000000000000e+00
9.890000000000000000e+02,4.115505039176580726e-01,0.000000000000000000e+00
9.900000000000000000e+02,2.106093117407004389e-01,0.000000000000000000e+00
9.910000000000000000e+02,-1.112661901303920765e-02,0.000000000000000000e+00
9.920000000000000000e+02,7.964805828356749662e-02,0.000000000000000000e+00
9.930000000000000000e+02,-5.770054765431407995e-02,0.000000000000000000e+00
9.940000000000000000e+02,1.733074825476096925e-02,0.000000000000000000e+00
9.950000000000000000e+02,-5.131760270788606609e-02,0.000000000000000000e+00
9.960000000000000000e+02,-2.169441817972975542e-02,0.000000000000000000e+00
9.970000000000000000e+02,4.611202457473703720e-01,0.000000000000000000e+00
9.980000000000000000e+02,4.830397968303158152e+00,0.000000000000000000e+00
9.990000000000000000e+02,1.079288587521886722e+00,1.000000000000000000e+00
1.000000000000000000e+03,-2.019195751832702168e+00,0.000000000000000000e+00
1.001000000000000000e+03,-4.955069226826107620e-01,0.000000000000000000e+00
1.002000000000000000e+03,-7.050098425074766695e-01,0.000000000000000000e+00
1.003000000000000000e+03,-2.060124829381436984e-01,0.000000000000000000e+00
1.004000000000000000e+03,-4.043367391265192956e-01,0.000000000000000000e+00
1.005000000000000000e+03,-5.193524296884243635e-02,0.000000000000000000e+00
1.006000000000000000e+03,-2.599304393344472053e-01,0.000000000000000000e+00
1.007000000000000000e+03,1.109187170326544555e-02,0.000000000000000000e+00
1.008000000000000000e+03,4.232119672183220355e-02,0.000000000000000000e+00
1.009000000000000000e+03,2.386507466584042447e-01,0.000000000000000000e+00
1.010000000000000000e+03,3.295995526559345468e-01,0.000000000000000000e+00
1.011000000000000000e+03,5.564340371247205042e-01,0.000000000000000000e+00
1.012000000000000000e+03,8.550916743620063931e-01,0.000000000000000000e+00
1.013000000000000000e+03,1.228905053194749186e+00,0.000000000000000000e+00
1.014000000000000000e+03,1.229359077353620711e+00,0.000000000000000000e+00
1.015000000000000000e+03,1.153890612353841716e+00,0.000000000000000000e+00
1.016000000000000000e+03,5.700585176011537802e-01,0.000000000000000000e+00
1.017000000000000000e+03,-5.946209275045869630e-02,0.000000000000000000e+00
1.018000000000000000e+03,-6.129139920213535486e-01,0.000000000000000000e+00
1.019000000000000000e+03,-6.484721135654341051e-01,0.000000000000000000e+00
1.020000000000000000e+03,-7.559881804560463214e-01,0.000000000000000000e+00
1.021000000000000000e+03,-6.193802420481089310e-01,0.000000000000000000e+00
1.022000000000000000e+03,-6.992099230418429290e-01,0.000000000000000000e+00
1.023000000000000000e+03,-6.208946720102819228e-01,0.000000000000000000e+00
1.024000000000000000e+03,-5.989279068965136510e-01,0.000000000000000000e+00
1.025000000000000000e+03,-4.378363558566418234e-01,0.000000000000000000e+00
1.026000000000000000e+03,-4.151609260439750315e-01,0.000000000000000000e+00
1.027000000000000000e+03,-2.622372229481108041e-01,0.000000000000000000e+00
1.028000000000000000e+03,-3.197506253608405902e-01,0.000000000000000000e+00
1.029000000000000000e+03,-2.402221719827723756e-01,0.000000000000000000e+00
1.030000000000000000e+03,-2.773689000555316087e-01,0.000000000000000000e+00
1.031000000000000000e+03,-2.479087644844391314e-01,0.000000000000000000e+00
1.032000000000000000e+03,-2.007611357394968599e-01,0.000000000000000000e+00
1.033000000000000000e+03,-2.107710321692465028e-01,0.000000000000000000e+00
1.034000000000000000e+03,-2.547078076892600462e-01,0.000000000000000000e+00
1.035000000000000000e+03,-2.044082549887253630e-01,0.000000000000000000e+00
1.036000000000000000e+03,-1.614160606974278100e-01,0.000000000000000000e+00
1.037000000000000000e+03,-1.270646703658589172e-01,0.000000000000000000e+00
1.038000000000000000e+03,1.331058733056394213e-03,0.000000000000000000e+00
1.039000000000000000e+03,1.031480106903433364e-01,0.000000000000000000e+00
1.040000000000000000e+03,2.026864123116703942e-01,0.000000000000000000e+00
1.041000000000000000e+03,2.684654220107346445e-01,0.000000000000000000e+00
1.042000000000000000e+03,1.627200915559534056e-01,0.000000000000000000e+00
1.043000000000000000e+03,-2.310893395482209178e-01,0.000000000000000000e+00
1.044000000000000000e+03,-1.910506762542483472e-01,0.000000000000000000e+00
1.045000000000000000e+03,-2.599976065192160513e-01,0.000000000000000000e+00
1.046000000000000000e+03,-1.066323923957076258e-01,0.000000000000000000e+00
1.047000000000000000e+03,-2.945252770848396096e-01,0.000000000000000000e+00
1.048000000000000000e+03,-3.836462917204057355e-02,0.000000000000000000e+00
1.049000000000000000e+03,-4.157218400694963623e-01,0.000000000000000000e+00
1.050000000000000000e+03,3.887727185629592519e+00,0.000000000000000000e+00
1.051000000000000000e+03,2.994475025960773529e+00,1.000000000000000000e+00
1.052000000000000000e+03,-2.256595353873448673e+00,0.000000000000000000e+00
1.053000000000000000e+03,-7.761457480823907851e-01,0.000000000000000000e+00
1.054000000000000000e+03,-1.066660925687747508e+00,0.000000000000000000e+00
1.055000000000000000e+03,-4.801525917109860653e-01,0.000000000000000000e+00
1.056000000000000000e+03,-6.633110500880161631e-01,0.000000000000000000e+00
1.057000000000000000e+03,-2.514253711369707212e-01,0.000000000000000000e+00
1.058000000000000000e+03,-4.320758921679097031e-01,0.000000000000000000e+00
1.059000000000000000e+03,-1.441829365524544826e-01,0.000000000000000000e+00
1.060000000000000000e+03,-2.444855438952608373e-01,0.000000000000000000e+00
1.061000000000000000e+03,1.004538723846148396e-01,0.000000000000000000e+00
1.062000000000000000e+03,1.625234406010972743e-01,0.000000000000000000e+00
1.063000000000000000e+03,5.435677767747747469e-01,0.000000000000000000e+00
1.064000000000000000e+03,6.131818000279458669e-01,0.000000000000000000e+00
1.065000000000000000e+03,1.168079549902252934e+00,0.000000000000000000e+00
1.066000000000000000e+03,1.228818742505016326e+00,0.000000000000000000e+00
1.067000000000000000e+03,1.311348694276092575e+00,0.000000000000000000e+00
1.068000000000000000e+03,6.593589149844731878e-01,0.000000000000000000e+00
1.069000000000000000e+03,1.000165779192595528e-01,0.000000000000000000e+00
1.070000000000000000e+03,-4.754317236936120850e-01,0.000000000000000000e+00
1.071000000000000000e+03,-5.544785343203819661e-01,0.000000000000000000e+00
1.072000000000000000e+03,-6.725029146404305491e-01,0.000000000000000000e+00
1.073000000000000000e+03,-6.715550116465411890e-01,0.000000000000000000e+00
1.074000000000000000e+03,-6.590877352999189309e-01,0.000000000000000000e+00
1.075000000000000000e+03,-5.127982517543986374e-01,0.000000000000000000e+00
1.076000000000000000e+03,-6.280504270745987938e-01,0.000000000000000000e+00
1.077000000000000000e+03,-3.934330250703062526e-01,0.000000000000000000e+00
1.078000000000000000e+03,-4.413582394509751317e-01,0.000000000000000000e+00
1.079000000000000000e+03,-2.153319652816967078e-01,0.000000000000000000e+00
1.080000000000000000e+03,-2.792030225740878557e-01,0.000000000000000000e+00
1.081000000000000000e+03,-1.354162249565860343e-01,0.000000000000000000e+00
1.082000000000000000e+03,-2.171690123078179602e-01,0.000000000000000000e+00
1.083000000000000000e+03,-3.088163938535945507e-02,0.000000000000000000e+00
1.084000000000000000e+03,-9.545297787113272980e-02,0.000000000000000000e+00
1.085000000000000000e+03,6.765851058302073395e-02,0.000000000000000000e+00
1.086000000000000000e+03,-6.762496993687476532e-02,0.000000000000000000e+00
1.087000000000000000e+03,7.534486463795597722e-02,0.000000000000000000e+00
1.088000000000000000e+03,4.608716597223651290e-02,0.000000000000000000e+00
1.089000000000000000e+03,1.311759699959508252e-01,0.000000000000000000e+00
1.090000000000000000e+03,1.743691486200317775e-01,0.000000000000000000e+00
1.091000000000000000e+03,3.192688817431032500e-01,0.000000000000000000e+00
1.092000000000000000e+03,3.379317380250455027e-01,0.000000000000000000e+00
1.093000000000000000e+03,5.385443575470536537e-01,0.000000000000000000e+00
1.094000000000000000e+03,3.594536895548313682e-01,0.000000000000000000e+00
1.095000000000000000e+03,2.911879597181335488e-01,0.000000000000000000e+00
1.096000000000000000e+03,-1.281125118427888232e-01,0.000000000000000000e+00
1.097000000000000000e+03,-9.487440395140538107e-03,0.000000000000000000e+00
1.098000000000000000e+03,-5.332932404742706661e-03,0.000000000000000000e+00
1.099000000000000000e+03,6.581849408885438388e-03,0.000000000000000000e+00
1.100000000000000000e+03,4.408021352116220370e-02,0.000000000000000000e+00
1.101000000000000000e+03,-3.038448698277402271e-01,0.000000000000000000e+00
1.102000000000000000e+03,1.568802874015271964e+00,0.000000000000000000e+00
1.103000000000000000e+03,5.409251411971889745e+00,0.000000000000000000e+00
1.104000000000000000e+03,-5.985025058614783511e-01,1.000000000000000000e+00
1.105000000000000000e+03,-1.407677707218805141e+00,0.000000000000000000e+00
1.106000000000000000e+03,-7.962006539453849729e-01,0.000000000000000000e+00
1.107000000000000000e+03,-6.257538768994234113e-01,0.000000000000000000e+00
1.108000000000000000e+03,-5.243969923226179386e-01,0.000000000000000000e+00
1.109000000000000000e+03,-2.923005052006464877e-01,0.000000000000000000e+00
1.110000000000000000e+03,-3.258884094204105297e-01,0.000000000000000000e+00
1.111000000000000000e+03,-1.854430875162065839e-01,0.000000000000000000e+00
1.112000000000000000e+03,-1.369877509520316672e-01,0.000000000000000000e+00
1.113000000000000000e+03,1.854221688086235206e-02,0.000000000000000000e+00
1.114000000000000000e+03,1.466259194101355856e-01,0.000000000000000000e+00
1.115000000000000000e+03,3.917416184537337309e-01,0.000000000000000000e+00
1.116000000000000000e+03,5.941453891611521154e-01,0.000000000000000000e+00
1.117000000000000000e+03,9.954494177506120201e-01,0.000000000000000000e+00
1.118000000000000000e+03,1.186736597327813891e+00,0.000000000000000000e+00
1.119000000000000000e+03,1.341345250363667807e+00,0.000000000000000000e+00
1.120000000000000000e+03,9.206774669200623595e-01,0.000000000000000000e+00
1.121000000000000000e+03,3.093260275420953165e-01,0.000000000000000000e+00
1.122000000000000000e+03,-3.709204681445923413e-01,0.000000000000000000e+00
1.123000000000000000e+03,-7.464603079457426960e-01,0.000000000000000000e+00
1.124000000000000000e+03,-9.697522250332651916e-01,0.000000000000000000e+00
1.125000000000000000e+03,-8.272815821286990667e-01,0.000000000000000000e+00
1.126000000000000000e+03,-9.109571207537787707e-01,0.000000000000000000e+00
1.127000000000000000e+03,-7.428929278475671083e-01,0.000000000000000000e+00
1.128000000000000000e+03,-7.890996568529073940e-01,0.000000000000000000e+00
1.129000000000000000e+03,-6.550154925117984694e-01,0.000000000000000000e+00
1.130000000000000000e+03,-7.019033109964259998e-01,0.000000000000000000e+00
1.131000000000000000e+03,-4.544444735943357627e-01,0.000000000000000000e+00
1.132000000000000000e+03,-5.918665181504538797e-01,0.000000000000000000e+00
1.133000000000000000e+03,-2.386711300364608990e-01,0.000000000000000000e+00
1.134000000000000000e+03,-4.287938261963009645e-01,0.000000000000000000e+00
1.135000000000000000e+03,-2.983727276278357321e-01,0.000000000000000000e+00
1.136000000000000000e+03,-3.742311147485455347e-01,0.000000000000000000e+00
1.137000000000000000e+03,-1.926237870493804905e-01,0.000000000000000000e+00
1.138000000000000000e+03,-3.239816533968125634e-01,0.000000000000000000e+00
1.139000000000000000e+03,-9.859070675940706519e-02,0.000000000000000000e+00
1.140000000000000000e+03,-2.749130717545992253e-01,0.000000000000000000e+00
1.141000000000000000e+03,-8.056996912967161195e-02,0.000000000000000000e+00
1.142000000000000000e+03,-3.314050636867101884e-01,0.000000000000000000e+00
1.143000000000000000e+03,7.709273183402975960e-02,0.000000000000000000e+00
1.144000000000000000e+03,8.172354997460665182e-02,0.000000000000000000e+00
1.145000000000000000e+03,3.455135847882832567e-01,0.000000000000000000e+00
1.146000000000000000e+03,2.557901501144886347e-01,0.000000000000000000e+00
1.147000000000000000e+03,2.471353643442181780e-01,0.000000000000000000e+00
1.148000000000000000e+03,-1.530129854430061220e-01,0.000000000000000000e+00
1.149000000000000000e+03,-1.361929043597654987e-01,0.000000000000000000e+00
1.150000000000000000e+03,-3.060297807310176643e-01,0.000000000000000000e+00
1.151000000000000000e+03,2.025811265086385760e-02,0.000000000000000000e+00
1.152000000000000000e+03,-3.136079938510432097e-01,0.000000000000000000e+00
1.153000000000000000e+03,4.262073862753386344e-02,0.000000000000000000e+00
1.154000000000000000e+03,-4.001839653952641851e-01,0.000000000000000000e+00
1.155000000000000000e+03,4.460071355349174205e+00,0.000000000000000000e+00
1.156000000000000000e+03,2.894962926286707816e+00,1.000000000000000000e+00
1.157000000000000000e+03,-2.207600697025130732e+00,0.000000000000000000e+00
1.158000000000000000e+03,-7.392201173554837634e-01,0.000000000000000000e+00
1.159000000000000000e+03,-1.017096415314701074e+00,0.000000000000000000e+00
1.160000000000000000e+03,-4.200518778776610729e-01,0.000000000000000000e+00
1.161000000000000000e+03,-6.274308294231136784e-01,0.000000000000000000e+00
1.162000000000000000e+03,-2.440355478300340331e-01,0.000000000000000000e+00
1.163000000000000000e+03,-3.658491170850176610e-01,0.000000000000000000e+00
1.164000000000000000e+03,-7.741633009285783795e-02,0.000000000000000000e+00
1.165000000000000000e+03,-6.672604360014337821e-02,0.000000000000000000e+00
1.166000000000000000e+03,4.585206232950963384e-02,0.000000000000000000e+00
1.167000000000000000e+03,2.048222655799114000e-01,0.000000000000000000e+00
1.168000000000000000e+03,4.319454290502766636e-01,0.000000000000000000e+00
1.169000000000000000e+03,7.649069201216562863e-01,0.000000000000000000e+00
1.170000000000000000e+03,1.060843778395338610e+00,0.000000000000000000e+00
1.171000000000000000e+03,1.245108218960991442e+00,0.000000000000000000e+00
1.172000000000000000e+03,1.081655020805131651e+00,0.000000000000000000e+00
1.173000000000000000e+03,6.549347484879649572e-01,0.000000000000000000e+00
1.174000000000000000e+03,-8.537249665273634325e-02,0.000000000000000000e+00
1.175000000000000000e+03,-5.684486760253719684e-01,0.000000000000000000e+00
1.176000000000000000e+03,-7.406878986216656191e-01,0.000000000000000000e+00
1.177000000000000000e+03,-9.087982137933390270e-01,0.000000000000000000e+00
1.178000000000000000e+03,-9.025584756382504237e-01,0.000000000000000000e+00
1.179000000000000000e+03,-8.094247656392067336e-01,0.000000000000000000e+00
1.180000000000000000e+03,-7.452802791769588264e-01,0.000000000000000000e+00
1.181000000000000000e+03,-5.550384181686259799e-01,0.000000000000000000e+00
1.182000000000000000e+03,-4.520626972234831342e-01,0.000000000000000000e+00
1.183000000000000000e+03,-5.495955025498837632e-01,0.000000000000000000e+00
1.184000000000000000e+03,-4.180039367616465440e-01,0.000000000000000000e+00
1.185000000000000000e+03,-2.243356757048922123e-01,0.000000000000000000e+00
1.186000000000000000e+03,-2.818108268255018478e-01,0.000000000000000000e+00
1.187000000000000000e+03,-1.444735898494015625e-01,0.000000000000000000e+00
1.188000000000000000e+03,-1.119781385514671407e-01,0.000000000000000000e+00
1.189000000000000000e+03,-1.446603909658380482e-01,0.000000000000000000e+00
1.190000000000000000e+03,-2.319156762350813306e-01,0.000000000000000000e+00
1.191000000000000000e+03,-1.199661478657775525e-02,0.000000000000000000e+00
1.192000000000000000e+03,-7.937564661479709627e-02,0.000000000000000000e+00
1.193000000000000000e+03,6.944048275862581276e-02,0.000000000000000000e+00
1.194000000000000000e+03,-7.972661305557655897e-02,0.000000000000000000e+00
1.195000000000000000e+03,2.587503996868807388e-01,0.000000000000000000e+00
1.196000000000000000e+03,2.073184431641222902e-01,0.000000000000000000e+00
1.197000000000000000e+03,4.930575869130800482e-01,0.000000000000000000e+00
1.198000000000000000e+03,4.909553556688141529e-01,0.000000000000000000e+00
1.199000000000000000e+03,4.671364760641897873e-01,0.000000000000000000e+00
1.200000000000000000e+03,1.312495791343193663e-01,0.000000000000000000e+00
1.201000000000000000e+03,1.269442009377205471e-01,0.000000000000000000e+00
1.202000000000000000e+03,3.203150814497246479e-02,0.000000000000000000e+00
1.203000000000000000e+03,2.931075809748918126e-01,0.000000000000000000e+00
1.204000000000000000e+03,2.981884069765292425e-02,0.000000000000000000e+00
1.205000000000000000e+03,3.467307843539614853e-01,0.000000000000000000e+00
1.206000000000000000e+03,-1.321617856337094776e-01,0.000000000000000000e+00
1.207000000000000000e+03,3.563240857723599664e+00,0.000000000000000000e+00
1.208000000000000000e+03,4.029528514829920915e+00,0.000000000000000000e+00
1.209000000000000000e+03,-1.881167767740591135e+00,1.000000000000000000e+00
1.210000000000000000e+03,-8.161288456780874112e-01,0.000000000000000000e+00
1.211000000000000000e+03,-6.744645369660901002e-01,0.000000000000000000e+00
1.212000000000000000e+03,-3.002521670283759825e-01,0.000000000000000000e+00
1.213000000000000000e+03,-3.536618233474778661e-01,0.000000000000000000e+00
1.214000000000000000e+03,-4.616199641555775862e-02,0.000000000000000000e+00
1.215000000000000000e+03,-1.017484380617688644e-01,0.000000000000000000e+00
1.216000000000000000e+03,1.958521771491837649e-02,0.000000000000000000e+00
1.217000000000000000e+03,1.344324192587200047e-02,0.000000000000000000e+00
1.218000000000000000e+03,2.397334989722491594e-01,0.000000000000000000e+00
1.219000000000000000e+03,2.196715276244347870e-01,0.000000000000000000e+00
1.220000000000000000e+03,5.189603388022789865e-01,0.000000000000000000e+00
1.221000000000000000e+03,7.103128506955519450e-01,0.000000000000000000e+00
1.222000000000000000e+03,1.116939317903508533e+00,0.000000000000000000e+00
1.223000000000000000e+03,1.091970644097768339e+00,0.000000000000000000e+00
1.224000000000000000e+03,1.108334663555010868e+00,0.000000000000000000e+00
1.225000000000000000e+03,6.629530523906919104e-01,0.000000000000000000e+00
1.226000000000000000e+03,-5.847091403328989745e-02,0.000000000000000000e+00
1.227000000000000000e+03,-6.513950406242677849e-01,0.000000000000000000e+00
1.228000000000000000e+03,-8.311017739240298408e-01,0.000000000000000000e+00
1.229000000000000000e+03,-1.002254299512332469e+00,0.000000000000000000e+00
1.230000000000000000e+03,-1.062094880318562362e+00,0.000000000000000000e+00
1.231000000000000000e+03,-1.131187144481757834e+00,0.000000000000000000e+00
1.232000000000000000e+03,-9.536304001020982080e-01,0.000000000000000000e+00
1.233000000000000000e+03,-9.659094678680657520e-01,0.000000000000000000e+00
1.234000000000000000e+03,-8.172306847616583880e-01,0.000000000000000000e+00
1.235000000000000000e+03,-8.383284212683965730e-01,0.000000000000000000e+00
1.236000000000000000e+03,-5.951300310130339666e-01,0.000000000000000000e+00
1.237000000000000000e+03,-6.517979781210675450e-01,0.000000000000000000e+00
1.238000000000000000e+03,-5.369845476442295373e-01,0.000000000000000000e+00
1.239000000000000000e+03,-7.253620819141841647e-01,0.000000000000000000e+00
1.240000000000000000e+03,-4.969465069739767982e-01,0.000000000000000000e+00
1.241000000000000000e+03,-6.076985651040169856e-01,0.000000000000000000e+00
1.242000000000000000e+03,-6.137345109862984982e-01,0.000000000000000000e+00
1.243000000000000000e+03,-7.811064764653895542e-01,0.000000000000000000e+00
1.244000000000000000e+03,-5.958476535550732978e-01,0.000000000000000000e+00
1.245000000000000000e+03,-6.467594409190741134e-01,0.000000000000000000e+00
1.246000000000000000e+03,-5.152573573822775144e-01,0.000000000000000000e+00
1.247000000000000000e+03,-5.718385664784688682e-01,0.000000000000000000e+00
1.248000000000000000e+03,-2.958125525653328425e-01,0.000000000000000000e+00
1.249000000000000000e+03,-2.995117822276364694e-01,0.000000000000000000e+00
1.250000000000000000e+03,5.146766096207151808e-02,0.000000000000000000e+00
1.251000000000000000e+03,1.990030558366294791e-02,0.000000000000000000e+00
1.252000000000000000e+03,-1.314784211270295967e-02,0.000000000000000000e+00
1.253000000000000000e+03,-2.638818520351562391e-01,0.000000000000000000e+00
1.254000000000000000e+03,-2.645960576325163127e-01,0.000000000000000000e+00
1.255000000000000000e+03,-2.200872387749097381e-01,0.000000000000000000e+00
1.256000000000000000e+03,-5.892133800741043009e-02,0.000000000000000000e+00
1.257000000000000000e+03,-1.569547279395298589e-01,0.000000000000000000e+00
1.258000000000000000e+03,1.467191723687190086e-01,0.000000000000000000e+00
1.259000000000000000e+03,-2.728029655913886686e-01,0.000000000000000000e+00
1.260000000000000000e+03,4.119656477871506794e+00,0.000000000000000000e+00
1.261000000000000000e+03,3.731029344280664795e+00,0.000000000000000000e+00
1.262000000000000000e+03,-1.906330387472170651e+00,1.000000000000000000e+00
1.263000000000000000e+03,-5.004775067845047554e-01,0.000000000000000000e+00
1.264000000000000000e+03,-7.969919684070615462e-01,0.000000000000000000e+00
1.265000000000000000e+03,-2.318646554980471897e-01,0.000000000000000000e+00
1.266000000000000000e+03,-3.565805391240965405e-01,0.000000000000000000e+00
1.267000000000000000e+03,1.598438732564373410e-01,0.000000000000000000e+00
1.268000000000000000e+03,-1.024467432825059282e-01,0.000000000000000000e+00
1.269000000000000000e+03,3.923681989766383271e-01,0.000000000000000000e+00
1.270000000000000000e+03,2.494964361559895982e-01,0.000000000000000000e+00
1.271000000000000000e+03,5.640790253377874208e-01,0.000000000000000000e+00
1.272000000000000000e+03,5.328199697044228023e-01,0.000000000000000000e+00
1.273000000000000000e+03,9.293713403714281007e-01,0.000000000000000000e+00
1.274000000000000000e+03,1.195032718184660503e+00,0.000000000000000000e+00
1.275000000000000000e+03,1.647748382454979899e+00,0.000000000000000000e+00
1.276000000000000000e+03,1.729935773905949992e+00,0.000000000000000000e+00
1.277000000000000000e+03,1.832099199865730332e+00,0.000000000000000000e+00
1.278000000000000000e+03,1.120440774982771392e+00,0.000000000000000000e+00
1.279000000000000000e+03,6.296548989667283269e-01,0.000000000000000000e+00
1.280000000000000000e+03,-1.332668810740839094e-01,0.000000000000000000e+00
1.281000000000000000e+03,-1.963496517991259183e-01,0.000000000000000000e+00
1.282000000000000000e+03,-4.038043437926722712e-01,0.000000000000000000e+00
1.283000000000000000e+03,-1.974245724170513860e-01,0.000000000000000000e+00
1.284000000000000000e+03,-3.186417131689234794e-01,0.000000000000000000e+00
1.285000000000000000e+03,-1.139596437397469436e-01,0.000000000000000000e+00
1.286000000000000000e+03,-2.600112815991611481e-01,0.000000000000000000e+00
1.287000000000000000e+03,-2.418972236723484354e-02,0.000000000000000000e+00
1.288000000000000000e+03,-1.106608173426894132e-01,0.000000000000000000e+00
1.289000000000000000e+03,9.530883739878212579e-02,0.000000000000000000e+00
1.290000000000000000e+03,7.176241320643496346e-02,0.000000000000000000e+00
1.291000000000000000e+03,2.950700359919615767e-01,0.000000000000000000e+00
1.292000000000000000e+03,1.250003047015403046e-01,0.000000000000000000e+00
1.293000000000000000e+03,3.274473268866542885e-01,0.000000000000000000e+00
1.294000000000000000e+03,2.497186826890187561e-01,0.000000000000000000e+00
1.295000000000000000e+03,3.959508429283417064e-01,0.000000000000000000e+00
1.296000000000000000e+03,2.483173766967512186e-01,0.000000000000000000e+00
1.297000000000000000e+03,4.371510120775484731e-01,0.000000000000000000e+00
1.298000000000000000e+03,2.795184965505477237e-01,0.000000000000000000e+00
1.299000000000000000e+03,4.159284452689438472e-01,0.000000000000000000e+00
1.300000000000000000e+03,2.545043299312190199e-01,0.000000000000000000e+00
1.301000000000000000e+03,6.966296003008092264e-01,0.000000000000000000e+00
1.302000000000000000e+03,3.867170118861460448e-01,0.000000000000000000e+00
1.303000000000000000e+03,7.683408256554559168e-01,0.000000000000000000e+00
1.304000000000000000e+03,6.328816402045701617e-01,0.000000000000000000e+00
1.305000000000000000e+03,6.707748015695268462e-01,0.000000000000000000e+00
1.306000000000000000e+03,1.456425075677879044e-01,0.000000000000000000e+00
1.307000000000000000e+03,2.758043335373346894e-01,0.000000000000000000e+00
1.308000000000000000e+03,8.360922913641849474e-02,0.000000000000000000e+00
1.309000000000000000e+03,2.528638090803477789e-01,0.000000000000000000e+00
1.310000000000000000e+03,9.663005107660851967e-02,0.000000000000000000e+00
1.311000000000000000e+03,1.686478625059440462e-01,0.000000000000000000e+00
1.312000000000000000e+03,2.712982345700223896e-01,0.000000000000000000e+00
1.313000000000000000e+03,5.438831907036899338e+00,0.000000000000000000e+00
1.314000000000000000e+03,1.839174291286664431e+00,1.000000000000000000e+00
1.315000000000000000e+03,-1.948576964783064636e+00,0.000000000000000000e+00
1.316000000000000000e+03,-5.307064370342391424e-01,0.000000000000000000e+00
1.317000000000000000e+03,-8.914717301248762382e-01,0.000000000000000000e+00
1.318000000000000000e+03,-4.932001466608115225e-01,0.000000000000000000e+00
1.319000000000000000e+03,-5.403732509487694236e-01,0.000000000000000000e+00
1.320000000000000000e+03,-3.582930924547601537e-01,0.000000000000000000e+00
1.321000000000000000e+03,-4.065445836668310498e-01,0.000000000000000000e+00
1.322000000000000000e+03,-3.904052622044271725e-01,0.000000000000000000e+00
1.323000000000000000e+03,-3.099613578383910162e-01,0.000000000000000000e+00
1.324000000000000000e+03,-1.334357205471755070e-01,0.000000000000000000e+00
1.325000000000000000e+03,-1.692366069044504429e-01,0.000000000000000000e+00
1.326000000000000000e+03,9.690560511564794144e-02,0.000000000000000000e+00
1.327000000000000000e+03,4.295442656451723407e-01,0.000000000000000000e+00
1.328000000000000000e+03,7.673931139461570572e-01,0.000000000000000000e+00
1.329000000000000000e+03,9.167916812347027822e-01,0.000000000000000000e+00
1.330000000000000000e+03,6.939440106287589893e-01,0.000000000000000000e+00
1.331000000000000000e+03,1.397373710136233793e-01,0.000000000000000000e+00
1.332000000000000000e+03,-5.877462462330570458e-01,0.000000000000000000e+00
1.333000000000000000e+03,-1.058038743075350396e+00,0.000000000000000000e+00
1.334000000000000000e+03,-1.177627145083343985e+00,0.000000000000000000e+00
1.335000000000000000e+03,-1.274117273757017221e+00,0.000000000000000000e+00
1.336000000000000000e+03,-1.124823734790113550e+00,0.000000000000000000e+00
1.337000000000000000e+03,-1.119087822252203157e+00,0.000000000000000000e+00
1.338000000000000000e+03,-1.073194209269539900e+00,0.000000000000000000e+00
1.339000000000000000e+03,-1.046366111390003795e+00,0.000000000000000000e+00
1.340000000000000000e+03,-9.834510821668854819e-01,0.000000000000000000e+00
1.341000000000000000e+03,-8.835608084850814503e-01,0.000000000000000000e+00
1.342000000000000000e+03,-8.017469422268151957e-01,0.000000000000000000e+00
1.343000000000000000e+03,-6.689821429636436667e-01,0.000000000000000000e+00
1.344000000000000000e+03,-6.725769058911691411e-01,0.000000000000000000e+00
1.345000000000000000e+03,-6.407982448437405942e-01,0.000000000000000000e+00
1.346000000000000000e+03,-5.813079757461238062e-01,0.000000000000000000e+00
1.347000000000000000e+03,-5.998309149954198505e-01,0.000000000000000000e+00
1.348000000000000000e+03,-6.201907884714771280e-01,0.000000000000000000e+00
1.349000000000000000e+03,-4.373273055043919166e-01,0.000000000000000000e+00
1.350000000000000000e+03,-5.621547780978085607e-01,0.000000000000000000e+00
1.351000000000000000e+03,-3.181753509092684618e-01,0.000000000000000000e+00
1.352000000000000000e+03,-4.448008325647105354e-01,0.000000000000000000e+00
1.353000000000000000e+03,-1.901247962859003993e-01,0.000000000000000000e+00
1.354000000000000000e+03,-2.390382213527565414e-01,0.000000000000000000e+00
1.355000000000000000e+03,3.701496184910824799e-02,0.000000000000000000e+00
1.356000000000000000e+03,1.099005654223406819e-02,0.000000000000000000e+00
1.357000000000000000e+03,-1.154127510137580893e-02,0.000000000000000000e+00
1.358000000000000000e+03,-2.861840240634827559e-01,0.000000000000000000e+00
1.359000000000000000e+03,-3.036349893403084699e-01,0.000000000000000000e+00
1.360000000000000000e+03,-5.498712515875884277e-01,0.000000000000000000e+00
1.361000000000000000e+03,-2.575371090335992208e-01,0.000000000000000000e+00
1.362000000000000000e+03,-6.118357450206152182e-01,0.000000000000000000e+00
1.363000000000000000e+03,-1.445972669635801622e-01,0.000000000000000000e+00
1.364000000000000000e+03,-8.519239050856829421e-01,0.000000000000000000e+00
1.365000000000000000e+03,2.899623945880374531e+00,0.000000000000000000e+00
1.366000000000000000e+03,4.124570340033964833e+00,0.000000000000000000e+00
1.367000000000000000e+03,-2.091556869736367119e+00,1.000000000000000000e+00
1.368000000000000000e+03,-1.333588641434003907e+00,0.000000000000000000e+00
1.369000000000000000e+03,-1.223967525757233776e+00,0.000000000000000000e+00
1.370000000000000000e+03,-8.358893589931671864e-01,0.000000000000000000e+00
1.371000000000000000e+03,-8.928791376997731177e-01,0.000000000000000000e+00
1.372000000000000000e+03,-6.809399710023403829e-01,0.000000000000000000e+00
1.373000000000000000e+03,-6.989938720512067771e-01,0.000000000000000000e+00
1.374000000000000000e+03,-5.252694589441971873e-01,0.000000000000000000e+00
1.375000000000000000e+03,-4.085920772382222177e-01,0.000000000000000000e+00
1.376000000000000000e+03,-3.655758018316540570e-01,0.000000000000000000e+00
1.377000000000000000e+03,-2.099629897944985668e-01,0.000000000000000000e+00
1.378000000000000000e+03,5.929061927257909398e-02,0.000000000000000000e+00
1.379000000000000000e+03,3.789694026551642669e-01,0.000000000000000000e+00
1.380000000000000000e+03,6.995569441231731522e-01,0.000000000000000000e+00
1.381000000000000000e+03,9.831924066635578940e-01,0.000000000000000000e+00
1.382000000000000000e+03,9.999106550519835102e-01,0.000000000000000000e+00
1.383000000000000000e+03,5.030458883429543837e-01,0.000000000000000000e+00
1.384000000000000000e+03,-1.217374407274266213e-01,0.000000000000000000e+00
1.385000000000000000e+03,-6.452398328025279461e-01,0.000000000000000000e+00
1.386000000000000000e+03,-1.007190572129954997e+00,0.000000000000000000e+00
1.387000000000000000e+03,-1.033455001424027131e+00,0.000000000000000000e+00
1.388000000000000000e+03,-1.012567406010116189e+00,0.000000000000000000e+00
1.389000000000000000e+03,-9.291834745335639800e-01,0.000000000000000000e+00
1.390000000000000000e+03,-9.789930817521307338e-01,0.000000000000000000e+00
1.391000000000000000e+03,-8.189218709343666358e-01,0.000000000000000000e+00
1.392000000000000000e+03,-7.433850539635755705e-01,0.000000000000000000e+00
1.393000000000000000e+03,-5.686653998154398426e-01,0.000000000000000000e+00
1.394000000000000000e+03,-6.505466467454794621e-01,0.000000000000000000e+00
1.395000000000000000e+03,-2.882883682939749170e-01,0.000000000000000000e+00
1.396000000000000000e+03,-3.898794590752757694e-01,0.000000000000000000e+00
1.397000000000000000e+03,-2.257495291579171559e-01,0.000000000000000000e+00
1.398000000000000000e+03,-1.284633205147763524e-01,0.000000000000000000e+00
1.399000000000000000e+03,-1.196441902470778557e-01,0.000000000000000000e+00
1.400000000000000000e+03,-6.738598785751390152e-02,0.000000000000000000e+00
1.401000000000000000e+03,2.440611557748205776e-02,0.000000000000000000e+00
1.402000000000000000e+03,2.659149328329698039e-03,0.000000000000000000e+00
1.403000000000000000e+03,2.525845695963924165e-01,0.000000000000000000e+00
1.404000000000000000e+03,6.284089351862517936e-02,0.000000000000000000e+00
1.405000000000000000e+03,4.901595171435234599e-01,0.000000000000000000e+00
1.406000000000000000e+03,2.175918279534558575e-01,0.000000000000000000e+00
1.407000000000000000e+03,6.329104041185974472e-01,0.000000000000000000e+00
1.408000000000000000e+03,6.830080542154362000e-01,0.000000000000000000e+00
1.409000000000000000e+03,5.673943976419270063e-01,0.000000000000000000e+00
1.410000000000000000e+03,3.205977781332624565e-01,0.000000000000000000e+00
1.411000000000000000e+03,2.861741808333335690e-01,0.000000000000000000e+00
1.412000000000000000e+03,1.311139405893520793e-01,0.000000000000000000e+00
1.413000000000000000e+03,3.829004023328310136e-01,0.000000000000000000e+00
1.414000000000000000e+03,2.082871590519959348e-01,0.000000000000000000e+00
1.415000000000000000e+03,4.459852543696191107e-01,0.000000000000000000e+00
1.416000000000000000e+03,3.646882982692027653e-02,0.000000000000000000e+00
1.417000000000000000e+03,4.453745506331754811e+00,0.000000000000000000e+00
1.418000000000000000e+03,3.389786049175794069e+00,1.000000000000000000e+00
1.419000000000000000e+03,-1.912574877163830234e+00,0.000000000000000000e+00
1.420000000000000000e+03,-3.622788147006288928e-01,0.000000000000000000e+00
1.421000000000000000e+03,-5.063853399806674815e-01,0.000000000000000000e+00
1.422000000000000000e+03,-6.414258201595399167e-02,0.000000000000000000e+00
1.423000000000000000e+03,-2.074998868869307178e-01,0.000000000000000000e+00
1.424000000000000000e+03,1.271674169270658183e-01,0.000000000000000000e+00
1.425000000000000000e+03,4.382071297644721253e-02,0.000000000000000000e+00
1.426000000000000000e+03,2.563516535159655052e-01,0.000000000000000000e+00
1.427000000000000000e+03,1.964950975762676522e-01,0.000000000000000000e+00
1.428000000000000000e+03,3.148918496110986731e-01,0.000000000000000000e+00
1.429000000000000000e+03,4.607190840180633296e-01,0.000000000000000000e+00
1.430000000000000000e+03,7.619439833068172296e-01,0.000000000000000000e+00
1.431000000000000000e+03,9.878823092692332608e-01,0.000000000000000000e+00
1.432000000000000000e+03,1.398251477059013315e+00,0.000000000000000000e+00
1.433000000000000000e+03,1.418173660889505250e+00,0.000000000000000000e+00
1.434000000000000000e+03,1.481812090196193532e+00,0.000000000000000000e+00
1.435000000000000000e+03,8.968586700032054049e-01,0.000000000000000000e+00
1.436000000000000000e+03,1.540791015136379893e-01,0.000000000000000000e+00
1.437000000000000000e+03,-2.127375443962792878e-01,0.000000000000000000e+00
1.438000000000000000e+03,-4.901950204035283032e-01,0.000000000000000000e+00
1.439000000000000000e+03,-5.642710997398581174e-01,0.000000000000000000e+00
1.440000000000000000e+03,-6.884127956149507233e-01,0.000000000000000000e+00
1.441000000000000000e+03,-5.960486354253604624e-01,0.000000000000000000e+00
1.442000000000000000e+03,-5.416336254726878963e-01,0.000000000000000000e+00
1.443000000000000000e+03,-4.273915202285205606e-01,0.000000000000000000e+00
1.444000000000000000e+03,-3.266647232394775946e-01,0.000000000000000000e+00
1.445000000000000000e+03,-1.705726993804725367e-01,0.000000000000000000e+00
1.446000000000000000e+03,-2.394325507408978648e-01,0.000000000000000000e+00
1.447000000000000000e+03,-9.450803932421683595e-02,0.000000000000000000e+00
1.448000000000000000e+03,-2.195897384284020426e-01,0.000000000000000000e+00
1.449000000000000000e+03,-8.786719756688733673e-02,0.000000000000000000e+00
1.450000000000000000e+03,-1.303811264434604766e-01,0.000000000000000000e+00
1.451000000000000000e+03,-7.359907292991883787e-02,0.000000000000000000e+00
1.452000000000000000e+03,-1.481363081941835802e-01,0.000000000000000000e+00
1.453000000000000000e+03,1.808023958231988124e-02,0.000000000000000000e+00
1.454000000000000000e+03,-8.849140100857084967e-02,0.000000000000000000e+00
1.455000000000000000e+03,8.603418016373637345e-02,0.000000000000000000e+00
1.456000000000000000e+03,-5.879180591367296621e-02,0.000000000000000000e+00
1.457000000000000000e+03,1.725132018442145643e-01,0.000000000000000000e+00
1.458000000000000000e+03,1.639387342460139896e-01,0.000000000000000000e+00
1.459000000000000000e+03,4.734117562633031184e-01,0.000000000000000000e+00
1.460000000000000000e+03,4.251993157268180723e-01,0.000000000000000000e+00
1.461000000000000000e+03,2.537323305033567511e-01,0.000000000000000000e+00
1.462000000000000000e+03,-3.094211473228071149e-02,0.000000000000000000e+00
1.463000000000000000e+03,1.781681800780789138e-02,0.000000000000000000e+00
1.464000000000000000e+03,-2.737778109812591398e-01,0.000000000000000000e+00
1.465000000000000000e+03,1.340348437900882594e-01,0.000000000000000000e+00
1.466000000000000000e+03,-1.374600490679307174e-01,0.000000000000000000e+00
1.467000000000000000e+03,1.629298111127980841e-01,0.000000000000000000e+00
1.468000000000000000e+03,-4.064206188906313022e-01,0.000000000000000000e+00
1.469000000000000000e+03,3.721753344463184288e+00,0.000000000000000000e+00
1.470000000000000000e+03,3.899567784398465964e+00,0.000000000000000000e+00
1.471000000000000000e+03,-1.911829879431468981e+00,1.000000000000000000e+00
1.472000000000000000e+03,-8.573862681371469119e-01,0.000000000000000000e+00
1.473000000000000000e+03,-9.552649151137706518e-01,0.000000000000000000e+00
1.474000000000000000e+03,-4.842139126666957782e-01,0.000000000000000000e+00
1.475000000000000000e+03,-5.935575894847618938e-01,0.000000000000000000e+00
1.476000000000000000e+03,-3.484709652979582351e-01,0.000000000000000000e+00
1.477000000000000000e+03,-3.295645778502708234e-01,0.000000000000000000e+00
1.478000000000000000e+03,-1.562494314692477737e-01,0.000000000000000000e+00
1.479000000000000000e+03,-2.045805830384986312e-01,0.000000000000000000e+00
1.480000000000000000e+03,-1.418692039033086182e-02,0.000000000000000000e+00
1.481000000000000000e+03,5.812371981362255552e-03,0.000000000000000000e+00
1.482000000000000000e+03,3.321169258322292928e-01,0.000000000000000000e+00
1.483000000000000000e+03,6.303316732466522909e-01,0.000000000000000000e+00
1.484000000000000000e+03,9.202109264024362911e-01,0.000000000000000000e+00
1.485000000000000000e+03,1.108185226499165399e+00,0.000000000000000000e+00
1.486000000000000000e+03,1.130371714031644270e+00,0.000000000000000000e+00
1.487000000000000000e+03,5.864361830810146392e-01,0.000000000000000000e+00
1.488000000000000000e+03,-8.842984743011561566e-02,0.000000000000000000e+00
1.489000000000000000e+03,-6.199903501501321523e-01,0.000000000000000000e+00
1.490000000000000000e+03,-8.579868678125551762e-01,0.000000000000000000e+00
1.491000000000000000e+03,-9.518238708950493843e-01,0.000000000000000000e+00
1.492000000000000000e+03,-8.010982599674119076e-01,0.000000000000000000e+00
1.493000000000000000e+03,-7.838977755563203420e-01,0.000000000000000000e+00
1.494000000000000000e+03,-7.227414301451458023e-01,0.000000000000000000e+00
1.495000000000000000e+03,-5.784997061576350186e-01,0.000000000000000000e+00
1.496000000000000000e+03,-6.378690167649891940e-01,0.000000000000000000e+00
1.497000000000000000e+03,-3.769204076290561534e-01,0.000000000000000000e+00
1.498000000000000000e+03,-3.786854018618038276e-01,0.000000000000000000e+00
1.499000000000000000e+03,-2.352645199678060906e-01,0.000000000000000000e+00
1.500000000000000000e+03,-2.689465737802397283e-01,0.000000000000000000e+00
1.501000000000000000e+03,-1.425071727168830127e-01,0.000000000000000000e+00
1.502000000000000000e+03,-1.783060089449215735e-01,0.000000000000000000e+00
1.503000000000000000e+03,-2.098257865405158684e-01,0.000000000000000000e+00
1.504000000000000000e+03,-2.042337709326364492e-01,0.000000000000000000e+00
1.505000000000000000e+03,-1.362528775096607803e-01,0.000000000000000000e+00
1.506000000000000000e+03,-1.217010727016248073e-01,0.000000000000000000e+00
1.507000000000000000e+03,-1.446011526079474530e-01,0.000000000000000000e+00
1.508000000000000000e+03,-1.350442069091997432e-01,0.000000000000000000e+00
1.509000000000000000e+03,7.671148743224028010e-02,0.000000000000000000e+00
1.510000000000000000e+03,-2.550120391434002303e-03,0.000000000000000000e+00
1.511000000000000000e+03,2.895122128158736374e-01,0.000000000000000000e+00
1.512000000000000000e+03,3.395139555193114056e-01,0.000000000000000000e+00
1.513000000000000000e+03,2.107199501228715632e-01,0.000000000000000000e+00
1.514000000000000000e+03,-1.244603256911262362e-01,0.000000000000000000e+00
1.515000000000000000e+03,-1.943776187847049142e-01,0.000000000000000000e+00
1.516000000000000000e+03,-3.380608356215790700e-01,0.000000000000000000e+00
1.517000000000000000e+03,2.195081661224127303e-02,0.000000000000000000e+00
1.518000000000000000e+03,-3.198501237810857933e-01,0.000000000000000000e+00
1.519000000000000000e+03,1.358784896574853074e-01,0.000000000000000000e+00
1.520000000000000000e+03,-5.585833261221864188e-01,0.000000000000000000e+00
1.521000000000000000e+03,3.787163584347424727e+00,0.000000000000000000e+00
1.522000000000000000e+03,3.657979779106090401e+00,0.000000000000000000e+00
1.523000000000000000e+03,-2.071141537684247691e+00,1.000000000000000000e+00
1.524000000000000000e+03,-8.260364704504674638e-01,0.000000000000000000e+00
1.525000000000000000e+03,-9.964254544401421887e-01,0.000000000000000000e+00
1.526000000000000000e+03,-5.384598161165830010e-01,0.000000000000000000e+00
1.527000000000000000e+03,-6.238297542750887992e-01,0.000000000000000000e+00
1.528000000000000000e+03,-2.564089593700242253e-01,0.000000000000000000e+00
1.529000000000000000e+03,-4.055281775501318742e-01,0.000000000000000000e+00
1.530000000000000000e+03,-1.897995756600413253e-01,0.000000000000000000e+00
1.531000000000000000e+03,-2.350584787843102708e-01,0.000000000000000000e+00
1.532000000000000000e+03,8.168254226622340478e-03,0.000000000000000000e+00
1.533000000000000000e+03,1.150186274239651252e-01,0.000000000000000000e+00
1.534000000000000000e+03,4.741545363737216245e-01,0.000000000000000000e+00
1.535000000000000000e+03,7.610623406568891580e-01,0.000000000000000000e+00
1.536000000000000000e+03,1.108643356944915004e+00,0.000000000000000000e+00
1.537000000000000000e+03,1.239710104427556692e+00,0.000000000000000000e+00
1.538000000000000000e+03,1.269467444211803020e+00,0.000000000000000000e+00
1.539000000000000000e+03,7.314738331557182338e-01,0.000000000000000000e+00
1.540000000000000000e+03,6.899010035232729099e-02,0.000000000000000000e+00
1.541000000000000000e+03,-5.211033134604500239e-01,0.000000000000000000e+00
1.542000000000000000e+03,-8.032617940770823139e-01,0.000000000000000000e+00
1.543000000000000000e+03,-7.612546281840929518e-01,0.000000000000000000e+00
1.544000000000000000e+03,-8.294483569992127103e-01,0.000000000000000000e+00
1.545000000000000000e+03,-7.806296522864575316e-01,0.000000000000000000e+00
1.546000000000000000e+03,-6.792618943383934571e-01,0.000000000000000000e+00
1.547000000000000000e+03,-6.315649514709588130e-01,0.000000000000000000e+00
1.548000000000000000e+03,-5.633066373407352723e-01,0.000000000000000000e+00
1.549000000000000000e+03,-5.290115760701302738e-01,0.000000000000000000e+00
1.550000000000000000e+03,-3.927004732333892467e-01,0.000000000000000000e+00
1.551000000000000000e+03,-3.735109362284016465e-01,0.000000000000000000e+00
1.552000000000000000e+03,-2.257947031108422653e-01,0.000000000000000000e+00
1.553000000000000000e+03,-1.794389805462349163e-01,0.000000000000000000e+00
1.554000000000000000e+03,-2.303459413884428875e-01,0.000000000000000000e+00
1.555000000000000000e+03,-1.597181893829313359e-01,0.000000000000000000e+00
1.556000000000000000e+03,-1.734479944030284659e-01,0.000000000000000000e+00
1.557000000000000000e+03,-5.739487091126921348e-02,0.000000000000000000e+00
1.558000000000000000e+03,-1.459528273567089196e-01,0.000000000000000000e+00
1.559000000000000000e+03,8.724902023192733502e-02,0.000000000000000000e+00
1.560000000000000000e+03,-7.179549103775946517e-02,0.000000000000000000e+00
1.561000000000000000e+03,1.908956805279400093e-01,0.000000000000000000e+00
1.562000000000000000e+03,1.939290777929509879e-01,0.000000000000000000e+00
1.563000000000000000e+03,4.697688189914940304e-01,0.000000000000000000e+00
1.564000000000000000e+03,4.513582380623997747e-01,0.000000000000000000e+00
1.565000000000000000e+03,4.013722457691578649e-01,0.000000000000000000e+00
1.566000000000000000e+03,9.883890292057641302e-02,0.000000000000000000e+00
1.567000000000000000e+03,-2.348715267581083510e-02,0.000000000000000000e+00
1.568000000000000000e+03,-1.240885561603724124e-01,0.000000000000000000e+00
1.569000000000000000e+03,7.046495527789657654e-02,0.000000000000000000e+00
1.570000000000000000e+03,-1.592490489578352320e-01,0.000000000000000000e+00
1.571000000000000000e+03,1.723818559240369308e-01,0.000000000000000000e+00
1.572000000000000000e+03,-4.508871112111861312e-01,0.000000000000000000e+00
1.573000000000000000e+03,3.869916629535187003e+00,0.000000000000000000e+00
1.574000000000000000e+03,3.562501378906310467e+00,0.000000000000000000e+00
1.575000000000000000e+03,-2.247914178279214248e+00,1.000000000000000000e+00
1.576000000000000000e+03,-7.690841722333580099e-01,0.000000000000000000e+00
1.577000000000000000e+03,-8.925659747410208400e-01,0.000000000000000000e+00
1.578000000000000000e+03,-4.304175467045120440e-01,0.000000000000000000e+00
1.579000000000000000e+03,-5.309718450099539799e-01,0.000000000000000000e+00
1.580000000000000000e+03,-2.604227633540642239e-01,0.000000000000000000e+00
1.581000000000000000e+03,-3.521808630709267751e-01,0.000000000000000000e+00
1.582000000000000000e+03,-5.446249021071315061e-02,0.000000000000000000e+00
1.583000000000000000e+03,-1.491753867908715558e-01,0.000000000000000000e+00
1.584000000000000000e+03,1.981383835140047150e-02,0.000000000000000000e+00
1.585000000000000000e+03,1.938094376099794638e-02,0.000000000000000000e+00
