timestamp,ecg_measurement,qrs_detected
0.000000000000000000e+00,2.538263517711301653e-01,0.000000000000000000e+00
1.000000000000000000e+00,4.739688488530334753e-01,0.000000000000000000e+00
2.000000000000000000e+00,3.111355183742471886e-01,0.000000000000000000e+00
3.000000000000000000e+00,4.293311796736399427e-02,0.000000000000000000e+00
4.000000000000000000e+00,-1.731498553977519339e-01,0.000000000000000000e+00
5.000000000000000000e+00,-1.917318215062189524e-01,0.000000000000000000e+00
6.000000000000000000e+00,-3.261090248407464420e-01,0.000000000000000000e+00
7.000000000000000000e+00,-1.707474925591657144e-01,0.000000000000000000e+00
8.000000000000000000e+00,-3.279540480183010809e-01,0.000000000000000000e+00
9.000000000000000000e+00,-2.959249595992588522e-01,0.000000000000000000e+00
1.000000000000000000e+01,-2.690762749475942295e-01,0.000000000000000000e+00
1.100000000000000000e+01,-2.244000310997242287e-01,0.000000000000000000e+00
1.200000000000000000e+01,-1.787990359486929526e-01,0.000000000000000000e+00
1.300000000000000000e+01,-3.114899774196565607e-01,0.000000000000000000e+00
1.400000000000000000e+01,-3.670992753750393356e-01,0.000000000000000000e+00
1.500000000000000000e+01,-3.670125447084794379e-01,0.000000000000000000e+00
1.600000000000000000e+01,-1.695703154463861217e-01,0.000000000000000000e+00
1.700000000000000000e+01,-2.980373331537753412e-01,0.000000000000000000e+00
1.800000000000000000e+01,2.546805054095303555e-01,0.000000000000000000e+00
1.900000000000000000e+01,1.487406814042055159e-01,0.000000000000000000e+00
2.000000000000000000e+01,2.186228547979397474e-01,0.000000000000000000e+00
2.100000000000000000e+01,-3.185049180684390580e-01,0.000000000000000000e+00
2.200000000000000000e+01,-3.741134234733716757e-01,0.000000000000000000e+00
2.300000000000000000e+01,-6.490047622855359410e-01,0.000000000000000000e+00
2.400000000000000000e+01,-1.973460676507917122e-01,0.000000000000000000e+00
2.500000000000000000e+01,-5.425672066361159063e-01,0.000000000000000000e+00
2.600000000000000000e+01,2.309777606396229074e-02,0.000000000000000000e+00
2.700000000000000000e+01,-9.109337608787444474e-01,0.000000000000000000e+00
2.800000000000000000e+01,4.302973608745187306e+00,0.000000000000000000e+00
2.900000000000000000e+01,1.948371257890228803e+00,1.000000000000000000e+00
3.000000000000000000e+01,-3.333972964515243387e+00,0.000000000000000000e+00
3.100000000000000000e+01,2.352903020825454147e-02,0.000000000000000000e+00
3.200000000000000000e+01,-8.937539343726370600e-01,0.000000000000000000e+00
3.300000000000000000e+01,-3.266445144539410761e-02,0.000000000000000000e+00
3.400000000000000000e+01,-5.083179642328854442e-01,0.000000000000000000e+00
3.500000000000000000e+01,2.297987654345439168e-01,0.000000000000000000e+00
3.600000000000000000e+01,-1.408634440585335712e-01,0.000000000000000000e+00
3.700000000000000000e+01,3.142629722120840463e-01,0.000000000000000000e+00
3.800000000000000000e+01,-5.364813118229587972e-03,0.000000000000000000e+00
3.900000000000000000e+01,4.941083112010988820e-01,0.000000000000000000e+00
4.000000000000000000e+01,4.878705795627527597e-02,0.000000000000000000e+00
4.100000000000000000e+01,7.434368425420012638e-01,0.000000000000000000e+00
4.200000000000000000e+01,1.019855941610920830e-01,0.000000000000000000e+00
4.300000000000000000e+01,4.427881602613649159e-01,0.000000000000000000e+00
4.400000000000000000e+01,1.398598190829666577e-01,0.000000000000000000e+00
4.500000000000000000e+01,8.703605604995033607e-02,0.000000000000000000e+00
4.600000000000000000e+01,-4.508657328508699491e-01,0.000000000000000000e+00
4.700000000000000000e+01,-4.510980747122594336e-01,0.000000000000000000e+00
4.800000000000000000e+01,-5.900025492654965564e-01,0.000000000000000000e+00
4.900000000000000000e+01,-4.130639684072354156e-01,0.000000000000000000e+00
5.000000000000000000e+01,-5.390096971433500084e-01,0.000000000000000000e+00
5.100000000000000000e+01,-3.431216219988667548e-01,0.000000000000000000e+00
5.200000000000000000e+01,-5.634299788401908593e-01,0.000000000000000000e+00
5.300000000000000000e+01,-1.251589263408709740e-01,0.000000000000000000e+00
5.400000000000000000e+01,-4.562328849097422312e-01,0.000000000000000000e+00
5.500000000000000000e+01,-2.475218507315151972e-01,0.000000000000000000e+00
5.600000000000000000e+01,-3.212438371676742399e-01,0.000000000000000000e+00
5.700000000000000000e+01,-1.741334514932052213e-01,0.000000000000000000e+00
5.800000000000000000e+01,-3.178577166464011672e-01,0.000000000000000000e+00
5.900000000000000000e+01,-1.630925984885586710e-01,0.000000000000000000e+00
6.000000000000000000e+01,-1.511011476826885913e-01,0.000000000000000000e+00
6.100000000000000000e+01,4.120958270846019622e-01,0.000000000000000000e+00
6.200000000000000000e+01,3.640782779096368715e-02,0.000000000000000000e+00
6.300000000000000000e+01,5.174574666823673619e-01,0.000000000000000000e+00
6.400000000000000000e+01,-2.210809318425264458e-01,0.000000000000000000e+00
6.500000000000000000e+01,-2.962740234778663551e-01,0.000000000000000000e+00
6.600000000000000000e+01,-3.171376423669003963e-01,0.000000000000000000e+00
6.700000000000000000e+01,-1.712794761163119739e-01,0.000000000000000000e+00
6.800000000000000000e+01,-4.185573292334707762e-01,0.000000000000000000e+00
6.900000000000000000e+01,1.919193989119551969e-01,0.000000000000000000e+00
7.000000000000000000e+01,-5.492085462298050835e-01,0.000000000000000000e+00
7.100000000000000000e+01,5.076423173401618527e+00,0.000000000000000000e+00
7.200000000000000000e+01,6.718796476354096381e-01,1.000000000000000000e+00
7.300000000000000000e+01,-3.019095764808851445e+00,0.000000000000000000e+00
7.400000000000000000e+01,-1.439414147343049122e-01,0.000000000000000000e+00
7.500000000000000000e+01,-9.418709410266488113e-01,0.000000000000000000e+00
7.600000000000000000e+01,1.854679087430864404e-01,0.000000000000000000e+00
7.700000000000000000e+01,-4.688920112221037773e-01,0.000000000000000000e+00
7.800000000000000000e+01,3.082220094957737258e-02,0.000000000000000000e+00
7.900000000000000000e+01,-2.821989714090105683e-01,0.000000000000000000e+00
8.000000000000000000e+01,1.195769245835596045e-01,0.000000000000000000e+00
8.100000000000000000e+01,1.551883073353645809e-02,0.000000000000000000e+00
8.200000000000000000e+01,3.704054808987850000e-01,0.000000000000000000e+00
8.300000000000000000e+01,3.972647193619876504e-01,0.000000000000000000e+00
8.400000000000000000e+01,5.138859157558212098e-01,0.000000000000000000e+00
8.500000000000000000e+01,3.108763183503689964e-01,0.000000000000000000e+00
8.600000000000000000e+01,5.068117622964309898e-01,0.000000000000000000e+00
8.700000000000000000e+01,3.257465694721961569e-01,0.000000000000000000e+00
8.800000000000000000e+01,1.499682340689132420e-01,0.000000000000000000e+00
8.900000000000000000e+01,4.768686379536556108e-03,0.000000000000000000e+00
9.000000000000000000e+01,-1.280435286311324972e-01,0.000000000000000000e+00
9.100000000000000000e+01,-2.619289990686568537e-01,0.000000000000000000e+00
9.200000000000000000e+01,-1.835403873398077923e-01,0.000000000000000000e+00
9.300000000000000000e+01,-2.575859994380688134e-01,0.000000000000000000e+00
9.400000000000000000e+01,-4.112789690285797994e-02,0.000000000000000000e+00
9.500000000000000000e+01,-2.047302316521211474e-01,0.000000000000000000e+00
9.600000000000000000e+01,-5.865283827359295266e-02,0.000000000000000000e+00
9.700000000000000000e+01,-2.810660531998295797e-01,0.000000000000000000e+00
9.800000000000000000e+01,-2.846696877337202489e-02,0.000000000000000000e+00
9.900000000000000000e+01,-1.623311957326615540e-01,0.000000000000000000e+00
1.000000000000000000e+02,-1.051767249334593229e-01,0.000000000000000000e+00
1.010000000000000000e+02,-3.281927864830767039e-01,0.000000000000000000e+00
1.020000000000000000e+02,3.065976509575385825e-02,0.000000000000000000e+00
1.030000000000000000e+02,1.305652358940347368e-01,0.000000000000000000e+00
1.040000000000000000e+02,4.386783514271679896e-01,0.000000000000000000e+00
1.050000000000000000e+02,4.192657580300806486e-01,0.000000000000000000e+00
1.060000000000000000e+02,4.273882841018232237e-01,0.000000000000000000e+00
1.070000000000000000e+02,-2.457162676480797170e-01,0.000000000000000000e+00
1.080000000000000000e+02,-1.231975029645392405e-01,0.000000000000000000e+00
1.090000000000000000e+02,-1.774748089512233895e-01,0.000000000000000000e+00
1.100000000000000000e+02,-6.313538700772830525e-02,0.000000000000000000e+00
1.110000000000000000e+02,-7.709102798823044833e-02,0.000000000000000000e+00
1.120000000000000000e+02,-4.785603596598739934e-02,0.000000000000000000e+00
1.130000000000000000e+02,5.826136039921789855e-01,0.000000000000000000e+00
1.140000000000000000e+02,5.629542967814293419e+00,0.000000000000000000e+00
1.150000000000000000e+02,-1.340378789105589608e+00,1.000000000000000000e+00
1.160000000000000000e+02,-2.218652689133774558e+00,0.000000000000000000e+00
1.170000000000000000e+02,1.644743640123114414e-01,0.000000000000000000e+00
1.180000000000000000e+02,-4.486376789556295597e-01,0.000000000000000000e+00
1.190000000000000000e+02,1.057961219071539699e-01,0.000000000000000000e+00
1.200000000000000000e+02,-8.899129668103319957e-02,0.000000000000000000e+00
1.210000000000000000e+02,2.126111741313591597e-01,0.000000000000000000e+00
1.220000000000000000e+02,1.862377097862797370e-01,0.000000000000000000e+00
1.230000000000000000e+02,3.850667073313061017e-01,0.000000000000000000e+00
1.240000000000000000e+02,2.859169668327226077e-01,0.000000000000000000e+00
1.250000000000000000e+02,4.890101788645648817e-01,0.000000000000000000e+00
1.260000000000000000e+02,4.309769294846956811e-01,0.000000000000000000e+00
1.270000000000000000e+02,5.914531878472892856e-01,0.000000000000000000e+00
1.280000000000000000e+02,4.383956233910969447e-01,0.000000000000000000e+00
1.290000000000000000e+02,7.355319644733757656e-01,0.000000000000000000e+00
1.300000000000000000e+02,2.017656867656948128e-01,0.000000000000000000e+00
1.310000000000000000e+02,-1.095215615968025274e-01,0.000000000000000000e+00
1.320000000000000000e+02,-4.250126018034014463e-01,0.000000000000000000e+00
1.330000000000000000e+02,-6.339693140978256425e-01,0.000000000000000000e+00
1.340000000000000000e+02,-4.430637362918564137e-01,0.000000000000000000e+00
1.350000000000000000e+02,-4.528480226573846634e-01,0.000000000000000000e+00
1.360000000000000000e+02,-4.575414985019091163e-01,0.000000000000000000e+00
1.370000000000000000e+02,-4.566582474191378527e-01,0.000000000000000000e+00
1.380000000000000000e+02,-6.013416942318260405e-01,0.000000000000000000e+00
1.390000000000000000e+02,-4.858989928784518963e-01,0.000000000000000000e+00
1.400000000000000000e+02,-3.990821695255484802e-01,0.000000000000000000e+00
1.410000000000000000e+02,-5.012900497517562837e-01,0.000000000000000000e+00
1.420000000000000000e+02,-4.920273016129923516e-01,0.000000000000000000e+00
1.430000000000000000e+02,-5.286448537503753986e-01,0.000000000000000000e+00
1.440000000000000000e+02,-5.461894166926456462e-01,0.000000000000000000e+00
1.450000000000000000e+02,-5.413071989896000025e-01,0.000000000000000000e+00
1.460000000000000000e+02,-4.640817968423464022e-03,0.000000000000000000e+00
1.470000000000000000e+02,-1.534780711245963825e-01,0.000000000000000000e+00
1.480000000000000000e+02,6.667258273175621919e-02,0.000000000000000000e+00
1.490000000000000000e+02,-1.804985097960397078e-01,0.000000000000000000e+00
1.500000000000000000e+02,-5.672855104235278167e-01,0.000000000000000000e+00
1.510000000000000000e+02,-5.470417898833823678e-01,0.000000000000000000e+00
1.520000000000000000e+02,-2.952577519198903988e-01,0.000000000000000000e+00
1.530000000000000000e+02,-4.631794216964402744e-01,0.000000000000000000e+00
1.540000000000000000e+02,-1.164007470012033418e-01,0.000000000000000000e+00
1.550000000000000000e+02,-8.197467276847065776e-01,0.000000000000000000e+00
1.560000000000000000e+02,1.967269279599032306e+00,0.000000000000000000e+00
1.570000000000000000e+02,4.653480898208003147e+00,0.000000000000000000e+00
1.580000000000000000e+02,-3.176922136572237321e+00,1.000000000000000000e+00
1.590000000000000000e+02,-1.164804788866788066e+00,0.000000000000000000e+00
1.600000000000000000e+02,-5.912282746405411737e-01,0.000000000000000000e+00
1.610000000000000000e+02,-4.161810021827719308e-01,0.000000000000000000e+00
1.620000000000000000e+02,-4.037374672395322994e-01,0.000000000000000000e+00
1.630000000000000000e+02,-5.377024535730564464e-02,0.000000000000000000e+00
1.640000000000000000e+02,-2.408569448151461345e-01,0.000000000000000000e+00
1.650000000000000000e+02,9.852987210234760707e-03,0.000000000000000000e+00
1.660000000000000000e+02,2.593144786649793643e-01,0.000000000000000000e+00
1.670000000000000000e+02,4.214985967926677957e-02,0.000000000000000000e+00
1.680000000000000000e+02,5.471735483537040201e-01,0.000000000000000000e+00
1.690000000000000000e+02,4.640631640371304933e-01,0.000000000000000000e+00
1.700000000000000000e+02,4.125278987377530293e-01,0.000000000000000000e+00
1.710000000000000000e+02,3.847334931660444934e-01,0.000000000000000000e+00
1.720000000000000000e+02,6.205683726110126086e-01,0.000000000000000000e+00
1.730000000000000000e+02,4.066924656037154140e-01,0.000000000000000000e+00
1.740000000000000000e+02,-6.066580106202586892e-02,0.000000000000000000e+00
1.750000000000000000e+02,-1.162955145068801377e-01,0.000000000000000000e+00
1.760000000000000000e+02,-2.407913657124768070e-01,0.000000000000000000e+00
1.770000000000000000e+02,-8.602427822419346504e-02,0.000000000000000000e+00
1.780000000000000000e+02,-2.511743672630327162e-01,0.000000000000000000e+00
1.790000000000000000e+02,1.588160908221219331e-02,0.000000000000000000e+00
1.800000000000000000e+02,-2.539148506067213651e-01,0.000000000000000000e+00
1.810000000000000000e+02,-2.196281980644034793e-01,0.000000000000000000e+00
1.820000000000000000e+02,-1.115574087487443133e-01,0.000000000000000000e+00
1.830000000000000000e+02,-2.175928541134303229e-01,0.000000000000000000e+00
1.840000000000000000e+02,-1.912455781396752985e-01,0.000000000000000000e+00
1.850000000000000000e+02,-1.819560249555857989e-01,0.000000000000000000e+00
1.860000000000000000e+02,-7.532870088911804152e-02,0.000000000000000000e+00
1.870000000000000000e+02,-1.201178568419854348e-01,0.000000000000000000e+00
1.880000000000000000e+02,-5.363753795247030998e-02,0.000000000000000000e+00
1.890000000000000000e+02,1.335964540098224240e-01,0.000000000000000000e+00
1.900000000000000000e+02,4.169681285081197619e-01,0.000000000000000000e+00
1.910000000000000000e+02,5.020867978284642152e-01,0.000000000000000000e+00
1.920000000000000000e+02,6.920262999420849770e-01,0.000000000000000000e+00
1.930000000000000000e+02,-1.287919406196325056e-01,0.000000000000000000e+00
1.940000000000000000e+02,-1.211068135696929532e-01,0.000000000000000000e+00
1.950000000000000000e+02,1.076564879057179602e-03,0.000000000000000000e+00
1.960000000000000000e+02,8.794775445974208419e-03,0.000000000000000000e+00
1.970000000000000000e+02,8.433663396755743807e-03,0.000000000000000000e+00
1.980000000000000000e+02,9.071477281577632057e-02,0.000000000000000000e+00
1.990000000000000000e+02,4.687917442963461245e-01,0.000000000000000000e+00
2.000000000000000000e+02,5.928425836781263669e+00,0.000000000000000000e+00
2.010000000000000000e+02,-7.660678603801861497e-01,1.000000000000000000e+00
2.020000000000000000e+02,-1.985847034643065001e+00,0.000000000000000000e+00
2.030000000000000000e+02,8.360743896466457659e-02,0.000000000000000000e+00
2.040000000000000000e+02,-5.273361902670100632e-01,0.000000000000000000e+00
2.050000000000000000e+02,2.009952822862612065e-01,0.000000000000000000e+00
2.060000000000000000e+02,-2.564071420690787195e-01,0.000000000000000000e+00
2.070000000000000000e+02,2.818491971323410228e-01,0.000000000000000000e+00
2.080000000000000000e+02,7.361480775033167612e-02,0.000000000000000000e+00
2.090000000000000000e+02,3.978154031028714455e-01,0.000000000000000000e+00
2.100000000000000000e+02,2.514006980049830475e-01,0.000000000000000000e+00
2.110000000000000000e+02,5.739734449912003988e-01,0.000000000000000000e+00
2.120000000000000000e+02,3.164494393569295405e-01,0.000000000000000000e+00
2.130000000000000000e+02,5.086506741760844497e-01,0.000000000000000000e+00
2.140000000000000000e+02,3.152469034233121858e-01,0.000000000000000000e+00
2.150000000000000000e+02,5.849645814938199129e-01,0.000000000000000000e+00
2.160000000000000000e+02,1.932507140113064181e-01,0.000000000000000000e+00
2.170000000000000000e+02,7.141242847852978526e-02,0.000000000000000000e+00
2.180000000000000000e+02,-4.342951159458320887e-01,0.000000000000000000e+00
2.190000000000000000e+02,-1.715901721686535208e-01,0.000000000000000000e+00
2.200000000000000000e+02,-5.488454732983231166e-01,0.000000000000000000e+00
2.210000000000000000e+02,-2.835405969963256667e-01,0.000000000000000000e+00
2.220000000000000000e+02,-4.855872808921070094e-01,0.000000000000000000e+00
2.230000000000000000e+02,-2.744751611233980371e-01,0.000000000000000000e+00
2.240000000000000000e+02,-4.634739498134144986e-01,0.000000000000000000e+00
2.250000000000000000e+02,-2.553344048129485566e-01,0.000000000000000000e+00
2.260000000000000000e+02,-5.875998963022004418e-01,0.000000000000000000e+00
2.270000000000000000e+02,-1.320199580950211504e-01,0.000000000000000000e+00
2.280000000000000000e+02,-4.784017889362917608e-01,0.000000000000000000e+00
2.290000000000000000e+02,-2.365604700997675780e-01,0.000000000000000000e+00
2.300000000000000000e+02,-4.116103853327671702e-01,0.000000000000000000e+00
2.310000000000000000e+02,-1.786188046245572869e-01,0.000000000000000000e+00
2.320000000000000000e+02,-2.988991256571339461e-01,0.000000000000000000e+00
2.330000000000000000e+02,1.963269489366182563e-01,0.000000000000000000e+00
2.340000000000000000e+02,-5.212817847643902436e-02,0.000000000000000000e+00
2.350000000000000000e+02,5.021576071280027254e-01,0.000000000000000000e+00
2.360000000000000000e+02,-6.113990056929593554e-03,0.000000000000000000e+00
2.370000000000000000e+02,-1.979638732972617554e-01,0.000000000000000000e+00
2.380000000000000000e+02,-4.540230943913350914e-01,0.000000000000000000e+00
2.390000000000000000e+02,-8.272724924033783567e-02,0.000000000000000000e+00
2.400000000000000000e+02,-4.634152095148008632e-01,0.000000000000000000e+00
2.410000000000000000e+02,1.355934269644419321e-01,0.000000000000000000e+00
2.420000000000000000e+02,-7.992351935927564099e-01,0.000000000000000000e+00
2.430000000000000000e+02,2.288982197046804057e+00,0.000000000000000000e+00
2.440000000000000000e+02,4.643592253189625652e+00,0.000000000000000000e+00
2.450000000000000000e+02,-2.983750847521953631e+00,1.000000000000000000e+00
2.460000000000000000e+02,-9.467452285822962610e-01,0.000000000000000000e+00
2.470000000000000000e+02,-6.293991770119048423e-01,0.000000000000000000e+00
2.480000000000000000e+02,-4.896598659952283161e-01,0.000000000000000000e+00
2.490000000000000000e+02,-3.636287448156012014e-01,0.000000000000000000e+00
2.500000000000000000e+02,-3.167616062604200478e-01,0.000000000000000000e+00
2.510000000000000000e+02,-1.210671365370270397e-01,0.000000000000000000e+00
2.520000000000000000e+02,8.182181777121895483e-02,0.000000000000000000e+00
2.530000000000000000e+02,3.061010043439945164e-02,0.000000000000000000e+00
2.540000000000000000e+02,1.273382846557360726e-01,0.000000000000000000e+00
2.550000000000000000e+02,1.973195097318464764e-01,0.000000000000000000e+00
2.560000000000000000e+02,3.219814426349452696e-01,0.000000000000000000e+00
2.570000000000000000e+02,3.677728583155231989e-01,0.000000000000000000e+00
2.580000000000000000e+02,2.109153675218147783e-01,0.000000000000000000e+00
2.590000000000000000e+02,2.770826655932768223e-01,0.000000000000000000e+00
2.600000000000000000e+02,1.753040675981575036e-01,0.000000000000000000e+00
2.610000000000000000e+02,-1.620320938217009454e-01,0.000000000000000000e+00
2.620000000000000000e+02,-3.587065405981144650e-01,0.000000000000000000e+00
2.630000000000000000e+02,-4.144815227516255862e-01,0.000000000000000000e+00
2.640000000000000000e+02,-5.225450824180077891e-01,0.000000000000000000e+00
2.650000000000000000e+02,-3.318116762540311848e-01,0.000000000000000000e+00
2.660000000000000000e+02,-4.231770458686745506e-01,0.000000000000000000e+00
2.670000000000000000e+02,-4.120748730195806231e-01,0.000000000000000000e+00
2.680000000000000000e+02,-4.185021851583144992e-01,0.000000000000000000e+00
2.690000000000000000e+02,-2.987629379244924888e-01,0.000000000000000000e+00
2.700000000000000000e+02,-3.062780470641481845e-01,0.000000000000000000e+00
2.710000000000000000e+02,-3.276678730152273733e-01,0.000000000000000000e+00
2.720000000000000000e+02,-4.380557743480977817e-01,0.000000000000000000e+00
2.730000000000000000e+02,-7.486047768595613383e-02,0.000000000000000000e+00
2.740000000000000000e+02,-4.367014861163587836e-01,0.000000000000000000e+00
2.750000000000000000e+02,-1.700611808327723573e-01,0.000000000000000000e+00
2.760000000000000000e+02,-8.924158598269509024e-02,0.000000000000000000e+00
2.770000000000000000e+02,2.862605855825488543e-01,0.000000000000000000e+00
2.780000000000000000e+02,3.073022143613855506e-01,0.000000000000000000e+00
2.790000000000000000e+02,5.782158181756796855e-01,0.000000000000000000e+00
2.800000000000000000e+02,-1.561611399746453133e-01,0.000000000000000000e+00
2.810000000000000000e+02,-1.069738739089672180e-01,0.000000000000000000e+00
2.820000000000000000e+02,-2.758871074750704477e-01,0.000000000000000000e+00
2.830000000000000000e+02,2.311243704702774793e-01,0.000000000000000000e+00
2.840000000000000000e+02,-2.570595730971818038e-01,0.000000000000000000e+00
2.850000000000000000e+02,4.161164240365014533e-01,0.000000000000000000e+00
2.860000000000000000e+02,-4.323111955529838624e-01,0.000000000000000000e+00
2.870000000000000000e+02,5.159574557200039990e+00,0.000000000000000000e+00
2.880000000000000000e+02,1.422697519824350554e+00,1.000000000000000000e+00
2.890000000000000000e+02,-2.968686214589185912e+00,0.000000000000000000e+00
2.900000000000000000e+02,2.629892939832628174e-01,0.000000000000000000e+00
2.910000000000000000e+02,-7.202915168079168096e-01,0.000000000000000000e+00
2.920000000000000000e+02,4.999691253243320616e-02,0.000000000000000000e+00
2.930000000000000000e+02,-3.715148621546556784e-01,0.000000000000000000e+00
2.940000000000000000e+02,2.818379704195257407e-01,0.000000000000000000e+00
2.950000000000000000e+02,-1.434322951072690977e-01,0.000000000000000000e+00
2.960000000000000000e+02,3.387765767975642883e-01,0.000000000000000000e+00
2.970000000000000000e+02,3.733476610167007353e-02,0.000000000000000000e+00
2.980000000000000000e+02,3.721576512295416417e-01,0.000000000000000000e+00
2.990000000000000000e+02,1.281395664217478414e-01,0.000000000000000000e+00
3.000000000000000000e+02,4.177125499817327392e-01,0.000000000000000000e+00
3.010000000000000000e+02,3.255067427257341550e-01,0.000000000000000000e+00
3.020000000000000000e+02,5.710099337603427028e-01,0.000000000000000000e+00
3.030000000000000000e+02,1.267375974708871700e-01,0.000000000000000000e+00
3.040000000000000000e+02,7.018500481535126789e-02,0.000000000000000000e+00
3.050000000000000000e+02,-3.237090874947533559e-01,0.000000000000000000e+00
3.060000000000000000e+02,-3.280993587502248343e-01,0.000000000000000000e+00
3.070000000000000000e+02,-5.226601619635018459e-01,0.000000000000000000e+00
3.080000000000000000e+02,-2.264395563643285536e-01,0.000000000000000000e+00
3.090000000000000000e+02,-6.438617193476119382e-01,0.000000000000000000e+00
3.100000000000000000e+02,-1.596396762381413759e-01,0.000000000000000000e+00
3.110000000000000000e+02,-4.604850365076600949e-01,0.000000000000000000e+00
3.120000000000000000e+02,-3.312772393713172003e-01,0.000000000000000000e+00
3.130000000000000000e+02,-4.860511065178498846e-01,0.000000000000000000e+00
3.140000000000000000e+02,-1.874485935856497199e-01,0.000000000000000000e+00
3.150000000000000000e+02,-4.319778463371673483e-01,0.000000000000000000e+00
3.160000000000000000e+02,-2.183961817943951000e-01,0.000000000000000000e+00
3.170000000000000000e+02,-4.594403034049915902e-01,0.000000000000000000e+00
3.180000000000000000e+02,8.029047617240402113e-02,0.000000000000000000e+00
3.190000000000000000e+02,-3.653912735672883993e-01,0.000000000000000000e+00
3.200000000000000000e+02,4.013381529478846077e-01,0.000000000000000000e+00
3.210000000000000000e+02,-7.309391403923082633e-03,0.000000000000000000e+00
3.220000000000000000e+02,6.249157008881072173e-01,0.000000000000000000e+00
3.230000000000000000e+02,-3.345409380695294477e-01,0.000000000000000000e+00
3.240000000000000000e+02,-4.496132607357371767e-03,0.000000000000000000e+00
3.250000000000000000e+02,-4.569967375316495994e-01,0.000000000000000000e+00
3.260000000000000000e+02,1.444642516922133024e-01,0.000000000000000000e+00
3.270000000000000000e+02,-3.765018998446810761e-01,0.000000000000000000e+00
3.280000000000000000e+02,4.775297023309708622e-01,0.000000000000000000e+00
3.290000000000000000e+02,-1.586539180216332001e-01,0.000000000000000000e+00
3.300000000000000000e+02,5.418936325491912065e+00,0.000000000000000000e+00
3.310000000000000000e+02,-2.130357616016319983e-02,1.000000000000000000e+00
3.320000000000000000e+02,-3.119244100211933546e+00,0.000000000000000000e+00
3.330000000000000000e+02,2.326685358859741370e-01,0.000000000000000000e+00
3.340000000000000000e+02,-7.045149371723337106e-01,0.000000000000000000e+00
3.350000000000000000e+02,2.014977642849231643e-01,0.000000000000000000e+00
3.360000000000000000e+02,-3.400630813952280063e-01,0.000000000000000000e+00
3.370000000000000000e+02,1.641379879598718061e-01,0.000000000000000000e+00
3.380000000000000000e+02,4.050548022237298977e-03,0.000000000000000000e+00
3.390000000000000000e+02,3.315540643295302181e-01,0.000000000000000000e+00
3.400000000000000000e+02,1.345243773745710691e-01,0.000000000000000000e+00
3.410000000000000000e+02,6.910301677682189059e-01,0.000000000000000000e+00
3.420000000000000000e+02,4.552982905608527475e-01,0.000000000000000000e+00
3.430000000000000000e+02,6.036939187677289320e-01,0.000000000000000000e+00
3.440000000000000000e+02,4.857822812050116568e-01,0.000000000000000000e+00
3.450000000000000000e+02,6.747368869965784111e-01,0.000000000000000000e+00
3.460000000000000000e+02,3.257291207594449900e-01,0.000000000000000000e+00
3.470000000000000000e+02,-1.231214283941829517e-02,0.000000000000000000e+00
3.480000000000000000e+02,-4.876741505420757461e-01,0.000000000000000000e+00
3.490000000000000000e+02,-4.170282986004817394e-01,0.000000000000000000e+00
3.500000000000000000e+02,-6.219788231249548938e-01,0.000000000000000000e+00
3.510000000000000000e+02,-4.228888056519874983e-01,0.000000000000000000e+00
3.520000000000000000e+02,-5.175018125624630816e-01,0.000000000000000000e+00
3.530000000000000000e+02,-4.328453025507419394e-01,0.000000000000000000e+00
3.540000000000000000e+02,-4.775181210615862537e-01,0.000000000000000000e+00
3.550000000000000000e+02,-4.830040966807779834e-01,0.000000000000000000e+00
3.560000000000000000e+02,-3.718975996846173304e-01,0.000000000000000000e+00
3.570000000000000000e+02,-3.466322309291302584e-01,0.000000000000000000e+00
3.580000000000000000e+02,-3.833283604479563178e-01,0.000000000000000000e+00
3.590000000000000000e+02,-3.188984388125766789e-01,0.000000000000000000e+00
3.600000000000000000e+02,-2.354778411315303910e-01,0.000000000000000000e+00
3.610000000000000000e+02,-2.375179785307378055e-01,0.000000000000000000e+00
3.620000000000000000e+02,7.158587244831228491e-02,0.000000000000000000e+00
3.630000000000000000e+02,3.072746314255593303e-01,0.000000000000000000e+00
3.640000000000000000e+02,3.710414452441312405e-01,0.000000000000000000e+00
3.650000000000000000e+02,1.495730967586184901e-01,0.000000000000000000e+00
3.660000000000000000e+02,-1.140776465974689124e-01,0.000000000000000000e+00
3.670000000000000000e+02,-1.660625096426817382e-01,0.000000000000000000e+00
3.680000000000000000e+02,-2.434751080638256418e-02,0.000000000000000000e+00
3.690000000000000000e+02,-6.722249441873311138e-02,0.000000000000000000e+00
3.700000000000000000e+02,1.840127252756636189e-01,0.000000000000000000e+00
3.710000000000000000e+02,-2.724524395864709181e-01,0.000000000000000000e+00
3.720000000000000000e+02,1.964773993695710930e+00,0.000000000000000000e+00
3.730000000000000000e+02,5.158866079394544890e+00,0.000000000000000000e+00
3.740000000000000000e+02,-2.844989170551786462e+00,1.000000000000000000e+00
3.750000000000000000e+02,-1.412602320835894210e+00,0.000000000000000000e+00
3.760000000000000000e+02,-4.085148263985724504e-01,0.000000000000000000e+00
3.770000000000000000e+02,-3.131644030129719369e-01,0.000000000000000000e+00
3.780000000000000000e+02,-3.040609442585683331e-01,0.000000000000000000e+00
3.790000000000000000e+02,-1.862577195730203417e-01,0.000000000000000000e+00
3.800000000000000000e+02,-9.854284444862732029e-02,0.000000000000000000e+00
3.810000000000000000e+02,-2.380063352125473888e-02,0.000000000000000000e+00
3.820000000000000000e+02,3.652644198178742196e-02,0.000000000000000000e+00
3.830000000000000000e+02,2.587823900217458006e-01,0.000000000000000000e+00
3.840000000000000000e+02,3.325562506540118424e-01,0.000000000000000000e+00
3.850000000000000000e+02,5.686702449823721750e-01,0.000000000000000000e+00
3.860000000000000000e+02,3.873164586119516306e-01,0.000000000000000000e+00
3.870000000000000000e+02,3.331954318124722980e-01,0.000000000000000000e+00
3.880000000000000000e+02,3.480744369546128203e-01,0.000000000000000000e+00
3.890000000000000000e+02,2.030643826024753906e-01,0.000000000000000000e+00
3.900000000000000000e+02,-2.109491817598765639e-01,0.000000000000000000e+00
3.910000000000000000e+02,-5.956487067076811082e-01,0.000000000000000000e+00
3.920000000000000000e+02,-4.272034442428906398e-01,0.000000000000000000e+00
3.930000000000000000e+02,-5.221164718116836356e-01,0.000000000000000000e+00
3.940000000000000000e+02,-3.764975664201588579e-01,0.000000000000000000e+00
3.950000000000000000e+02,-5.741014888921144310e-01,0.000000000000000000e+00
3.960000000000000000e+02,-3.015634592187371732e-01,0.000000000000000000e+00
3.970000000000000000e+02,-2.905872397808156871e-01,0.000000000000000000e+00
3.980000000000000000e+02,-4.887374497172419230e-01,0.000000000000000000e+00
3.990000000000000000e+02,-2.609307778598942695e-01,0.000000000000000000e+00
4.000000000000000000e+02,-4.726340456476151863e-01,0.000000000000000000e+00
4.010000000000000000e+02,-2.009222073999000491e-01,0.000000000000000000e+00
4.020000000000000000e+02,-2.396349798526063446e-01,0.000000000000000000e+00
4.030000000000000000e+02,-6.078041808745168750e-02,0.000000000000000000e+00
4.040000000000000000e+02,-1.879601430235811055e-01,0.000000000000000000e+00
4.050000000000000000e+02,9.863881127242775382e-02,0.000000000000000000e+00
4.060000000000000000e+02,3.290584502210253115e-01,0.000000000000000000e+00
4.070000000000000000e+02,3.352500896218096327e-01,0.000000000000000000e+00
4.080000000000000000e+02,2.492427060680731110e-01,0.000000000000000000e+00
4.090000000000000000e+02,-1.838089874243909738e-01,0.000000000000000000e+00
4.100000000000000000e+02,-1.517749882754436397e-01,0.000000000000000000e+00
4.110000000000000000e+02,-1.350483174483454833e-02,0.000000000000000000e+00
4.120000000000000000e+02,-1.507625335698332958e-01,0.000000000000000000e+00
4.130000000000000000e+02,3.297054304436274896e-01,0.000000000000000000e+00
4.140000000000000000e+02,-3.244406239896581723e-01,0.000000000000000000e+00
4.150000000000000000e+02,2.440239136733322489e+00,0.000000000000000000e+00
4.160000000000000000e+02,4.714149822767115694e+00,0.000000000000000000e+00
4.170000000000000000e+02,-2.880296508029797309e+00,1.000000000000000000e+00
4.180000000000000000e+02,-7.379439863564302149e-01,0.000000000000000000e+00
4.190000000000000000e+02,-3.256326435814627107e-01,0.000000000000000000e+00
4.200000000000000000e+02,-8.732146927065186082e-02,0.000000000000000000e+00
4.210000000000000000e+02,-2.382745262540545972e-01,0.000000000000000000e+00
4.220000000000000000e+02,1.382826645965363754e-01,0.000000000000000000e+00
4.230000000000000000e+02,-1.400414724575207714e-01,0.000000000000000000e+00
4.240000000000000000e+02,3.245354234531551696e-01,0.000000000000000000e+00
4.250000000000000000e+02,3.909860992064681517e-01,0.000000000000000000e+00
4.260000000000000000e+02,3.291524755931275470e-01,0.000000000000000000e+00
4.270000000000000000e+02,3.437648967463448613e-01,0.000000000000000000e+00
4.280000000000000000e+02,5.491699566246394104e-01,0.000000000000000000e+00
4.290000000000000000e+02,4.755820606160847119e-01,0.000000000000000000e+00
4.300000000000000000e+02,5.521927037564107188e-01,0.000000000000000000e+00
4.310000000000000000e+02,4.983133969797658436e-01,0.000000000000000000e+00
4.320000000000000000e+02,5.977198306716174220e-02,0.000000000000000000e+00
4.330000000000000000e+02,-2.746351354609589679e-01,0.000000000000000000e+00
4.340000000000000000e+02,-4.017023794913488488e-01,0.000000000000000000e+00
4.350000000000000000e+02,-3.880528356622972019e-01,0.000000000000000000e+00
4.360000000000000000e+02,-3.827671986614078481e-01,0.000000000000000000e+00
4.370000000000000000e+02,-4.394402064417227138e-01,0.000000000000000000e+00
4.380000000000000000e+02,-3.716016805114419341e-01,0.000000000000000000e+00
4.390000000000000000e+02,-2.659388019176101570e-01,0.000000000000000000e+00
4.400000000000000000e+02,-3.457470548769769336e-01,0.000000000000000000e+00
4.410000000000000000e+02,-1.584750968226142365e-01,0.000000000000000000e+00
4.420000000000000000e+02,-3.697026751703495484e-01,0.000000000000000000e+00
4.430000000000000000e+02,-1.955727763346018500e-01,0.000000000000000000e+00
4.440000000000000000e+02,-2.329138598271584260e-01,0.000000000000000000e+00
4.450000000000000000e+02,-1.285637695351455057e-01,0.000000000000000000e+00
4.460000000000000000e+02,-1.720906875993820362e-01,0.000000000000000000e+00
4.470000000000000000e+02,-5.184560120459005134e-02,0.000000000000000000e+00
4.480000000000000000e+02,-4.076805081348788135e-02,0.000000000000000000e+00
4.490000000000000000e+02,5.304230402189192839e-01,0.000000000000000000e+00
4.500000000000000000e+02,3.023122716935263132e-01,0.000000000000000000e+00
4.510000000000000000e+02,3.442606108345521720e-01,0.000000000000000000e+00
4.520000000000000000e+02,-1.378738524365083762e-01,0.000000000000000000e+00
4.530000000000000000e+02,-2.244923219257576319e-01,0.000000000000000000e+00
4.540000000000000000e+02,-1.695229806447227650e-01,0.000000000000000000e+00
4.550000000000000000e+02,-2.598057069574047362e-02,0.000000000000000000e+00
4.560000000000000000e+02,-2.322970574699982360e-01,0.000000000000000000e+00
4.570000000000000000e+02,-1.005013974679793698e-01,0.000000000000000000e+00
4.580000000000000000e+02,1.020467162541100065e-01,0.000000000000000000e+00
4.590000000000000000e+02,5.317326859157565089e+00,0.000000000000000000e+00
4.600000000000000000e+02,-7.125507658661793808e-01,1.000000000000000000e+00
4.610000000000000000e+02,-2.436816494824346258e+00,0.000000000000000000e+00
4.620000000000000000e+02,-9.686995186235889885e-03,0.000000000000000000e+00
4.630000000000000000e+02,-8.978937251628458238e-01,0.000000000000000000e+00
4.640000000000000000e+02,4.613520508924705971e-02,0.000000000000000000e+00
4.650000000000000000e+02,-5.465111575058637650e-01,0.000000000000000000e+00
4.660000000000000000e+02,1.200062744519880265e-01,0.000000000000000000e+00
4.670000000000000000e+02,-2.101129612256418255e-01,0.000000000000000000e+00
4.680000000000000000e+02,1.023607319490102696e-01,0.000000000000000000e+00
4.690000000000000000e+02,1.186105230690274667e-02,0.000000000000000000e+00
4.700000000000000000e+02,2.226323065007326518e-01,0.000000000000000000e+00
4.710000000000000000e+02,2.437468389977397176e-01,0.000000000000000000e+00
4.720000000000000000e+02,4.512979963083665891e-01,0.000000000000000000e+00
4.730000000000000000e+02,3.657857475372506828e-01,0.000000000000000000e+00
4.740000000000000000e+02,3.750445020338999957e-01,0.000000000000000000e+00
4.750000000000000000e+02,5.402908228228603393e-02,0.000000000000000000e+00
4.760000000000000000e+02,-8.016676512623265027e-02,0.000000000000000000e+00
4.770000000000000000e+02,-4.391800666701073941e-01,0.000000000000000000e+00
4.780000000000000000e+02,-2.629590015997547714e-01,0.000000000000000000e+00
4.790000000000000000e+02,-4.242709615977994231e-01,0.000000000000000000e+00
4.800000000000000000e+02,-3.382689402072867613e-01,0.000000000000000000e+00
4.810000000000000000e+02,-6.625392659764662850e-01,0.000000000000000000e+00
4.820000000000000000e+02,-2.590481043912508663e-01,0.000000000000000000e+00
4.830000000000000000e+02,-5.194770178829095642e-01,0.000000000000000000e+00
4.840000000000000000e+02,-2.340749685228119548e-01,0.000000000000000000e+00
4.850000000000000000e+02,-3.946722082821880195e-01,0.000000000000000000e+00
4.860000000000000000e+02,-1.866761411409831872e-01,0.000000000000000000e+00
4.870000000000000000e+02,-4.282290030150353033e-01,0.000000000000000000e+00
4.880000000000000000e+02,-2.563815885443034293e-01,0.000000000000000000e+00
4.890000000000000000e+02,-3.126361238821090405e-01,0.000000000000000000e+00
4.900000000000000000e+02,1.364662846346787958e-02,0.000000000000000000e+00
4.910000000000000000e+02,-2.331578028772007538e-01,0.000000000000000000e+00
4.920000000000000000e+02,1.374477216588106399e-01,0.000000000000000000e+00
4.930000000000000000e+02,4.617766345159480396e-02,0.000000000000000000e+00
4.940000000000000000e+02,4.928750467481448627e-01,0.000000000000000000e+00
4.950000000000000000e+02,-1.563550293808677050e-01,0.000000000000000000e+00
4.960000000000000000e+02,-2.038442968683974177e-01,0.000000000000000000e+00
4.970000000000000000e+02,-6.473602895790391276e-01,0.000000000000000000e+00
4.980000000000000000e+02,-6.006921533027793914e-02,0.000000000000000000e+00
4.990000000000000000e+02,-4.947772206337517908e-01,0.000000000000000000e+00
5.000000000000000000e+02,1.636272102354817959e-01,0.000000000000000000e+00
5.010000000000000000e+02,-9.008920196204782682e-01,0.000000000000000000e+00
5.020000000000000000e+02,3.356903155748728551e+00,0.000000000000000000e+00
5.030000000000000000e+02,3.554682267280589336e+00,0.000000000000000000e+00
5.040000000000000000e+02,-3.067074672700714100e+00,1.000000000000000000e+00
5.050000000000000000e+02,-3.296990680226146164e-01,0.000000000000000000e+00
5.060000000000000000e+02,-6.437366876499232005e-01,0.000000000000000000e+00
5.070000000000000000e+02,-8.579700681936661133e-02,0.000000000000000000e+00
5.080000000000000000e+02,-2.908638823493050474e-01,0.000000000000000000e+00
5.090000000000000000e+02,-4.095644058252242287e-02,0.000000000000000000e+00
5.100000000000000000e+02,5.312881608287852581e-02,0.000000000000000000e+00
5.110000000000000000e+02,2.772852693188003204e-01,0.000000000000000000e+00
5.120000000000000000e+02,3.449741342139620026e-01,0.000000000000000000e+00
5.130000000000000000e+02,2.362449345210988760e-01,0.000000000000000000e+00
5.140000000000000000e+02,6.071181155834634025e-01,0.000000000000000000e+00
5.150000000000000000e+02,6.554717288989171387e-01,0.000000000000000000e+00
5.160000000000000000e+02,3.846804704009536002e-01,0.000000000000000000e+00
5.170000000000000000e+02,5.856910953601824898e-01,0.000000000000000000e+00
5.180000000000000000e+02,5.416973728623805107e-01,0.000000000000000000e+00
5.190000000000000000e+02,4.848839447621176024e-01,0.000000000000000000e+00
5.200000000000000000e+02,2.259741751920502778e-02,0.000000000000000000e+00
5.210000000000000000e+02,-9.561514521948732970e-02,0.000000000000000000e+00
5.220000000000000000e+02,-2.044588770604028605e-01,0.000000000000000000e+00
5.230000000000000000e+02,-2.670228415771933039e-01,0.000000000000000000e+00
5.240000000000000000e+02,-1.444100212075995204e-01,0.000000000000000000e+00
5.250000000000000000e+02,-1.510212647943125486e-01,0.000000000000000000e+00
5.260000000000000000e+02,-2.104999647777528460e-01,0.000000000000000000e+00
5.270000000000000000e+02,-2.190719998944038738e-01,0.000000000000000000e+00
5.280000000000000000e+02,-2.557705180198650008e-01,0.000000000000000000e+00
5.290000000000000000e+02,-2.639460628854742863e-01,0.000000000000000000e+00
5.300000000000000000e+02,-2.596293632235689985e-01,0.000000000000000000e+00
5.310000000000000000e+02,-8.680664418276305694e-02,0.000000000000000000e+00
5.320000000000000000e+02,-1.063677782843295283e-01,0.000000000000000000e+00
5.330000000000000000e+02,-2.849239173895806165e-01,0.000000000000000000e+00
5.340000000000000000e+02,1.373782316326036534e-01,0.000000000000000000e+00
5.350000000000000000e+02,-5.878266491953171996e-02,0.000000000000000000e+00
5.360000000000000000e+02,3.124128492461498152e-01,0.000000000000000000e+00
5.370000000000000000e+02,3.815468365014952346e-01,0.000000000000000000e+00
5.380000000000000000e+02,6.205971291592380368e-01,0.000000000000000000e+00
5.390000000000000000e+02,-3.452776392005346695e-01,0.000000000000000000e+00
5.400000000000000000e+02,-1.436476054776471001e-01,0.000000000000000000e+00
5.410000000000000000e+02,-3.134168348139668159e-01,0.000000000000000000e+00
5.420000000000000000e+02,-6.154932335383040548e-02,0.000000000000000000e+00
5.430000000000000000e+02,-3.345421456023251472e-01,0.000000000000000000e+00
5.440000000000000000e+02,1.680198949659649776e-01,0.000000000000000000e+00
5.450000000000000000e+02,-1.307636976802374895e-01,0.000000000000000000e+00
5.460000000000000000e+02,5.364484288317360239e+00,0.000000000000000000e+00
5.470000000000000000e+02,9.801365788638044529e-02,1.000000000000000000e+00
5.480000000000000000e+02,-2.658441839667292861e+00,0.000000000000000000e+00
5.490000000000000000e+02,1.010391920809276672e-01,0.000000000000000000e+00
5.500000000000000000e+02,-7.622684905483566586e-01,0.000000000000000000e+00
5.510000000000000000e+02,2.959984725879066803e-02,0.000000000000000000e+00
5.520000000000000000e+02,-4.466445265803294373e-01,0.000000000000000000e+00
5.530000000000000000e+02,1.881418355054146618e-01,0.000000000000000000e+00
5.540000000000000000e+02,-3.607131477588056967e-01,0.000000000000000000e+00
5.550000000000000000e+02,2.924983011374081010e-01,0.000000000000000000e+00
5.560000000000000000e+02,-3.812099627585632117e-02,0.000000000000000000e+00
5.570000000000000000e+02,4.232787055970790857e-01,0.000000000000000000e+00
5.580000000000000000e+02,2.416753083108048039e-01,0.000000000000000000e+00
5.590000000000000000e+02,4.275350074940102996e-01,0.000000000000000000e+00
5.600000000000000000e+02,3.752982858465275101e-02,0.000000000000000000e+00
5.610000000000000000e+02,5.072732522611789197e-01,0.000000000000000000e+00
5.620000000000000000e+02,1.274937840098011865e-01,0.000000000000000000e+00
5.630000000000000000e+02,7.652806548079164883e-02,0.000000000000000000e+00
5.640000000000000000e+02,-4.551689725889638272e-01,0.000000000000000000e+00
5.650000000000000000e+02,-2.911137042523638807e-01,0.000000000000000000e+00
5.660000000000000000e+02,-6.494721258516275020e-01,0.000000000000000000e+00
5.670000000000000000e+02,-3.956704281538694912e-01,0.000000000000000000e+00
5.680000000000000000e+02,-6.570275405856662587e-01,0.000000000000000000e+00
5.690000000000000000e+02,-3.178184983371680761e-01,0.000000000000000000e+00
5.700000000000000000e+02,-5.346547590808649053e-01,0.000000000000000000e+00
5.710000000000000000e+02,-3.697604836818952911e-01,0.000000000000000000e+00
5.720000000000000000e+02,-4.463157619804556941e-01,0.000000000000000000e+00
5.730000000000000000e+02,-3.470098857028512951e-01,0.000000000000000000e+00
5.740000000000000000e+02,-5.797975486274941082e-01,0.000000000000000000e+00
5.750000000000000000e+02,-2.348080221295040793e-01,0.000000000000000000e+00
5.760000000000000000e+02,-3.956664942388514739e-01,0.000000000000000000e+00
5.770000000000000000e+02,-1.867830510989462178e-01,0.000000000000000000e+00
5.780000000000000000e+02,-1.913741181851255913e-01,0.000000000000000000e+00
5.790000000000000000e+02,1.348409903833305279e-01,0.000000000000000000e+00
5.800000000000000000e+02,8.900335890794135174e-02,0.000000000000000000e+00
5.810000000000000000e+02,2.529832362595315631e-01,0.000000000000000000e+00
5.820000000000000000e+02,1.063760643942041478e-01,0.000000000000000000e+00
5.830000000000000000e+02,-2.554691444001340184e-01,0.000000000000000000e+00
5.840000000000000000e+02,-3.281224668929106913e-01,0.000000000000000000e+00
5.850000000000000000e+02,-2.401622599794741575e-01,0.000000000000000000e+00
5.860000000000000000e+02,-3.873791215688764389e-01,0.000000000000000000e+00
5.870000000000000000e+02,8.015168104256371884e-02,0.000000000000000000e+00
5.880000000000000000e+02,-6.076930495283197065e-01,0.000000000000000000e+00
5.890000000000000000e+02,2.427695601892053467e+00,0.000000000000000000e+00
5.900000000000000000e+02,4.310680091963873473e+00,0.000000000000000000e+00
5.910000000000000000e+02,-3.101548655090489159e+00,1.000000000000000000e+00
5.920000000000000000e+02,-7.905863615530168698e-01,0.000000000000000000e+00
5.930000000000000000e+02,-5.409454898117637134e-01,0.000000000000000000e+00
5.940000000000000000e+02,-3.460337493852704838e-01,0.000000000000000000e+00
5.950000000000000000e+02,-3.158846667702330802e-01,0.000000000000000000e+00
5.960000000000000000e+02,-3.299067441112956550e-02,0.000000000000000000e+00
5.970000000000000000e+02,-1.582601859074305450e-01,0.000000000000000000e+00
5.980000000000000000e+02,1.527464654412348001e-02,0.000000000000000000e+00
5.990000000000000000e+02,1.209110538997199280e-01,0.000000000000000000e+00
6.000000000000000000e+02,1.290740091772629716e-01,0.000000000000000000e+00
6.010000000000000000e+02,2.934047515330751033e-01,0.000000000000000000e+00
6.020000000000000000e+02,5.067639615692691724e-01,0.000000000000000000e+00
6.030000000000000000e+02,3.732084941988184079e-01,0.000000000000000000e+00
6.040000000000000000e+02,4.394081902816370788e-01,0.000000000000000000e+00
6.050000000000000000e+02,3.241825396659511194e-01,0.000000000000000000e+00
6.060000000000000000e+02,2.023135704197628892e-01,0.000000000000000000e+00
6.070000000000000000e+02,-1.468913146350581643e-02,0.000000000000000000e+00
6.080000000000000000e+02,-1.637653531765977666e-01,0.000000000000000000e+00
6.090000000000000000e+02,-4.175456250407203473e-01,0.000000000000000000e+00
6.100000000000000000e+02,-2.540798822241147059e-01,0.000000000000000000e+00
6.110000000000000000e+02,-4.166776336618397969e-01,0.000000000000000000e+00
6.120000000000000000e+02,-3.053856979491717527e-01,0.000000000000000000e+00
6.130000000000000000e+02,-1.732022416244411722e-01,0.000000000000000000e+00
6.140000000000000000e+02,-3.107605978515684542e-01,0.000000000000000000e+00
6.150000000000000000e+02,-2.074555117813163818e-01,0.000000000000000000e+00
6.160000000000000000e+02,-2.665118439504313708e-01,0.000000000000000000e+00
6.170000000000000000e+02,-2.219889196186750624e-01,0.000000000000000000e+00
6.180000000000000000e+02,-2.362120249806707040e-01,0.000000000000000000e+00
6.190000000000000000e+02,-1.976105692825834703e-01,0.000000000000000000e+00
6.200000000000000000e+02,-1.795371261909620431e-01,0.000000000000000000e+00
6.210000000000000000e+02,-1.410237565739469456e-01,0.000000000000000000e+00
6.220000000000000000e+02,1.424688156449337717e-01,0.000000000000000000e+00
6.230000000000000000e+02,2.275726641051783183e-01,0.000000000000000000e+00
6.240000000000000000e+02,2.904988184279875263e-01,0.000000000000000000e+00
6.250000000000000000e+02,4.764706243522106033e-01,0.000000000000000000e+00
6.260000000000000000e+02,-3.352954163794031883e-01,0.000000000000000000e+00
6.270000000000000000e+02,-1.392796262322293921e-01,0.000000000000000000e+00
6.280000000000000000e+02,-2.801248762643620549e-01,0.000000000000000000e+00
6.290000000000000000e+02,-5.442850391298451052e-02,0.000000000000000000e+00
6.300000000000000000e+02,-1.512514515521860836e-01,0.000000000000000000e+00
6.310000000000000000e+02,-8.558439533623421469e-02,0.000000000000000000e+00
6.320000000000000000e+02,8.062709965587522287e-01,0.000000000000000000e+00
6.330000000000000000e+02,5.381593113530638739e+00,0.000000000000000000e+00
6.340000000000000000e+02,-1.863871670242131406e+00,1.000000000000000000e+00
6.350000000000000000e+02,-1.600759141429358934e+00,0.000000000000000000e+00
6.360000000000000000e+02,-1.054449607658656113e-01,0.000000000000000000e+00
6.370000000000000000e+02,-5.215906366295776087e-01,0.000000000000000000e+00
6.380000000000000000e+02,-2.261211648655339912e-01,0.000000000000000000e+00
6.390000000000000000e+02,-2.086689238263819690e-01,0.000000000000000000e+00
6.400000000000000000e+02,-7.463224864345917309e-02,0.000000000000000000e+00
6.410000000000000000e+02,9.806971931614223703e-02,0.000000000000000000e+00
6.420000000000000000e+02,1.192333585908578880e-01,0.000000000000000000e+00
6.430000000000000000e+02,2.251340935552668954e-01,0.000000000000000000e+00
6.440000000000000000e+02,4.406545664966979858e-01,0.000000000000000000e+00
6.450000000000000000e+02,2.842157301566035632e-01,0.000000000000000000e+00
6.460000000000000000e+02,4.532177164438966899e-01,0.000000000000000000e+00
6.470000000000000000e+02,3.158727559556581688e-01,0.000000000000000000e+00
6.480000000000000000e+02,5.159160983785788801e-01,0.000000000000000000e+00
6.490000000000000000e+02,4.338285810177153201e-01,0.000000000000000000e+00
6.500000000000000000e+02,-3.627595730298110305e-02,0.000000000000000000e+00
6.510000000000000000e+02,-2.516122110057044878e-02,0.000000000000000000e+00
6.520000000000000000e+02,-3.899356067484075483e-01,0.000000000000000000e+00
6.530000000000000000e+02,-2.656882074334344646e-01,0.000000000000000000e+00
6.540000000000000000e+02,-8.023574055007223760e-02,0.000000000000000000e+00
6.550000000000000000e+02,-2.015227337486097670e-01,0.000000000000000000e+00
6.560000000000000000e+02,-1.847566011271928044e-01,0.000000000000000000e+00
6.570000000000000000e+02,-2.867382611430537298e-01,0.000000000000000000e+00
6.580000000000000000e+02,-6.128498052944629515e-02,0.000000000000000000e+00
6.590000000000000000e+02,-1.444590182108397569e-01,0.000000000000000000e+00
6.600000000000000000e+02,-3.034342383110629759e-01,0.000000000000000000e+00
6.610000000000000000e+02,-1.640068899951320769e-01,0.000000000000000000e+00
6.620000000000000000e+02,-1.698324346277178820e-01,0.000000000000000000e+00
6.630000000000000000e+02,-2.170167222194737400e-01,0.000000000000000000e+00
6.640000000000000000e+02,3.318389889704052853e-02,0.000000000000000000e+00
6.650000000000000000e+02,5.981684758501057408e-02,0.000000000000000000e+00
6.660000000000000000e+02,3.428099780639802252e-01,0.000000000000000000e+00
6.670000000000000000e+02,3.493602905524915703e-01,0.000000000000000000e+00
6.680000000000000000e+02,3.116556736262361960e-01,0.000000000000000000e+00
6.690000000000000000e+02,-2.433436119047129587e-01,0.000000000000000000e+00
6.700000000000000000e+02,-1.665318353913209926e-01,0.000000000000000000e+00
6.710000000000000000e+02,-1.567893264185993840e-01,0.000000000000000000e+00
6.720000000000000000e+02,-2.164556617900346147e-01,0.000000000000000000e+00
6.730000000000000000e+02,-1.454304903349811634e-02,0.000000000000000000e+00
6.740000000000000000e+02,-3.650642093084536799e-01,0.000000000000000000e+00
6.750000000000000000e+02,1.399023597611809722e+00,0.000000000000000000e+00
6.760000000000000000e+02,5.113400835273856693e+00,0.000000000000000000e+00
6.770000000000000000e+02,-2.510878971829144657e+00,1.000000000000000000e+00
6.780000000000000000e+02,-1.307658570433111178e+00,0.000000000000000000e+00
6.790000000000000000e+02,-1.802386975798162261e-01,0.000000000000000000e+00
6.800000000000000000e+02,-3.598823684093794828e-01,0.000000000000000000e+00
6.810000000000000000e+02,-5.580774675293349169e-02,0.000000000000000000e+00
6.820000000000000000e+02,-2.056875639974140024e-02,0.000000000000000000e+00
6.830000000000000000e+02,1.004682508203975227e-01,0.000000000000000000e+00
6.840000000000000000e+02,1.888090623976458327e-01,0.000000000000000000e+00
6.850000000000000000e+02,2.818860162258727264e-01,0.000000000000000000e+00
6.860000000000000000e+02,3.602839687617944153e-01,0.000000000000000000e+00
6.870000000000000000e+02,3.138738224468000104e-01,0.000000000000000000e+00
6.880000000000000000e+02,5.054335169527049976e-01,0.000000000000000000e+00
6.890000000000000000e+02,4.467656960411485745e-01,0.000000000000000000e+00
6.900000000000000000e+02,5.175320477046476686e-01,0.000000000000000000e+00
6.910000000000000000e+02,3.916092214634819269e-01,0.000000000000000000e+00
6.920000000000000000e+02,1.376697188536294414e-01,0.000000000000000000e+00
6.930000000000000000e+02,-2.627509587772392519e-01,0.000000000000000000e+00
6.940000000000000000e+02,-2.970888224979246761e-01,0.000000000000000000e+00
6.950000000000000000e+02,-4.324526273380714381e-01,0.000000000000000000e+00
6.960000000000000000e+02,-5.233644334658414943e-01,0.000000000000000000e+00
6.970000000000000000e+02,-2.629052073924522670e-01,0.000000000000000000e+00
6.980000000000000000e+02,-4.432911041771366856e-01,0.000000000000000000e+00
6.990000000000000000e+02,-4.730564981013329895e-01,0.000000000000000000e+00
7.000000000000000000e+02,-3.897081981582210530e-01,0.000000000000000000e+00
7.010000000000000000e+02,-3.486433953762689275e-01,0.000000000000000000e+00
7.020000000000000000e+02,-3.232806419623021066e-01,0.000000000000000000e+00
7.030000000000000000e+02,-5.091460750390257584e-01,0.000000000000000000e+00
7.040000000000000000e+02,-5.370085290483700424e-01,0.000000000000000000e+00
7.050000000000000000e+02,-3.271153997158431914e-01,0.000000000000000000e+00
7.060000000000000000e+02,-2.058428310367627356e-01,0.000000000000000000e+00
7.070000000000000000e+02,-2.316693101286502326e-02,0.000000000000000000e+00
7.080000000000000000e+02,1.314250705052440737e-01,0.000000000000000000e+00
7.090000000000000000e+02,9.424240967127520130e-02,0.000000000000000000e+00
7.100000000000000000e+02,2.831845215844537231e-02,0.000000000000000000e+00
7.110000000000000000e+02,-4.249756900718150709e-01,0.000000000000000000e+00
7.120000000000000000e+02,-3.889411747818117826e-01,0.000000000000000000e+00
7.130000000000000000e+02,-3.025119009287708383e-01,0.000000000000000000e+00
7.140000000000000000e+02,-2.635027115567125100e-01,0.000000000000000000e+00
7.150000000000000000e+02,-7.051560402980673603e-02,0.000000000000000000e+00
7.160000000000000000e+02,-4.124785508836602554e-01,0.000000000000000000e+00
7.170000000000000000e+02,1.818779547032332689e+00,0.000000000000000000e+00
7.180000000000000000e+02,4.865883337394098618e+00,0.000000000000000000e+00
7.190000000000000000e+02,-3.341809882698147938e+00,1.000000000000000000e+00
7.200000000000000000e+02,-1.347085309010527254e+00,0.000000000000000000e+00
7.210000000000000000e+02,-2.445549378427905318e-01,0.000000000000000000e+00
7.220000000000000000e+02,-3.104721410248452163e-01,0.000000000000000000e+00
7.230000000000000000e+02,-2.018679525065594227e-01,0.000000000000000000e+00
7.240000000000000000e+02,-2.111152671039006334e-01,0.000000000000000000e+00
7.250000000000000000e+02,1.816859639889719519e-02,0.000000000000000000e+00
7.260000000000000000e+02,1.203153662348519781e-01,0.000000000000000000e+00
7.270000000000000000e+02,1.929794246522654189e-01,0.000000000000000000e+00
7.280000000000000000e+02,2.888296915715288793e-01,0.000000000000000000e+00
7.290000000000000000e+02,4.656046985895026524e-01,0.000000000000000000e+00
7.300000000000000000e+02,6.118721457806106656e-01,0.000000000000000000e+00
7.310000000000000000e+02,6.130756023567579538e-01,0.000000000000000000e+00
7.320000000000000000e+02,4.377551382041831585e-01,0.000000000000000000e+00
7.330000000000000000e+02,5.263899141063986820e-01,0.000000000000000000e+00
7.340000000000000000e+02,1.972197901911123541e-01,0.000000000000000000e+00
7.350000000000000000e+02,-1.676528109403745137e-01,0.000000000000000000e+00
7.360000000000000000e+02,-2.053887555147609623e-01,0.000000000000000000e+00
7.370000000000000000e+02,-5.926147300934431206e-01,0.000000000000000000e+00
7.380000000000000000e+02,-5.378309295112793098e-01,0.000000000000000000e+00
7.390000000000000000e+02,-4.180449355402694467e-01,0.000000000000000000e+00
7.400000000000000000e+02,-3.760800460204829498e-01,0.000000000000000000e+00
7.410000000000000000e+02,-3.920907528771618855e-01,0.000000000000000000e+00
7.420000000000000000e+02,-3.635861323409062540e-01,0.000000000000000000e+00
7.430000000000000000e+02,-3.158598040153776654e-01,0.000000000000000000e+00
7.440000000000000000e+02,-3.601478654503972865e-01,0.000000000000000000e+00
7.450000000000000000e+02,-2.586106086919706115e-01,0.000000000000000000e+00
7.460000000000000000e+02,-3.983054131295269973e-01,0.000000000000000000e+00
7.470000000000000000e+02,-1.940522439807309263e-01,0.000000000000000000e+00
7.480000000000000000e+02,-2.043875950650495543e-01,0.000000000000000000e+00
7.490000000000000000e+02,-1.112029844852817362e-02,0.000000000000000000e+00
7.500000000000000000e+02,3.282664827425319509e-01,0.000000000000000000e+00
7.510000000000000000e+02,2.728192923818610338e-01,0.000000000000000000e+00
7.520000000000000000e+02,1.582312115683157105e-01,0.000000000000000000e+00
7.530000000000000000e+02,-2.833614381902051504e-01,0.000000000000000000e+00
7.540000000000000000e+02,-3.395170888282971755e-01,0.000000000000000000e+00
7.550000000000000000e+02,-1.117367378745171003e-01,0.000000000000000000e+00
7.560000000000000000e+02,-2.285086781916912391e-01,0.000000000000000000e+00
7.570000000000000000e+02,9.892956523699536486e-02,0.000000000000000000e+00
7.580000000000000000e+02,-3.317316577490758700e-01,0.000000000000000000e+00
7.590000000000000000e+02,1.871631301897294319e+00,0.000000000000000000e+00
7.600000000000000000e+02,4.786338322085846642e+00,0.000000000000000000e+00
7.610000000000000000e+02,-2.993041983914039861e+00,1.000000000000000000e+00
7.620000000000000000e+02,-1.120657328843016609e+00,0.000000000000000000e+00
7.630000000000000000e+02,-3.678870579122276441e-01,0.000000000000000000e+00
7.640000000000000000e+02,-2.078605455381094258e-01,0.000000000000000000e+00
7.650000000000000000e+02,-2.221320758141603624e-01,0.000000000000000000e+00
7.660000000000000000e+02,4.838249034818590394e-02,0.000000000000000000e+00
7.670000000000000000e+02,-4.856180001952913050e-02,0.000000000000000000e+00
7.680000000000000000e+02,1.427404759911890253e-01,0.000000000000000000e+00
7.690000000000000000e+02,2.069962855604606244e-01,0.000000000000000000e+00
7.700000000000000000e+02,4.523547827743991667e-01,0.000000000000000000e+00
7.710000000000000000e+02,4.416735818658446000e-01,0.000000000000000000e+00
7.720000000000000000e+02,5.521450023846508071e-01,0.000000000000000000e+00
7.730000000000000000e+02,5.615160358754486269e-01,0.000000000000000000e+00
7.740000000000000000e+02,5.237011035038499074e-01,0.000000000000000000e+00
7.750000000000000000e+02,3.387402418979431062e-01,0.000000000000000000e+00
7.760000000000000000e+02,2.754292666648598953e-01,0.000000000000000000e+00
7.770000000000000000e+02,-5.174793898175605172e-02,0.000000000000000000e+00
7.780000000000000000e+02,-2.060204261855837216e-01,0.000000000000000000e+00
7.790000000000000000e+02,-3.974926433281213978e-01,0.000000000000000000e+00
7.800000000000000000e+02,-2.402357453384254826e-01,0.000000000000000000e+00
7.810000000000000000e+02,-4.240282518415747215e-01,0.000000000000000000e+00
7.820000000000000000e+02,-1.662541536239961204e-01,0.000000000000000000e+00
7.830000000000000000e+02,-2.075456704016634679e-01,0.000000000000000000e+00
7.840000000000000000e+02,-2.586887455940050651e-01,0.000000000000000000e+00
7.850000000000000000e+02,-2.340909574397361526e-01,0.000000000000000000e+00
7.860000000000000000e+02,-3.094375374858570060e-01,0.000000000000000000e+00
7.870000000000000000e+02,-4.316740200560120200e-01,0.000000000000000000e+00
7.880000000000000000e+02,-1.193581053341516152e-01,0.000000000000000000e+00
7.890000000000000000e+02,-4.180091604459855170e-01,0.000000000000000000e+00
7.900000000000000000e+02,1.668106665367696806e-02,0.000000000000000000e+00
7.910000000000000000e+02,4.276663759456743254e-04,0.000000000000000000e+00
7.920000000000000000e+02,3.096460896626853643e-01,0.000000000000000000e+00
7.930000000000000000e+02,1.857133544845797901e-01,0.000000000000000000e+00
7.940000000000000000e+02,3.254827979378443481e-01,0.000000000000000000e+00
7.950000000000000000e+02,-3.401839923187332526e-01,0.000000000000000000e+00
7.960000000000000000e+02,3.632502437518816962e-02,0.000000000000000000e+00
7.970000000000000000e+02,-1.985610728141823378e-01,0.000000000000000000e+00
7.980000000000000000e+02,1.388146036052429200e-01,0.000000000000000000e+00
7.990000000000000000e+02,-1.944492498368151634e-01,0.000000000000000000e+00
8.000000000000000000e+02,5.573588699510604455e-02,0.000000000000000000e+00
8.010000000000000000e+02,4.332860620049157618e-01,0.000000000000000000e+00
8.020000000000000000e+02,5.594625114615576322e+00,0.000000000000000000e+00
8.030000000000000000e+02,-1.075322165528633356e+00,1.000000000000000000e+00
8.040000000000000000e+02,-2.038848069261004703e+00,0.000000000000000000e+00
8.050000000000000000e+02,-9.120946118291693716e-02,0.000000000000000000e+00
8.060000000000000000e+02,-5.686499460536852402e-01,0.000000000000000000e+00
8.070000000000000000e+02,-1.526967641064464476e-01,0.000000000000000000e+00
8.080000000000000000e+02,-1.082466206205061343e-01,0.000000000000000000e+00
8.090000000000000000e+02,5.265565503410760129e-02,0.000000000000000000e+00
8.100000000000000000e+02,-1.573471413509771044e-01,0.000000000000000000e+00
8.110000000000000000e+02,2.815422926759696964e-01,0.000000000000000000e+00
8.120000000000000000e+02,2.198747911330530269e-01,0.000000000000000000e+00
8.130000000000000000e+02,2.694996477183950190e-01,0.000000000000000000e+00
8.140000000000000000e+02,4.780560710802906899e-01,0.000000000000000000e+00
8.150000000000000000e+02,4.771063360948359922e-01,0.000000000000000000e+00
8.160000000000000000e+02,2.830023047433108951e-01,0.000000000000000000e+00
8.170000000000000000e+02,4.926069786035541243e-01,0.000000000000000000e+00
8.180000000000000000e+02,7.914761700378310227e-02,0.000000000000000000e+00
8.190000000000000000e+02,-1.354860576905173031e-01,0.000000000000000000e+00
8.200000000000000000e+02,-4.113937506661088928e-01,0.000000000000000000e+00
8.210000000000000000e+02,-4.709600943515668270e-01,0.000000000000000000e+00
8.220000000000000000e+02,-4.689607283139602401e-01,0.000000000000000000e+00
8.230000000000000000e+02,-4.769355947527489925e-01,0.000000000000000000e+00
8.240000000000000000e+02,-5.693518426135537602e-01,0.000000000000000000e+00
8.250000000000000000e+02,-3.547588058556669921e-01,0.000000000000000000e+00
8.260000000000000000e+02,-4.004747803110272342e-01,0.000000000000000000e+00
8.270000000000000000e+02,-3.282559999669583117e-01,0.000000000000000000e+00
8.280000000000000000e+02,-3.004886972997624084e-01,0.000000000000000000e+00
8.290000000000000000e+02,-4.611707589430252274e-01,0.000000000000000000e+00
8.300000000000000000e+02,-2.864209747137128059e-01,0.000000000000000000e+00
8.310000000000000000e+02,-3.247375454954335994e-01,0.000000000000000000e+00
8.320000000000000000e+02,-3.001890715629678894e-02,0.000000000000000000e+00
8.330000000000000000e+02,-2.936264524463068626e-01,0.000000000000000000e+00
8.340000000000000000e+02,2.052078573032971032e-01,0.000000000000000000e+00
8.350000000000000000e+02,2.418276981407625759e-01,0.000000000000000000e+00
8.360000000000000000e+02,3.893593692171034570e-01,0.000000000000000000e+00
8.370000000000000000e+02,-5.111499801250102976e-02,0.000000000000000000e+00
8.380000000000000000e+02,-2.375865062445025877e-01,0.000000000000000000e+00
8.390000000000000000e+02,-2.875998466684145383e-01,0.000000000000000000e+00
8.400000000000000000e+02,-2.040773673338518168e-01,0.000000000000000000e+00
8.410000000000000000e+02,-2.932788102526932006e-01,0.000000000000000000e+00
8.420000000000000000e+02,2.369438689294910139e-01,0.000000000000000000e+00
8.430000000000000000e+02,-7.036818649078298016e-01,0.000000000000000000e+00
8.440000000000000000e+02,3.707774330702566790e+00,0.000000000000000000e+00
8.450000000000000000e+02,2.954257486556452150e+00,1.000000000000000000e+00
8.460000000000000000e+02,-3.446473178520605085e+00,0.000000000000000000e+00
8.470000000000000000e+02,-8.739205878746306166e-02,0.000000000000000000e+00
8.480000000000000000e+02,-7.661648400284154503e-01,0.000000000000000000e+00
8.490000000000000000e+02,6.006414542916405086e-02,0.000000000000000000e+00
8.500000000000000000e+02,-3.795747238336473761e-01,0.000000000000000000e+00
8.510000000000000000e+02,1.344831264274692628e-01,0.000000000000000000e+00
8.520000000000000000e+02,-1.417474485841113130e-01,0.000000000000000000e+00
8.530000000000000000e+02,2.436608259806291588e-01,0.000000000000000000e+00
8.540000000000000000e+02,1.243200699345685251e-01,0.000000000000000000e+00
8.550000000000000000e+02,4.382712586815555311e-01,0.000000000000000000e+00
8.560000000000000000e+02,4.670188131190252112e-01,0.000000000000000000e+00
8.570000000000000000e+02,4.898382506937906666e-01,0.000000000000000000e+00
8.580000000000000000e+02,2.414181684993732813e-01,0.000000000000000000e+00
8.590000000000000000e+02,3.542145331335083136e-01,0.000000000000000000e+00
8.600000000000000000e+02,4.729255371445010847e-01,0.000000000000000000e+00
8.610000000000000000e+02,3.316912684328844896e-01,0.000000000000000000e+00
8.620000000000000000e+02,-3.003449965654640397e-01,0.000000000000000000e+00
8.630000000000000000e+02,-2.847909594014818024e-01,0.000000000000000000e+00
8.640000000000000000e+02,-4.166359087620477020e-01,0.000000000000000000e+00
8.650000000000000000e+02,-4.144169644911358530e-01,0.000000000000000000e+00
8.660000000000000000e+02,-4.266997382646239290e-01,0.000000000000000000e+00
8.670000000000000000e+02,-2.784570712971064510e-01,0.000000000000000000e+00
8.680000000000000000e+02,-4.708478716431795941e-01,0.000000000000000000e+00
8.690000000000000000e+02,-3.520317752189091598e-01,0.000000000000000000e+00
8.700000000000000000e+02,-4.475045098204257221e-01,0.000000000000000000e+00
8.710000000000000000e+02,-4.491123087127791846e-01,0.000000000000000000e+00
8.720000000000000000e+02,-2.206923275968910858e-01,0.000000000000000000e+00
8.730000000000000000e+02,-1.813436542606199908e-01,0.000000000000000000e+00
8.740000000000000000e+02,-2.638130308186991679e-01,0.000000000000000000e+00
8.750000000000000000e+02,-3.716005203771606535e-02,0.000000000000000000e+00
8.760000000000000000e+02,-1.698300801360007051e-01,0.000000000000000000e+00
8.770000000000000000e+02,4.011900564344432207e-01,0.000000000000000000e+00
8.780000000000000000e+02,4.022852403682966038e-01,0.000000000000000000e+00
8.790000000000000000e+02,3.551540122214070783e-01,0.000000000000000000e+00
8.800000000000000000e+02,-1.271605241577085932e-01,0.000000000000000000e+00
8.810000000000000000e+02,-3.623871673108701452e-02,0.000000000000000000e+00
8.820000000000000000e+02,-3.227357453300440659e-01,0.000000000000000000e+00
8.830000000000000000e+02,4.876055252543770591e-02,0.000000000000000000e+00
8.840000000000000000e+02,-1.683073911879861065e-02,0.000000000000000000e+00
8.850000000000000000e+02,7.856807140345430096e-02,0.000000000000000000e+00
8.860000000000000000e+02,4.831089606256152025e-01,0.000000000000000000e+00
8.870000000000000000e+02,5.526441338426477223e+00,0.000000000000000000e+00
8.880000000000000000e+02,-1.021349525271489034e+00,1.000000000000000000e+00
8.890000000000000000e+02,-1.836775108692538572e+00,0.000000000000000000e+00
8.900000000000000000e+02,-2.287845316163468479e-01,0.000000000000000000e+00
8.910000000000000000e+02,-5.048273710708416351e-01,0.000000000000000000e+00
8.920000000000000000e+02,-2.612499169379481345e-01,0.000000000000000000e+00
8.930000000000000000e+02,-1.910643659431460750e-01,0.000000000000000000e+00
8.940000000000000000e+02,3.711056656131129367e-02,0.000000000000000000e+00
8.950000000000000000e+02,-1.822526312639895785e-01,0.000000000000000000e+00
8.960000000000000000e+02,1.089893376263236235e-01,0.000000000000000000e+00
8.970000000000000000e+02,3.016662478052270502e-01,0.000000000000000000e+00
8.980000000000000000e+02,2.721645993661653828e-01,0.000000000000000000e+00
8.990000000000000000e+02,4.184608302690021597e-01,0.000000000000000000e+00
9.000000000000000000e+02,1.014093051183658917e-01,0.000000000000000000e+00
9.010000000000000000e+02,3.047496346995616778e-01,0.000000000000000000e+00
9.020000000000000000e+02,4.649846784964709601e-01,0.000000000000000000e+00
9.030000000000000000e+02,2.575258067173474275e-01,0.000000000000000000e+00
9.040000000000000000e+02,-9.657013633000155473e-02,0.000000000000000000e+00
9.050000000000000000e+02,-2.349336560920666228e-01,0.000000000000000000e+00
9.060000000000000000e+02,-5.172740397574366877e-01,0.000000000000000000e+00
9.070000000000000000e+02,-2.237316134970978310e-01,0.000000000000000000e+00
9.080000000000000000e+02,-3.723341823932243555e-01,0.000000000000000000e+00
9.090000000000000000e+02,-2.660310961302227439e-01,0.000000000000000000e+00
9.100000000000000000e+02,-4.868699241357485330e-01,0.000000000000000000e+00
9.110000000000000000e+02,-2.473299941320937778e-01,0.000000000000000000e+00
9.120000000000000000e+02,-3.002311096551452119e-01,0.000000000000000000e+00
9.130000000000000000e+02,-1.347217216488923730e-01,0.000000000000000000e+00
9.140000000000000000e+02,-2.535497906714098137e-01,0.000000000000000000e+00
9.150000000000000000e+02,-9.242178106545965999e-02,0.000000000000000000e+00
9.160000000000000000e+02,-5.083577004627259921e-01,0.000000000000000000e+00
9.170000000000000000e+02,5.199894185331425944e-02,0.000000000000000000e+00
9.180000000000000000e+02,-1.991729653036337089e-01,0.000000000000000000e+00
9.190000000000000000e+02,4.531956082588104451e-01,0.000000000000000000e+00
9.200000000000000000e+02,1.028148320774667779e-01,0.000000000000000000e+00
9.210000000000000000e+02,5.093553486164599242e-01,0.000000000000000000e+00
9.220000000000000000e+02,-2.469988356078572089e-01,0.000000000000000000e+00
9.230000000000000000e+02,-1.302812874071337113e-01,0.000000000000000000e+00
9.240000000000000000e+02,-5.034748606518634206e-01,0.000000000000000000e+00
9.250000000000000000e+02,4.609331520795966614e-02,0.000000000000000000e+00
9.260000000000000000e+02,-4.662496431099389937e-01,0.000000000000000000e+00
9.270000000000000000e+02,2.565986232648177490e-01,0.000000000000000000e+00
9.280000000000000000e+02,-7.712914913024035979e-01,0.000000000000000000e+00
9.290000000000000000e+02,4.243825033761535082e+00,0.000000000000000000e+00
9.300000000000000000e+02,2.249929677034201436e+00,1.000000000000000000e+00
9.310000000000000000e+02,-3.304802453698584497e+00,0.000000000000000000e+00
9.320000000000000000e+02,-9.111847000733455659e-02,0.000000000000000000e+00
9.330000000000000000e+02,-8.868552653841131894e-01,0.000000000000000000e+00
9.340000000000000000e+02,-1.235828848537199320e-01,0.000000000000000000e+00
9.350000000000000000e+02,-5.578051214057769824e-01,0.000000000000000000e+00
9.360000000000000000e+02,7.651663057153781922e-02,0.000000000000000000e+00
9.370000000000000000e+02,-2.846738483297293065e-01,0.000000000000000000e+00
9.380000000000000000e+02,5.937328554943201858e-02,0.000000000000000000e+00
9.390000000000000000e+02,8.406958691682727552e-03,0.000000000000000000e+00
9.400000000000000000e+02,4.042689513599878604e-01,0.000000000000000000e+00
9.410000000000000000e+02,2.120028289331052362e-01,0.000000000000000000e+00
9.420000000000000000e+02,3.497073515088869322e-01,0.000000000000000000e+00
9.430000000000000000e+02,2.804232655325851753e-01,0.000000000000000000e+00
9.440000000000000000e+02,3.908517219575486368e-01,0.000000000000000000e+00
9.450000000000000000e+02,4.069135945939552634e-01,0.000000000000000000e+00
9.460000000000000000e+02,1.049660809553507185e-01,0.000000000000000000e+00
9.470000000000000000e+02,-9.237568661093996381e-02,0.000000000000000000e+00
9.480000000000000000e+02,-2.675858024840654381e-01,0.000000000000000000e+00
9.490000000000000000e+02,-3.816068467035365619e-01,0.000000000000000000e+00
9.500000000000000000e+02,-2.367188975754319913e-01,0.000000000000000000e+00
9.510000000000000000e+02,-3.261148798496925627e-01,0.000000000000000000e+00
9.520000000000000000e+02,-1.790189396586749915e-01,0.000000000000000000e+00
9.530000000000000000e+02,-2.485803554220135381e-01,0.000000000000000000e+00
9.540000000000000000e+02,-1.515015548868401674e-01,0.000000000000000000e+00
9.550000000000000000e+02,-3.485497737995222334e-01,0.000000000000000000e+00
9.560000000000000000e+02,-3.147945968199470923e-01,0.000000000000000000e+00
9.570000000000000000e+02,-3.944019575035728753e-02,0.000000000000000000e+00
9.580000000000000000e+02,-1.399385556624355431e-01,0.000000000000000000e+00
9.590000000000000000e+02,-2.279978432255415077e-01,0.000000000000000000e+00
9.600000000000000000e+02,-2.427376375149259760e-02,0.000000000000000000e+00
9.610000000000000000e+02,2.232013997983864628e-01,0.000000000000000000e+00
9.620000000000000000e+02,2.328528540793530222e-01,0.000000000000000000e+00
9.630000000000000000e+02,5.793668300658904036e-01,0.000000000000000000e+00
9.640000000000000000e+02,-1.238603456201094327e-01,0.000000000000000000e+00
9.650000000000000000e+02,-1.952386717699108876e-01,0.000000000000000000e+00
9.660000000000000000e+02,-3.771922394203942597e-01,0.000000000000000000e+00
9.670000000000000000e+02,-7.396559695536572554e-02,0.000000000000000000e+00
9.680000000000000000e+02,-2.457199086141021449e-01,0.000000000000000000e+00
9.690000000000000000e+02,2.477807922726888989e-01,0.000000000000000000e+00
9.700000000000000000e+02,-3.514147283020783719e-01,0.000000000000000000e+00
9.710000000000000000e+02,4.811510950454733759e+00,0.000000000000000000e+00
9.720000000000000000e+02,7.888696267199164502e-01,1.000000000000000000e+00
9.730000000000000000e+02,-3.395586135762908242e+00,0.000000000000000000e+00
9.740000000000000000e+02,1.539742818864823781e-01,0.000000000000000000e+00
9.750000000000000000e+02,-7.043961024016927031e-01,0.000000000000000000e+00
9.760000000000000000e+02,2.014396587239433434e-01,0.000000000000000000e+00
9.770000000000000000e+02,-3.043496380669969414e-01,0.000000000000000000e+00
9.780000000000000000e+02,1.972390471794011613e-01,0.000000000000000000e+00
9.790000000000000000e+02,-1.830511843654874515e-01,0.000000000000000000e+00
9.800000000000000000e+02,2.803847628222617128e-01,0.000000000000000000e+00
9.810000000000000000e+02,4.706535851668276760e-02,0.000000000000000000e+00
9.820000000000000000e+02,6.488563722980713599e-01,0.000000000000000000e+00
9.830000000000000000e+02,2.064626269596972485e-01,0.000000000000000000e+00
9.840000000000000000e+02,5.101535844100572037e-01,0.000000000000000000e+00
9.850000000000000000e+02,1.903959389766655963e-01,0.000000000000000000e+00
9.860000000000000000e+02,5.960140236546446202e-01,0.000000000000000000e+00
9.870000000000000000e+02,2.054906272965650593e-01,0.000000000000000000e+00
9.880000000000000000e+02,3.589159130987865792e-02,0.000000000000000000e+00
9.890000000000000000e+02,-4.766278635939496522e-01,0.000000000000000000e+00
9.900000000000000000e+02,-4.205157699756018608e-01,0.000000000000000000e+00
9.910000000000000000e+02,-7.782010802622841839e-01,0.000000000000000000e+00
9.920000000000000000e+02,-4.379585123237554889e-01,0.000000000000000000e+00
9.930000000000000000e+02,-5.850867658444591779e-01,0.000000000000000000e+00
9.940000000000000000e+02,-2.156873115368237726e-01,0.000000000000000000e+00
9.950000000000000000e+02,-6.154361336713167763e-01,0.000000000000000000e+00
9.960000000000000000e+02,-2.750158266556414488e-01,0.000000000000000000e+00
9.970000000000000000e+02,-5.129931208194111747e-01,0.000000000000000000e+00
9.980000000000000000e+02,-6.540197549911203057e-02,0.000000000000000000e+00
9.990000000000000000e+02,-5.407444120223088291e-01,0.000000000000000000e+00
1.000000000000000000e+03,-7.666145805901306010e-02,0.000000000000000000e+00
1.001000000000000000e+03,-3.467717988670590556e-01,0.000000000000000000e+00
1.002000000000000000e+03,1.780273041882043938e-01,0.000000000000000000e+00
1.003000000000000000e+03,1.320004235541669124e-01,0.000000000000000000e+00
1.004000000000000000e+03,3.033973542564075698e-01,0.000000000000000000e+00
1.005000000000000000e+03,-1.125886994883002479e-01,0.000000000000000000e+00
1.006000000000000000e+03,-1.840864193550940664e-01,0.000000000000000000e+00
1.007000000000000000e+03,-5.188060433913437297e-01,0.000000000000000000e+00
1.008000000000000000e+03,-1.670275333623777725e-01,0.000000000000000000e+00
1.009000000000000000e+03,-5.133190257729650652e-01,0.000000000000000000e+00
1.010000000000000000e+03,1.992513339583963650e-01,0.000000000000000000e+00
1.011000000000000000e+03,-6.822227696543539111e-01,0.000000000000000000e+00
1.012000000000000000e+03,2.776582337647157228e+00,0.000000000000000000e+00
1.013000000000000000e+03,3.666760663733063641e+00,0.000000000000000000e+00
1.014000000000000000e+03,-3.349671447320357043e+00,1.000000000000000000e+00
1.015000000000000000e+03,-6.693711140561040551e-01,0.000000000000000000e+00
1.016000000000000000e+03,-3.802185670231688075e-01,0.000000000000000000e+00
1.017000000000000000e+03,-1.982292029594519001e-01,0.000000000000000000e+00
1.018000000000000000e+03,-3.653826709559127583e-01,0.000000000000000000e+00
1.019000000000000000e+03,5.022107714615674928e-02,0.000000000000000000e+00
1.020000000000000000e+03,1.170660260933774482e-01,0.000000000000000000e+00
1.021000000000000000e+03,2.972881947361961652e-01,0.000000000000000000e+00
1.022000000000000000e+03,2.156498553035769705e-01,0.000000000000000000e+00
1.023000000000000000e+03,4.156355762505877793e-01,0.000000000000000000e+00
1.024000000000000000e+03,4.825569064991038770e-01,0.000000000000000000e+00
1.025000000000000000e+03,6.116738915663471055e-01,0.000000000000000000e+00
1.026000000000000000e+03,5.431089641715038940e-01,0.000000000000000000e+00
1.027000000000000000e+03,5.753674389898298935e-01,0.000000000000000000e+00
1.028000000000000000e+03,3.929744643176810159e-01,0.000000000000000000e+00
1.029000000000000000e+03,2.140782618914799929e-01,0.000000000000000000e+00
1.030000000000000000e+03,-2.430027872966029900e-01,0.000000000000000000e+00
1.031000000000000000e+03,-5.871136474042784048e-01,0.000000000000000000e+00
1.032000000000000000e+03,-3.492201548346376971e-01,0.000000000000000000e+00
1.033000000000000000e+03,-5.741424140352012762e-01,0.000000000000000000e+00
1.034000000000000000e+03,-1.942372058394985779e-01,0.000000000000000000e+00
1.035000000000000000e+03,-5.444240637468868993e-01,0.000000000000000000e+00
1.036000000000000000e+03,-3.388413996119711280e-01,0.000000000000000000e+00
1.037000000000000000e+03,-3.502576910175501101e-01,0.000000000000000000e+00
1.038000000000000000e+03,-3.411030599390842410e-01,0.000000000000000000e+00
1.039000000000000000e+03,-3.710544646523442069e-01,0.000000000000000000e+00
1.040000000000000000e+03,-2.921534318004436748e-01,0.000000000000000000e+00
1.041000000000000000e+03,-3.680015812207621528e-01,0.000000000000000000e+00
1.042000000000000000e+03,-1.245355905476613206e-01,0.000000000000000000e+00
1.043000000000000000e+03,-3.036475488419076441e-01,0.000000000000000000e+00
1.044000000000000000e+03,3.464463382309858064e-01,0.000000000000000000e+00
1.045000000000000000e+03,1.154353228809020231e-03,0.000000000000000000e+00
1.046000000000000000e+03,5.007994568057869689e-01,0.000000000000000000e+00
1.047000000000000000e+03,-2.784442292658199647e-01,0.000000000000000000e+00
1.048000000000000000e+03,2.376846805276444305e-02,0.000000000000000000e+00
1.049000000000000000e+03,-3.061328564628222337e-01,0.000000000000000000e+00
1.050000000000000000e+03,1.709084564914672422e-01,0.000000000000000000e+00
1.051000000000000000e+03,-2.659508524005494978e-01,0.000000000000000000e+00
1.052000000000000000e+03,4.220725752826949284e-01,0.000000000000000000e+00
1.053000000000000000e+03,-3.360582258367456054e-01,0.000000000000000000e+00
1.054000000000000000e+03,4.667909709133985174e+00,0.000000000000000000e+00
1.055000000000000000e+03,1.399926617175894616e+00,1.000000000000000000e+00
1.056000000000000000e+03,-3.111993049927763710e+00,0.000000000000000000e+00
1.057000000000000000e+03,1.477638782138023799e-01,0.000000000000000000e+00
1.058000000000000000e+03,-7.269264478487910131e-01,0.000000000000000000e+00
1.059000000000000000e+03,5.185521546291740197e-02,0.000000000000000000e+00
1.060000000000000000e+03,-2.914241245001509828e-01,0.000000000000000000e+00
1.061000000000000000e+03,1.820094742224473428e-01,0.000000000000000000e+00
1.062000000000000000e+03,8.418841189021958327e-02,0.000000000000000000e+00
1.063000000000000000e+03,2.402606912477755208e-01,0.000000000000000000e+00
1.064000000000000000e+03,3.817075515372823635e-01,0.000000000000000000e+00
1.065000000000000000e+03,4.934916378761885491e-01,0.000000000000000000e+00
1.066000000000000000e+03,4.653224407159077258e-01,0.000000000000000000e+00
1.067000000000000000e+03,5.409416438491905232e-01,0.000000000000000000e+00
1.068000000000000000e+03,5.482882716707180304e-01,0.000000000000000000e+00
1.069000000000000000e+03,5.125410670626109333e-01,0.000000000000000000e+00
1.070000000000000000e+03,3.785832264934000380e-01,0.000000000000000000e+00
1.071000000000000000e+03,2.471858674706413350e-01,0.000000000000000000e+00
1.072000000000000000e+03,-2.354384255688932170e-01,0.000000000000000000e+00
1.073000000000000000e+03,-3.266151094299684088e-01,0.000000000000000000e+00
1.074000000000000000e+03,-4.575319404626181918e-01,0.000000000000000000e+00
1.075000000000000000e+03,-1.454815925398045273e-01,0.000000000000000000e+00
1.076000000000000000e+03,-2.628754912081195383e-01,0.000000000000000000e+00
1.077000000000000000e+03,-3.411183605678926312e-01,0.000000000000000000e+00
1.078000000000000000e+03,-2.068909278356233505e-01,0.000000000000000000e+00
1.079000000000000000e+03,-2.692845744974609601e-01,0.000000000000000000e+00
1.080000000000000000e+03,-2.275013382143582508e-01,0.000000000000000000e+00
1.081000000000000000e+03,-2.842269562999479304e-01,0.000000000000000000e+00
1.082000000000000000e+03,-2.685872870251003186e-01,0.000000000000000000e+00
1.083000000000000000e+03,-1.621672103106487905e-01,0.000000000000000000e+00
1.084000000000000000e+03,-7.914150171063923100e-02,0.000000000000000000e+00
1.085000000000000000e+03,-1.406524667714077470e-01,0.000000000000000000e+00
1.086000000000000000e+03,1.378542538595818046e-01,0.000000000000000000e+00
1.087000000000000000e+03,1.061587387797595095e-01,0.000000000000000000e+00
1.088000000000000000e+03,3.012058293720596414e-01,0.000000000000000000e+00
1.089000000000000000e+03,-1.746142411278512330e-01,0.000000000000000000e+00
1.090000000000000000e+03,-1.221214894473894585e-01,0.000000000000000000e+00
1.091000000000000000e+03,-3.128515237530595239e-01,0.000000000000000000e+00
1.092000000000000000e+03,-9.733654617687212407e-02,0.000000000000000000e+00
1.093000000000000000e+03,-2.364004922335849745e-01,0.000000000000000000e+00
1.094000000000000000e+03,1.140074996417187042e-01,0.000000000000000000e+00
1.095000000000000000e+03,6.567372060658853428e-02,0.000000000000000000e+00
1.096000000000000000e+03,5.112248851542781303e+00,0.000000000000000000e+00
1.097000000000000000e+03,-2.228854899661322497e-01,1.000000000000000000e+00
1.098000000000000000e+03,-2.508500949178621209e+00,0.000000000000000000e+00
1.099000000000000000e+03,4.008689012698329890e-02,0.000000000000000000e+00
1.100000000000000000e+03,-7.715489733098022107e-01,0.000000000000000000e+00
1.101000000000000000e+03,2.509548380353395641e-02,0.000000000000000000e+00
1.102000000000000000e+03,-4.142390139642846969e-01,0.000000000000000000e+00
1.103000000000000000e+03,-2.310514126674846971e-02,0.000000000000000000e+00
1.104000000000000000e+03,-2.329534122605380828e-02,0.000000000000000000e+00
1.105000000000000000e+03,2.746470103327190992e-01,0.000000000000000000e+00
1.106000000000000000e+03,-1.731375332702770470e-02,0.000000000000000000e+00
1.107000000000000000e+03,3.459908581735192667e-01,0.000000000000000000e+00
1.108000000000000000e+03,3.691125108908771546e-01,0.000000000000000000e+00
1.109000000000000000e+03,5.124046236494712581e-01,0.000000000000000000e+00
1.110000000000000000e+03,3.265629666018584620e-01,0.000000000000000000e+00
1.111000000000000000e+03,3.655202607451003005e-01,0.000000000000000000e+00
1.112000000000000000e+03,1.988706674050757517e-01,0.000000000000000000e+00
1.113000000000000000e+03,-9.755194579062567706e-02,0.000000000000000000e+00
1.114000000000000000e+03,-4.565013584233476585e-01,0.000000000000000000e+00
1.115000000000000000e+03,-3.589463169804281706e-01,0.000000000000000000e+00
1.116000000000000000e+03,-4.042592677699542447e-01,0.000000000000000000e+00
1.117000000000000000e+03,-4.763063282090411743e-01,0.000000000000000000e+00
1.118000000000000000e+03,-3.312607231872466418e-01,0.000000000000000000e+00
1.119000000000000000e+03,-3.672218064899545054e-01,0.000000000000000000e+00
1.120000000000000000e+03,-3.916324536643571719e-01,0.000000000000000000e+00
1.121000000000000000e+03,-2.899702729256941058e-01,0.000000000000000000e+00
1.122000000000000000e+03,-3.739676231136074280e-01,0.000000000000000000e+00
1.123000000000000000e+03,-3.269423963367045216e-01,0.000000000000000000e+00
1.124000000000000000e+03,-2.210135217840590027e-01,0.000000000000000000e+00
1.125000000000000000e+03,-2.561060685658799740e-01,0.000000000000000000e+00
1.126000000000000000e+03,-1.051975499603304415e-01,0.000000000000000000e+00
1.127000000000000000e+03,-1.386153561114914778e-01,0.000000000000000000e+00
1.128000000000000000e+03,1.566435186099134416e-02,0.000000000000000000e+00
1.129000000000000000e+03,2.761891285408176744e-01,0.000000000000000000e+00
1.130000000000000000e+03,2.575657887865859252e-01,0.000000000000000000e+00
1.131000000000000000e+03,-1.848444566098881858e-01,0.000000000000000000e+00
1.132000000000000000e+03,-1.763616522090030725e-01,0.000000000000000000e+00
1.133000000000000000e+03,-5.215219483928679178e-01,0.000000000000000000e+00
1.134000000000000000e+03,9.222773701003254831e-02,0.000000000000000000e+00
1.135000000000000000e+03,-4.566837864664627933e-01,0.000000000000000000e+00
1.136000000000000000e+03,2.480943297095535849e-01,0.000000000000000000e+00
1.137000000000000000e+03,-6.420428204661984273e-01,0.000000000000000000e+00
1.138000000000000000e+03,3.872898663049020751e+00,0.000000000000000000e+00
1.139000000000000000e+03,2.265198700532057963e+00,1.000000000000000000e+00
1.140000000000000000e+03,-3.263546056896218239e+00,0.000000000000000000e+00
1.141000000000000000e+03,-5.097480680533390818e-02,0.000000000000000000e+00
1.142000000000000000e+03,-6.763280246196718970e-01,0.000000000000000000e+00
1.143000000000000000e+03,1.078553746407208275e-01,0.000000000000000000e+00
1.144000000000000000e+03,-3.479817416033795241e-01,0.000000000000000000e+00
1.145000000000000000e+03,1.643474971565793696e-01,0.000000000000000000e+00
1.146000000000000000e+03,-1.580976568408054561e-01,0.000000000000000000e+00
1.147000000000000000e+03,2.990062254303851863e-01,0.000000000000000000e+00
1.148000000000000000e+03,1.037860629940047241e-01,0.000000000000000000e+00
1.149000000000000000e+03,6.130973390549634416e-01,0.000000000000000000e+00
1.150000000000000000e+03,3.197655740135584845e-01,0.000000000000000000e+00
1.151000000000000000e+03,6.216046534173028659e-01,0.000000000000000000e+00
1.152000000000000000e+03,2.054946187710903205e-01,0.000000000000000000e+00
1.153000000000000000e+03,6.270601880999496780e-01,0.000000000000000000e+00
1.154000000000000000e+03,2.518131931011673430e-01,0.000000000000000000e+00
1.155000000000000000e+03,1.394331151342200203e-01,0.000000000000000000e+00
1.156000000000000000e+03,-3.312124562233141334e-01,0.000000000000000000e+00
1.157000000000000000e+03,-1.654813972979987113e-01,0.000000000000000000e+00
1.158000000000000000e+03,-4.005364304389212871e-01,0.000000000000000000e+00
1.159000000000000000e+03,-1.931042607250738896e-01,0.000000000000000000e+00
1.160000000000000000e+03,-3.526648708632035278e-01,0.000000000000000000e+00
1.161000000000000000e+03,-2.244711656499779884e-01,0.000000000000000000e+00
1.162000000000000000e+03,-2.625682170677405836e-01,0.000000000000000000e+00
1.163000000000000000e+03,-1.583744627206969124e-01,0.000000000000000000e+00
1.164000000000000000e+03,-2.531272213612483779e-01,0.000000000000000000e+00
1.165000000000000000e+03,-1.387643213529221320e-01,0.000000000000000000e+00
1.166000000000000000e+03,-4.660988709789830042e-01,0.000000000000000000e+00
1.167000000000000000e+03,-7.518775385630364905e-02,0.000000000000000000e+00
1.168000000000000000e+03,-4.207353312777918908e-01,0.000000000000000000e+00
1.169000000000000000e+03,4.302026367730444473e-02,0.000000000000000000e+00
1.170000000000000000e+03,-2.509690998826277220e-01,0.000000000000000000e+00
1.171000000000000000e+03,1.933425638226531906e-01,0.000000000000000000e+00
1.172000000000000000e+03,2.032925454666442977e-01,0.000000000000000000e+00
1.173000000000000000e+03,4.042131115935187480e-01,0.000000000000000000e+00
1.174000000000000000e+03,-3.180091128866018302e-01,0.000000000000000000e+00
1.175000000000000000e+03,-2.244273204491943341e-01,0.000000000000000000e+00
1.176000000000000000e+03,-4.288286389635262430e-01,0.000000000000000000e+00
1.177000000000000000e+03,-1.554001164639489396e-01,0.000000000000000000e+00
1.178000000000000000e+03,-2.159374566332133982e-01,0.000000000000000000e+00
1.179000000000000000e+03,8.353535355625719971e-02,0.000000000000000000e+00
1.180000000000000000e+03,-4.558265447758827471e-01,0.000000000000000000e+00
1.181000000000000000e+03,4.709137604213995409e+00,0.000000000000000000e+00
1.182000000000000000e+03,7.672437137490454306e-01,1.000000000000000000e+00
1.183000000000000000e+03,-2.993004866554820342e+00,0.000000000000000000e+00
1.184000000000000000e+03,8.073354868245762039e-02,0.000000000000000000e+00
1.185000000000000000e+03,-5.569032576636977483e-01,0.000000000000000000e+00
1.186000000000000000e+03,-7.749240475569421638e-02,0.000000000000000000e+00
1.187000000000000000e+03,-3.784751171444509787e-01,0.000000000000000000e+00
1.188000000000000000e+03,2.194088650565204635e-01,0.000000000000000000e+00
1.189000000000000000e+03,-1.387971130381042695e-01,0.000000000000000000e+00
1.190000000000000000e+03,3.686232094194227260e-01,0.000000000000000000e+00
1.191000000000000000e+03,1.274987426228052223e-01,0.000000000000000000e+00
1.192000000000000000e+03,4.504208750587183618e-01,0.000000000000000000e+00
1.193000000000000000e+03,2.996025889755211113e-01,0.000000000000000000e+00
1.194000000000000000e+03,6.015743039224938915e-01,0.000000000000000000e+00
1.195000000000000000e+03,4.279496017382411477e-01,0.000000000000000000e+00
1.196000000000000000e+03,5.004681485324043999e-01,0.000000000000000000e+00
1.197000000000000000e+03,2.795562323524757309e-01,0.000000000000000000e+00
1.198000000000000000e+03,1.423563929615246082e-01,0.000000000000000000e+00
1.199000000000000000e+03,-2.078167085163634964e-01,0.000000000000000000e+00
1.200000000000000000e+03,-3.449103635752849284e-01,0.000000000000000000e+00
1.201000000000000000e+03,-3.382139866084668545e-01,0.000000000000000000e+00
1.202000000000000000e+03,-3.257994174195900650e-01,0.000000000000000000e+00
1.203000000000000000e+03,-4.250599709277746996e-01,0.000000000000000000e+00
1.204000000000000000e+03,-2.689040852701293227e-01,0.000000000000000000e+00
1.205000000000000000e+03,-4.280484349226260643e-01,0.000000000000000000e+00
1.206000000000000000e+03,-1.155561959624264029e-01,0.000000000000000000e+00
1.207000000000000000e+03,-3.777206750642019828e-01,0.000000000000000000e+00
1.208000000000000000e+03,-2.795322457863438359e-01,0.000000000000000000e+00
1.209000000000000000e+03,-4.513782513222460158e-01,0.000000000000000000e+00
1.210000000000000000e+03,-2.150196321516209819e-01,0.000000000000000000e+00
1.211000000000000000e+03,-1.243738518528569315e-01,0.000000000000000000e+00
1.212000000000000000e+03,-1.440814120124552511e-01,0.000000000000000000e+00
1.213000000000000000e+03,-1.719324073132175446e-01,0.000000000000000000e+00
1.214000000000000000e+03,1.330922103790087574e-01,0.000000000000000000e+00
1.215000000000000000e+03,2.298307607363197225e-01,0.000000000000000000e+00
1.216000000000000000e+03,3.699637452381158154e-01,0.000000000000000000e+00
1.217000000000000000e+03,-1.305292438170441716e-01,0.000000000000000000e+00
1.218000000000000000e+03,-2.163201883028190720e-01,0.000000000000000000e+00
1.219000000000000000e+03,-3.252565021928182643e-01,0.000000000000000000e+00
1.220000000000000000e+03,-1.520578480059731896e-01,0.000000000000000000e+00
1.221000000000000000e+03,-3.471896510484155929e-01,0.000000000000000000e+00
1.222000000000000000e+03,4.141195544388928673e-02,0.000000000000000000e+00
1.223000000000000000e+03,-4.871242281219017589e-01,0.000000000000000000e+00
1.224000000000000000e+03,4.876614842537244421e+00,0.000000000000000000e+00
1.225000000000000000e+03,4.811719613943459262e-01,1.000000000000000000e+00
1.226000000000000000e+03,-2.918765201171972912e+00,0.000000000000000000e+00
1.227000000000000000e+03,-4.198883618544544533e-02,0.000000000000000000e+00
1.228000000000000000e+03,-9.772053881143968335e-01,0.000000000000000000e+00
1.229000000000000000e+03,3.501866151811922068e-02,0.000000000000000000e+00
1.230000000000000000e+03,-5.158119223284781674e-01,0.000000000000000000e+00
1.231000000000000000e+03,5.783689269729097582e-02,0.000000000000000000e+00
1.232000000000000000e+03,-3.338923962302899340e-01,0.000000000000000000e+00
1.233000000000000000e+03,1.436157217527909702e-01,0.000000000000000000e+00
1.234000000000000000e+03,9.788684855467118251e-02,0.000000000000000000e+00
1.235000000000000000e+03,3.884646019820496843e-01,0.000000000000000000e+00
1.236000000000000000e+03,2.917903974811618673e-01,0.000000000000000000e+00
1.237000000000000000e+03,4.722601271790720090e-01,0.000000000000000000e+00
1.238000000000000000e+03,2.457395385661767240e-01,0.000000000000000000e+00
1.239000000000000000e+03,5.089790246624258385e-01,0.000000000000000000e+00
1.240000000000000000e+03,2.348613999758348281e-01,0.000000000000000000e+00
1.241000000000000000e+03,3.068709929895607202e-01,0.000000000000000000e+00
1.242000000000000000e+03,-1.786541649648157037e-01,0.000000000000000000e+00
1.243000000000000000e+03,-1.054724429631985066e-01,0.000000000000000000e+00
1.244000000000000000e+03,-4.277563219460670529e-01,0.000000000000000000e+00
1.245000000000000000e+03,-5.931138631935355121e-02,0.000000000000000000e+00
1.246000000000000000e+03,-4.075462438953258992e-01,0.000000000000000000e+00
1.247000000000000000e+03,-7.486078131060346086e-02,0.000000000000000000e+00
1.248000000000000000e+03,-2.663449386043151290e-01,0.000000000000000000e+00
1.249000000000000000e+03,-1.129002360170191788e-01,0.000000000000000000e+00
1.250000000000000000e+03,-9.860250316368350532e-02,0.000000000000000000e+00
1.251000000000000000e+03,-2.180317869234786321e-01,0.000000000000000000e+00
1.252000000000000000e+03,-1.882787283548046364e-01,0.000000000000000000e+00
1.253000000000000000e+03,-1.869268815012251617e-01,0.000000000000000000e+00
1.254000000000000000e+03,-1.956990969141854941e-01,0.000000000000000000e+00
1.255000000000000000e+03,7.815207771656115798e-02,0.000000000000000000e+00
1.256000000000000000e+03,-1.966874335701280507e-01,0.000000000000000000e+00
1.257000000000000000e+03,4.896501872796699129e-01,0.000000000000000000e+00
1.258000000000000000e+03,1.746641546417984914e-01,0.000000000000000000e+00
1.259000000000000000e+03,5.560732599272690813e-01,0.000000000000000000e+00
1.260000000000000000e+03,-3.131199951036202633e-01,0.000000000000000000e+00
1.261000000000000000e+03,-5.898207632514117921e-02,0.000000000000000000e+00
1.262000000000000000e+03,-4.713606961743782020e-01,0.000000000000000000e+00
1.263000000000000000e+03,-6.486071351883340719e-02,0.000000000000000000e+00
1.264000000000000000e+03,-2.860311069280408458e-01,0.000000000000000000e+00
1.265000000000000000e+03,1.696969640153547232e-01,0.000000000000000000e+00
1.266000000000000000e+03,-3.233012491992926507e-01,0.000000000000000000e+00
1.267000000000000000e+03,5.284183633233902277e+00,0.000000000000000000e+00
1.268000000000000000e+03,-7.901606248389769771e-02,1.000000000000000000e+00
1.269000000000000000e+03,-2.482907156176421104e+00,0.000000000000000000e+00
1.270000000000000000e+03,-3.540491039984661886e-02,0.000000000000000000e+00
1.271000000000000000e+03,-6.819267835582875081e-01,0.000000000000000000e+00
1.272000000000000000e+03,-2.691848571675422089e-02,0.000000000000000000e+00
1.273000000000000000e+03,-2.989113772562407845e-01,0.000000000000000000e+00
1.274000000000000000e+03,8.812097254789045403e-03,0.000000000000000000e+00
1.275000000000000000e+03,1.310506479091217216e-02,0.000000000000000000e+00
1.276000000000000000e+03,2.543660255593465855e-02,0.000000000000000000e+00
1.277000000000000000e+03,1.163754991565033592e-01,0.000000000000000000e+00
1.278000000000000000e+03,2.834665841171092326e-01,0.000000000000000000e+00
1.279000000000000000e+03,3.192434406626837862e-01,0.000000000000000000e+00
1.280000000000000000e+03,4.114088469507154455e-01,0.000000000000000000e+00
1.281000000000000000e+03,2.913202116077227011e-01,0.000000000000000000e+00
1.282000000000000000e+03,2.924353941699634474e-01,0.000000000000000000e+00
1.283000000000000000e+03,3.536046426943661447e-01,0.000000000000000000e+00
1.284000000000000000e+03,9.872499320841281178e-02,0.000000000000000000e+00
1.285000000000000000e+03,-1.145067316164232463e-01,0.000000000000000000e+00
1.286000000000000000e+03,-3.593780526359218186e-01,0.000000000000000000e+00
1.287000000000000000e+03,-3.179142340409381595e-01,0.000000000000000000e+00
1.288000000000000000e+03,-3.646778603910985073e-01,0.000000000000000000e+00
1.289000000000000000e+03,-1.887801452538357128e-01,0.000000000000000000e+00
1.290000000000000000e+03,-1.985428377243520781e-01,0.000000000000000000e+00
1.291000000000000000e+03,-1.452138075325358491e-01,0.000000000000000000e+00
1.292000000000000000e+03,-3.788003199601743809e-01,0.000000000000000000e+00
1.293000000000000000e+03,-2.249031440243584035e-01,0.000000000000000000e+00
1.294000000000000000e+03,-1.687116601127301163e-01,0.000000000000000000e+00
1.295000000000000000e+03,-1.471707576730584000e-01,0.000000000000000000e+00
1.296000000000000000e+03,-4.307191662877274951e-01,0.000000000000000000e+00
1.297000000000000000e+03,-1.031824168239122708e-01,0.000000000000000000e+00
1.298000000000000000e+03,-8.774744360444376723e-02,0.000000000000000000e+00
1.299000000000000000e+03,2.449335208782811579e-01,0.000000000000000000e+00
1.300000000000000000e+03,2.340952494637626724e-01,0.000000000000000000e+00
1.301000000000000000e+03,4.076412851408062199e-01,0.000000000000000000e+00
1.302000000000000000e+03,-1.312186059329940868e-01,0.000000000000000000e+00
1.303000000000000000e+03,-1.826830945418423946e-01,0.000000000000000000e+00
1.304000000000000000e+03,-5.244910493160424014e-01,0.000000000000000000e+00
1.305000000000000000e+03,-4.464748109946655580e-02,0.000000000000000000e+00
1.306000000000000000e+03,-4.703461917803198888e-01,0.000000000000000000e+00
1.307000000000000000e+03,3.524487017403155065e-01,0.000000000000000000e+00
1.308000000000000000e+03,-9.038539632918558553e-01,0.000000000000000000e+00
1.309000000000000000e+03,3.572005848579667742e+00,0.000000000000000000e+00
1.310000000000000000e+03,2.713759869749404974e+00,1.000000000000000000e+00
1.311000000000000000e+03,-3.766472916419821626e+00,0.000000000000000000e+00
1.312000000000000000e+03,-2.341843561432715437e-01,0.000000000000000000e+00
1.313000000000000000e+03,-5.995324460958557644e-01,0.000000000000000000e+00
1.314000000000000000e+03,-1.032526746809485779e-01,0.000000000000000000e+00
1.315000000000000000e+03,-3.033098309844637908e-01,0.000000000000000000e+00
1.316000000000000000e+03,-6.338018542029791313e-02,0.000000000000000000e+00
1.317000000000000000e+03,-2.855943650280308097e-02,0.000000000000000000e+00
1.318000000000000000e+03,1.651565024572000384e-01,0.000000000000000000e+00
1.319000000000000000e+03,1.201764031457883963e-01,0.000000000000000000e+00
1.320000000000000000e+03,2.586394580781415375e-01,0.000000000000000000e+00
1.321000000000000000e+03,2.932856887818614533e-01,0.000000000000000000e+00
1.322000000000000000e+03,4.131292614655895368e-01,0.000000000000000000e+00
1.323000000000000000e+03,3.224901773650395431e-01,0.000000000000000000e+00
1.324000000000000000e+03,4.653144886367165389e-01,0.000000000000000000e+00
1.325000000000000000e+03,1.906069494951862509e-01,0.000000000000000000e+00
1.326000000000000000e+03,6.070705829622113220e-02,0.000000000000000000e+00
1.327000000000000000e+03,-3.453436110386842173e-01,0.000000000000000000e+00
1.328000000000000000e+03,-5.482673896808991643e-01,0.000000000000000000e+00
1.329000000000000000e+03,-4.847416457171872528e-01,0.000000000000000000e+00
1.330000000000000000e+03,-5.831805165161040305e-01,0.000000000000000000e+00
1.331000000000000000e+03,-4.046631920373395808e-01,0.000000000000000000e+00
1.332000000000000000e+03,-4.140596892075246727e-01,0.000000000000000000e+00
1.333000000000000000e+03,-2.893810242197243365e-01,0.000000000000000000e+00
1.334000000000000000e+03,-4.486924486790805355e-01,0.000000000000000000e+00
1.335000000000000000e+03,-2.606481178434513768e-01,0.000000000000000000e+00
1.336000000000000000e+03,-4.476872578803611225e-01,0.000000000000000000e+00
1.337000000000000000e+03,-3.210586937455529588e-01,0.000000000000000000e+00
1.338000000000000000e+03,-2.804873515515660110e-01,0.000000000000000000e+00
1.339000000000000000e+03,-1.711456953854907093e-01,0.000000000000000000e+00
1.340000000000000000e+03,-1.299686119148583674e-01,0.000000000000000000e+00
1.341000000000000000e+03,2.841113815350899130e-01,0.000000000000000000e+00
1.342000000000000000e+03,1.383541455155968547e-01,0.000000000000000000e+00
1.343000000000000000e+03,3.309424928315371495e-01,0.000000000000000000e+00
1.344000000000000000e+03,-2.574815582161058547e-01,0.000000000000000000e+00
1.345000000000000000e+03,-6.841216257906601594e-02,0.000000000000000000e+00
1.346000000000000000e+03,-3.191996435753723382e-01,0.000000000000000000e+00
1.347000000000000000e+03,8.004608927547703090e-02,0.000000000000000000e+00
1.348000000000000000e+03,-3.328101598110977943e-01,0.000000000000000000e+00
1.349000000000000000e+03,2.068566011707005936e-01,0.000000000000000000e+00
1.350000000000000000e+03,-5.485566655742863951e-01,0.000000000000000000e+00
1.351000000000000000e+03,4.378900874233905505e+00,0.000000000000000000e+00
1.352000000000000000e+03,1.733744121649051229e+00,1.000000000000000000e+00
1.353000000000000000e+03,-3.260409568762709043e+00,0.000000000000000000e+00
1.354000000000000000e+03,-3.092895433543197455e-03,0.000000000000000000e+00
1.355000000000000000e+03,-6.664032185024107990e-01,0.000000000000000000e+00
1.356000000000000000e+03,1.298350409262930827e-01,0.000000000000000000e+00
1.357000000000000000e+03,-1.154427658825722680e-01,0.000000000000000000e+00
1.358000000000000000e+03,2.112136796554162921e-01,0.000000000000000000e+00
1.359000000000000000e+03,-1.397734421724153298e-01,0.000000000000000000e+00
1.360000000000000000e+03,3.741489529061233221e-01,0.000000000000000000e+00
1.361000000000000000e+03,7.758371671029005989e-02,0.000000000000000000e+00
1.362000000000000000e+03,6.419126515995046134e-01,0.000000000000000000e+00
1.363000000000000000e+03,4.007487396946066149e-01,0.000000000000000000e+00
1.364000000000000000e+03,6.161027423412164250e-01,0.000000000000000000e+00
1.365000000000000000e+03,4.925185026478763328e-01,0.000000000000000000e+00
1.366000000000000000e+03,5.538882975822820853e-01,0.000000000000000000e+00
1.367000000000000000e+03,5.092956639268918506e-01,0.000000000000000000e+00
1.368000000000000000e+03,1.660334693762760272e-01,0.000000000000000000e+00
1.369000000000000000e+03,-9.268541028499349688e-02,0.000000000000000000e+00
1.370000000000000000e+03,-3.057892492619810332e-01,0.000000000000000000e+00
1.371000000000000000e+03,-4.182996962033403987e-01,0.000000000000000000e+00
1.372000000000000000e+03,-2.271776518322402016e-01,0.000000000000000000e+00
1.373000000000000000e+03,-2.716959013118475652e-01,0.000000000000000000e+00
1.374000000000000000e+03,-1.885889454410114019e-01,0.000000000000000000e+00
1.375000000000000000e+03,-4.233304213590136089e-01,0.000000000000000000e+00
1.376000000000000000e+03,-2.834823495978975871e-01,0.000000000000000000e+00
1.377000000000000000e+03,-2.238626224035387968e-01,0.000000000000000000e+00
1.378000000000000000e+03,-3.869563972341275582e-01,0.000000000000000000e+00
1.379000000000000000e+03,-2.449506668011596777e-01,0.000000000000000000e+00
1.380000000000000000e+03,-2.157741827885218955e-01,0.000000000000000000e+00
1.381000000000000000e+03,-1.717730256919471621e-01,0.000000000000000000e+00
1.382000000000000000e+03,-1.275300917726734928e-01,0.000000000000000000e+00
1.383000000000000000e+03,-4.595016921733089538e-02,0.000000000000000000e+00
1.384000000000000000e+03,1.824077672748491696e-01,0.000000000000000000e+00
1.385000000000000000e+03,4.793826118942860481e-01,0.000000000000000000e+00
1.386000000000000000e+03,-1.586597765073281263e-01,0.000000000000000000e+00
1.387000000000000000e+03,-1.610134774330061191e-01,0.000000000000000000e+00
1.388000000000000000e+03,-4.521013291477337104e-01,0.000000000000000000e+00
1.389000000000000000e+03,-1.169133364761572313e-01,0.000000000000000000e+00
1.390000000000000000e+03,-4.136229157542972712e-01,0.000000000000000000e+00
1.391000000000000000e+03,2.576976336308782756e-01,0.000000000000000000e+00
1.392000000000000000e+03,-6.568371537233654855e-01,0.000000000000000000e+00
1.393000000000000000e+03,3.562856025471748289e+00,0.000000000000000000e+00
1.394000000000000000e+03,2.593516810381405691e+00,1.000000000000000000e+00
1.395000000000000000e+03,-3.414144829028986194e+00,0.000000000000000000e+00
1.396000000000000000e+03,-6.535373217954178193e-02,0.000000000000000000e+00
1.397000000000000000e+03,-7.262719273321848190e-01,0.000000000000000000e+00
1.398000000000000000e+03,-3.123410851715033992e-02,0.000000000000000000e+00
1.399000000000000000e+03,-3.851796220949710858e-01,0.000000000000000000e+00
1.400000000000000000e+03,2.347077839475152083e-01,0.000000000000000000e+00
1.401000000000000000e+03,-2.126511824158124897e-01,0.000000000000000000e+00
1.402000000000000000e+03,3.669842113719942733e-01,0.000000000000000000e+00
1.403000000000000000e+03,-1.115431963370362191e-02,0.000000000000000000e+00
1.404000000000000000e+03,4.591999414191568762e-01,0.000000000000000000e+00
1.405000000000000000e+03,1.838199773794571557e-01,0.000000000000000000e+00
1.406000000000000000e+03,5.007131485514605407e-01,0.000000000000000000e+00
1.407000000000000000e+03,3.153476839740825266e-01,0.000000000000000000e+00
1.408000000000000000e+03,5.469532697943880750e-01,0.000000000000000000e+00
1.409000000000000000e+03,1.545832271925948742e-01,0.000000000000000000e+00
1.410000000000000000e+03,1.373444896430235374e-01,0.000000000000000000e+00
1.411000000000000000e+03,-3.456075400550752130e-01,0.000000000000000000e+00
1.412000000000000000e+03,-1.217615875789192087e-01,0.000000000000000000e+00
1.413000000000000000e+03,-2.818255599991619786e-01,0.000000000000000000e+00
1.414000000000000000e+03,-3.503679039243640103e-01,0.000000000000000000e+00
1.415000000000000000e+03,-3.332054701784312734e-01,0.000000000000000000e+00
1.416000000000000000e+03,-1.683599973221589219e-01,0.000000000000000000e+00
1.417000000000000000e+03,-1.876665580814094181e-01,0.000000000000000000e+00
1.418000000000000000e+03,-1.704599356059480209e-01,0.000000000000000000e+00
1.419000000000000000e+03,-2.642772375356798320e-01,0.000000000000000000e+00
1.420000000000000000e+03,-1.065592276523885384e-01,0.000000000000000000e+00
1.421000000000000000e+03,-3.219431262371602598e-01,0.000000000000000000e+00
1.422000000000000000e+03,-5.761467156872737000e-02,0.000000000000000000e+00
1.423000000000000000e+03,-2.859466062599689828e-01,0.000000000000000000e+00
1.424000000000000000e+03,-4.809671508562437386e-02,0.000000000000000000e+00
1.425000000000000000e+03,4.239260902450599916e-02,0.000000000000000000e+00
1.426000000000000000e+03,2.133665927686420605e-01,0.000000000000000000e+00
1.427000000000000000e+03,3.352024272873550537e-01,0.000000000000000000e+00
1.428000000000000000e+03,2.739614143037621408e-01,0.000000000000000000e+00
1.429000000000000000e+03,-1.384377040518507407e-01,0.000000000000000000e+00
1.430000000000000000e+03,-3.154108603823020385e-01,0.000000000000000000e+00
1.431000000000000000e+03,-6.913873764188445403e-02,0.000000000000000000e+00
1.432000000000000000e+03,-1.679318175370591026e-01,0.000000000000000000e+00
1.433000000000000000e+03,-6.182167723993237801e-02,0.000000000000000000e+00
1.434000000000000000e+03,-3.583590835402872266e-01,0.000000000000000000e+00
1.435000000000000000e+03,1.536924731959013579e+00,0.000000000000000000e+00
1.436000000000000000e+03,4.758807235428123228e+00,0.000000000000000000e+00
1.437000000000000000e+03,-2.516469600726919165e+00,1.000000000000000000e+00
1.438000000000000000e+03,-1.103944510973581927e+00,0.000000000000000000e+00
1.439000000000000000e+03,-2.753111616607387124e-01,0.000000000000000000e+00
1.440000000000000000e+03,-2.345348464275270051e-01,0.000000000000000000e+00
1.441000000000000000e+03,-3.202734100842990483e-01,0.000000000000000000e+00
1.442000000000000000e+03,2.116982255963842027e-03,0.000000000000000000e+00
1.443000000000000000e+03,1.464637330872314326e-03,0.000000000000000000e+00
1.444000000000000000e+03,1.290304452405890145e-01,0.000000000000000000e+00
1.445000000000000000e+03,3.282797037637764093e-01,0.000000000000000000e+00
1.446000000000000000e+03,1.386658886141431679e-01,0.000000000000000000e+00
1.447000000000000000e+03,3.013106006144276039e-01,0.000000000000000000e+00
1.448000000000000000e+03,4.703101986812613378e-01,0.000000000000000000e+00
1.449000000000000000e+03,3.995963844017755839e-01,0.000000000000000000e+00
1.450000000000000000e+03,4.503942532102814811e-01,0.000000000000000000e+00
1.451000000000000000e+03,3.075519360281031012e-01,0.000000000000000000e+00
1.452000000000000000e+03,2.545301910018464842e-01,0.000000000000000000e+00
1.453000000000000000e+03,-1.989072969539581737e-01,0.000000000000000000e+00
1.454000000000000000e+03,-3.562966134078807134e-01,0.000000000000000000e+00
1.455000000000000000e+03,-1.468978059760054078e-01,0.000000000000000000e+00
1.456000000000000000e+03,-1.871935163017882930e-01,0.000000000000000000e+00
1.457000000000000000e+03,-5.496074979449609987e-01,0.000000000000000000e+00
1.458000000000000000e+03,-3.052213355956894802e-01,0.000000000000000000e+00
1.459000000000000000e+03,-3.817874002891221141e-01,0.000000000000000000e+00
1.460000000000000000e+03,-3.207177436841883167e-01,0.000000000000000000e+00
1.461000000000000000e+03,-3.458643991895715142e-01,0.000000000000000000e+00
1.462000000000000000e+03,-2.656533797826487464e-01,0.000000000000000000e+00
1.463000000000000000e+03,-3.700957309055441513e-01,0.000000000000000000e+00
1.464000000000000000e+03,-4.257943199828199965e-02,0.000000000000000000e+00
1.465000000000000000e+03,-3.965895372864303159e-01,0.000000000000000000e+00
1.466000000000000000e+03,-8.835166256311838273e-02,0.000000000000000000e+00
1.467000000000000000e+03,-1.832432027362523308e-01,0.000000000000000000e+00
1.468000000000000000e+03,4.825812194592919990e-01,0.000000000000000000e+00
1.469000000000000000e+03,2.605727561054437813e-01,0.000000000000000000e+00
1.470000000000000000e+03,5.411612470969291433e-01,0.000000000000000000e+00
1.471000000000000000e+03,-2.147194987171511249e-01,0.000000000000000000e+00
1.472000000000000000e+03,-7.587366918997755227e-02,0.000000000000000000e+00
1.473000000000000000e+03,-3.118056489896938732e-01,0.000000000000000000e+00
1.474000000000000000e+03,6.547349889194102601e-02,0.000000000000000000e+00
1.475000000000000000e+03,-1.693725007272479377e-01,0.000000000000000000e+00
1.476000000000000000e+03,-4.257391376303092806e-02,0.000000000000000000e+00
1.477000000000000000e+03,5.685555655161937949e-01,0.000000000000000000e+00
1.478000000000000000e+03,5.299539067487343047e+00,0.000000000000000000e+00
1.479000000000000000e+03,-1.114081104757557616e+00,1.000000000000000000e+00
1.480000000000000000e+03,-2.187834285972846793e+00,0.000000000000000000e+00
1.481000000000000000e+03,-1.247080854878946377e-01,0.000000000000000000e+00
1.482000000000000000e+03,-5.180313871643361656e-01,0.000000000000000000e+00
1.483000000000000000e+03,-1.945233896518251959e-01,0.000000000000000000e+00
1.484000000000000000e+03,-3.733223724182767600e-01,0.000000000000000000e+00
1.485000000000000000e+03,-1.954809327656387152e-01,0.000000000000000000e+00
1.486000000000000000e+03,-1.042872222185518144e-01,0.000000000000000000e+00
1.487000000000000000e+03,-1.012264102736971649e-01,0.000000000000000000e+00
1.488000000000000000e+03,1.513416482378272532e-01,0.000000000000000000e+00
1.489000000000000000e+03,1.818494837671199016e-01,0.000000000000000000e+00
1.490000000000000000e+03,2.102329036622013481e-01,0.000000000000000000e+00
1.491000000000000000e+03,3.005453189238300737e-01,0.000000000000000000e+00
1.492000000000000000e+03,-1.365433972940473251e-02,0.000000000000000000e+00
1.493000000000000000e+03,3.679498325243336643e-01,0.000000000000000000e+00
1.494000000000000000e+03,1.362185316566663085e-01,0.000000000000000000e+00
1.495000000000000000e+03,-1.726221011696648655e-01,0.000000000000000000e+00
1.496000000000000000e+03,-1.758508629103038290e-01,0.000000000000000000e+00
1.497000000000000000e+03,-3.510365859565776625e-01,0.000000000000000000e+00
1.498000000000000000e+03,-2.693570634856382040e-01,0.000000000000000000e+00
1.499000000000000000e+03,-2.932864683670963757e-01,0.000000000000000000e+00
1.500000000000000000e+03,-3.656429141819515505e-01,0.000000000000000000e+00
1.501000000000000000e+03,-3.692977395235012561e-01,0.000000000000000000e+00
1.502000000000000000e+03,-2.707291448479189899e-01,0.000000000000000000e+00
1.503000000000000000e+03,-2.522912966275279723e-01,0.000000000000000000e+00
1.504000000000000000e+03,-1.712417203348219619e-01,0.000000000000000000e+00
1.505000000000000000e+03,-3.675038397553873071e-01,0.000000000000000000e+00
1.506000000000000000e+03,-2.677157015782687943e-01,0.000000000000000000e+00
1.507000000000000000e+03,-2.945028396426713213e-01,0.000000000000000000e+00
1.508000000000000000e+03,-2.311721197921612070e-01,0.000000000000000000e+00
1.509000000000000000e+03,-2.711395843960314085e-03,0.000000000000000000e+00
1.510000000000000000e+03,2.401825733249463024e-01,0.000000000000000000e+00
1.511000000000000000e+03,1.909941832336029821e-01,0.000000000000000000e+00
1.512000000000000000e+03,3.213286698934393337e-01,0.000000000000000000e+00
1.513000000000000000e+03,-3.812375330717687749e-01,0.000000000000000000e+00
1.514000000000000000e+03,-2.434981524285756704e-01,0.000000000000000000e+00
1.515000000000000000e+03,-3.410855733573914250e-01,0.000000000000000000e+00
1.516000000000000000e+03,-5.976507369522574692e-02,0.000000000000000000e+00
1.517000000000000000e+03,-4.816831710382137033e-02,0.000000000000000000e+00
1.518000000000000000e+03,-1.930036911774242747e-01,0.000000000000000000e+00
1.519000000000000000e+03,7.399129958396927220e-01,0.000000000000000000e+00
1.520000000000000000e+03,5.110593020461176472e+00,0.000000000000000000e+00
1.521000000000000000e+03,-1.572129521502628524e+00,1.000000000000000000e+00
1.522000000000000000e+03,-1.603626021214064057e+00,0.000000000000000000e+00
1.523000000000000000e+03,-1.591795143271010071e-01,0.000000000000000000e+00
1.524000000000000000e+03,-4.163399633388061849e-01,0.000000000000000000e+00
1.525000000000000000e+03,-1.298908738746597513e-01,0.000000000000000000e+00
1.526000000000000000e+03,-1.331697912095762826e-01,0.000000000000000000e+00
1.527000000000000000e+03,1.670504436615130595e-01,0.000000000000000000e+00
1.528000000000000000e+03,3.486032266787104927e-02,0.000000000000000000e+00
1.529000000000000000e+03,2.846316045628943248e-01,0.000000000000000000e+00
1.530000000000000000e+03,7.241949845672018826e-02,0.000000000000000000e+00
1.531000000000000000e+03,4.759579546046652232e-01,0.000000000000000000e+00
1.532000000000000000e+03,3.456773573470296457e-01,0.000000000000000000e+00
1.533000000000000000e+03,5.332367690567217933e-01,0.000000000000000000e+00
1.534000000000000000e+03,2.587008664312714368e-01,0.000000000000000000e+00
1.535000000000000000e+03,4.029038315539922310e-01,0.000000000000000000e+00
1.536000000000000000e+03,3.545121502563981508e-01,0.000000000000000000e+00
1.537000000000000000e+03,8.954729195088956262e-02,0.000000000000000000e+00
1.538000000000000000e+03,-1.481909109556222015e-01,0.000000000000000000e+00
1.539000000000000000e+03,-2.055297004245413284e-01,0.000000000000000000e+00
1.540000000000000000e+03,-3.372672181838779482e-01,0.000000000000000000e+00
1.541000000000000000e+03,-1.623359830988869157e-01,0.000000000000000000e+00
1.542000000000000000e+03,-7.246302446783049744e-02,0.000000000000000000e+00
1.543000000000000000e+03,-1.790354208637034705e-01,0.000000000000000000e+00
1.544000000000000000e+03,-1.783586057309100581e-01,0.000000000000000000e+00
1.545000000000000000e+03,-1.639895541485275055e-01,0.000000000000000000e+00
1.546000000000000000e+03,-2.197521478735640355e-01,0.000000000000000000e+00
1.547000000000000000e+03,-1.367582681389063748e-01,0.000000000000000000e+00
1.548000000000000000e+03,-1.897066560733658980e-01,0.000000000000000000e+00
1.549000000000000000e+03,-7.550786457637047311e-02,0.000000000000000000e+00
1.550000000000000000e+03,-1.189949658917665160e-01,0.000000000000000000e+00
1.551000000000000000e+03,2.970556180420239611e-01,0.000000000000000000e+00
1.552000000000000000e+03,1.632982211165209807e-01,0.000000000000000000e+00
1.553000000000000000e+03,3.457343341678766335e-01,0.000000000000000000e+00
1.554000000000000000e+03,1.495387622319772070e-01,0.000000000000000000e+00
1.555000000000000000e+03,-2.118382702809601670e-01,0.000000000000000000e+00
1.556000000000000000e+03,-3.308181210596176092e-01,0.000000000000000000e+00
1.557000000000000000e+03,-3.209881413499620501e-02,0.000000000000000000e+00
1.558000000000000000e+03,-5.500889857283197681e-01,0.000000000000000000e+00
1.559000000000000000e+03,1.841876777155500022e-01,0.000000000000000000e+00
1.560000000000000000e+03,-5.855210338370140377e-01,0.000000000000000000e+00
1.561000000000000000e+03,2.575919779880899707e+00,0.000000000000000000e+00
1.562000000000000000e+03,3.820391324208078032e+00,0.000000000000000000e+00
1.563000000000000000e+03,-3.581690578720401863e+00,1.000000000000000000e+00
1.564000000000000000e+03,-6.908104981538695233e-01,0.000000000000000000e+00
1.565000000000000000e+03,-4.683014647023072685e-01,0.000000000000000000e+00
1.566000000000000000e+03,-2.149364537249964097e-02,0.000000000000000000e+00
1.567000000000000000e+03,-4.318527411048866393e-01,0.000000000000000000e+00
1.568000000000000000e+03,4.244869856585486989e-02,0.000000000000000000e+00
1.569000000000000000e+03,-6.026384101872674787e-02,0.000000000000000000e+00
1.570000000000000000e+03,2.090887955592436176e-01,0.000000000000000000e+00
1.571000000000000000e+03,3.619939911366860247e-02,0.000000000000000000e+00
1.572000000000000000e+03,3.575326474506091423e-01,0.000000000000000000e+00
1.573000000000000000e+03,3.103568286841506541e-01,0.000000000000000000e+00
1.574000000000000000e+03,3.479074728135090333e-01,0.000000000000000000e+00
1.575000000000000000e+03,3.030675032531287560e-01,0.000000000000000000e+00
1.576000000000000000e+03,4.741306157861013837e-01,0.000000000000000000e+00
1.577000000000000000e+03,3.502882379704315707e-01,0.000000000000000000e+00
1.578000000000000000e+03,1.239301064326601698e-01,0.000000000000000000e+00
1.579000000000000000e+03,-4.241934390930310883e-01,0.000000000000000000e+00
1.580000000000000000e+03,-5.269325881055273442e-01,0.000000000000000000e+00
1.581000000000000000e+03,-5.463483744856287849e-01,0.000000000000000000e+00
1.582000000000000000e+03,-5.488952477340567349e-01,0.000000000000000000e+00
1.583000000000000000e+03,-5.070925289335131980e-01,0.000000000000000000e+00
1.584000000000000000e+03,-6.254200602319825997e-01,0.000000000000000000e+00
1.585000000000000000e+03,-4.228202766738952123e-01,0.000000000000000000e+00
