timestamp,ecg_measurement,qrs_detected
0.000000000000000000e+00,-1.004922397653320809e+00,0.000000000000000000e+00
1.000000000000000000e+00,-1.314353853550695117e+00,0.000000000000000000e+00
2.000000000000000000e+00,-1.287410542481302489e+00,0.000000000000000000e+00
3.000000000000000000e+00,-8.194728569030730325e-01,0.000000000000000000e+00
4.000000000000000000e+00,-1.156849849644876249e+00,0.000000000000000000e+00
5.000000000000000000e+00,-7.420058432776617252e-01,0.000000000000000000e+00
6.000000000000000000e+00,-6.688639100926805359e-01,0.000000000000000000e+00
7.000000000000000000e+00,-8.345565145397825235e-01,0.000000000000000000e+00
8.000000000000000000e+00,-5.845662651867344906e-01,0.000000000000000000e+00
9.000000000000000000e+00,-3.576599548680535201e-01,0.000000000000000000e+00
1.000000000000000000e+01,-4.802865780269294227e-01,0.000000000000000000e+00
1.100000000000000000e+01,-1.329258507099450315e-01,0.000000000000000000e+00
1.200000000000000000e+01,-1.766655295185144969e-01,0.000000000000000000e+00
1.300000000000000000e+01,4.770215059885184461e-01,0.000000000000000000e+00
1.400000000000000000e+01,4.810914665419360192e-01,0.000000000000000000e+00
1.500000000000000000e+01,5.450593809125439115e-01,0.000000000000000000e+00
1.600000000000000000e+01,7.177230741017797122e-01,0.000000000000000000e+00
1.700000000000000000e+01,6.852794430600001041e-01,0.000000000000000000e+00
1.800000000000000000e+01,6.459398796785429386e-01,0.000000000000000000e+00
1.900000000000000000e+01,4.732311142165588902e-01,0.000000000000000000e+00
2.000000000000000000e+01,2.274583499259005825e-01,0.000000000000000000e+00
2.100000000000000000e+01,1.977706536545827676e-01,0.000000000000000000e+00
2.200000000000000000e+01,-2.217978850927917744e-01,0.000000000000000000e+00
2.300000000000000000e+01,-1.124927560453741343e-01,0.000000000000000000e+00
2.400000000000000000e+01,-1.640230253923208592e-01,0.000000000000000000e+00
2.500000000000000000e+01,2.128822656240579592e-01,0.000000000000000000e+00
2.600000000000000000e+01,-3.847252755057639639e-01,0.000000000000000000e+00
2.700000000000000000e+01,7.947476524693428135e-02,0.000000000000000000e+00
2.800000000000000000e+01,-3.035025726604090868e-01,0.000000000000000000e+00
2.900000000000000000e+01,7.689455974386620596e-02,0.000000000000000000e+00
3.000000000000000000e+01,-3.145097697999359454e-01,0.000000000000000000e+00
3.100000000000000000e+01,6.079052959004436346e-02,0.000000000000000000e+00
3.200000000000000000e+01,-5.322151557794670834e-02,0.000000000000000000e+00
3.300000000000000000e+01,-3.302363655843006396e-01,0.000000000000000000e+00
3.400000000000000000e+01,1.279335405147653537e-01,0.000000000000000000e+00
3.500000000000000000e+01,-3.539385877704907118e-02,0.000000000000000000e+00
3.600000000000000000e+01,-2.481846440725387071e-01,0.000000000000000000e+00
3.700000000000000000e+01,1.127889591103379135e-01,0.000000000000000000e+00
3.800000000000000000e+01,-2.970325848296165999e-02,0.000000000000000000e+00
3.900000000000000000e+01,2.177923004011135810e-01,0.000000000000000000e+00
4.000000000000000000e+01,-5.130671455312449912e-03,0.000000000000000000e+00
4.100000000000000000e+01,3.755471502781657089e-01,0.000000000000000000e+00
4.200000000000000000e+01,-3.078954610802499547e-01,0.000000000000000000e+00
4.300000000000000000e+01,-2.311296107215402573e-01,0.000000000000000000e+00
4.400000000000000000e+01,-4.079232655241992744e-01,0.000000000000000000e+00
4.500000000000000000e+01,-2.291498411588667183e-01,0.000000000000000000e+00
4.600000000000000000e+01,-3.365121022114180849e-01,0.000000000000000000e+00
4.700000000000000000e+01,-2.103223377568859964e-01,0.000000000000000000e+00
4.800000000000000000e+01,-2.055245210865957184e-01,0.000000000000000000e+00
4.900000000000000000e+01,-4.830530239179670060e-02,0.000000000000000000e+00
5.000000000000000000e+01,-5.207790807088872320e-01,0.000000000000000000e+00
5.100000000000000000e+01,2.881730851328661913e+00,0.000000000000000000e+00
5.200000000000000000e+01,4.767034013014451510e+00,0.000000000000000000e+00
5.300000000000000000e+01,-8.754916322637052994e-01,1.000000000000000000e+00
5.400000000000000000e+01,-1.431836543916949367e+00,0.000000000000000000e+00
5.500000000000000000e+01,-1.181267727027877523e+00,0.000000000000000000e+00
5.600000000000000000e+01,-1.209239079508704684e+00,0.000000000000000000e+00
5.700000000000000000e+01,-1.137861339233012803e+00,0.000000000000000000e+00
5.800000000000000000e+01,-7.398871813727853075e-01,0.000000000000000000e+00
5.900000000000000000e+01,-7.657716694799083790e-01,0.000000000000000000e+00
6.000000000000000000e+01,-4.896207184923560551e-01,0.000000000000000000e+00
6.100000000000000000e+01,-8.307017475205199508e-01,0.000000000000000000e+00
6.200000000000000000e+01,-2.767216264558012284e-01,0.000000000000000000e+00
6.300000000000000000e+01,-5.488083618952217524e-01,0.000000000000000000e+00
6.400000000000000000e+01,-8.881702260021880069e-02,0.000000000000000000e+00
6.500000000000000000e+01,1.625321156721443866e-02,0.000000000000000000e+00
6.600000000000000000e+01,2.826713239993440263e-01,0.000000000000000000e+00
6.700000000000000000e+01,4.537787616475708607e-01,0.000000000000000000e+00
6.800000000000000000e+01,7.058582757618629966e-01,0.000000000000000000e+00
6.900000000000000000e+01,6.933113046096509580e-01,0.000000000000000000e+00
7.000000000000000000e+01,7.909498630561088151e-01,0.000000000000000000e+00
7.100000000000000000e+01,7.857262776314862807e-01,0.000000000000000000e+00
7.200000000000000000e+01,5.781605806559975136e-01,0.000000000000000000e+00
7.300000000000000000e+01,1.539702294241251934e-01,0.000000000000000000e+00
7.400000000000000000e+01,1.310370831267557677e-02,0.000000000000000000e+00
7.500000000000000000e+01,-2.713498945277328239e-02,0.000000000000000000e+00
7.600000000000000000e+01,-4.509664968844786376e-02,0.000000000000000000e+00
7.700000000000000000e+01,-2.498037769725048041e-01,0.000000000000000000e+00
7.800000000000000000e+01,2.116376583956522950e-01,0.000000000000000000e+00
7.900000000000000000e+01,7.903473228435251019e-02,0.000000000000000000e+00
8.000000000000000000e+01,-1.971294347678931580e-01,0.000000000000000000e+00
8.100000000000000000e+01,-1.553331978568530669e-01,0.000000000000000000e+00
8.200000000000000000e+01,-1.684765088163840407e-01,0.000000000000000000e+00
8.300000000000000000e+01,-1.098288480852981780e-01,0.000000000000000000e+00
8.400000000000000000e+01,-9.819391252209370979e-02,0.000000000000000000e+00
8.500000000000000000e+01,-3.728257650606258689e-01,0.000000000000000000e+00
8.600000000000000000e+01,-1.174525291962358331e-01,0.000000000000000000e+00
8.700000000000000000e+01,4.029235767042922689e-02,0.000000000000000000e+00
8.800000000000000000e+01,-1.874214529452029043e-01,0.000000000000000000e+00
8.900000000000000000e+01,1.225407529343391089e-01,0.000000000000000000e+00
9.000000000000000000e+01,2.048016840968389374e-01,0.000000000000000000e+00
9.100000000000000000e+01,-1.087367217686469045e-01,0.000000000000000000e+00
9.200000000000000000e+01,2.021337407164700284e-01,0.000000000000000000e+00
9.300000000000000000e+01,1.785242800643800365e-01,0.000000000000000000e+00
9.400000000000000000e+01,3.927632444399505873e-01,0.000000000000000000e+00
9.500000000000000000e+01,-2.516328088653242978e-01,0.000000000000000000e+00
9.600000000000000000e+01,-1.833204779447956678e-01,0.000000000000000000e+00
9.700000000000000000e+01,-4.026403707808001720e-01,0.000000000000000000e+00
9.800000000000000000e+01,-8.577390270277597539e-02,0.000000000000000000e+00
9.900000000000000000e+01,-3.530511982642788871e-01,0.000000000000000000e+00
1.000000000000000000e+02,5.855380800728545582e-02,0.000000000000000000e+00
1.010000000000000000e+02,-3.260091592484438694e-01,0.000000000000000000e+00
1.020000000000000000e+02,8.972838347789892366e-02,0.000000000000000000e+00
1.030000000000000000e+02,-4.459109759840957365e-01,0.000000000000000000e+00
1.040000000000000000e+02,3.053834103394303057e+00,0.000000000000000000e+00
1.050000000000000000e+02,4.554467740695932854e+00,0.000000000000000000e+00
1.060000000000000000e+02,-1.460518993964608603e+00,1.000000000000000000e+00
1.070000000000000000e+02,-1.367129898094880280e+00,0.000000000000000000e+00
1.080000000000000000e+02,-1.079038882473226657e+00,0.000000000000000000e+00
1.090000000000000000e+02,-1.133708604760976568e+00,0.000000000000000000e+00
1.100000000000000000e+02,-7.609632115739644043e-01,0.000000000000000000e+00
1.110000000000000000e+02,-7.694614248003553980e-01,0.000000000000000000e+00
1.120000000000000000e+02,-8.419126972383913499e-01,0.000000000000000000e+00
1.130000000000000000e+02,-5.829800187774302200e-01,0.000000000000000000e+00
1.140000000000000000e+02,-5.742227220172891888e-01,0.000000000000000000e+00
1.150000000000000000e+02,-4.110941666796876781e-01,0.000000000000000000e+00
1.160000000000000000e+02,-4.379923304275584739e-01,0.000000000000000000e+00
1.170000000000000000e+02,-1.448370576153818479e-01,0.000000000000000000e+00
1.180000000000000000e+02,5.732923830612629557e-02,0.000000000000000000e+00
1.190000000000000000e+02,2.395818715027199231e-01,0.000000000000000000e+00
1.200000000000000000e+02,3.529349128521910295e-01,0.000000000000000000e+00
1.210000000000000000e+02,6.039290787099466096e-01,0.000000000000000000e+00
1.220000000000000000e+02,5.199071431468510474e-01,0.000000000000000000e+00
1.230000000000000000e+02,7.431598989284454726e-01,0.000000000000000000e+00
1.240000000000000000e+02,5.710374629792108747e-01,0.000000000000000000e+00
1.250000000000000000e+02,6.326588268400071824e-01,0.000000000000000000e+00
1.260000000000000000e+02,1.714848678769692325e-01,0.000000000000000000e+00
1.270000000000000000e+02,1.361696188192677284e-03,0.000000000000000000e+00
1.280000000000000000e+02,-4.466840789429497860e-02,0.000000000000000000e+00
1.290000000000000000e+02,-9.909518380114747116e-02,0.000000000000000000e+00
1.300000000000000000e+02,-4.978563064656301579e-02,0.000000000000000000e+00
1.310000000000000000e+02,-1.238497893726696886e-01,0.000000000000000000e+00
1.320000000000000000e+02,-1.018324101900699302e-01,0.000000000000000000e+00
1.330000000000000000e+02,-2.914632263413245022e-02,0.000000000000000000e+00
1.340000000000000000e+02,-2.287096146713485656e-01,0.000000000000000000e+00
1.350000000000000000e+02,1.195298002394465237e-01,0.000000000000000000e+00
1.360000000000000000e+02,-3.681687101543380525e-01,0.000000000000000000e+00
1.370000000000000000e+02,1.408142166865661571e-01,0.000000000000000000e+00
1.380000000000000000e+02,-2.213304537928329485e-01,0.000000000000000000e+00
1.390000000000000000e+02,-7.182664735231775177e-02,0.000000000000000000e+00
1.400000000000000000e+02,-4.981916193655154534e-02,0.000000000000000000e+00
1.410000000000000000e+02,5.486006614740431692e-02,0.000000000000000000e+00
1.420000000000000000e+02,-7.627748741166453031e-04,0.000000000000000000e+00
1.430000000000000000e+02,3.004877174418585373e-01,0.000000000000000000e+00
1.440000000000000000e+02,4.163672502321678209e-02,0.000000000000000000e+00
1.450000000000000000e+02,-1.106694572242694213e-01,0.000000000000000000e+00
1.460000000000000000e+02,-1.604703600993692414e-01,0.000000000000000000e+00
1.470000000000000000e+02,-1.859885140412672611e-01,0.000000000000000000e+00
1.480000000000000000e+02,-3.990011313771320567e-01,0.000000000000000000e+00
1.490000000000000000e+02,-1.452906191355068377e-01,0.000000000000000000e+00
1.500000000000000000e+02,-2.937811048475535425e-01,0.000000000000000000e+00
1.510000000000000000e+02,-5.776486350691753535e-02,0.000000000000000000e+00
1.520000000000000000e+02,-3.777535573190511364e-01,0.000000000000000000e+00
1.530000000000000000e+02,1.325737486756216887e-01,0.000000000000000000e+00
1.540000000000000000e+02,-1.831552858170046316e-01,0.000000000000000000e+00
1.550000000000000000e+02,4.864915206931283542e+00,0.000000000000000000e+00
1.560000000000000000e+02,2.958801588214267309e+00,1.000000000000000000e+00
1.570000000000000000e+02,-1.849048458690874197e+00,0.000000000000000000e+00
1.580000000000000000e+02,-8.376108627934109041e-01,0.000000000000000000e+00
1.590000000000000000e+02,-1.398984735996067430e+00,0.000000000000000000e+00
1.600000000000000000e+02,-7.619522702390089108e-01,0.000000000000000000e+00
1.610000000000000000e+02,-7.787580933178717135e-01,0.000000000000000000e+00
1.620000000000000000e+02,-9.712581277159627602e-01,0.000000000000000000e+00
1.630000000000000000e+02,-6.702004321118748553e-01,0.000000000000000000e+00
1.640000000000000000e+02,-5.519247465571047728e-01,0.000000000000000000e+00
1.650000000000000000e+02,-4.302854818857375085e-01,0.000000000000000000e+00
1.660000000000000000e+02,-3.894788084096045266e-01,0.000000000000000000e+00
1.670000000000000000e+02,-3.841651464663518034e-01,0.000000000000000000e+00
1.680000000000000000e+02,9.145190184234520958e-02,0.000000000000000000e+00
1.690000000000000000e+02,5.199257177628745924e-02,0.000000000000000000e+00
1.700000000000000000e+02,4.349686468513914717e-01,0.000000000000000000e+00
1.710000000000000000e+02,5.663432498075662291e-01,0.000000000000000000e+00
1.720000000000000000e+02,7.661314458984647136e-01,0.000000000000000000e+00
1.730000000000000000e+02,5.471541559986429215e-01,0.000000000000000000e+00
1.740000000000000000e+02,8.405379699253284764e-01,0.000000000000000000e+00
1.750000000000000000e+02,6.362696349506971050e-01,0.000000000000000000e+00
1.760000000000000000e+02,3.874427711688992471e-01,0.000000000000000000e+00
1.770000000000000000e+02,2.001449841787212303e-01,0.000000000000000000e+00
1.780000000000000000e+02,-8.475894124536775820e-02,0.000000000000000000e+00
1.790000000000000000e+02,-2.632261658271022736e-02,0.000000000000000000e+00
1.800000000000000000e+02,-8.165618576374618527e-04,0.000000000000000000e+00
1.810000000000000000e+02,-2.691173278995978024e-01,0.000000000000000000e+00
1.820000000000000000e+02,6.417354092457405734e-02,0.000000000000000000e+00
1.830000000000000000e+02,-1.857561493475799186e-01,0.000000000000000000e+00
1.840000000000000000e+02,-7.956366397826619696e-02,0.000000000000000000e+00
1.850000000000000000e+02,-1.014925391090427120e-01,0.000000000000000000e+00
1.860000000000000000e+02,-3.856586391411937625e-02,0.000000000000000000e+00
1.870000000000000000e+02,-2.566418760280214650e-01,0.000000000000000000e+00
1.880000000000000000e+02,6.684406085341511317e-02,0.000000000000000000e+00
1.890000000000000000e+02,-2.154585760564429742e-01,0.000000000000000000e+00
1.900000000000000000e+02,-9.688895935580006669e-02,0.000000000000000000e+00
1.910000000000000000e+02,-1.477525664936253647e-01,0.000000000000000000e+00
1.920000000000000000e+02,-1.305161522890425831e-03,0.000000000000000000e+00
1.930000000000000000e+02,-6.677716276098864812e-02,0.000000000000000000e+00
1.940000000000000000e+02,-1.681474806532992916e-01,0.000000000000000000e+00
1.950000000000000000e+02,-1.125669876497296662e-01,0.000000000000000000e+00
1.960000000000000000e+02,2.643487119682800257e-01,0.000000000000000000e+00
1.970000000000000000e+02,-9.837536376922333126e-02,0.000000000000000000e+00
1.980000000000000000e+02,3.145768849930898337e-01,0.000000000000000000e+00
1.990000000000000000e+02,1.895681000837473873e-01,0.000000000000000000e+00
2.000000000000000000e+02,4.513915859284516330e-01,0.000000000000000000e+00
2.010000000000000000e+02,-1.814108778747552664e-01,0.000000000000000000e+00
2.020000000000000000e+02,-2.047419215572914564e-01,0.000000000000000000e+00
2.030000000000000000e+02,-4.698452085236049514e-01,0.000000000000000000e+00
2.040000000000000000e+02,-1.156921351149040461e-01,0.000000000000000000e+00
2.050000000000000000e+02,-2.913806873569818046e-01,0.000000000000000000e+00
2.060000000000000000e+02,-9.346154622144739466e-02,0.000000000000000000e+00
2.070000000000000000e+02,-4.791432968804414938e-01,0.000000000000000000e+00
2.080000000000000000e+02,1.162080605939326688e-01,0.000000000000000000e+00
2.090000000000000000e+02,-2.452341830523299682e-01,0.000000000000000000e+00
2.100000000000000000e+02,4.491722213580939815e+00,0.000000000000000000e+00
2.110000000000000000e+02,3.498486337646056654e+00,0.000000000000000000e+00
2.120000000000000000e+02,-1.727924309814701465e+00,1.000000000000000000e+00
2.130000000000000000e+02,-1.292901015027242861e+00,0.000000000000000000e+00
2.140000000000000000e+02,-1.293628846957357803e+00,0.000000000000000000e+00
2.150000000000000000e+02,-9.403601623106029317e-01,0.000000000000000000e+00
2.160000000000000000e+02,-1.059232150657371641e+00,0.000000000000000000e+00
2.170000000000000000e+02,-8.770748394686286309e-01,0.000000000000000000e+00
2.180000000000000000e+02,-8.347569146730038359e-01,0.000000000000000000e+00
2.190000000000000000e+02,-5.666866498565814592e-01,0.000000000000000000e+00
2.200000000000000000e+02,-5.913897960730848391e-01,0.000000000000000000e+00
2.210000000000000000e+02,-3.119754014133908626e-01,0.000000000000000000e+00
2.220000000000000000e+02,-3.107858784662668183e-01,0.000000000000000000e+00
2.230000000000000000e+02,-1.060837842310965728e-01,0.000000000000000000e+00
2.240000000000000000e+02,3.333174984761986745e-03,0.000000000000000000e+00
2.250000000000000000e+02,2.893452484648918466e-01,0.000000000000000000e+00
2.260000000000000000e+02,4.751269735503921288e-01,0.000000000000000000e+00
2.270000000000000000e+02,6.621216026795126997e-01,0.000000000000000000e+00
2.280000000000000000e+02,5.509879923723064454e-01,0.000000000000000000e+00
2.290000000000000000e+02,6.634904525521738705e-01,0.000000000000000000e+00
2.300000000000000000e+02,6.910900905507795233e-01,0.000000000000000000e+00
2.310000000000000000e+02,6.070575626090500831e-01,0.000000000000000000e+00
2.320000000000000000e+02,-5.784957813660409308e-04,0.000000000000000000e+00
2.330000000000000000e+02,1.476087077501298250e-01,0.000000000000000000e+00
2.340000000000000000e+02,-2.440973223133273418e-01,0.000000000000000000e+00
2.350000000000000000e+02,-8.555643917323796366e-02,0.000000000000000000e+00
2.360000000000000000e+02,-2.980333095082212669e-01,0.000000000000000000e+00
2.370000000000000000e+02,2.270015891417195841e-02,0.000000000000000000e+00
2.380000000000000000e+02,-3.470083793335106970e-01,0.000000000000000000e+00
2.390000000000000000e+02,-2.053555035539236448e-02,0.000000000000000000e+00
2.400000000000000000e+02,-1.659558265123651372e-02,0.000000000000000000e+00
2.410000000000000000e+02,-1.645608500078308278e-01,0.000000000000000000e+00
2.420000000000000000e+02,2.532612010564643801e-01,0.000000000000000000e+00
2.430000000000000000e+02,-5.771611892443812009e-01,0.000000000000000000e+00
2.440000000000000000e+02,7.298138010954740608e-03,0.000000000000000000e+00
2.450000000000000000e+02,2.003702337925500898e-01,0.000000000000000000e+00
2.460000000000000000e+02,-7.144459403499864303e-01,0.000000000000000000e+00
2.470000000000000000e+02,4.375260438819753017e-01,0.000000000000000000e+00
2.480000000000000000e+02,-5.502604656257309435e-02,0.000000000000000000e+00
2.490000000000000000e+02,-4.004832639606268341e-01,0.000000000000000000e+00
2.500000000000000000e+02,2.569945703752666843e-01,0.000000000000000000e+00
2.510000000000000000e+02,8.157659339271478016e-02,0.000000000000000000e+00
2.520000000000000000e+02,2.174424229353862092e-01,0.000000000000000000e+00
2.530000000000000000e+02,2.900595318874777395e-01,0.000000000000000000e+00
2.540000000000000000e+02,-1.127539868772514664e-02,0.000000000000000000e+00
2.550000000000000000e+02,-9.527457592968099909e-02,0.000000000000000000e+00
2.560000000000000000e+02,-2.300639360391744659e-01,0.000000000000000000e+00
2.570000000000000000e+02,-3.367519541592814414e-01,0.000000000000000000e+00
2.580000000000000000e+02,-4.853790097178998231e-01,0.000000000000000000e+00
2.590000000000000000e+02,-2.093587512406784035e-01,0.000000000000000000e+00
2.600000000000000000e+02,7.445242288144891807e-02,0.000000000000000000e+00
2.610000000000000000e+02,-1.983572831362287112e-02,0.000000000000000000e+00
2.620000000000000000e+02,-3.403683825099890203e-01,0.000000000000000000e+00
2.630000000000000000e+02,1.347374525405320211e+00,0.000000000000000000e+00
2.640000000000000000e+02,5.812421715038378345e+00,0.000000000000000000e+00
2.650000000000000000e+02,1.196872480237298059e-01,1.000000000000000000e+00
2.660000000000000000e+02,-1.758136349040739344e+00,0.000000000000000000e+00
2.670000000000000000e+02,-1.102173037717578019e+00,0.000000000000000000e+00
2.680000000000000000e+02,-1.219968691751415424e+00,0.000000000000000000e+00
2.690000000000000000e+02,-1.018703064649541412e+00,0.000000000000000000e+00
2.700000000000000000e+02,-8.856355539012699118e-01,0.000000000000000000e+00
2.710000000000000000e+02,-5.634620261602920621e-01,0.000000000000000000e+00
2.720000000000000000e+02,-7.985988616063974810e-01,0.000000000000000000e+00
2.730000000000000000e+02,-5.486740261110553130e-01,0.000000000000000000e+00
2.740000000000000000e+02,-5.452858200137912226e-01,0.000000000000000000e+00
2.750000000000000000e+02,-4.027956719260060714e-01,0.000000000000000000e+00
2.760000000000000000e+02,-2.407451645628330139e-01,0.000000000000000000e+00
2.770000000000000000e+02,8.798269533587493689e-04,0.000000000000000000e+00
2.780000000000000000e+02,9.057157975809218553e-02,0.000000000000000000e+00
2.790000000000000000e+02,5.408222470373780233e-01,0.000000000000000000e+00
2.800000000000000000e+02,2.410751418594740125e-01,0.000000000000000000e+00
2.810000000000000000e+02,9.768945526562199388e-01,0.000000000000000000e+00
2.820000000000000000e+02,6.531306264151317542e-01,0.000000000000000000e+00
2.830000000000000000e+02,6.327438255866880690e-01,0.000000000000000000e+00
2.840000000000000000e+02,5.027947296210685257e-01,0.000000000000000000e+00
2.850000000000000000e+02,3.031002182235255082e-01,0.000000000000000000e+00
2.860000000000000000e+02,7.337486561090650339e-02,0.000000000000000000e+00
2.870000000000000000e+02,-8.799408779606606584e-03,0.000000000000000000e+00
2.880000000000000000e+02,-2.439620060147005276e-01,0.000000000000000000e+00
2.890000000000000000e+02,-3.076225699371781461e-02,0.000000000000000000e+00
2.900000000000000000e+02,6.406425682374558561e-02,0.000000000000000000e+00
2.910000000000000000e+02,-5.314687720024573181e-03,0.000000000000000000e+00
2.920000000000000000e+02,-1.809453631016079700e-01,0.000000000000000000e+00
2.930000000000000000e+02,7.627053582152891475e-02,0.000000000000000000e+00
2.940000000000000000e+02,-1.560257642853618010e-01,0.000000000000000000e+00
2.950000000000000000e+02,-2.607191797227497235e-02,0.000000000000000000e+00
2.960000000000000000e+02,-5.314546044559988885e-02,0.000000000000000000e+00
2.970000000000000000e+02,-1.307590764924136673e-01,0.000000000000000000e+00
2.980000000000000000e+02,-1.741701181115430375e-01,0.000000000000000000e+00
2.990000000000000000e+02,2.672969970411323212e-02,0.000000000000000000e+00
3.000000000000000000e+02,-3.183298644216101675e-02,0.000000000000000000e+00
3.010000000000000000e+02,-2.596514333461902302e-01,0.000000000000000000e+00
3.020000000000000000e+02,8.454617965401643731e-02,0.000000000000000000e+00
3.030000000000000000e+02,-9.607866533859528435e-02,0.000000000000000000e+00
3.040000000000000000e+02,2.269766226402656073e-01,0.000000000000000000e+00
3.050000000000000000e+02,-3.668733753124100300e-02,0.000000000000000000e+00
3.060000000000000000e+02,3.146907566517759269e-01,0.000000000000000000e+00
3.070000000000000000e+02,1.379412006768513388e-01,0.000000000000000000e+00
3.080000000000000000e+02,-4.044530385284139662e-01,0.000000000000000000e+00
3.090000000000000000e+02,-1.572270491072215171e-01,0.000000000000000000e+00
3.100000000000000000e+02,-5.036224858835958162e-01,0.000000000000000000e+00
3.110000000000000000e+02,1.716070875103901661e-01,0.000000000000000000e+00
3.120000000000000000e+02,-4.239513654883707572e-01,0.000000000000000000e+00
3.130000000000000000e+02,1.801292180978346646e-01,0.000000000000000000e+00
3.140000000000000000e+02,-2.226317378440224592e-01,0.000000000000000000e+00
3.150000000000000000e+02,-1.622594170967051608e-01,0.000000000000000000e+00
3.160000000000000000e+02,7.462464063792336733e-01,0.000000000000000000e+00
3.170000000000000000e+02,5.588196413727613887e+00,0.000000000000000000e+00
3.180000000000000000e+02,9.694075235792495304e-01,1.000000000000000000e+00
3.190000000000000000e+02,-1.801371409354909359e+00,0.000000000000000000e+00
3.200000000000000000e+02,-8.279250208576048875e-01,0.000000000000000000e+00
3.210000000000000000e+02,-1.329955101579810783e+00,0.000000000000000000e+00
3.220000000000000000e+02,-6.376904813931850713e-01,0.000000000000000000e+00
3.230000000000000000e+02,-7.717244525531978816e-01,0.000000000000000000e+00
3.240000000000000000e+02,-5.602307653240917729e-01,0.000000000000000000e+00
3.250000000000000000e+02,-8.280643815843654609e-01,0.000000000000000000e+00
3.260000000000000000e+02,-2.956484339758059798e-01,0.000000000000000000e+00
3.270000000000000000e+02,-2.614370784836286821e-01,0.000000000000000000e+00
3.280000000000000000e+02,-3.001813060885589191e-01,0.000000000000000000e+00
3.290000000000000000e+02,-2.203187176041255524e-01,0.000000000000000000e+00
3.300000000000000000e+02,1.292438024634897376e-01,0.000000000000000000e+00
3.310000000000000000e+02,1.969329300943155059e-01,0.000000000000000000e+00
3.320000000000000000e+02,6.009105130096158431e-01,0.000000000000000000e+00
3.330000000000000000e+02,6.491898467245306170e-01,0.000000000000000000e+00
3.340000000000000000e+02,8.137297664220546345e-01,0.000000000000000000e+00
3.350000000000000000e+02,4.952603326761083058e-01,0.000000000000000000e+00
3.360000000000000000e+02,7.868003964949851214e-01,0.000000000000000000e+00
3.370000000000000000e+02,7.990242303217792719e-01,0.000000000000000000e+00
3.380000000000000000e+02,6.105656976387893176e-01,0.000000000000000000e+00
3.390000000000000000e+02,2.804691340593584020e-02,0.000000000000000000e+00
3.400000000000000000e+02,2.454765680819383580e-02,0.000000000000000000e+00
3.410000000000000000e+02,-5.478636627412167975e-02,0.000000000000000000e+00
3.420000000000000000e+02,-1.979009815089663449e-01,0.000000000000000000e+00
3.430000000000000000e+02,1.974948292853622445e-01,0.000000000000000000e+00
3.440000000000000000e+02,-6.789965615099433083e-02,0.000000000000000000e+00
3.450000000000000000e+02,-5.694349299955474980e-02,0.000000000000000000e+00
3.460000000000000000e+02,-1.365421671465349984e-01,0.000000000000000000e+00
3.470000000000000000e+02,-8.413248108060740471e-02,0.000000000000000000e+00
3.480000000000000000e+02,-3.388729268683419726e-01,0.000000000000000000e+00
3.490000000000000000e+02,-6.194494058805122966e-02,0.000000000000000000e+00
3.500000000000000000e+02,-7.985524454399546557e-02,0.000000000000000000e+00
3.510000000000000000e+02,-3.373494436792012219e-01,0.000000000000000000e+00
3.520000000000000000e+02,-4.051652718533391706e-01,0.000000000000000000e+00
3.530000000000000000e+02,9.004379824422534262e-02,0.000000000000000000e+00
3.540000000000000000e+02,-5.225522464530588662e-01,0.000000000000000000e+00
3.550000000000000000e+02,-2.005288172540194147e-01,0.000000000000000000e+00
3.560000000000000000e+02,1.455481331877125362e-01,0.000000000000000000e+00
3.570000000000000000e+02,-2.267054474234056760e-01,0.000000000000000000e+00
3.580000000000000000e+02,8.857353023829422911e-02,0.000000000000000000e+00
3.590000000000000000e+02,3.371158650647233107e-02,0.000000000000000000e+00
3.600000000000000000e+02,-1.518876193700578192e-01,0.000000000000000000e+00
3.610000000000000000e+02,-3.756429397108063117e-01,0.000000000000000000e+00
3.620000000000000000e+02,-2.987916460569199906e-01,0.000000000000000000e+00
3.630000000000000000e+02,-5.583732611757351583e-01,0.000000000000000000e+00
3.640000000000000000e+02,-5.661412046280646093e-01,0.000000000000000000e+00
3.650000000000000000e+02,-3.176172096658461119e-01,0.000000000000000000e+00
3.660000000000000000e+02,-2.714188852028966981e-01,0.000000000000000000e+00
3.670000000000000000e+02,-4.617299195002592671e-01,0.000000000000000000e+00
3.680000000000000000e+02,-2.520797629793781747e-01,0.000000000000000000e+00
3.690000000000000000e+02,-1.294438834069260580e-01,0.000000000000000000e+00
3.700000000000000000e+02,4.992233784671609165e+00,0.000000000000000000e+00
3.710000000000000000e+02,2.182581834160502776e+00,1.000000000000000000e+00
3.720000000000000000e+02,-2.268048380794957186e+00,0.000000000000000000e+00
3.730000000000000000e+02,-1.033293396520999385e+00,0.000000000000000000e+00
3.740000000000000000e+02,-1.733590172202301716e+00,0.000000000000000000e+00
3.750000000000000000e+02,-1.138393618395404427e+00,0.000000000000000000e+00
3.760000000000000000e+02,-1.183535394418203213e+00,0.000000000000000000e+00
3.770000000000000000e+02,-1.233085979236674845e+00,0.000000000000000000e+00
3.780000000000000000e+02,-9.056594631702060694e-01,0.000000000000000000e+00
3.790000000000000000e+02,-7.443623987067625736e-01,0.000000000000000000e+00
3.800000000000000000e+02,-8.320644946784657714e-01,0.000000000000000000e+00
3.810000000000000000e+02,-4.561378606640969502e-01,0.000000000000000000e+00
3.820000000000000000e+02,-7.154171664302314548e-01,0.000000000000000000e+00
3.830000000000000000e+02,-2.058451444010607478e-01,0.000000000000000000e+00
3.840000000000000000e+02,-1.896757275557566791e-01,0.000000000000000000e+00
3.850000000000000000e+02,1.864168558773582896e-01,0.000000000000000000e+00
3.860000000000000000e+02,3.401089730904566788e-01,0.000000000000000000e+00
3.870000000000000000e+02,5.954595291104771704e-01,0.000000000000000000e+00
3.880000000000000000e+02,3.952042239788113864e-01,0.000000000000000000e+00
3.890000000000000000e+02,8.264601127286528293e-01,0.000000000000000000e+00
3.900000000000000000e+02,4.450413030050991425e-01,0.000000000000000000e+00
3.910000000000000000e+02,3.295511466396061073e-01,0.000000000000000000e+00
3.920000000000000000e+02,3.112750197770146610e-01,0.000000000000000000e+00
3.930000000000000000e+02,-1.734991350785558828e-01,0.000000000000000000e+00
3.940000000000000000e+02,-5.076729686589906421e-02,0.000000000000000000e+00
3.950000000000000000e+02,-2.165316553497513563e-01,0.000000000000000000e+00
3.960000000000000000e+02,-7.393143871243171295e-02,0.000000000000000000e+00
3.970000000000000000e+02,-1.193818114344596254e-01,0.000000000000000000e+00
3.980000000000000000e+02,6.187647773237284904e-02,0.000000000000000000e+00
3.990000000000000000e+02,-2.049319197809275628e-01,0.000000000000000000e+00
4.000000000000000000e+02,-1.322353057780317753e-01,0.000000000000000000e+00
4.010000000000000000e+02,2.008649110408776972e-01,0.000000000000000000e+00
4.020000000000000000e+02,-1.593051809572890998e-01,0.000000000000000000e+00
4.030000000000000000e+02,-1.213971638849814239e-01,0.000000000000000000e+00
4.040000000000000000e+02,5.244496899406775325e-02,0.000000000000000000e+00
4.050000000000000000e+02,9.186510288851930384e-02,0.000000000000000000e+00
4.060000000000000000e+02,-1.411567945910038591e-01,0.000000000000000000e+00
4.070000000000000000e+02,-5.582307007415821670e-02,0.000000000000000000e+00
4.080000000000000000e+02,1.148225143175144874e-01,0.000000000000000000e+00
4.090000000000000000e+02,5.272707361740242710e-02,0.000000000000000000e+00
4.100000000000000000e+02,1.333664219352302116e-01,0.000000000000000000e+00
4.110000000000000000e+02,3.128741292236597582e-01,0.000000000000000000e+00
4.120000000000000000e+02,5.034806637391980866e-01,0.000000000000000000e+00
4.130000000000000000e+02,3.600663063154372345e-01,0.000000000000000000e+00
4.140000000000000000e+02,1.588542268119452205e-01,0.000000000000000000e+00
4.150000000000000000e+02,1.224089761225835016e-01,0.000000000000000000e+00
4.160000000000000000e+02,-3.151637842224263575e-01,0.000000000000000000e+00
4.170000000000000000e+02,3.127001897753048376e-02,0.000000000000000000e+00
4.180000000000000000e+02,1.503399376006976096e-01,0.000000000000000000e+00
4.190000000000000000e+02,1.698967619758763314e-01,0.000000000000000000e+00
4.200000000000000000e+02,-1.421715360111106552e-01,0.000000000000000000e+00
4.210000000000000000e+02,1.920615599992034628e-01,0.000000000000000000e+00
4.220000000000000000e+02,-1.670381362748315501e-01,0.000000000000000000e+00
4.230000000000000000e+02,2.163711490953887040e+00,0.000000000000000000e+00
4.240000000000000000e+02,5.691255861134305150e+00,0.000000000000000000e+00
4.250000000000000000e+02,-1.690363067917838025e-01,1.000000000000000000e+00
4.260000000000000000e+02,-1.363486827136859203e+00,0.000000000000000000e+00
4.270000000000000000e+02,-1.011907381587508592e+00,0.000000000000000000e+00
4.280000000000000000e+02,-7.924290196451863055e-01,0.000000000000000000e+00
4.290000000000000000e+02,-6.766456180368571882e-01,0.000000000000000000e+00
4.300000000000000000e+02,-7.112464966340689143e-01,0.000000000000000000e+00
4.310000000000000000e+02,-6.685982631377133112e-01,0.000000000000000000e+00
4.320000000000000000e+02,-3.449377135244626191e-01,0.000000000000000000e+00
4.330000000000000000e+02,-4.495006486876684249e-01,0.000000000000000000e+00
4.340000000000000000e+02,-1.637367057742850907e-01,0.000000000000000000e+00
4.350000000000000000e+02,-2.966764549530142570e-01,0.000000000000000000e+00
4.360000000000000000e+02,-8.186221845150293275e-02,0.000000000000000000e+00
4.370000000000000000e+02,-3.934850784302960230e-02,0.000000000000000000e+00
4.380000000000000000e+02,1.868644657056599268e-01,0.000000000000000000e+00
4.390000000000000000e+02,7.441673943134058389e-01,0.000000000000000000e+00
4.400000000000000000e+02,6.232641266772901423e-01,0.000000000000000000e+00
4.410000000000000000e+02,6.470656834180814609e-01,0.000000000000000000e+00
4.420000000000000000e+02,8.863016426783101309e-01,0.000000000000000000e+00
4.430000000000000000e+02,6.893178976616894937e-01,0.000000000000000000e+00
4.440000000000000000e+02,6.268012077968381224e-01,0.000000000000000000e+00
4.450000000000000000e+02,3.463158555589636034e-01,0.000000000000000000e+00
4.460000000000000000e+02,1.561488317618792976e-01,0.000000000000000000e+00
4.470000000000000000e+02,-6.983332770877952178e-02,0.000000000000000000e+00
4.480000000000000000e+02,-1.564695763708112697e-01,0.000000000000000000e+00
4.490000000000000000e+02,-3.354239328724001323e-02,0.000000000000000000e+00
4.500000000000000000e+02,-1.418640279922096514e-01,0.000000000000000000e+00
4.510000000000000000e+02,-3.352764951899504103e-02,0.000000000000000000e+00
4.520000000000000000e+02,-7.359041303478899843e-02,0.000000000000000000e+00
4.530000000000000000e+02,2.842250489385314549e-02,0.000000000000000000e+00
4.540000000000000000e+02,-1.033991164359437664e-01,0.000000000000000000e+00
4.550000000000000000e+02,-1.845524803477986142e-01,0.000000000000000000e+00
4.560000000000000000e+02,-2.189152935059151261e-01,0.000000000000000000e+00
4.570000000000000000e+02,1.080305866357569727e-01,0.000000000000000000e+00
4.580000000000000000e+02,-3.058229766182888332e-01,0.000000000000000000e+00
4.590000000000000000e+02,9.453718063574506614e-03,0.000000000000000000e+00
4.600000000000000000e+02,-5.959562066648384226e-02,0.000000000000000000e+00
4.610000000000000000e+02,6.552044611718496614e-02,0.000000000000000000e+00
4.620000000000000000e+02,3.916304369233342131e-01,0.000000000000000000e+00
4.630000000000000000e+02,2.125022094656249250e-01,0.000000000000000000e+00
4.640000000000000000e+02,1.657623854458762092e-01,0.000000000000000000e+00
4.650000000000000000e+02,1.796500581339600111e-01,0.000000000000000000e+00
4.660000000000000000e+02,-3.603233877708224286e-02,0.000000000000000000e+00
4.670000000000000000e+02,-4.190233278032229891e-01,0.000000000000000000e+00
4.680000000000000000e+02,-2.354569335964160903e-01,0.000000000000000000e+00
4.690000000000000000e+02,-1.658665463468241563e-01,0.000000000000000000e+00
4.700000000000000000e+02,-1.958365614309400815e-01,0.000000000000000000e+00
4.710000000000000000e+02,-1.189197722499440724e-01,0.000000000000000000e+00
4.720000000000000000e+02,-1.219257657471436024e-01,0.000000000000000000e+00
4.730000000000000000e+02,2.676776265540240646e-02,0.000000000000000000e+00
4.740000000000000000e+02,-4.101345359893684289e-02,0.000000000000000000e+00
4.750000000000000000e+02,4.843265460727923077e+00,0.000000000000000000e+00
4.760000000000000000e+02,2.572326898721311483e+00,1.000000000000000000e+00
4.770000000000000000e+02,-2.018290367119008888e+00,0.000000000000000000e+00
4.780000000000000000e+02,-1.161713024329006583e+00,0.000000000000000000e+00
4.790000000000000000e+02,-1.410538101726849014e+00,0.000000000000000000e+00
4.800000000000000000e+02,-7.079781040633281730e-01,0.000000000000000000e+00
4.810000000000000000e+02,-1.129365182084092423e+00,0.000000000000000000e+00
4.820000000000000000e+02,-6.768951011004284979e-01,0.000000000000000000e+00
4.830000000000000000e+02,-7.945068354464226434e-01,0.000000000000000000e+00
4.840000000000000000e+02,-4.250692814784828300e-01,0.000000000000000000e+00
4.850000000000000000e+02,-4.150390381619852853e-01,0.000000000000000000e+00
4.860000000000000000e+02,-2.598337004621137925e-01,0.000000000000000000e+00
4.870000000000000000e+02,-3.135059194835314589e-01,0.000000000000000000e+00
4.880000000000000000e+02,-2.458274834330004266e-02,0.000000000000000000e+00
4.890000000000000000e+02,1.198577347895555395e-01,0.000000000000000000e+00
4.900000000000000000e+02,4.249549053086376094e-01,0.000000000000000000e+00
4.910000000000000000e+02,4.508839320508615800e-01,0.000000000000000000e+00
4.920000000000000000e+02,7.951717406292534429e-01,0.000000000000000000e+00
4.930000000000000000e+02,7.354592020814501030e-01,0.000000000000000000e+00
4.940000000000000000e+02,5.238151746906253292e-01,0.000000000000000000e+00
4.950000000000000000e+02,5.662070515260996251e-01,0.000000000000000000e+00
4.960000000000000000e+02,3.055000463533935062e-01,0.000000000000000000e+00
4.970000000000000000e+02,-1.371197745434958593e-02,0.000000000000000000e+00
4.980000000000000000e+02,-1.100834602695559966e-01,0.000000000000000000e+00
4.990000000000000000e+02,-3.101573112599457227e-01,0.000000000000000000e+00
5.000000000000000000e+02,-2.580435867810795814e-01,0.000000000000000000e+00
5.010000000000000000e+02,-1.329970637543795020e-01,0.000000000000000000e+00
5.020000000000000000e+02,-1.468943605287501564e-01,0.000000000000000000e+00
5.030000000000000000e+02,-2.459795317782929036e-01,0.000000000000000000e+00
5.040000000000000000e+02,-2.766213908205363281e-01,0.000000000000000000e+00
5.050000000000000000e+02,-9.393336116489836574e-02,0.000000000000000000e+00
5.060000000000000000e+02,-3.246596713660155342e-01,0.000000000000000000e+00
5.070000000000000000e+02,-3.811317214275514176e-01,0.000000000000000000e+00
5.080000000000000000e+02,-1.424705420087953311e-01,0.000000000000000000e+00
5.090000000000000000e+02,-3.244475052443363539e-01,0.000000000000000000e+00
5.100000000000000000e+02,-3.383171317281435941e-01,0.000000000000000000e+00
5.110000000000000000e+02,-2.587026947316098946e-01,0.000000000000000000e+00
5.120000000000000000e+02,-1.140210339420945768e-01,0.000000000000000000e+00
5.130000000000000000e+02,-3.021575482160867576e-01,0.000000000000000000e+00
5.140000000000000000e+02,-1.206195304805977031e-01,0.000000000000000000e+00
5.150000000000000000e+02,-6.086360656899663518e-02,0.000000000000000000e+00
5.160000000000000000e+02,1.419809035844818608e-02,0.000000000000000000e+00
5.170000000000000000e+02,-3.146722563824173591e-01,0.000000000000000000e+00
5.180000000000000000e+02,3.554660653625073552e-01,0.000000000000000000e+00
5.190000000000000000e+02,3.775130316059421148e-02,0.000000000000000000e+00
5.200000000000000000e+02,2.358356010389207891e-01,0.000000000000000000e+00
5.210000000000000000e+02,-4.283598893512106237e-02,0.000000000000000000e+00
5.220000000000000000e+02,-3.050505125814280682e-01,0.000000000000000000e+00
5.230000000000000000e+02,-3.556308622461876734e-01,0.000000000000000000e+00
5.240000000000000000e+02,-2.881468920651348298e-01,0.000000000000000000e+00
5.250000000000000000e+02,-2.689129240469703697e-01,0.000000000000000000e+00
5.260000000000000000e+02,-8.156961334430075372e-02,0.000000000000000000e+00
5.270000000000000000e+02,-3.404634068183594042e-01,0.000000000000000000e+00
5.280000000000000000e+02,1.749250834477841798e-02,0.000000000000000000e+00
5.290000000000000000e+02,-4.204580295909194909e-01,0.000000000000000000e+00
5.300000000000000000e+02,4.072967973969585209e+00,0.000000000000000000e+00
5.310000000000000000e+02,3.927237070190707335e+00,0.000000000000000000e+00
5.320000000000000000e+02,-1.652100129004463458e+00,1.000000000000000000e+00
5.330000000000000000e+02,-1.309557297644926344e+00,0.000000000000000000e+00
5.340000000000000000e+02,-1.282539015039904085e+00,0.000000000000000000e+00
5.350000000000000000e+02,-9.982888733318222574e-01,0.000000000000000000e+00
5.360000000000000000e+02,-1.140241817838180127e+00,0.000000000000000000e+00
5.370000000000000000e+02,-8.275260331010902970e-01,0.000000000000000000e+00
5.380000000000000000e+02,-9.566782452362500022e-01,0.000000000000000000e+00
5.390000000000000000e+02,-4.860388537466610037e-01,0.000000000000000000e+00
5.400000000000000000e+02,-7.169115074954851563e-01,0.000000000000000000e+00
5.410000000000000000e+02,-3.165556585729121242e-01,0.000000000000000000e+00
5.420000000000000000e+02,-5.983592770339998257e-01,0.000000000000000000e+00
5.430000000000000000e+02,1.772388137494227967e-01,0.000000000000000000e+00
5.440000000000000000e+02,-3.748588459799608863e-01,0.000000000000000000e+00
5.450000000000000000e+02,4.581969233360667082e-01,0.000000000000000000e+00
5.460000000000000000e+02,2.821603640432030491e-01,0.000000000000000000e+00
5.470000000000000000e+02,4.694439436638975227e-01,0.000000000000000000e+00
5.480000000000000000e+02,9.972906042504123825e-01,0.000000000000000000e+00
5.490000000000000000e+02,2.472991799396071222e-01,0.000000000000000000e+00
5.500000000000000000e+02,7.057641450314036113e-01,0.000000000000000000e+00
5.510000000000000000e+02,6.207108036095445591e-01,0.000000000000000000e+00
5.520000000000000000e+02,-1.133938087310138315e-01,0.000000000000000000e+00
5.530000000000000000e+02,5.557872983550256052e-01,0.000000000000000000e+00
5.540000000000000000e+02,-3.936434724544820574e-01,0.000000000000000000e+00
5.550000000000000000e+02,1.063220608996644223e-01,0.000000000000000000e+00
5.560000000000000000e+02,2.543058282715554008e-01,0.000000000000000000e+00
5.570000000000000000e+02,-2.441218573514069290e-01,0.000000000000000000e+00
5.580000000000000000e+02,2.931653045826847492e-01,0.000000000000000000e+00
5.590000000000000000e+02,-9.558693290218311933e-02,0.000000000000000000e+00
5.600000000000000000e+02,5.696322936194843367e-02,0.000000000000000000e+00
5.610000000000000000e+02,2.093117415338502374e-01,0.000000000000000000e+00
5.620000000000000000e+02,-3.286903648257260002e-01,0.000000000000000000e+00
5.630000000000000000e+02,2.786832039569672181e-01,0.000000000000000000e+00
5.640000000000000000e+02,1.167003487141282797e-01,0.000000000000000000e+00
5.650000000000000000e+02,-5.039619128318875707e-02,0.000000000000000000e+00
5.660000000000000000e+02,-1.066364381993134686e-01,0.000000000000000000e+00
5.670000000000000000e+02,3.032622587176947437e-02,0.000000000000000000e+00
5.680000000000000000e+02,-2.378441001047566436e-02,0.000000000000000000e+00
5.690000000000000000e+02,1.838592723091309056e-01,0.000000000000000000e+00
5.700000000000000000e+02,8.692348539146597941e-02,0.000000000000000000e+00
5.710000000000000000e+02,1.978763399202385365e-01,0.000000000000000000e+00
5.720000000000000000e+02,2.695981566336053126e-01,0.000000000000000000e+00
5.730000000000000000e+02,3.357134260275741466e-01,0.000000000000000000e+00
5.740000000000000000e+02,2.716940978952287478e-01,0.000000000000000000e+00
5.750000000000000000e+02,-3.338037846401837455e-02,0.000000000000000000e+00
5.760000000000000000e+02,-6.616701188863592653e-02,0.000000000000000000e+00
5.770000000000000000e+02,-4.964912915672135552e-01,0.000000000000000000e+00
5.780000000000000000e+02,-4.086921074108201823e-02,0.000000000000000000e+00
5.790000000000000000e+02,-3.484497033272149213e-01,0.000000000000000000e+00
5.800000000000000000e+02,4.630328476541261534e-02,0.000000000000000000e+00
5.810000000000000000e+02,-2.476721856059323490e-01,0.000000000000000000e+00
5.820000000000000000e+02,-1.792746006808078885e-01,0.000000000000000000e+00
5.830000000000000000e+02,1.655918165111907592e-01,0.000000000000000000e+00
5.840000000000000000e+02,5.219596481686043177e+00,0.000000000000000000e+00
5.850000000000000000e+02,2.723823301768562022e+00,1.000000000000000000e+00
5.860000000000000000e+02,-2.000692088533106539e+00,0.000000000000000000e+00
5.870000000000000000e+02,-9.757266435300778751e-01,0.000000000000000000e+00
5.880000000000000000e+02,-1.548041716724752437e+00,0.000000000000000000e+00
5.890000000000000000e+02,-7.395549638120625380e-01,0.000000000000000000e+00
5.900000000000000000e+02,-1.269119624138213887e+00,0.000000000000000000e+00
5.910000000000000000e+02,-4.544202940859153883e-01,0.000000000000000000e+00
5.920000000000000000e+02,-8.399895401172041698e-01,0.000000000000000000e+00
5.930000000000000000e+02,-6.941542818915019675e-01,0.000000000000000000e+00
5.940000000000000000e+02,-7.226642336601217798e-01,0.000000000000000000e+00
5.950000000000000000e+02,-4.227293801294768061e-01,0.000000000000000000e+00
5.960000000000000000e+02,-3.963230221472067161e-01,0.000000000000000000e+00
5.970000000000000000e+02,-1.176393727842611481e-01,0.000000000000000000e+00
5.980000000000000000e+02,-1.554982048299555220e-01,0.000000000000000000e+00
5.990000000000000000e+02,3.656305448434434835e-01,0.000000000000000000e+00
6.000000000000000000e+02,3.474024466318689774e-01,0.000000000000000000e+00
6.010000000000000000e+02,5.866331459654335889e-01,0.000000000000000000e+00
6.020000000000000000e+02,7.593610450123017275e-01,0.000000000000000000e+00
6.030000000000000000e+02,6.696941011702606250e-01,0.000000000000000000e+00
6.040000000000000000e+02,5.453999547097411194e-01,0.000000000000000000e+00
6.050000000000000000e+02,4.104680657476549310e-01,0.000000000000000000e+00
6.060000000000000000e+02,2.245205589921476508e-01,0.000000000000000000e+00
6.070000000000000000e+02,-1.376237644131655252e-02,0.000000000000000000e+00
6.080000000000000000e+02,-4.145352165127793587e-01,0.000000000000000000e+00
6.090000000000000000e+02,-9.351104511024090071e-02,0.000000000000000000e+00
6.100000000000000000e+02,-1.959010552073731370e-01,0.000000000000000000e+00
6.110000000000000000e+02,-1.029778830642352414e-02,0.000000000000000000e+00
6.120000000000000000e+02,-2.545663503109073522e-01,0.000000000000000000e+00
6.130000000000000000e+02,-6.179369969141486341e-02,0.000000000000000000e+00
6.140000000000000000e+02,-2.183267195667233929e-01,0.000000000000000000e+00
6.150000000000000000e+02,-8.651549411918432742e-02,0.000000000000000000e+00
6.160000000000000000e+02,-5.935277579341146498e-02,0.000000000000000000e+00
6.170000000000000000e+02,-1.528824422461687038e-01,0.000000000000000000e+00
6.180000000000000000e+02,-5.562696569011232189e-02,0.000000000000000000e+00
6.190000000000000000e+02,-4.528045741124298029e-02,0.000000000000000000e+00
6.200000000000000000e+02,-1.807991852625774609e-01,0.000000000000000000e+00
6.210000000000000000e+02,-7.650958358655832181e-02,0.000000000000000000e+00
6.220000000000000000e+02,-1.690219739708482549e-01,0.000000000000000000e+00
6.230000000000000000e+02,2.138122071179705819e-01,0.000000000000000000e+00
6.240000000000000000e+02,-2.847520950651608596e-01,0.000000000000000000e+00
6.250000000000000000e+02,3.304489158426944795e-01,0.000000000000000000e+00
6.260000000000000000e+02,-4.451896086341371010e-03,0.000000000000000000e+00
6.270000000000000000e+02,3.669587295068001409e-01,0.000000000000000000e+00
6.280000000000000000e+02,-1.345359641855977118e-01,0.000000000000000000e+00
6.290000000000000000e+02,-3.168500711204524922e-01,0.000000000000000000e+00
6.300000000000000000e+02,-8.621840758842917729e-02,0.000000000000000000e+00
6.310000000000000000e+02,-2.500891006173864284e-01,0.000000000000000000e+00
6.320000000000000000e+02,-4.436233848640175337e-01,0.000000000000000000e+00
6.330000000000000000e+02,5.722440420405851963e-02,0.000000000000000000e+00
6.340000000000000000e+02,-2.106526246226036458e-01,0.000000000000000000e+00
6.350000000000000000e+02,2.542417976750637604e-02,0.000000000000000000e+00
6.360000000000000000e+02,-2.223176558879867426e-01,0.000000000000000000e+00
6.370000000000000000e+02,4.475056969415389219e+00,0.000000000000000000e+00
6.380000000000000000e+02,3.327373674889646082e+00,1.000000000000000000e+00
6.390000000000000000e+02,-2.021574103906921938e+00,0.000000000000000000e+00
6.400000000000000000e+02,-9.103053087996270110e-01,0.000000000000000000e+00
6.410000000000000000e+02,-1.332079747953298199e+00,0.000000000000000000e+00
6.420000000000000000e+02,-9.770221691346627768e-01,0.000000000000000000e+00
6.430000000000000000e+02,-1.006039915336137458e+00,0.000000000000000000e+00
6.440000000000000000e+02,-8.328683430384964392e-01,0.000000000000000000e+00
6.450000000000000000e+02,-7.410921125821743338e-01,0.000000000000000000e+00
6.460000000000000000e+02,-6.474886357866295183e-01,0.000000000000000000e+00
6.470000000000000000e+02,-1.899976383775571209e-01,0.000000000000000000e+00
6.480000000000000000e+02,-2.884588639610663474e-01,0.000000000000000000e+00
6.490000000000000000e+02,-5.374996405810984479e-01,0.000000000000000000e+00
6.500000000000000000e+02,9.090174205582397804e-02,0.000000000000000000e+00
6.510000000000000000e+02,2.232182925339168400e-01,0.000000000000000000e+00
6.520000000000000000e+02,8.547844265302256828e-02,0.000000000000000000e+00
6.530000000000000000e+02,4.899768171702619246e-01,0.000000000000000000e+00
6.540000000000000000e+02,7.477381279056117824e-01,0.000000000000000000e+00
6.550000000000000000e+02,6.107505070351654242e-01,0.000000000000000000e+00
6.560000000000000000e+02,7.997648753368973296e-01,0.000000000000000000e+00
6.570000000000000000e+02,3.960960888407518699e-01,0.000000000000000000e+00
6.580000000000000000e+02,4.171499282797461738e-01,0.000000000000000000e+00
6.590000000000000000e+02,1.022899773179120481e-01,0.000000000000000000e+00
6.600000000000000000e+02,3.768414395435796399e-02,0.000000000000000000e+00
6.610000000000000000e+02,-1.629666140593410417e-01,0.000000000000000000e+00
6.620000000000000000e+02,1.397612747833946178e-01,0.000000000000000000e+00
6.630000000000000000e+02,-3.030095481395022050e-01,0.000000000000000000e+00
6.640000000000000000e+02,1.110550097117191624e-02,0.000000000000000000e+00
6.650000000000000000e+02,-9.600275641703161222e-02,0.000000000000000000e+00
6.660000000000000000e+02,-4.965296648014206476e-02,0.000000000000000000e+00
6.670000000000000000e+02,-2.231306027995477170e-01,0.000000000000000000e+00
6.680000000000000000e+02,-5.479164870765804857e-02,0.000000000000000000e+00
6.690000000000000000e+02,-1.917965609416257544e-01,0.000000000000000000e+00
6.700000000000000000e+02,-5.715150581007173713e-02,0.000000000000000000e+00
6.710000000000000000e+02,-1.463495067835975660e-01,0.000000000000000000e+00
6.720000000000000000e+02,1.257564018559997020e-02,0.000000000000000000e+00
6.730000000000000000e+02,-1.895407633706177875e-01,0.000000000000000000e+00
6.740000000000000000e+02,-1.242374521278734323e-01,0.000000000000000000e+00
6.750000000000000000e+02,-1.357862631956550103e-01,0.000000000000000000e+00
6.760000000000000000e+02,-1.129713620901762541e-02,0.000000000000000000e+00
6.770000000000000000e+02,3.102853277447075939e-02,0.000000000000000000e+00
6.780000000000000000e+02,7.243890793669753581e-02,0.000000000000000000e+00
6.790000000000000000e+02,3.578928910580350675e-01,0.000000000000000000e+00
6.800000000000000000e+02,8.909802265881444638e-02,0.000000000000000000e+00
6.810000000000000000e+02,3.325667945061876879e-02,0.000000000000000000e+00
6.820000000000000000e+02,-2.621557224857363755e-01,0.000000000000000000e+00
6.830000000000000000e+02,-3.248284202326595649e-01,0.000000000000000000e+00
6.840000000000000000e+02,-3.278226774660796261e-01,0.000000000000000000e+00
6.850000000000000000e+02,-3.029080531980498647e-01,0.000000000000000000e+00
6.860000000000000000e+02,-1.279673335593536354e-01,0.000000000000000000e+00
6.870000000000000000e+02,-3.032260081873078827e-01,0.000000000000000000e+00
6.880000000000000000e+02,9.846661176416267314e-02,0.000000000000000000e+00
6.890000000000000000e+02,-6.828538861341909572e-01,0.000000000000000000e+00
6.900000000000000000e+02,3.291341455350857537e+00,0.000000000000000000e+00
6.910000000000000000e+02,4.681819635475372721e+00,0.000000000000000000e+00
6.920000000000000000e+02,-1.183214244156842732e+00,1.000000000000000000e+00
6.930000000000000000e+02,-1.105464032109624739e+00,0.000000000000000000e+00
6.940000000000000000e+02,-1.628066854211308367e+00,0.000000000000000000e+00
6.950000000000000000e+02,-7.215213407904299547e-01,0.000000000000000000e+00
6.960000000000000000e+02,-1.071303575795359952e+00,0.000000000000000000e+00
6.970000000000000000e+02,-8.992484625413282862e-01,0.000000000000000000e+00
6.980000000000000000e+02,-7.700409692988209320e-01,0.000000000000000000e+00
6.990000000000000000e+02,-6.613504814251947028e-01,0.000000000000000000e+00
7.000000000000000000e+02,-4.128112354048849575e-01,0.000000000000000000e+00
7.010000000000000000e+02,-6.570279005805599315e-01,0.000000000000000000e+00
7.020000000000000000e+02,-5.476365724844662886e-01,0.000000000000000000e+00
7.030000000000000000e+02,-1.778121154220956568e-01,0.000000000000000000e+00
7.040000000000000000e+02,-1.520356892691954731e-01,0.000000000000000000e+00
7.050000000000000000e+02,3.449205616913870176e-01,0.000000000000000000e+00
7.060000000000000000e+02,2.282674356817923078e-01,0.000000000000000000e+00
7.070000000000000000e+02,7.778782057038078346e-01,0.000000000000000000e+00
7.080000000000000000e+02,4.371653310503699208e-01,0.000000000000000000e+00
7.090000000000000000e+02,8.183004493585230854e-01,0.000000000000000000e+00
7.100000000000000000e+02,6.835447440150219656e-01,0.000000000000000000e+00
7.110000000000000000e+02,5.115680675352786144e-01,0.000000000000000000e+00
7.120000000000000000e+02,3.634491899676179361e-01,0.000000000000000000e+00
7.130000000000000000e+02,-3.755947204182847471e-02,0.000000000000000000e+00
7.140000000000000000e+02,-3.219390561139458262e-02,0.000000000000000000e+00
7.150000000000000000e+02,-6.238772285589715832e-02,0.000000000000000000e+00
7.160000000000000000e+02,-3.495970528561652690e-01,0.000000000000000000e+00
7.170000000000000000e+02,5.666413597552508868e-02,0.000000000000000000e+00
7.180000000000000000e+02,-1.591802930372886171e-02,0.000000000000000000e+00
7.190000000000000000e+02,7.535436620638523431e-02,0.000000000000000000e+00
7.200000000000000000e+02,-3.151081551879531539e-01,0.000000000000000000e+00
7.210000000000000000e+02,-3.168956832924491734e-02,0.000000000000000000e+00
7.220000000000000000e+02,-5.204329727040385434e-02,0.000000000000000000e+00
7.230000000000000000e+02,-5.263666743954220628e-02,0.000000000000000000e+00
7.240000000000000000e+02,-2.748968519379850831e-02,0.000000000000000000e+00
7.250000000000000000e+02,-1.103548135978845018e-01,0.000000000000000000e+00
7.260000000000000000e+02,8.543121548264169529e-02,0.000000000000000000e+00
7.270000000000000000e+02,2.371638840508446394e-02,0.000000000000000000e+00
7.280000000000000000e+02,-9.428821623042826783e-02,0.000000000000000000e+00
7.290000000000000000e+02,1.284056168444620283e-01,0.000000000000000000e+00
7.300000000000000000e+02,2.907768067212054275e-01,0.000000000000000000e+00
7.310000000000000000e+02,7.751377484870249079e-02,0.000000000000000000e+00
7.320000000000000000e+02,3.125982059243239131e-01,0.000000000000000000e+00
7.330000000000000000e+02,-2.776382676311638098e-02,0.000000000000000000e+00
7.340000000000000000e+02,2.288642136544280503e-02,0.000000000000000000e+00
7.350000000000000000e+02,-3.625131922938887308e-01,0.000000000000000000e+00
7.360000000000000000e+02,-3.526805802891517239e-01,0.000000000000000000e+00
7.370000000000000000e+02,-2.697092749352413832e-01,0.000000000000000000e+00
7.380000000000000000e+02,-9.520801064095850419e-02,0.000000000000000000e+00
7.390000000000000000e+02,-2.514316915030154198e-01,0.000000000000000000e+00
7.400000000000000000e+02,-3.898032640190887688e-02,0.000000000000000000e+00
7.410000000000000000e+02,-6.370107565378777537e-01,0.000000000000000000e+00
7.420000000000000000e+02,2.110253142819325411e+00,0.000000000000000000e+00
7.430000000000000000e+02,5.781000798153247189e+00,0.000000000000000000e+00
7.440000000000000000e+02,-4.261267348414451428e-01,1.000000000000000000e+00
7.450000000000000000e+02,-1.474590256356078655e+00,0.000000000000000000e+00
7.460000000000000000e+02,-1.412816821025288494e+00,0.000000000000000000e+00
7.470000000000000000e+02,-1.078653560158914226e+00,0.000000000000000000e+00
7.480000000000000000e+02,-8.823817282098815884e-01,0.000000000000000000e+00
7.490000000000000000e+02,-8.389019837473217223e-01,0.000000000000000000e+00
7.500000000000000000e+02,-7.703838881194918775e-01,0.000000000000000000e+00
7.510000000000000000e+02,-5.730415571463333135e-01,0.000000000000000000e+00
7.520000000000000000e+02,-6.982849561799099325e-01,0.000000000000000000e+00
7.530000000000000000e+02,-3.202585829666738659e-01,0.000000000000000000e+00
7.540000000000000000e+02,-4.205470537480936466e-01,0.000000000000000000e+00
7.550000000000000000e+02,-1.211343087921335909e-01,0.000000000000000000e+00
7.560000000000000000e+02,-1.177604206772195211e-01,0.000000000000000000e+00
7.570000000000000000e+02,2.375946609217356176e-01,0.000000000000000000e+00
7.580000000000000000e+02,4.554316885995405295e-01,0.000000000000000000e+00
7.590000000000000000e+02,7.167137788020662148e-01,0.000000000000000000e+00
7.600000000000000000e+02,5.653439823870471947e-01,0.000000000000000000e+00
7.610000000000000000e+02,9.414666777201752268e-01,0.000000000000000000e+00
7.620000000000000000e+02,5.685058178773148008e-01,0.000000000000000000e+00
7.630000000000000000e+02,5.209332388089404908e-01,0.000000000000000000e+00
7.640000000000000000e+02,2.988777199634360948e-01,0.000000000000000000e+00
7.650000000000000000e+02,8.223743886892277699e-02,0.000000000000000000e+00
7.660000000000000000e+02,-1.307777476091615543e-01,0.000000000000000000e+00
7.670000000000000000e+02,7.222686646572076818e-02,0.000000000000000000e+00
7.680000000000000000e+02,-5.049868270092107425e-02,0.000000000000000000e+00
7.690000000000000000e+02,4.455578201247676479e-03,0.000000000000000000e+00
7.700000000000000000e+02,-1.065487870956451505e-01,0.000000000000000000e+00
7.710000000000000000e+02,7.952671328521371263e-02,0.000000000000000000e+00
7.720000000000000000e+02,-2.370724033705657874e-01,0.000000000000000000e+00
7.730000000000000000e+02,1.099426658491265835e-01,0.000000000000000000e+00
7.740000000000000000e+02,-1.319990162289754465e-01,0.000000000000000000e+00
7.750000000000000000e+02,-1.386731337571452949e-01,0.000000000000000000e+00
7.760000000000000000e+02,7.842801117388388532e-02,0.000000000000000000e+00
7.770000000000000000e+02,-1.692986647673778433e-01,0.000000000000000000e+00
7.780000000000000000e+02,-1.167063674146365110e-01,0.000000000000000000e+00
7.790000000000000000e+02,-1.741260207164614313e-02,0.000000000000000000e+00
7.800000000000000000e+02,-1.943111418650758648e-01,0.000000000000000000e+00
7.810000000000000000e+02,1.717516674377207730e-02,0.000000000000000000e+00
7.820000000000000000e+02,-6.875864496487264776e-02,0.000000000000000000e+00
7.830000000000000000e+02,1.021100990662415914e-01,0.000000000000000000e+00
7.840000000000000000e+02,-5.567381740278169039e-02,0.000000000000000000e+00
7.850000000000000000e+02,2.438562743728621973e-01,0.000000000000000000e+00
7.860000000000000000e+02,3.275246432036798550e-01,0.000000000000000000e+00
7.870000000000000000e+02,2.057000410411266855e-01,0.000000000000000000e+00
7.880000000000000000e+02,-1.032361045283498036e-01,0.000000000000000000e+00
7.890000000000000000e+02,-1.767296083470264734e-01,0.000000000000000000e+00
7.900000000000000000e+02,-3.931080086743818369e-01,0.000000000000000000e+00
7.910000000000000000e+02,-7.174478089900072908e-02,0.000000000000000000e+00
7.920000000000000000e+02,-2.968646451359019389e-01,0.000000000000000000e+00
7.930000000000000000e+02,-9.898097074044429067e-02,0.000000000000000000e+00
7.940000000000000000e+02,-4.420308283888748635e-01,0.000000000000000000e+00
7.950000000000000000e+02,7.291156118866452818e-02,0.000000000000000000e+00
7.960000000000000000e+02,-2.910235566744771019e-01,0.000000000000000000e+00
7.970000000000000000e+02,4.478092279033551115e+00,0.000000000000000000e+00
7.980000000000000000e+02,3.123430268507120022e+00,1.000000000000000000e+00
7.990000000000000000e+02,-2.027927799558883137e+00,0.000000000000000000e+00
8.000000000000000000e+02,-1.153269689309402102e+00,0.000000000000000000e+00
8.010000000000000000e+02,-1.483387859825941790e+00,0.000000000000000000e+00
8.020000000000000000e+02,-8.162821671451090388e-01,0.000000000000000000e+00
8.030000000000000000e+02,-8.534089671628992679e-01,0.000000000000000000e+00
8.040000000000000000e+02,-8.633748768573678012e-01,0.000000000000000000e+00
8.050000000000000000e+02,-7.813749631420914277e-01,0.000000000000000000e+00
8.060000000000000000e+02,-4.231435260324267200e-01,0.000000000000000000e+00
8.070000000000000000e+02,-6.245800251580667650e-01,0.000000000000000000e+00
8.080000000000000000e+02,-4.656086720323730499e-01,0.000000000000000000e+00
8.090000000000000000e+02,-4.364833377155201144e-01,0.000000000000000000e+00
8.100000000000000000e+02,-1.642870905518636210e-02,0.000000000000000000e+00
8.110000000000000000e+02,-1.418314850614030981e-02,0.000000000000000000e+00
8.120000000000000000e+02,2.629714158005103108e-01,0.000000000000000000e+00
8.130000000000000000e+02,5.420715623197400745e-01,0.000000000000000000e+00
8.140000000000000000e+02,4.292245225710632495e-01,0.000000000000000000e+00
8.150000000000000000e+02,8.396575227650312501e-01,0.000000000000000000e+00
8.160000000000000000e+02,5.618735709046605020e-01,0.000000000000000000e+00
8.170000000000000000e+02,6.164825738090251583e-01,0.000000000000000000e+00
8.180000000000000000e+02,5.101763889314556710e-01,0.000000000000000000e+00
8.190000000000000000e+02,2.877918692718498539e-01,0.000000000000000000e+00
8.200000000000000000e+02,-1.568520973778265992e-01,0.000000000000000000e+00
8.210000000000000000e+02,-7.935305807225910557e-02,0.000000000000000000e+00
8.220000000000000000e+02,-2.587091791361390003e-01,0.000000000000000000e+00
8.230000000000000000e+02,3.769846181545661451e-02,0.000000000000000000e+00
8.240000000000000000e+02,-4.963224153769100339e-02,0.000000000000000000e+00
8.250000000000000000e+02,-2.055112529150205924e-01,0.000000000000000000e+00
8.260000000000000000e+02,-8.347158158726185329e-02,0.000000000000000000e+00
8.270000000000000000e+02,-2.258354031891352323e-02,0.000000000000000000e+00
8.280000000000000000e+02,-2.492276989339121396e-01,0.000000000000000000e+00
8.290000000000000000e+02,-4.042285624329727822e-02,0.000000000000000000e+00
8.300000000000000000e+02,-3.152719490984601247e-02,0.000000000000000000e+00
8.310000000000000000e+02,-8.434174958711655734e-02,0.000000000000000000e+00
8.320000000000000000e+02,-1.025374254433389365e-01,0.000000000000000000e+00
8.330000000000000000e+02,-1.429034167369112353e-02,0.000000000000000000e+00
8.340000000000000000e+02,2.255041209495549370e-02,0.000000000000000000e+00
8.350000000000000000e+02,-1.120652632494139184e-01,0.000000000000000000e+00
8.360000000000000000e+02,1.307237317359205911e-02,0.000000000000000000e+00
8.370000000000000000e+02,-4.092860708695235383e-02,0.000000000000000000e+00
8.380000000000000000e+02,1.100215272190021160e-01,0.000000000000000000e+00
8.390000000000000000e+02,4.326856816811935347e-01,0.000000000000000000e+00
8.400000000000000000e+02,1.621002746122962856e-01,0.000000000000000000e+00
8.410000000000000000e+02,2.104023551145943194e-01,0.000000000000000000e+00
8.420000000000000000e+02,-2.322305456784864164e-01,0.000000000000000000e+00
8.430000000000000000e+02,-2.374236305048641749e-01,0.000000000000000000e+00
8.440000000000000000e+02,-1.105554004512252914e-01,0.000000000000000000e+00
8.450000000000000000e+02,-8.023846728787466243e-02,0.000000000000000000e+00
8.460000000000000000e+02,-1.250828229633195454e-01,0.000000000000000000e+00
8.470000000000000000e+02,-1.318064246119366179e-01,0.000000000000000000e+00
8.480000000000000000e+02,-9.963403920529072255e-03,0.000000000000000000e+00
8.490000000000000000e+02,-2.580672800669571165e-01,0.000000000000000000e+00
8.500000000000000000e+02,1.428574408193039824e+00,0.000000000000000000e+00
8.510000000000000000e+02,5.644410749315278863e+00,0.000000000000000000e+00
8.520000000000000000e+02,5.727513771779029622e-02,1.000000000000000000e+00
8.530000000000000000e+02,-1.491003562159880058e+00,0.000000000000000000e+00
8.540000000000000000e+02,-9.847109801358738812e-01,0.000000000000000000e+00
8.550000000000000000e+02,-1.255150911709667083e+00,0.000000000000000000e+00
8.560000000000000000e+02,-7.831759814800072217e-01,0.000000000000000000e+00
8.570000000000000000e+02,-8.218497837555865937e-01,0.000000000000000000e+00
8.580000000000000000e+02,-9.638216158239358844e-01,0.000000000000000000e+00
8.590000000000000000e+02,-3.373853686976633903e-01,0.000000000000000000e+00
8.600000000000000000e+02,-9.793277584423557558e-01,0.000000000000000000e+00
8.610000000000000000e+02,-3.617703180227869741e-01,0.000000000000000000e+00
8.620000000000000000e+02,-3.920816276794029109e-01,0.000000000000000000e+00
8.630000000000000000e+02,-1.104195580767620144e-01,0.000000000000000000e+00
8.640000000000000000e+02,-1.618664737461872893e-01,0.000000000000000000e+00
8.650000000000000000e+02,2.447061882243846409e-02,0.000000000000000000e+00
8.660000000000000000e+02,4.000321173671748665e-01,0.000000000000000000e+00
8.670000000000000000e+02,3.788214869832836063e-01,0.000000000000000000e+00
8.680000000000000000e+02,7.130436229636520906e-01,0.000000000000000000e+00
8.690000000000000000e+02,6.500915073770286989e-01,0.000000000000000000e+00
8.700000000000000000e+02,5.427405970868934837e-01,0.000000000000000000e+00
8.710000000000000000e+02,4.306530514485513716e-01,0.000000000000000000e+00
8.720000000000000000e+02,2.310430109875052651e-01,0.000000000000000000e+00
8.730000000000000000e+02,2.101540279740930495e-01,0.000000000000000000e+00
8.740000000000000000e+02,-2.884495303702254709e-01,0.000000000000000000e+00
8.750000000000000000e+02,-3.108161661638489948e-01,0.000000000000000000e+00
8.760000000000000000e+02,2.206945687238648091e-01,0.000000000000000000e+00
8.770000000000000000e+02,-4.950120567173422192e-01,0.000000000000000000e+00
8.780000000000000000e+02,6.591594762314532951e-02,0.000000000000000000e+00
8.790000000000000000e+02,-2.239216717382551680e-01,0.000000000000000000e+00
8.800000000000000000e+02,-2.865084263947512144e-01,0.000000000000000000e+00
8.810000000000000000e+02,1.775821290636535044e-01,0.000000000000000000e+00
8.820000000000000000e+02,-3.935012852673576145e-01,0.000000000000000000e+00
8.830000000000000000e+02,-1.604484033302331358e-01,0.000000000000000000e+00
8.840000000000000000e+02,-1.866301559642150887e-01,0.000000000000000000e+00
8.850000000000000000e+02,-5.781159652885090733e-02,0.000000000000000000e+00
8.860000000000000000e+02,-1.339076154809457908e-01,0.000000000000000000e+00
8.870000000000000000e+02,-3.996508487940594323e-01,0.000000000000000000e+00
8.880000000000000000e+02,2.002987171814570311e-01,0.000000000000000000e+00
8.890000000000000000e+02,-2.804328796165041493e-01,0.000000000000000000e+00
8.900000000000000000e+02,-2.120793729428595287e-01,0.000000000000000000e+00
8.910000000000000000e+02,1.276177257721731739e-01,0.000000000000000000e+00
8.920000000000000000e+02,-1.075137110831519277e-01,0.000000000000000000e+00
8.930000000000000000e+02,3.206268484021321252e-01,0.000000000000000000e+00
8.940000000000000000e+02,3.082759882727808542e-01,0.000000000000000000e+00
8.950000000000000000e+02,1.085919198083699910e-01,0.000000000000000000e+00
8.960000000000000000e+02,-1.377519631978373904e-01,0.000000000000000000e+00
8.970000000000000000e+02,-5.081345992279342472e-01,0.000000000000000000e+00
8.980000000000000000e+02,-6.721037356371382075e-03,0.000000000000000000e+00
8.990000000000000000e+02,-3.963822797222982808e-01,0.000000000000000000e+00
9.000000000000000000e+02,-4.561817781540311034e-01,0.000000000000000000e+00
9.010000000000000000e+02,1.017416669386052019e-01,0.000000000000000000e+00
9.020000000000000000e+02,-3.804168964590932123e-01,0.000000000000000000e+00
9.030000000000000000e+02,8.004927170888714860e-02,0.000000000000000000e+00
9.040000000000000000e+02,1.265953492522227108e-01,0.000000000000000000e+00
9.050000000000000000e+02,4.781312132279276206e+00,0.000000000000000000e+00
9.060000000000000000e+02,2.610105201625328775e+00,1.000000000000000000e+00
9.070000000000000000e+02,-2.124805028410138963e+00,0.000000000000000000e+00
9.080000000000000000e+02,-1.206854503633483011e+00,0.000000000000000000e+00
9.090000000000000000e+02,-7.765299785887673778e-01,0.000000000000000000e+00
9.100000000000000000e+02,-1.087171930829733624e+00,0.000000000000000000e+00
9.110000000000000000e+02,-1.254931464274134045e+00,0.000000000000000000e+00
9.120000000000000000e+02,-2.380288591723680736e-01,0.000000000000000000e+00
9.130000000000000000e+02,-1.229478719030823841e+00,0.000000000000000000e+00
9.140000000000000000e+02,-4.826166717680452356e-01,0.000000000000000000e+00
9.150000000000000000e+02,-2.142543433492569149e-01,0.000000000000000000e+00
9.160000000000000000e+02,-6.637547366947680327e-01,0.000000000000000000e+00
9.170000000000000000e+02,-2.072411043415801069e-01,0.000000000000000000e+00
9.180000000000000000e+02,-4.761975515918024510e-02,0.000000000000000000e+00
9.190000000000000000e+02,-1.446062472466310700e-01,0.000000000000000000e+00
9.200000000000000000e+02,6.552300216616403494e-01,0.000000000000000000e+00
9.210000000000000000e+02,3.362317101072627157e-01,0.000000000000000000e+00
9.220000000000000000e+02,7.773292321316540576e-01,0.000000000000000000e+00
9.230000000000000000e+02,6.634758286885311662e-01,0.000000000000000000e+00
9.240000000000000000e+02,6.419259540160291433e-01,0.000000000000000000e+00
9.250000000000000000e+02,9.780390554208268084e-01,0.000000000000000000e+00
9.260000000000000000e+02,3.768150253523706028e-01,0.000000000000000000e+00
9.270000000000000000e+02,1.610199677125886131e-01,0.000000000000000000e+00
9.280000000000000000e+02,1.691692484012227438e-01,0.000000000000000000e+00
9.290000000000000000e+02,-1.350555458087274729e-01,0.000000000000000000e+00
9.300000000000000000e+02,5.546681821822981029e-02,0.000000000000000000e+00
9.310000000000000000e+02,1.731414873870672569e-02,0.000000000000000000e+00
9.320000000000000000e+02,3.096714892320053675e-02,0.000000000000000000e+00
9.330000000000000000e+02,-1.197908278452175929e-01,0.000000000000000000e+00
9.340000000000000000e+02,-3.838722167744849402e-03,0.000000000000000000e+00
9.350000000000000000e+02,8.788052231112099266e-02,0.000000000000000000e+00
9.360000000000000000e+02,-8.732316346079295466e-02,0.000000000000000000e+00
9.370000000000000000e+02,2.163356711580536884e-01,0.000000000000000000e+00
9.380000000000000000e+02,-4.280450186659836564e-01,0.000000000000000000e+00
9.390000000000000000e+02,1.913558016907811743e-01,0.000000000000000000e+00
9.400000000000000000e+02,-5.923264543707235791e-02,0.000000000000000000e+00
9.410000000000000000e+02,-2.152255420118660001e-01,0.000000000000000000e+00
9.420000000000000000e+02,-3.864808427058805812e-02,0.000000000000000000e+00
9.430000000000000000e+02,-1.167371770941501123e-02,0.000000000000000000e+00
9.440000000000000000e+02,-6.745077238059322966e-02,0.000000000000000000e+00
9.450000000000000000e+02,2.061615994882489214e-02,0.000000000000000000e+00
9.460000000000000000e+02,1.151357581216358728e-01,0.000000000000000000e+00
9.470000000000000000e+02,3.631143604770986077e-01,0.000000000000000000e+00
9.480000000000000000e+02,2.213621402537433724e-01,0.000000000000000000e+00
9.490000000000000000e+02,1.422621965134970856e-01,0.000000000000000000e+00
9.500000000000000000e+02,-1.355051342653870172e-01,0.000000000000000000e+00
9.510000000000000000e+02,-6.830094928036736790e-02,0.000000000000000000e+00
9.520000000000000000e+02,-3.242022685296456763e-01,0.000000000000000000e+00
9.530000000000000000e+02,-7.665614099716834551e-02,0.000000000000000000e+00
9.540000000000000000e+02,-4.370339266791495869e-01,0.000000000000000000e+00
9.550000000000000000e+02,4.488112075428642156e-02,0.000000000000000000e+00
9.560000000000000000e+02,-3.300569177934013498e-01,0.000000000000000000e+00
9.570000000000000000e+02,2.002998732731564313e-01,0.000000000000000000e+00
9.580000000000000000e+02,-5.665759179690780245e-01,0.000000000000000000e+00
9.590000000000000000e+02,3.693422805334913406e+00,0.000000000000000000e+00
9.600000000000000000e+02,4.468323889847110486e+00,0.000000000000000000e+00
9.610000000000000000e+02,-1.601461420437071181e+00,1.000000000000000000e+00
9.620000000000000000e+02,-1.223127953151989855e+00,0.000000000000000000e+00
9.630000000000000000e+02,-1.391909074915115729e+00,0.000000000000000000e+00
9.640000000000000000e+02,-9.654042435480673090e-01,0.000000000000000000e+00
9.650000000000000000e+02,-1.346612700109645289e+00,0.000000000000000000e+00
9.660000000000000000e+02,-1.010598030024762339e+00,0.000000000000000000e+00
9.670000000000000000e+02,-8.683936452807992090e-01,0.000000000000000000e+00
9.680000000000000000e+02,-7.899820836470992091e-01,0.000000000000000000e+00
9.690000000000000000e+02,-8.312355385925281892e-01,0.000000000000000000e+00
9.700000000000000000e+02,-3.745141956460611432e-01,0.000000000000000000e+00
9.710000000000000000e+02,-3.373341767383048473e-01,0.000000000000000000e+00
9.720000000000000000e+02,-2.413047702537521044e-01,0.000000000000000000e+00
9.730000000000000000e+02,7.674574294099673066e-02,0.000000000000000000e+00
9.740000000000000000e+02,2.611178891024048404e-02,0.000000000000000000e+00
9.750000000000000000e+02,4.496995245199607028e-01,0.000000000000000000e+00
9.760000000000000000e+02,7.066132039740805615e-01,0.000000000000000000e+00
9.770000000000000000e+02,4.825025408050571119e-01,0.000000000000000000e+00
9.780000000000000000e+02,6.986594803584130764e-01,0.000000000000000000e+00
9.790000000000000000e+02,4.494163016724393445e-01,0.000000000000000000e+00
9.800000000000000000e+02,6.967403582900778547e-01,0.000000000000000000e+00
9.810000000000000000e+02,1.214477956447048285e-01,0.000000000000000000e+00
9.820000000000000000e+02,1.142281831149728755e-02,0.000000000000000000e+00
9.830000000000000000e+02,5.886199758087952427e-02,0.000000000000000000e+00
9.840000000000000000e+02,-4.223825544189065417e-01,0.000000000000000000e+00
9.850000000000000000e+02,-6.924613965298316576e-02,0.000000000000000000e+00
9.860000000000000000e+02,-2.028736882571561262e-01,0.000000000000000000e+00
9.870000000000000000e+02,-2.299216127573474600e-01,0.000000000000000000e+00
9.880000000000000000e+02,-3.523733898015807275e-02,0.000000000000000000e+00
9.890000000000000000e+02,-1.008649225154526902e-01,0.000000000000000000e+00
9.900000000000000000e+02,-1.341308851782451739e-01,0.000000000000000000e+00
9.910000000000000000e+02,-6.964276211490952329e-02,0.000000000000000000e+00
9.920000000000000000e+02,4.311522340200447923e-04,0.000000000000000000e+00
9.930000000000000000e+02,-1.496580443444179009e-01,0.000000000000000000e+00
9.940000000000000000e+02,-1.105924909453713523e-01,0.000000000000000000e+00
9.950000000000000000e+02,-1.004489376099658021e-01,0.000000000000000000e+00
9.960000000000000000e+02,-1.091075778239257582e-01,0.000000000000000000e+00
9.970000000000000000e+02,1.469314750110153889e-01,0.000000000000000000e+00
9.980000000000000000e+02,-1.359041942246433377e-02,0.000000000000000000e+00
9.990000000000000000e+02,2.222786389358558379e-01,0.000000000000000000e+00
1.000000000000000000e+03,4.316415209603798736e-02,0.000000000000000000e+00
1.001000000000000000e+03,2.397118055482631571e-01,0.000000000000000000e+00
1.002000000000000000e+03,4.089387680930425817e-02,0.000000000000000000e+00
1.003000000000000000e+03,-1.944505301005933773e-01,0.000000000000000000e+00
1.004000000000000000e+03,-3.068555737092495406e-01,0.000000000000000000e+00
1.005000000000000000e+03,-8.677132496804243478e-02,0.000000000000000000e+00
1.006000000000000000e+03,-2.415982499845449327e-01,0.000000000000000000e+00
1.007000000000000000e+03,2.575766773809530855e-02,0.000000000000000000e+00
1.008000000000000000e+03,-3.227113681291134406e-01,0.000000000000000000e+00
1.009000000000000000e+03,-1.080466367417437235e-01,0.000000000000000000e+00
1.010000000000000000e+03,3.776173870820406786e-01,0.000000000000000000e+00
1.011000000000000000e+03,5.167552152226549289e+00,0.000000000000000000e+00
1.012000000000000000e+03,1.793106039294657839e+00,1.000000000000000000e+00
1.013000000000000000e+03,-2.008476415738817966e+00,0.000000000000000000e+00
1.014000000000000000e+03,-1.048132007380776054e+00,0.000000000000000000e+00
1.015000000000000000e+03,-1.054647463182205147e+00,0.000000000000000000e+00
1.016000000000000000e+03,-8.336120958774537737e-01,0.000000000000000000e+00
1.017000000000000000e+03,-1.034652237999842184e+00,0.000000000000000000e+00
1.018000000000000000e+03,-4.336453192443551763e-01,0.000000000000000000e+00
1.019000000000000000e+03,-5.606687393540780162e-01,0.000000000000000000e+00
1.020000000000000000e+03,-3.173850209060068428e-01,0.000000000000000000e+00
1.021000000000000000e+03,-5.611958340646797661e-01,0.000000000000000000e+00
1.022000000000000000e+03,-1.581584712223681466e-01,0.000000000000000000e+00
1.023000000000000000e+03,-3.222270902649991275e-01,0.000000000000000000e+00
1.024000000000000000e+03,1.461015844940468933e-01,0.000000000000000000e+00
1.025000000000000000e+03,2.137110307902141404e-01,0.000000000000000000e+00
1.026000000000000000e+03,4.198097395275267041e-01,0.000000000000000000e+00
1.027000000000000000e+03,3.184699513440348295e-01,0.000000000000000000e+00
1.028000000000000000e+03,1.047701884990246191e+00,0.000000000000000000e+00
1.029000000000000000e+03,3.492796531863847087e-01,0.000000000000000000e+00
1.030000000000000000e+03,9.691802834010930789e-01,0.000000000000000000e+00
1.031000000000000000e+03,4.461150904844169429e-01,0.000000000000000000e+00
1.032000000000000000e+03,5.588440691227118950e-01,0.000000000000000000e+00
1.033000000000000000e+03,-3.046566796568602187e-01,0.000000000000000000e+00
1.034000000000000000e+03,1.755129314104324489e-01,0.000000000000000000e+00
1.035000000000000000e+03,-3.024442892078053613e-01,0.000000000000000000e+00
1.036000000000000000e+03,-8.652381879323549352e-02,0.000000000000000000e+00
1.037000000000000000e+03,-2.169180230151284972e-01,0.000000000000000000e+00
1.038000000000000000e+03,2.373482883657432596e-01,0.000000000000000000e+00
1.039000000000000000e+03,-1.484261233847856687e-01,0.000000000000000000e+00
1.040000000000000000e+03,-2.468432632551778028e-01,0.000000000000000000e+00
1.041000000000000000e+03,-3.701471514665314461e-02,0.000000000000000000e+00
1.042000000000000000e+03,-1.546071534130001313e-01,0.000000000000000000e+00
1.043000000000000000e+03,-9.752971841875301973e-02,0.000000000000000000e+00
1.044000000000000000e+03,-2.799915950991420637e-03,0.000000000000000000e+00
1.045000000000000000e+03,-1.907590366942138183e-01,0.000000000000000000e+00
1.046000000000000000e+03,-2.740175479341584730e-02,0.000000000000000000e+00
1.047000000000000000e+03,-3.482611718419815761e-01,0.000000000000000000e+00
1.048000000000000000e+03,-6.116363574471424258e-02,0.000000000000000000e+00
1.049000000000000000e+03,5.700581065649903967e-02,0.000000000000000000e+00
1.050000000000000000e+03,8.688036358763660816e-02,0.000000000000000000e+00
1.051000000000000000e+03,-2.709942379071779706e-01,0.000000000000000000e+00
1.052000000000000000e+03,1.993999074059958632e-01,0.000000000000000000e+00
1.053000000000000000e+03,-9.892451274359545521e-02,0.000000000000000000e+00
1.054000000000000000e+03,3.923822237804375779e-01,0.000000000000000000e+00
1.055000000000000000e+03,4.406339436864215725e-02,0.000000000000000000e+00
1.056000000000000000e+03,4.391257169875267263e-01,0.000000000000000000e+00
1.057000000000000000e+03,-9.435846470962093446e-02,0.000000000000000000e+00
1.058000000000000000e+03,-6.193629026907918056e-02,0.000000000000000000e+00
1.059000000000000000e+03,-3.920846596080160285e-01,0.000000000000000000e+00
1.060000000000000000e+03,-2.327547184274628145e-01,0.000000000000000000e+00
1.061000000000000000e+03,-1.466205331270586387e-01,0.000000000000000000e+00
1.062000000000000000e+03,-3.166131505043855154e-02,0.000000000000000000e+00
1.063000000000000000e+03,-2.732080837101104054e-01,0.000000000000000000e+00
1.064000000000000000e+03,2.199691259579764080e-01,0.000000000000000000e+00
1.065000000000000000e+03,-5.258034088107188531e-01,0.000000000000000000e+00
1.066000000000000000e+03,3.122690407184438133e+00,0.000000000000000000e+00
1.067000000000000000e+03,4.703316453307582634e+00,0.000000000000000000e+00
1.068000000000000000e+03,-9.615249470395087483e-01,1.000000000000000000e+00
1.069000000000000000e+03,-1.056128608419246051e+00,0.000000000000000000e+00
1.070000000000000000e+03,-1.627043867182909054e+00,0.000000000000000000e+00
1.071000000000000000e+03,-7.548034646360310962e-01,0.000000000000000000e+00
1.072000000000000000e+03,-6.653259354749970766e-01,0.000000000000000000e+00
1.073000000000000000e+03,-1.089107040655117764e+00,0.000000000000000000e+00
1.074000000000000000e+03,-5.840924316496085567e-01,0.000000000000000000e+00
1.075000000000000000e+03,-4.955514672479701122e-01,0.000000000000000000e+00
1.076000000000000000e+03,-8.873306896545944955e-01,0.000000000000000000e+00
1.077000000000000000e+03,-2.459824840535154156e-01,0.000000000000000000e+00
1.078000000000000000e+03,-4.553198478969685548e-01,0.000000000000000000e+00
1.079000000000000000e+03,-1.324691925530513403e-01,0.000000000000000000e+00
1.080000000000000000e+03,-1.040469699983073842e-01,0.000000000000000000e+00
1.081000000000000000e+03,1.625554878805431092e-01,0.000000000000000000e+00
1.082000000000000000e+03,3.565013284252072645e-01,0.000000000000000000e+00
1.083000000000000000e+03,7.892506708678286298e-01,0.000000000000000000e+00
1.084000000000000000e+03,6.983939253922114565e-01,0.000000000000000000e+00
1.085000000000000000e+03,6.474256649135717856e-01,0.000000000000000000e+00
1.086000000000000000e+03,7.256712431873212354e-01,0.000000000000000000e+00
1.087000000000000000e+03,4.330391621955163028e-01,0.000000000000000000e+00
1.088000000000000000e+03,6.062439818162319582e-01,0.000000000000000000e+00
1.089000000000000000e+03,-1.409344190998945978e-01,0.000000000000000000e+00
1.090000000000000000e+03,3.107930236709185445e-01,0.000000000000000000e+00
1.091000000000000000e+03,-5.008625551068479620e-01,0.000000000000000000e+00
1.092000000000000000e+03,-7.152917928708465989e-02,0.000000000000000000e+00
1.093000000000000000e+03,-1.966366558629365491e-01,0.000000000000000000e+00
1.094000000000000000e+03,9.013037488843730904e-02,0.000000000000000000e+00
1.095000000000000000e+03,-1.059782000174617489e-01,0.000000000000000000e+00
1.096000000000000000e+03,-6.371105222449815683e-03,0.000000000000000000e+00
1.097000000000000000e+03,-3.830432026691899666e-02,0.000000000000000000e+00
1.098000000000000000e+03,-2.007149066002386351e-01,0.000000000000000000e+00
1.099000000000000000e+03,-1.102854491400922371e-01,0.000000000000000000e+00
1.100000000000000000e+03,-7.209136049060663187e-02,0.000000000000000000e+00
1.101000000000000000e+03,-4.527169741658319986e-03,0.000000000000000000e+00
1.102000000000000000e+03,-1.663121449138802443e-01,0.000000000000000000e+00
1.103000000000000000e+03,-9.760406612042824004e-02,0.000000000000000000e+00
1.104000000000000000e+03,-1.459998369458311573e-01,0.000000000000000000e+00
1.105000000000000000e+03,-6.338324162138410378e-02,0.000000000000000000e+00
1.106000000000000000e+03,8.453669649168701894e-02,0.000000000000000000e+00
1.107000000000000000e+03,-1.714066231740268287e-01,0.000000000000000000e+00
1.108000000000000000e+03,2.285067614317267681e-01,0.000000000000000000e+00
1.109000000000000000e+03,1.131925632646193919e-01,0.000000000000000000e+00
1.110000000000000000e+03,2.993638934048134526e-01,0.000000000000000000e+00
1.111000000000000000e+03,2.080762696373626430e-01,0.000000000000000000e+00
1.112000000000000000e+03,-3.802648464887469770e-01,0.000000000000000000e+00
1.113000000000000000e+03,-1.008213688549662035e-01,0.000000000000000000e+00
1.114000000000000000e+03,-3.263700047623799283e-01,0.000000000000000000e+00
1.115000000000000000e+03,-2.896897702432202903e-01,0.000000000000000000e+00
1.116000000000000000e+03,3.595973004770227494e-02,0.000000000000000000e+00
1.117000000000000000e+03,-1.878214476349766571e-01,0.000000000000000000e+00
1.118000000000000000e+03,1.979346568796962105e-03,0.000000000000000000e+00
1.119000000000000000e+03,-6.153642166465724817e-01,0.000000000000000000e+00
1.120000000000000000e+03,2.167571878021476106e+00,0.000000000000000000e+00
1.121000000000000000e+03,5.591556942141177267e+00,0.000000000000000000e+00
1.122000000000000000e+03,-6.004285194519666247e-01,1.000000000000000000e+00
1.123000000000000000e+03,-1.415385706421207868e+00,0.000000000000000000e+00
1.124000000000000000e+03,-1.272684890922922030e+00,0.000000000000000000e+00
1.125000000000000000e+03,-1.289040049248528552e+00,0.000000000000000000e+00
1.126000000000000000e+03,-8.314019345073155876e-01,0.000000000000000000e+00
1.127000000000000000e+03,-1.199490436591265086e+00,0.000000000000000000e+00
1.128000000000000000e+03,-8.972257926175399856e-01,0.000000000000000000e+00
1.129000000000000000e+03,-7.785566021719882990e-01,0.000000000000000000e+00
1.130000000000000000e+03,-6.099611817297841965e-01,0.000000000000000000e+00
1.131000000000000000e+03,-6.388847507845674123e-01,0.000000000000000000e+00
1.132000000000000000e+03,-5.396917400974160506e-01,0.000000000000000000e+00
1.133000000000000000e+03,-2.593569949556456811e-01,0.000000000000000000e+00
1.134000000000000000e+03,-2.544803551922302995e-02,0.000000000000000000e+00
1.135000000000000000e+03,-8.547725597735793268e-02,0.000000000000000000e+00
1.136000000000000000e+03,2.749957667888127122e-01,0.000000000000000000e+00
1.137000000000000000e+03,4.557834253953618742e-01,0.000000000000000000e+00
1.138000000000000000e+03,5.537916179473911793e-01,0.000000000000000000e+00
1.139000000000000000e+03,5.050469508778048233e-01,0.000000000000000000e+00
1.140000000000000000e+03,7.171553683065060580e-01,0.000000000000000000e+00
1.141000000000000000e+03,4.921630547793943711e-01,0.000000000000000000e+00
1.142000000000000000e+03,2.069035217126847237e-01,0.000000000000000000e+00
1.143000000000000000e+03,-1.701811055477173429e-01,0.000000000000000000e+00
1.144000000000000000e+03,1.032480583563157549e-02,0.000000000000000000e+00
1.145000000000000000e+03,-1.389530620726315557e-01,0.000000000000000000e+00
1.146000000000000000e+03,-5.615534881332441275e-01,0.000000000000000000e+00
1.147000000000000000e+03,1.686956011453504267e-01,0.000000000000000000e+00
1.148000000000000000e+03,-1.278616002268200824e-01,0.000000000000000000e+00
1.149000000000000000e+03,-2.494630637997333755e-01,0.000000000000000000e+00
1.150000000000000000e+03,2.050288631028930608e-01,0.000000000000000000e+00
1.151000000000000000e+03,-3.677548831132084750e-01,0.000000000000000000e+00
1.152000000000000000e+03,1.221380386566906229e-01,0.000000000000000000e+00
1.153000000000000000e+03,-1.453231711974574125e-01,0.000000000000000000e+00
1.154000000000000000e+03,-3.118554835648070234e-01,0.000000000000000000e+00
1.155000000000000000e+03,1.623576426631571368e-01,0.000000000000000000e+00
1.156000000000000000e+03,-1.426259185433623733e-01,0.000000000000000000e+00
1.157000000000000000e+03,-5.366352087510147806e-01,0.000000000000000000e+00
1.158000000000000000e+03,4.206805897347041800e-01,0.000000000000000000e+00
1.159000000000000000e+03,-3.177995076553975506e-01,0.000000000000000000e+00
1.160000000000000000e+03,-2.590632544821810379e-01,0.000000000000000000e+00
1.161000000000000000e+03,4.472915971796114221e-01,0.000000000000000000e+00
1.162000000000000000e+03,1.286097284324221879e-01,0.000000000000000000e+00
1.163000000000000000e+03,8.512695064403833639e-03,0.000000000000000000e+00
1.164000000000000000e+03,2.010905147299378859e-01,0.000000000000000000e+00
1.165000000000000000e+03,-3.380896174984545088e-01,0.000000000000000000e+00
1.166000000000000000e+03,-2.069191135357835998e-01,0.000000000000000000e+00
1.167000000000000000e+03,-4.935272541289395520e-01,0.000000000000000000e+00
1.168000000000000000e+03,-1.395389555364015266e-01,0.000000000000000000e+00
1.169000000000000000e+03,9.398769121855352071e-02,0.000000000000000000e+00
1.170000000000000000e+03,-1.749687520334986257e-01,0.000000000000000000e+00
1.171000000000000000e+03,-2.539064001705581552e-01,0.000000000000000000e+00
1.172000000000000000e+03,-2.549990813030291598e-02,0.000000000000000000e+00
1.173000000000000000e+03,3.688986566573981829e-01,0.000000000000000000e+00
1.174000000000000000e+03,5.079438443480586152e+00,0.000000000000000000e+00
1.175000000000000000e+03,1.822401213465947967e+00,1.000000000000000000e+00
1.176000000000000000e+03,-2.205518678077511563e+00,0.000000000000000000e+00
1.177000000000000000e+03,-8.346641217094363796e-01,0.000000000000000000e+00
1.178000000000000000e+03,-1.534942597855202484e+00,0.000000000000000000e+00
1.179000000000000000e+03,-8.883687374376358914e-01,0.000000000000000000e+00
1.180000000000000000e+03,-9.000368907416285147e-01,0.000000000000000000e+00
1.181000000000000000e+03,-7.621134338359062399e-01,0.000000000000000000e+00
1.182000000000000000e+03,-7.247305924037654723e-01,0.000000000000000000e+00
1.183000000000000000e+03,-5.309985170814076616e-01,0.000000000000000000e+00
1.184000000000000000e+03,-6.132279689479808171e-01,0.000000000000000000e+00
1.185000000000000000e+03,-2.034227470176896702e-01,0.000000000000000000e+00
1.186000000000000000e+03,-4.577785177551398355e-01,0.000000000000000000e+00
1.187000000000000000e+03,-4.696668325198406768e-02,0.000000000000000000e+00
1.188000000000000000e+03,-8.317396844489635677e-02,0.000000000000000000e+00
1.189000000000000000e+03,4.414167910011239093e-01,0.000000000000000000e+00
1.190000000000000000e+03,4.433587242980498444e-01,0.000000000000000000e+00
1.191000000000000000e+03,6.686213199411489283e-01,0.000000000000000000e+00
1.192000000000000000e+03,6.539550966964928769e-01,0.000000000000000000e+00
1.193000000000000000e+03,6.807776826143324689e-01,0.000000000000000000e+00
1.194000000000000000e+03,6.302182906218838365e-01,0.000000000000000000e+00
1.195000000000000000e+03,4.361668443507726867e-01,0.000000000000000000e+00
1.196000000000000000e+03,1.329746584977720414e-01,0.000000000000000000e+00
1.197000000000000000e+03,-2.327928057799143191e-01,0.000000000000000000e+00
1.198000000000000000e+03,-1.234570500965212758e-01,0.000000000000000000e+00
1.199000000000000000e+03,-2.024372239339203849e-01,0.000000000000000000e+00
1.200000000000000000e+03,2.179905594654074907e-01,0.000000000000000000e+00
1.201000000000000000e+03,-1.798071982594488805e-01,0.000000000000000000e+00
1.202000000000000000e+03,-2.906637572858294938e-02,0.000000000000000000e+00
1.203000000000000000e+03,-5.941847479184431124e-02,0.000000000000000000e+00
1.204000000000000000e+03,3.440799366250106572e-02,0.000000000000000000e+00
1.205000000000000000e+03,-1.168890977097656464e-01,0.000000000000000000e+00
1.206000000000000000e+03,4.883840556703440694e-02,0.000000000000000000e+00
1.207000000000000000e+03,2.411796601351948177e-02,0.000000000000000000e+00
1.208000000000000000e+03,-3.008570547114588489e-01,0.000000000000000000e+00
1.209000000000000000e+03,4.620625795321627038e-02,0.000000000000000000e+00
1.210000000000000000e+03,-1.195398236681687876e-01,0.000000000000000000e+00
1.211000000000000000e+03,1.755887785842339677e-01,0.000000000000000000e+00
1.212000000000000000e+03,-8.803688302797951781e-02,0.000000000000000000e+00
1.213000000000000000e+03,3.088300038437705175e-02,0.000000000000000000e+00
1.214000000000000000e+03,3.281643610474489769e-02,0.000000000000000000e+00
1.215000000000000000e+03,2.880027146903709270e-02,0.000000000000000000e+00
1.216000000000000000e+03,3.466941025874522020e-01,0.000000000000000000e+00
1.217000000000000000e+03,2.143686239985996833e-01,0.000000000000000000e+00
1.218000000000000000e+03,-9.528994738939437249e-04,0.000000000000000000e+00
1.219000000000000000e+03,-2.573059789267556630e-01,0.000000000000000000e+00
1.220000000000000000e+03,-5.822649704974362100e-02,0.000000000000000000e+00
1.221000000000000000e+03,-2.764767027850310033e-01,0.000000000000000000e+00
1.222000000000000000e+03,-7.739727955619675470e-02,0.000000000000000000e+00
1.223000000000000000e+03,-2.012278293013365638e-01,0.000000000000000000e+00
1.224000000000000000e+03,1.840245356885918462e-02,0.000000000000000000e+00
1.225000000000000000e+03,-8.062245855458219368e-02,0.000000000000000000e+00
1.226000000000000000e+03,-3.176955148486024783e-01,0.000000000000000000e+00
1.227000000000000000e+03,3.001446636668959833e+00,0.000000000000000000e+00
1.228000000000000000e+03,4.667095674081553902e+00,0.000000000000000000e+00
1.229000000000000000e+03,-5.986585637205698029e-01,1.000000000000000000e+00
1.230000000000000000e+03,-1.030634821172930371e+00,0.000000000000000000e+00
1.231000000000000000e+03,-1.511444538322338049e+00,0.000000000000000000e+00
1.232000000000000000e+03,-8.209361949409765824e-01,0.000000000000000000e+00
1.233000000000000000e+03,-4.447826975594698640e-01,0.000000000000000000e+00
1.234000000000000000e+03,-9.220958036423846371e-01,0.000000000000000000e+00
1.235000000000000000e+03,-7.940580366407954394e-01,0.000000000000000000e+00
1.236000000000000000e+03,-4.028933491294191538e-01,0.000000000000000000e+00
1.237000000000000000e+03,-5.812376086087647081e-02,0.000000000000000000e+00
1.238000000000000000e+03,-5.744569827066561274e-01,0.000000000000000000e+00
1.239000000000000000e+03,-3.575294787689614062e-01,0.000000000000000000e+00
1.240000000000000000e+03,-1.924879754971178802e-01,0.000000000000000000e+00
1.241000000000000000e+03,2.319283117446577780e-01,0.000000000000000000e+00
1.242000000000000000e+03,1.778122209048156599e-01,0.000000000000000000e+00
1.243000000000000000e+03,6.032803871672336449e-01,0.000000000000000000e+00
1.244000000000000000e+03,4.600975459964400383e-01,0.000000000000000000e+00
1.245000000000000000e+03,7.650174410473661313e-01,0.000000000000000000e+00
1.246000000000000000e+03,5.802878955021071317e-01,0.000000000000000000e+00
1.247000000000000000e+03,7.892324237537535758e-01,0.000000000000000000e+00
1.248000000000000000e+03,4.246495872150458095e-01,0.000000000000000000e+00
1.249000000000000000e+03,3.969158186499926466e-01,0.000000000000000000e+00
1.250000000000000000e+03,1.042452781553111080e-01,0.000000000000000000e+00
1.251000000000000000e+03,-3.338935111937704203e-01,0.000000000000000000e+00
1.252000000000000000e+03,-3.045502950557301899e-02,0.000000000000000000e+00
1.253000000000000000e+03,-1.023972532237081012e-01,0.000000000000000000e+00
1.254000000000000000e+03,-3.061643246987021463e-02,0.000000000000000000e+00
1.255000000000000000e+03,-2.839219579737716978e-02,0.000000000000000000e+00
1.256000000000000000e+03,-3.194600225998078802e-02,0.000000000000000000e+00
1.257000000000000000e+03,1.051540337655897800e-01,0.000000000000000000e+00
1.258000000000000000e+03,-2.903959838398075810e-01,0.000000000000000000e+00
1.259000000000000000e+03,1.860642522666260956e-01,0.000000000000000000e+00
1.260000000000000000e+03,-1.367557739773582748e-01,0.000000000000000000e+00
1.261000000000000000e+03,-1.989906364225333402e-01,0.000000000000000000e+00
1.262000000000000000e+03,-8.442362257214953980e-02,0.000000000000000000e+00
1.263000000000000000e+03,-2.888000182975594687e-02,0.000000000000000000e+00
1.264000000000000000e+03,-3.201383811806324253e-02,0.000000000000000000e+00
1.265000000000000000e+03,1.441194702832357573e-02,0.000000000000000000e+00
1.266000000000000000e+03,9.881024899621856927e-02,0.000000000000000000e+00
1.267000000000000000e+03,-1.052810792270520157e-01,0.000000000000000000e+00
1.268000000000000000e+03,3.316526779694073390e-01,0.000000000000000000e+00
1.269000000000000000e+03,2.466496171946249219e-03,0.000000000000000000e+00
1.270000000000000000e+03,7.384590209076660750e-02,0.000000000000000000e+00
1.271000000000000000e+03,5.991178446082963127e-01,0.000000000000000000e+00
1.272000000000000000e+03,-6.788222176671824259e-01,0.000000000000000000e+00
1.273000000000000000e+03,-3.425827692556423498e-01,0.000000000000000000e+00
1.274000000000000000e+03,4.215685625817284232e-01,0.000000000000000000e+00
1.275000000000000000e+03,-4.707851449847675895e-01,0.000000000000000000e+00
1.276000000000000000e+03,-6.143271576410873624e-01,0.000000000000000000e+00
1.277000000000000000e+03,4.762278344598510627e-01,0.000000000000000000e+00
1.278000000000000000e+03,-5.081917028657023661e-01,0.000000000000000000e+00
1.279000000000000000e+03,-2.024331152891753471e-01,0.000000000000000000e+00
1.280000000000000000e+03,5.444576030809000766e-01,0.000000000000000000e+00
1.281000000000000000e+03,5.187920527981841445e+00,0.000000000000000000e+00
1.282000000000000000e+03,1.903189086906683425e+00,1.000000000000000000e+00
1.283000000000000000e+03,-2.064870360216438439e+00,0.000000000000000000e+00
1.284000000000000000e+03,-7.456502912578186759e-01,0.000000000000000000e+00
1.285000000000000000e+03,-1.601442319563341821e+00,0.000000000000000000e+00
1.286000000000000000e+03,-5.995684581557312320e-01,0.000000000000000000e+00
1.287000000000000000e+03,-1.236178376717210758e+00,0.000000000000000000e+00
1.288000000000000000e+03,-6.875022248604409913e-01,0.000000000000000000e+00
1.289000000000000000e+03,-9.005539363089970495e-01,0.000000000000000000e+00
1.290000000000000000e+03,-7.623313899399333238e-01,0.000000000000000000e+00
1.291000000000000000e+03,-4.186633977424283892e-01,0.000000000000000000e+00
1.292000000000000000e+03,-3.967715264858295843e-01,0.000000000000000000e+00
1.293000000000000000e+03,-8.796602313907748716e-01,0.000000000000000000e+00
1.294000000000000000e+03,3.285481838037534463e-01,0.000000000000000000e+00
1.295000000000000000e+03,-4.637725545227438517e-01,0.000000000000000000e+00
1.296000000000000000e+03,5.964221028399623314e-01,0.000000000000000000e+00
1.297000000000000000e+03,5.862801648912800978e-01,0.000000000000000000e+00
1.298000000000000000e+03,3.876236898082088822e-01,0.000000000000000000e+00
1.299000000000000000e+03,5.281347976348441664e-01,0.000000000000000000e+00
1.300000000000000000e+03,9.481755419951400921e-01,0.000000000000000000e+00
1.301000000000000000e+03,3.173106352246964357e-01,0.000000000000000000e+00
1.302000000000000000e+03,2.720942630267553231e-01,0.000000000000000000e+00
1.303000000000000000e+03,4.012248294196174014e-01,0.000000000000000000e+00
1.304000000000000000e+03,-8.778840480843540239e-02,0.000000000000000000e+00
1.305000000000000000e+03,-4.064849321611980204e-01,0.000000000000000000e+00
1.306000000000000000e+03,2.239602322246122545e-01,0.000000000000000000e+00
1.307000000000000000e+03,-3.449480058789344827e-01,0.000000000000000000e+00
1.308000000000000000e+03,-1.061451037847550433e-01,0.000000000000000000e+00
1.309000000000000000e+03,-1.575850836404908972e-01,0.000000000000000000e+00
1.310000000000000000e+03,-1.731679668926076887e-01,0.000000000000000000e+00
1.311000000000000000e+03,2.051072305315594091e-01,0.000000000000000000e+00
1.312000000000000000e+03,-2.288385355043874303e-01,0.000000000000000000e+00
1.313000000000000000e+03,-4.613189247216102906e-01,0.000000000000000000e+00
1.314000000000000000e+03,4.775617263421075842e-01,0.000000000000000000e+00
1.315000000000000000e+03,-4.787069072894905575e-01,0.000000000000000000e+00
1.316000000000000000e+03,-1.341592905232595612e-01,0.000000000000000000e+00
1.317000000000000000e+03,4.319657160992780298e-01,0.000000000000000000e+00
1.318000000000000000e+03,-8.124286036084611695e-02,0.000000000000000000e+00
1.319000000000000000e+03,9.733250194008341225e-03,0.000000000000000000e+00
1.320000000000000000e+03,3.395765971352831536e-01,0.000000000000000000e+00
1.321000000000000000e+03,-3.292299555017263457e-01,0.000000000000000000e+00
1.322000000000000000e+03,3.700066083627793767e-01,0.000000000000000000e+00
1.323000000000000000e+03,-3.973184399407386769e-01,0.000000000000000000e+00
1.324000000000000000e+03,-3.038267477576249709e-01,0.000000000000000000e+00
1.325000000000000000e+03,-3.301160169560311552e-01,0.000000000000000000e+00
1.326000000000000000e+03,-4.254975611698244564e-01,0.000000000000000000e+00
1.327000000000000000e+03,-1.690555423445802008e-01,0.000000000000000000e+00
1.328000000000000000e+03,-1.352762814266801061e-01,0.000000000000000000e+00
1.329000000000000000e+03,-2.702259729005380140e-01,0.000000000000000000e+00
1.330000000000000000e+03,-1.871019789083310514e-01,0.000000000000000000e+00
1.331000000000000000e+03,-3.265150360157698106e-02,0.000000000000000000e+00
1.332000000000000000e+03,5.047954746817145733e+00,0.000000000000000000e+00
1.333000000000000000e+03,2.457821483454309508e+00,1.000000000000000000e+00
1.334000000000000000e+03,-2.039879218456136734e+00,0.000000000000000000e+00
1.335000000000000000e+03,-1.354057808085459502e+00,0.000000000000000000e+00
1.336000000000000000e+03,-1.364837797942425768e+00,0.000000000000000000e+00
1.337000000000000000e+03,-9.022132887225747799e-01,0.000000000000000000e+00
1.338000000000000000e+03,-1.184989661700020624e+00,0.000000000000000000e+00
1.339000000000000000e+03,-5.917043910448168687e-01,0.000000000000000000e+00
1.340000000000000000e+03,-7.889313681420528912e-01,0.000000000000000000e+00
1.341000000000000000e+03,-6.932493721623559368e-01,0.000000000000000000e+00
1.342000000000000000e+03,-7.370118714009220584e-01,0.000000000000000000e+00
1.343000000000000000e+03,-5.056021385750900654e-01,0.000000000000000000e+00
1.344000000000000000e+03,-3.250004466692220095e-01,0.000000000000000000e+00
1.345000000000000000e+03,-2.752149038713690432e-01,0.000000000000000000e+00
1.346000000000000000e+03,1.919917242476022051e-02,0.000000000000000000e+00
1.347000000000000000e+03,2.113000576649523565e-01,0.000000000000000000e+00
1.348000000000000000e+03,5.752847727947832945e-01,0.000000000000000000e+00
1.349000000000000000e+03,6.860010021495026589e-01,0.000000000000000000e+00
1.350000000000000000e+03,7.570667673409415821e-01,0.000000000000000000e+00
1.351000000000000000e+03,5.609895166045666404e-01,0.000000000000000000e+00
1.352000000000000000e+03,6.128819305302065645e-01,0.000000000000000000e+00
1.353000000000000000e+03,5.456069997225743151e-01,0.000000000000000000e+00
1.354000000000000000e+03,7.919871731996186437e-02,0.000000000000000000e+00
1.355000000000000000e+03,2.616828945224636271e-02,0.000000000000000000e+00
1.356000000000000000e+03,-1.467633040006530720e-01,0.000000000000000000e+00
1.357000000000000000e+03,1.485054739353426356e-01,0.000000000000000000e+00
1.358000000000000000e+03,-1.475698712430558168e-01,0.000000000000000000e+00
1.359000000000000000e+03,-1.519826571927579417e-01,0.000000000000000000e+00
1.360000000000000000e+03,-4.589803465497327428e-02,0.000000000000000000e+00
1.361000000000000000e+03,1.917820123288998257e-01,0.000000000000000000e+00
1.362000000000000000e+03,9.351203481807601747e-02,0.000000000000000000e+00
1.363000000000000000e+03,-6.907119871839074998e-02,0.000000000000000000e+00
1.364000000000000000e+03,-1.736975916338936166e-01,0.000000000000000000e+00
1.365000000000000000e+03,-2.422381820485031145e-01,0.000000000000000000e+00
1.366000000000000000e+03,1.084647689111304936e-01,0.000000000000000000e+00
1.367000000000000000e+03,-6.694334922302162816e-02,0.000000000000000000e+00
1.368000000000000000e+03,1.475437151849019746e-01,0.000000000000000000e+00
1.369000000000000000e+03,-1.003915123834267370e-01,0.000000000000000000e+00
1.370000000000000000e+03,1.280274603064759098e-01,0.000000000000000000e+00
1.371000000000000000e+03,-3.724065282818224496e-03,0.000000000000000000e+00
1.372000000000000000e+03,1.049324583287280926e-01,0.000000000000000000e+00
1.373000000000000000e+03,-2.411308385248821587e-03,0.000000000000000000e+00
1.374000000000000000e+03,2.206545564265023074e-01,0.000000000000000000e+00
1.375000000000000000e+03,2.629806637041014888e-02,0.000000000000000000e+00
1.376000000000000000e+03,4.402030861524580674e-01,0.000000000000000000e+00
1.377000000000000000e+03,1.444848507594016784e-01,0.000000000000000000e+00
1.378000000000000000e+03,6.191966473068781784e-01,0.000000000000000000e+00
1.379000000000000000e+03,-1.802276885774660997e-01,0.000000000000000000e+00
1.380000000000000000e+03,-1.937801730329086767e-03,0.000000000000000000e+00
1.381000000000000000e+03,-2.982550330301264041e-01,0.000000000000000000e+00
1.382000000000000000e+03,-1.504744351895995480e-01,0.000000000000000000e+00
1.383000000000000000e+03,-6.340797543339447839e-02,0.000000000000000000e+00
1.384000000000000000e+03,-1.010507386042466399e-01,0.000000000000000000e+00
1.385000000000000000e+03,-2.395134855448384503e-01,0.000000000000000000e+00
1.386000000000000000e+03,4.203490651429533931e-01,0.000000000000000000e+00
1.387000000000000000e+03,-4.793709531968359805e-01,0.000000000000000000e+00
1.388000000000000000e+03,4.643311283242659293e+00,0.000000000000000000e+00
1.389000000000000000e+03,3.067078485773578667e+00,1.000000000000000000e+00
1.390000000000000000e+03,-1.730452682954621402e+00,0.000000000000000000e+00
1.391000000000000000e+03,-1.033179104346488186e+00,0.000000000000000000e+00
1.392000000000000000e+03,-1.536937452398810855e+00,0.000000000000000000e+00
1.393000000000000000e+03,-8.197305650622712658e-01,0.000000000000000000e+00
1.394000000000000000e+03,-9.838699008644138377e-01,0.000000000000000000e+00
1.395000000000000000e+03,-8.318453354895896101e-01,0.000000000000000000e+00
1.396000000000000000e+03,-8.310290151280997906e-01,0.000000000000000000e+00
1.397000000000000000e+03,-6.871355656992250704e-01,0.000000000000000000e+00
1.398000000000000000e+03,-5.507832959803605766e-01,0.000000000000000000e+00
1.399000000000000000e+03,-5.484585943068266412e-01,0.000000000000000000e+00
1.400000000000000000e+03,-3.987329980928215889e-01,0.000000000000000000e+00
1.401000000000000000e+03,-3.141418117041928082e-01,0.000000000000000000e+00
1.402000000000000000e+03,3.327946581179968416e-02,0.000000000000000000e+00
1.403000000000000000e+03,2.107565550943174271e-01,0.000000000000000000e+00
1.404000000000000000e+03,3.977918682448576271e-01,0.000000000000000000e+00
1.405000000000000000e+03,5.642502036764848183e-01,0.000000000000000000e+00
1.406000000000000000e+03,4.446451309859795753e-01,0.000000000000000000e+00
1.407000000000000000e+03,5.569977662844584065e-01,0.000000000000000000e+00
1.408000000000000000e+03,4.181202402654266570e-01,0.000000000000000000e+00
1.409000000000000000e+03,5.556502557938591824e-01,0.000000000000000000e+00
1.410000000000000000e+03,-2.424667215128872844e-01,0.000000000000000000e+00
1.411000000000000000e+03,-2.462638100464841287e-02,0.000000000000000000e+00
1.412000000000000000e+03,-3.746578540207120001e-01,0.000000000000000000e+00
1.413000000000000000e+03,-2.905687574162191256e-01,0.000000000000000000e+00
1.414000000000000000e+03,-4.204122930743222075e-01,0.000000000000000000e+00
1.415000000000000000e+03,-3.237594895779425941e-01,0.000000000000000000e+00
1.416000000000000000e+03,1.773942723056636250e-01,0.000000000000000000e+00
1.417000000000000000e+03,-4.693128726885808510e-01,0.000000000000000000e+00
1.418000000000000000e+03,7.697385491334675367e-02,0.000000000000000000e+00
1.419000000000000000e+03,-3.027676160774818159e-01,0.000000000000000000e+00
1.420000000000000000e+03,-2.017418575499077271e-01,0.000000000000000000e+00
1.421000000000000000e+03,3.190543287591460220e-02,0.000000000000000000e+00
1.422000000000000000e+03,-2.780833225856246815e-01,0.000000000000000000e+00
1.423000000000000000e+03,-1.871776613213412266e-01,0.000000000000000000e+00
1.424000000000000000e+03,1.640928984435332527e-01,0.000000000000000000e+00
1.425000000000000000e+03,-5.741843908040888955e-01,0.000000000000000000e+00
1.426000000000000000e+03,1.182029793645604648e-01,0.000000000000000000e+00
1.427000000000000000e+03,1.355326377803910964e-01,0.000000000000000000e+00
1.428000000000000000e+03,-1.960816846947077141e-01,0.000000000000000000e+00
1.429000000000000000e+03,4.774349244225761790e-01,0.000000000000000000e+00
1.430000000000000000e+03,1.816692802862713840e-01,0.000000000000000000e+00
1.431000000000000000e+03,-1.002758320368275918e-01,0.000000000000000000e+00
1.432000000000000000e+03,8.387793420377116504e-01,0.000000000000000000e+00
1.433000000000000000e+03,-4.671545492294421620e-01,0.000000000000000000e+00
1.434000000000000000e+03,4.323039547442349834e-02,0.000000000000000000e+00
1.435000000000000000e+03,-1.522482398700528705e-01,0.000000000000000000e+00
1.436000000000000000e+03,-2.244963087049995087e-01,0.000000000000000000e+00
1.437000000000000000e+03,6.115599678052490579e-02,0.000000000000000000e+00
1.438000000000000000e+03,-7.628164247440850573e-03,0.000000000000000000e+00
1.439000000000000000e+03,-1.872852743499965611e-01,0.000000000000000000e+00
1.440000000000000000e+03,2.145626406023631583e-01,0.000000000000000000e+00
1.441000000000000000e+03,3.546938128413196778e-01,0.000000000000000000e+00
1.442000000000000000e+03,5.183124276195191449e+00,0.000000000000000000e+00
1.443000000000000000e+03,2.251475531980223099e+00,1.000000000000000000e+00
1.444000000000000000e+03,-1.734463494819674212e+00,0.000000000000000000e+00
1.445000000000000000e+03,-8.442149733676894696e-01,0.000000000000000000e+00
1.446000000000000000e+03,-1.307730948896339784e+00,0.000000000000000000e+00
1.447000000000000000e+03,-8.178649192290947667e-01,0.000000000000000000e+00
1.448000000000000000e+03,-8.930356045071453641e-01,0.000000000000000000e+00
1.449000000000000000e+03,-6.520459291774481914e-01,0.000000000000000000e+00
1.450000000000000000e+03,-6.386218877150838802e-01,0.000000000000000000e+00
1.451000000000000000e+03,-5.024172278087184473e-01,0.000000000000000000e+00
1.452000000000000000e+03,-3.512225735470998478e-01,0.000000000000000000e+00
1.453000000000000000e+03,-4.482664250246161108e-01,0.000000000000000000e+00
1.454000000000000000e+03,-2.214892755769717891e-01,0.000000000000000000e+00
1.455000000000000000e+03,-2.284110726055977800e-02,0.000000000000000000e+00
1.456000000000000000e+03,2.004791509991836820e-02,0.000000000000000000e+00
1.457000000000000000e+03,3.703102873010322149e-01,0.000000000000000000e+00
1.458000000000000000e+03,6.040863344416617098e-01,0.000000000000000000e+00
1.459000000000000000e+03,4.205871468985116213e-01,0.000000000000000000e+00
1.460000000000000000e+03,9.085686262526263546e-01,0.000000000000000000e+00
1.461000000000000000e+03,9.469575016399298661e-01,0.000000000000000000e+00
1.462000000000000000e+03,4.153617926590522091e-01,0.000000000000000000e+00
1.463000000000000000e+03,7.702019593174884715e-01,0.000000000000000000e+00
1.464000000000000000e+03,2.719373163819971961e-01,0.000000000000000000e+00
1.465000000000000000e+03,-4.039353090432548088e-01,0.000000000000000000e+00
1.466000000000000000e+03,1.058491131747889280e-01,0.000000000000000000e+00
1.467000000000000000e+03,-3.795498536585061033e-02,0.000000000000000000e+00
1.468000000000000000e+03,-2.644026943266320484e-01,0.000000000000000000e+00
1.469000000000000000e+03,-9.516864500235432123e-02,0.000000000000000000e+00
1.470000000000000000e+03,1.499281251902937276e-02,0.000000000000000000e+00
1.471000000000000000e+03,-2.611518604565335119e-02,0.000000000000000000e+00
1.472000000000000000e+03,-2.364708404229491079e-01,0.000000000000000000e+00
1.473000000000000000e+03,-1.124960017707923310e-01,0.000000000000000000e+00
1.474000000000000000e+03,-3.179320864237793198e-02,0.000000000000000000e+00
1.475000000000000000e+03,-2.064905099345444028e-01,0.000000000000000000e+00
1.476000000000000000e+03,-8.958736641391357169e-02,0.000000000000000000e+00
1.477000000000000000e+03,-4.179964881719036573e-02,0.000000000000000000e+00
1.478000000000000000e+03,-4.009214167079343250e-02,0.000000000000000000e+00
1.479000000000000000e+03,2.490518139427863945e-02,0.000000000000000000e+00
1.480000000000000000e+03,-1.921652286286697764e-01,0.000000000000000000e+00
1.481000000000000000e+03,1.373284417016524400e-02,0.000000000000000000e+00
1.482000000000000000e+03,-2.185341164754127929e-01,0.000000000000000000e+00
1.483000000000000000e+03,2.337605582339005450e-01,0.000000000000000000e+00
1.484000000000000000e+03,-9.367067583209300052e-02,0.000000000000000000e+00
1.485000000000000000e+03,2.926947255955459348e-01,0.000000000000000000e+00
1.486000000000000000e+03,1.842194253348024280e-02,0.000000000000000000e+00
1.487000000000000000e+03,-7.402392632914481241e-02,0.000000000000000000e+00
1.488000000000000000e+03,-4.448567860431207888e-01,0.000000000000000000e+00
1.489000000000000000e+03,-4.566192271030178329e-01,0.000000000000000000e+00
1.490000000000000000e+03,-1.519398103047120419e-01,0.000000000000000000e+00
1.491000000000000000e+03,-5.614248096350686890e-01,0.000000000000000000e+00
1.492000000000000000e+03,-3.360654783792646483e-02,0.000000000000000000e+00
1.493000000000000000e+03,-5.277671426899723794e-01,0.000000000000000000e+00
1.494000000000000000e+03,2.460797423394971983e-01,0.000000000000000000e+00
1.495000000000000000e+03,-5.512914450686285939e-01,0.000000000000000000e+00
1.496000000000000000e+03,4.780104822814535304e+00,0.000000000000000000e+00
1.497000000000000000e+03,3.059174741301904810e+00,1.000000000000000000e+00
1.498000000000000000e+03,-1.890767610068628590e+00,0.000000000000000000e+00
1.499000000000000000e+03,-1.010129054389666825e+00,0.000000000000000000e+00
1.500000000000000000e+03,-1.358516442904139199e+00,0.000000000000000000e+00
1.501000000000000000e+03,-1.054963082749826198e+00,0.000000000000000000e+00
1.502000000000000000e+03,-1.136584200702061676e+00,0.000000000000000000e+00
1.503000000000000000e+03,-5.600275916565522483e-01,0.000000000000000000e+00
1.504000000000000000e+03,-9.727190393901412602e-01,0.000000000000000000e+00
1.505000000000000000e+03,-3.179018709655626607e-01,0.000000000000000000e+00
1.506000000000000000e+03,-6.001953189053685911e-01,0.000000000000000000e+00
1.507000000000000000e+03,-3.642091217904456224e-01,0.000000000000000000e+00
1.508000000000000000e+03,-6.207877276978066572e-01,0.000000000000000000e+00
1.509000000000000000e+03,8.399923355115175572e-02,0.000000000000000000e+00
1.510000000000000000e+03,-1.315130620557007635e-01,0.000000000000000000e+00
1.511000000000000000e+03,3.999070909063627832e-01,0.000000000000000000e+00
1.512000000000000000e+03,5.072193157864249846e-01,0.000000000000000000e+00
1.513000000000000000e+03,4.298719248068182397e-01,0.000000000000000000e+00
1.514000000000000000e+03,1.041770337499833499e+00,0.000000000000000000e+00
1.515000000000000000e+03,7.660569460848706269e-01,0.000000000000000000e+00
1.516000000000000000e+03,6.380226646343216679e-01,0.000000000000000000e+00
1.517000000000000000e+03,7.913118997182266856e-01,0.000000000000000000e+00
1.518000000000000000e+03,1.458262336008184779e-01,0.000000000000000000e+00
1.519000000000000000e+03,3.675272811566175201e-03,0.000000000000000000e+00
1.520000000000000000e+03,1.804060113698292556e-01,0.000000000000000000e+00
1.521000000000000000e+03,1.865974142601629221e-02,0.000000000000000000e+00
1.522000000000000000e+03,1.777338332052879818e-02,0.000000000000000000e+00
1.523000000000000000e+03,4.503890299617022835e-02,0.000000000000000000e+00
1.524000000000000000e+03,-3.539407248573309822e-02,0.000000000000000000e+00
1.525000000000000000e+03,1.764297483785860488e-01,0.000000000000000000e+00
1.526000000000000000e+03,1.276628633025589654e-01,0.000000000000000000e+00
1.527000000000000000e+03,-2.447272951190645682e-02,0.000000000000000000e+00
1.528000000000000000e+03,6.278831751315845644e-02,0.000000000000000000e+00
1.529000000000000000e+03,-1.782260636752325267e-01,0.000000000000000000e+00
1.530000000000000000e+03,-9.839489703814389976e-02,0.000000000000000000e+00
1.531000000000000000e+03,-1.149901941271177508e-01,0.000000000000000000e+00
1.532000000000000000e+03,4.428697840457902074e-02,0.000000000000000000e+00
1.533000000000000000e+03,-1.966293879681037249e-01,0.000000000000000000e+00
1.534000000000000000e+03,-5.783219436505419864e-02,0.000000000000000000e+00
1.535000000000000000e+03,3.029156765451511066e-02,0.000000000000000000e+00
1.536000000000000000e+03,1.612373459972248346e-01,0.000000000000000000e+00
1.537000000000000000e+03,8.213553504979483055e-02,0.000000000000000000e+00
1.538000000000000000e+03,2.799213298679258943e-01,0.000000000000000000e+00
1.539000000000000000e+03,1.917261421591785753e-01,0.000000000000000000e+00
1.540000000000000000e+03,2.334289987077317607e-01,0.000000000000000000e+00
1.541000000000000000e+03,-1.493367052761917883e-02,0.000000000000000000e+00
1.542000000000000000e+03,-1.904090469378643402e-01,0.000000000000000000e+00
1.543000000000000000e+03,-3.323678999476848417e-01,0.000000000000000000e+00
1.544000000000000000e+03,-1.088488303841747096e-04,0.000000000000000000e+00
1.545000000000000000e+03,-3.422136714166863491e-01,0.000000000000000000e+00
1.546000000000000000e+03,2.163240649440855215e-02,0.000000000000000000e+00
1.547000000000000000e+03,-1.713707437297543323e-01,0.000000000000000000e+00
1.548000000000000000e+03,-4.799805976795464002e-02,0.000000000000000000e+00
1.549000000000000000e+03,5.697433169290679889e-01,0.000000000000000000e+00
1.550000000000000000e+03,5.454315144349822120e+00,0.000000000000000000e+00
1.551000000000000000e+03,1.824901780720790345e+00,1.000000000000000000e+00
1.552000000000000000e+03,-1.986060231716074487e+00,0.000000000000000000e+00
1.553000000000000000e+03,-9.588501664216886322e-01,0.000000000000000000e+00
1.554000000000000000e+03,-1.313225779704769725e+00,0.000000000000000000e+00
1.555000000000000000e+03,-1.011024065502668545e+00,0.000000000000000000e+00
1.556000000000000000e+03,-9.277096830021487328e-01,0.000000000000000000e+00
1.557000000000000000e+03,-7.756111491567162508e-01,0.000000000000000000e+00
1.558000000000000000e+03,-8.810277659550754814e-01,0.000000000000000000e+00
1.559000000000000000e+03,-7.983380449250802036e-01,0.000000000000000000e+00
1.560000000000000000e+03,-7.408170479044977608e-01,0.000000000000000000e+00
1.561000000000000000e+03,-6.696521770930879969e-01,0.000000000000000000e+00
1.562000000000000000e+03,-5.419844595010753219e-01,0.000000000000000000e+00
1.563000000000000000e+03,-5.052238730151951129e-01,0.000000000000000000e+00
1.564000000000000000e+03,-2.996313599835074282e-01,0.000000000000000000e+00
1.565000000000000000e+03,-1.619745833295372917e-01,0.000000000000000000e+00
1.566000000000000000e+03,1.902983118416582409e-01,0.000000000000000000e+00
1.567000000000000000e+03,3.861062734690631770e-01,0.000000000000000000e+00
1.568000000000000000e+03,2.797330914338176933e-01,0.000000000000000000e+00
1.569000000000000000e+03,5.117925512646268604e-01,0.000000000000000000e+00
1.570000000000000000e+03,1.494868626146015067e-01,0.000000000000000000e+00
1.571000000000000000e+03,1.943785882295007705e-01,0.000000000000000000e+00
1.572000000000000000e+03,-1.900390495497773780e-01,0.000000000000000000e+00
1.573000000000000000e+03,-2.349779314087619697e-01,0.000000000000000000e+00
1.574000000000000000e+03,-4.407875683900845942e-01,0.000000000000000000e+00
1.575000000000000000e+03,-2.571816023814186281e-01,0.000000000000000000e+00
1.576000000000000000e+03,-9.576005252031581649e-02,0.000000000000000000e+00
1.577000000000000000e+03,-1.146048970865277683e-01,0.000000000000000000e+00
1.578000000000000000e+03,-3.020982995728981324e-01,0.000000000000000000e+00
1.579000000000000000e+03,2.413860020386903171e-01,0.000000000000000000e+00
1.580000000000000000e+03,-2.264990570453094543e-02,0.000000000000000000e+00
1.581000000000000000e+03,-2.671267465538426089e-01,0.000000000000000000e+00
1.582000000000000000e+03,-3.201996918201192588e-01,0.000000000000000000e+00
1.583000000000000000e+03,-1.701627687872424299e-01,0.000000000000000000e+00
1.584000000000000000e+03,-1.819811593237928224e-02,0.000000000000000000e+00
1.585000000000000000e+03,-7.906552597403805616e-02,0.000000000000000000e+00
