timestamp,ecg_measurement,qrs_detected
0.000000000000000000e+00,-1.223293955776093567e+00,0.000000000000000000e+00
1.000000000000000000e+00,-1.105221791110259533e+00,0.000000000000000000e+00
2.000000000000000000e+00,-1.017126983097237591e+00,0.000000000000000000e+00
3.000000000000000000e+00,-4.570858896983211461e-01,0.000000000000000000e+00
4.000000000000000000e+00,-6.332485055761875037e-01,0.000000000000000000e+00
5.000000000000000000e+00,-7.155654048372858123e-01,0.000000000000000000e+00
6.000000000000000000e+00,-5.368269310551047058e-01,0.000000000000000000e+00
7.000000000000000000e+00,-5.475738528218331708e-02,0.000000000000000000e+00
8.000000000000000000e+00,1.671464022759583112e-01,0.000000000000000000e+00
9.000000000000000000e+00,1.982714254252500585e-01,0.000000000000000000e+00
1.000000000000000000e+01,4.699367550018391237e-01,0.000000000000000000e+00
1.100000000000000000e+01,7.286411485145911637e-01,0.000000000000000000e+00
1.200000000000000000e+01,7.441663865314536164e-01,0.000000000000000000e+00
1.300000000000000000e+01,7.248021343240477199e-01,0.000000000000000000e+00
1.400000000000000000e+01,6.587808519989782896e-01,0.000000000000000000e+00
1.500000000000000000e+01,4.648941057758856354e-01,0.000000000000000000e+00
1.600000000000000000e+01,1.997994161289105564e-01,0.000000000000000000e+00
1.700000000000000000e+01,-2.939764723067596619e-01,0.000000000000000000e+00
1.800000000000000000e+01,1.738948988568306264e-01,0.000000000000000000e+00
1.900000000000000000e+01,-1.635252233688755663e-01,0.000000000000000000e+00
2.000000000000000000e+01,-2.109944803162831783e-01,0.000000000000000000e+00
2.100000000000000000e+01,1.589781598933140416e-02,0.000000000000000000e+00
2.200000000000000000e+01,-1.240354571008592255e-01,0.000000000000000000e+00
2.300000000000000000e+01,-9.144931380238313645e-02,0.000000000000000000e+00
2.400000000000000000e+01,3.564690566280709350e-02,0.000000000000000000e+00
2.500000000000000000e+01,-3.372268369726561521e-01,0.000000000000000000e+00
2.600000000000000000e+01,-3.280730540239961135e-01,0.000000000000000000e+00
2.700000000000000000e+01,-1.589213097537196806e-01,0.000000000000000000e+00
2.800000000000000000e+01,-1.542831034058400885e-01,0.000000000000000000e+00
2.900000000000000000e+01,-1.363683614584509374e-01,0.000000000000000000e+00
3.000000000000000000e+01,-1.163119335858112391e-01,0.000000000000000000e+00
3.100000000000000000e+01,-8.352338827632456442e-02,0.000000000000000000e+00
3.200000000000000000e+01,-2.673972151352372317e-01,0.000000000000000000e+00
3.300000000000000000e+01,3.034811319187609158e-01,0.000000000000000000e+00
3.400000000000000000e+01,3.342219411525904071e-02,0.000000000000000000e+00
3.500000000000000000e+01,2.564405546935157321e-01,0.000000000000000000e+00
3.600000000000000000e+01,2.414784816878783602e-01,0.000000000000000000e+00
3.700000000000000000e+01,-2.268920108739962693e-01,0.000000000000000000e+00
3.800000000000000000e+01,-3.322381131112192021e-01,0.000000000000000000e+00
3.900000000000000000e+01,-2.199515182572049365e-01,0.000000000000000000e+00
4.000000000000000000e+01,-1.027454464067981688e-01,0.000000000000000000e+00
4.100000000000000000e+01,-4.324406798872287849e-01,0.000000000000000000e+00
4.200000000000000000e+01,-6.633608723577968935e-02,0.000000000000000000e+00
4.300000000000000000e+01,-9.769317156355625253e-02,0.000000000000000000e+00
4.400000000000000000e+01,-6.207276895709798459e-02,0.000000000000000000e+00
4.500000000000000000e+01,-3.398635847134443555e-01,0.000000000000000000e+00
4.600000000000000000e+01,5.208476491742898062e+00,0.000000000000000000e+00
4.700000000000000000e+01,3.531949837604441367e+00,1.000000000000000000e+00
4.800000000000000000e+01,-2.358322338504764470e+00,0.000000000000000000e+00
4.900000000000000000e+01,-9.482454387976705368e-01,0.000000000000000000e+00
5.000000000000000000e+01,-1.447975953590418641e+00,0.000000000000000000e+00
5.100000000000000000e+01,-9.859761982821474424e-01,0.000000000000000000e+00
5.200000000000000000e+01,-1.132060049476260710e+00,0.000000000000000000e+00
5.300000000000000000e+01,-5.211183161706472999e-01,0.000000000000000000e+00
5.400000000000000000e+01,-8.845095873547883514e-01,0.000000000000000000e+00
5.500000000000000000e+01,-6.170889668663940286e-01,0.000000000000000000e+00
5.600000000000000000e+01,-5.535937454712409611e-01,0.000000000000000000e+00
5.700000000000000000e+01,-2.791029861104341592e-01,0.000000000000000000e+00
5.800000000000000000e+01,-2.569284071895353017e-01,0.000000000000000000e+00
5.900000000000000000e+01,1.025809231309372238e-01,0.000000000000000000e+00
6.000000000000000000e+01,2.761598163853159482e-01,0.000000000000000000e+00
6.100000000000000000e+01,3.969998297607547633e-01,0.000000000000000000e+00
6.200000000000000000e+01,7.310153233862946021e-01,0.000000000000000000e+00
6.300000000000000000e+01,1.102988270000027748e+00,0.000000000000000000e+00
6.400000000000000000e+01,4.984592432093373215e-01,0.000000000000000000e+00
6.500000000000000000e+01,1.079652725555317883e+00,0.000000000000000000e+00
6.600000000000000000e+01,2.527107145646954045e-01,0.000000000000000000e+00
6.700000000000000000e+01,6.189949365807904114e-01,0.000000000000000000e+00
6.800000000000000000e+01,6.366721098451788574e-02,0.000000000000000000e+00
6.900000000000000000e+01,1.177596848217439401e-01,0.000000000000000000e+00
7.000000000000000000e+01,-2.443835077854847049e-01,0.000000000000000000e+00
7.100000000000000000e+01,-7.310647766040578865e-02,0.000000000000000000e+00
7.200000000000000000e+01,1.335673628291993986e-01,0.000000000000000000e+00
7.300000000000000000e+01,1.522563591717193410e-01,0.000000000000000000e+00
7.400000000000000000e+01,-1.888210393815846211e-01,0.000000000000000000e+00
7.500000000000000000e+01,-4.112676579829625811e-02,0.000000000000000000e+00
7.600000000000000000e+01,-9.299063724623893301e-02,0.000000000000000000e+00
7.700000000000000000e+01,-2.010760240837611845e-01,0.000000000000000000e+00
7.800000000000000000e+01,-2.039514824352578748e-01,0.000000000000000000e+00
7.900000000000000000e+01,-2.221471956605727827e-02,0.000000000000000000e+00
8.000000000000000000e+01,4.933369615809362480e-02,0.000000000000000000e+00
8.100000000000000000e+01,-8.526118617570695168e-02,0.000000000000000000e+00
8.200000000000000000e+01,-8.813572429065025249e-02,0.000000000000000000e+00
8.300000000000000000e+01,1.530790025072135130e-01,0.000000000000000000e+00
8.400000000000000000e+01,-9.503775472887492082e-02,0.000000000000000000e+00
8.500000000000000000e+01,4.363444473441608351e-01,0.000000000000000000e+00
8.600000000000000000e+01,-4.915299240589783569e-02,0.000000000000000000e+00
8.700000000000000000e+01,5.092933653748276113e-01,0.000000000000000000e+00
8.800000000000000000e+01,1.195536049644166515e-01,0.000000000000000000e+00
8.900000000000000000e+01,-2.013612640372156315e-01,0.000000000000000000e+00
9.000000000000000000e+01,-3.830387844361031746e-01,0.000000000000000000e+00
9.100000000000000000e+01,7.270887313786633666e-02,0.000000000000000000e+00
9.200000000000000000e+01,-4.684426271384367069e-01,0.000000000000000000e+00
9.300000000000000000e+01,-2.878645355271801376e-02,0.000000000000000000e+00
9.400000000000000000e+01,-2.547899482790203507e-01,0.000000000000000000e+00
9.500000000000000000e+01,8.712984013339708511e-02,0.000000000000000000e+00
9.600000000000000000e+01,-1.068747546498698409e-01,0.000000000000000000e+00
9.700000000000000000e+01,1.567286964025379203e-01,0.000000000000000000e+00
9.800000000000000000e+01,5.475417822773787968e+00,0.000000000000000000e+00
9.900000000000000000e+01,2.033704600108539928e+00,1.000000000000000000e+00
1.000000000000000000e+02,-1.943981448010314139e+00,0.000000000000000000e+00
1.010000000000000000e+02,-1.225275961850599282e+00,0.000000000000000000e+00
1.020000000000000000e+02,-1.404489002687573818e+00,0.000000000000000000e+00
1.030000000000000000e+02,-1.004762105724341881e+00,0.000000000000000000e+00
1.040000000000000000e+02,-1.087953113826309437e+00,0.000000000000000000e+00
1.050000000000000000e+02,-3.151304073547523399e-01,0.000000000000000000e+00
1.060000000000000000e+02,-1.385001677129171105e+00,0.000000000000000000e+00
1.070000000000000000e+02,-3.970095258344443767e-01,0.000000000000000000e+00
1.080000000000000000e+02,-2.911900736225006003e-01,0.000000000000000000e+00
1.090000000000000000e+02,-7.007777572567207569e-01,0.000000000000000000e+00
1.100000000000000000e+02,-8.274238366396573230e-02,0.000000000000000000e+00
1.110000000000000000e+02,-1.371578803133837419e-02,0.000000000000000000e+00
1.120000000000000000e+02,-2.766687936087333100e-01,0.000000000000000000e+00
1.130000000000000000e+02,8.177821398731816016e-01,0.000000000000000000e+00
1.140000000000000000e+02,4.137862464269965179e-01,0.000000000000000000e+00
1.150000000000000000e+02,1.149878463799117734e+00,0.000000000000000000e+00
1.160000000000000000e+02,2.087189865347820195e-01,0.000000000000000000e+00
1.170000000000000000e+02,9.027704620828488347e-01,0.000000000000000000e+00
1.180000000000000000e+02,2.784185690284656789e-01,0.000000000000000000e+00
1.190000000000000000e+02,1.500839057243550101e-01,0.000000000000000000e+00
1.200000000000000000e+02,-6.644201458048565323e-02,0.000000000000000000e+00
1.210000000000000000e+02,-2.036516094467773208e-01,0.000000000000000000e+00
1.220000000000000000e+02,-2.942197515496429716e-01,0.000000000000000000e+00
1.230000000000000000e+02,-1.312418671219748034e-01,0.000000000000000000e+00
1.240000000000000000e+02,-1.521628464777860512e-01,0.000000000000000000e+00
1.250000000000000000e+02,-9.114432516479252511e-02,0.000000000000000000e+00
1.260000000000000000e+02,-2.222237118118390309e-01,0.000000000000000000e+00
1.270000000000000000e+02,-1.237282064906345194e-02,0.000000000000000000e+00
1.280000000000000000e+02,-2.472472842534913229e-01,0.000000000000000000e+00
1.290000000000000000e+02,-1.671881073945531704e-01,0.000000000000000000e+00
1.300000000000000000e+02,-2.931735081833506396e-01,0.000000000000000000e+00
1.310000000000000000e+02,9.714695026720143733e-02,0.000000000000000000e+00
1.320000000000000000e+02,-3.275567087405120148e-01,0.000000000000000000e+00
1.330000000000000000e+02,-1.480173963477845467e-01,0.000000000000000000e+00
1.340000000000000000e+02,1.107337593073319942e-01,0.000000000000000000e+00
1.350000000000000000e+02,1.319988726705666193e-01,0.000000000000000000e+00
1.360000000000000000e+02,-4.186164362559597896e-01,0.000000000000000000e+00
1.370000000000000000e+02,1.994868828749372103e-01,0.000000000000000000e+00
1.380000000000000000e+02,1.939077945828122929e-01,0.000000000000000000e+00
1.390000000000000000e+02,3.957129144744415128e-01,0.000000000000000000e+00
1.400000000000000000e+02,-5.090906332790595679e-02,0.000000000000000000e+00
1.410000000000000000e+02,-3.427620584516566926e-01,0.000000000000000000e+00
1.420000000000000000e+02,-4.229190790773646458e-01,0.000000000000000000e+00
1.430000000000000000e+02,-2.331611016882714493e-01,0.000000000000000000e+00
1.440000000000000000e+02,-2.855646343815052557e-01,0.000000000000000000e+00
1.450000000000000000e+02,2.210577826282225378e-01,0.000000000000000000e+00
1.460000000000000000e+02,-4.429236271802637903e-01,0.000000000000000000e+00
1.470000000000000000e+02,1.806731656074774678e-02,0.000000000000000000e+00
1.480000000000000000e+02,-4.761764434874195540e-01,0.000000000000000000e+00
1.490000000000000000e+02,2.880976836515229511e+00,0.000000000000000000e+00
1.500000000000000000e+02,5.686848579073934928e+00,0.000000000000000000e+00
1.510000000000000000e+02,-8.945693114722128580e-01,1.000000000000000000e+00
1.520000000000000000e+02,-1.480721984228296817e+00,0.000000000000000000e+00
1.530000000000000000e+02,-1.238946832774630691e+00,0.000000000000000000e+00
1.540000000000000000e+02,-1.144422056927032250e+00,0.000000000000000000e+00
1.550000000000000000e+02,-1.241451705478968659e+00,0.000000000000000000e+00
1.560000000000000000e+02,-8.464952633451544584e-01,0.000000000000000000e+00
1.570000000000000000e+02,-8.504128212796415731e-01,0.000000000000000000e+00
1.580000000000000000e+02,-8.166085962406050003e-01,0.000000000000000000e+00
1.590000000000000000e+02,-6.214336078058125823e-01,0.000000000000000000e+00
1.600000000000000000e+02,-2.487470408682734280e-01,0.000000000000000000e+00
1.610000000000000000e+02,-4.545169910310354888e-01,0.000000000000000000e+00
1.620000000000000000e+02,-1.434451802745429494e-01,0.000000000000000000e+00
1.630000000000000000e+02,-7.647952170069069466e-02,0.000000000000000000e+00
1.640000000000000000e+02,3.691184450270419970e-01,0.000000000000000000e+00
1.650000000000000000e+02,6.360497027395926040e-01,0.000000000000000000e+00
1.660000000000000000e+02,8.831526320310451039e-01,0.000000000000000000e+00
1.670000000000000000e+02,6.176074013934337303e-01,0.000000000000000000e+00
1.680000000000000000e+02,6.739407849688567875e-01,0.000000000000000000e+00
1.690000000000000000e+02,8.569351390368529220e-01,0.000000000000000000e+00
1.700000000000000000e+02,4.860892634587768435e-01,0.000000000000000000e+00
1.710000000000000000e+02,1.615033208834493195e-02,0.000000000000000000e+00
1.720000000000000000e+02,2.574291357967199365e-02,0.000000000000000000e+00
1.730000000000000000e+02,2.192714613306972482e-01,0.000000000000000000e+00
1.740000000000000000e+02,-2.721205151069749917e-01,0.000000000000000000e+00
1.750000000000000000e+02,-2.007913456250214612e-01,0.000000000000000000e+00
1.760000000000000000e+02,1.144292404333755730e-01,0.000000000000000000e+00
1.770000000000000000e+02,3.813308516884376942e-02,0.000000000000000000e+00
1.780000000000000000e+02,2.327664961626195739e-01,0.000000000000000000e+00
1.790000000000000000e+02,-1.252239820590517194e-01,0.000000000000000000e+00
1.800000000000000000e+02,-2.024107623339251039e-01,0.000000000000000000e+00
1.810000000000000000e+02,5.461093647194695949e-02,0.000000000000000000e+00
1.820000000000000000e+02,-2.975840364638965285e-02,0.000000000000000000e+00
1.830000000000000000e+02,-6.556055615182529439e-02,0.000000000000000000e+00
1.840000000000000000e+02,-2.045997951022330771e-02,0.000000000000000000e+00
1.850000000000000000e+02,-1.382385174599420063e-01,0.000000000000000000e+00
1.860000000000000000e+02,-1.085778820752385937e-01,0.000000000000000000e+00
1.870000000000000000e+02,2.783668662421677764e-01,0.000000000000000000e+00
1.880000000000000000e+02,-3.631566104279219248e-02,0.000000000000000000e+00
1.890000000000000000e+02,3.277873495516894220e-01,0.000000000000000000e+00
1.900000000000000000e+02,2.898912956359997461e-01,0.000000000000000000e+00
1.910000000000000000e+02,1.704006816448693229e-01,0.000000000000000000e+00
1.920000000000000000e+02,-1.627050219440502876e-01,0.000000000000000000e+00
1.930000000000000000e+02,-1.281899371228664986e-01,0.000000000000000000e+00
1.940000000000000000e+02,-5.703331034352731033e-01,0.000000000000000000e+00
1.950000000000000000e+02,-2.463651246707162512e-01,0.000000000000000000e+00
1.960000000000000000e+02,-1.039015257037896184e-01,0.000000000000000000e+00
1.970000000000000000e+02,-2.263157601622993731e-01,0.000000000000000000e+00
1.980000000000000000e+02,-1.918347087688611063e-01,0.000000000000000000e+00
1.990000000000000000e+02,-1.425576649670516616e-01,0.000000000000000000e+00
2.000000000000000000e+02,-2.667611059659273920e-01,0.000000000000000000e+00
2.010000000000000000e+02,5.883946176073760803e+00,0.000000000000000000e+00
2.020000000000000000e+02,2.489066452515492855e+00,1.000000000000000000e+00
2.030000000000000000e+02,-2.162186324179903085e+00,0.000000000000000000e+00
2.040000000000000000e+02,-1.181869334795090376e+00,0.000000000000000000e+00
2.050000000000000000e+02,-1.470111569777424965e+00,0.000000000000000000e+00
2.060000000000000000e+02,-1.183165609830330922e+00,0.000000000000000000e+00
2.070000000000000000e+02,-1.266424581345649836e+00,0.000000000000000000e+00
2.080000000000000000e+02,-6.436190915378617872e-01,0.000000000000000000e+00
2.090000000000000000e+02,-9.928491891766649813e-01,0.000000000000000000e+00
2.100000000000000000e+02,-6.162495679815991334e-01,0.000000000000000000e+00
2.110000000000000000e+02,-9.054559597863069964e-01,0.000000000000000000e+00
2.120000000000000000e+02,-3.919680350146021452e-01,0.000000000000000000e+00
2.130000000000000000e+02,-4.313514720723740647e-01,0.000000000000000000e+00
2.140000000000000000e+02,-1.435914639679173321e-01,0.000000000000000000e+00
2.150000000000000000e+02,6.095898047785374557e-02,0.000000000000000000e+00
2.160000000000000000e+02,4.353718570182987802e-01,0.000000000000000000e+00
2.170000000000000000e+02,5.664402008945267353e-01,0.000000000000000000e+00
2.180000000000000000e+02,6.839936136941079381e-01,0.000000000000000000e+00
2.190000000000000000e+02,5.713930730323806273e-01,0.000000000000000000e+00
2.200000000000000000e+02,8.458867201967543714e-01,0.000000000000000000e+00
2.210000000000000000e+02,4.957884721306722864e-01,0.000000000000000000e+00
2.220000000000000000e+02,2.416357153972855387e-01,0.000000000000000000e+00
2.230000000000000000e+02,-1.167013328393050747e-01,0.000000000000000000e+00
2.240000000000000000e+02,6.058769463390126925e-02,0.000000000000000000e+00
2.250000000000000000e+02,-2.261844536402117245e-01,0.000000000000000000e+00
2.260000000000000000e+02,-2.442405854796308173e-01,0.000000000000000000e+00
2.270000000000000000e+02,1.784954908587094158e-01,0.000000000000000000e+00
2.280000000000000000e+02,-2.548790968531258749e-01,0.000000000000000000e+00
2.290000000000000000e+02,4.116193945217572897e-02,0.000000000000000000e+00
2.300000000000000000e+02,-7.343373009817036334e-02,0.000000000000000000e+00
2.310000000000000000e+02,-2.335140481789839961e-01,0.000000000000000000e+00
2.320000000000000000e+02,-8.162754382754296156e-02,0.000000000000000000e+00
2.330000000000000000e+02,6.782095336049397127e-02,0.000000000000000000e+00
2.340000000000000000e+02,-1.493712654239102711e-01,0.000000000000000000e+00
2.350000000000000000e+02,-1.110074666657976800e-01,0.000000000000000000e+00
2.360000000000000000e+02,-1.944436837503057125e-01,0.000000000000000000e+00
2.370000000000000000e+02,6.831744189209579265e-02,0.000000000000000000e+00
2.380000000000000000e+02,3.521432258830698575e-02,0.000000000000000000e+00
2.390000000000000000e+02,1.539437706066360684e-02,0.000000000000000000e+00
2.400000000000000000e+02,2.096309008051367440e-01,0.000000000000000000e+00
2.410000000000000000e+02,3.977968637431864574e-01,0.000000000000000000e+00
2.420000000000000000e+02,1.778436219849914290e-01,0.000000000000000000e+00
2.430000000000000000e+02,2.411299100075391388e-01,0.000000000000000000e+00
2.440000000000000000e+02,-1.918682003658450652e-01,0.000000000000000000e+00
2.450000000000000000e+02,-2.901939083365143168e-01,0.000000000000000000e+00
2.460000000000000000e+02,-2.311857495992005740e-01,0.000000000000000000e+00
2.470000000000000000e+02,-4.271248954326698488e-01,0.000000000000000000e+00
2.480000000000000000e+02,7.078008794440542040e-02,0.000000000000000000e+00
2.490000000000000000e+02,-4.015141456437502643e-01,0.000000000000000000e+00
2.500000000000000000e+02,2.034141568185022231e-01,0.000000000000000000e+00
2.510000000000000000e+02,-4.043091141385607989e-01,0.000000000000000000e+00
2.520000000000000000e+02,1.511931290827651209e+00,0.000000000000000000e+00
2.530000000000000000e+02,5.995081843723045978e+00,0.000000000000000000e+00
2.540000000000000000e+02,4.226483609422367338e-01,1.000000000000000000e+00
2.550000000000000000e+02,-1.929158320751145350e+00,0.000000000000000000e+00
2.560000000000000000e+02,-1.085917322352630165e+00,0.000000000000000000e+00
2.570000000000000000e+02,-1.280404010351806399e+00,0.000000000000000000e+00
2.580000000000000000e+02,-1.089756815590051220e+00,0.000000000000000000e+00
2.590000000000000000e+02,-9.696880080483645248e-01,0.000000000000000000e+00
2.600000000000000000e+02,-1.022138421509632522e+00,0.000000000000000000e+00
2.610000000000000000e+02,-7.136044732047100991e-01,0.000000000000000000e+00
2.620000000000000000e+02,-5.746837183611104294e-01,0.000000000000000000e+00
2.630000000000000000e+02,-6.467386796201461951e-01,0.000000000000000000e+00
2.640000000000000000e+02,-6.044588172604496712e-02,0.000000000000000000e+00
2.650000000000000000e+02,-8.038421205921759960e-02,0.000000000000000000e+00
2.660000000000000000e+02,1.155596694857711076e-01,0.000000000000000000e+00
2.670000000000000000e+02,2.193356014975567092e-01,0.000000000000000000e+00
2.680000000000000000e+02,6.162476935178414772e-01,0.000000000000000000e+00
2.690000000000000000e+02,9.505707215030992918e-01,0.000000000000000000e+00
2.700000000000000000e+02,6.858845359881713399e-01,0.000000000000000000e+00
2.710000000000000000e+02,7.024082434310670031e-01,0.000000000000000000e+00
2.720000000000000000e+02,8.388190542923458226e-01,0.000000000000000000e+00
2.730000000000000000e+02,6.028848772521081534e-01,0.000000000000000000e+00
2.740000000000000000e+02,1.270817650353294470e-01,0.000000000000000000e+00
2.750000000000000000e+02,1.699278234166888002e-01,0.000000000000000000e+00
2.760000000000000000e+02,2.364729561809537917e-01,0.000000000000000000e+00
2.770000000000000000e+02,-4.373772504880120704e-01,0.000000000000000000e+00
2.780000000000000000e+02,-3.023012839946652430e-02,0.000000000000000000e+00
2.790000000000000000e+02,-1.021184716612703186e-01,0.000000000000000000e+00
2.800000000000000000e+02,-7.007912849672134556e-03,0.000000000000000000e+00
2.810000000000000000e+02,-1.457326794445115981e-01,0.000000000000000000e+00
2.820000000000000000e+02,6.974505151404063186e-02,0.000000000000000000e+00
2.830000000000000000e+02,-1.362953445869116154e-01,0.000000000000000000e+00
2.840000000000000000e+02,-1.816132179528525681e-01,0.000000000000000000e+00
2.850000000000000000e+02,2.530662181283431858e-02,0.000000000000000000e+00
2.860000000000000000e+02,-7.819752318187812856e-02,0.000000000000000000e+00
2.870000000000000000e+02,-2.760163014868765585e-01,0.000000000000000000e+00
2.880000000000000000e+02,-9.263326384805721514e-02,0.000000000000000000e+00
2.890000000000000000e+02,9.609149555976054247e-03,0.000000000000000000e+00
2.900000000000000000e+02,-1.750638252484098059e-02,0.000000000000000000e+00
2.910000000000000000e+02,-5.932577222008468543e-02,0.000000000000000000e+00
2.920000000000000000e+02,2.026603200350107215e-01,0.000000000000000000e+00
2.930000000000000000e+02,2.042797387190750658e-01,0.000000000000000000e+00
2.940000000000000000e+02,3.881144353966390348e-01,0.000000000000000000e+00
2.950000000000000000e+02,-9.497608013587560682e-02,0.000000000000000000e+00
2.960000000000000000e+02,-2.149310392296864547e-01,0.000000000000000000e+00
2.970000000000000000e+02,-4.049038527350148353e-01,0.000000000000000000e+00
2.980000000000000000e+02,-1.777389287243786795e-02,0.000000000000000000e+00
2.990000000000000000e+02,-4.471357813601869458e-01,0.000000000000000000e+00
3.000000000000000000e+02,-2.395308593544631104e-01,0.000000000000000000e+00
3.010000000000000000e+02,-1.303629321117159845e-01,0.000000000000000000e+00
3.020000000000000000e+02,3.892800707117703707e-02,0.000000000000000000e+00
3.030000000000000000e+02,-5.825879398356711425e-01,0.000000000000000000e+00
3.040000000000000000e+02,3.337659817285671071e+00,0.000000000000000000e+00
3.050000000000000000e+02,4.858812417964771591e+00,0.000000000000000000e+00
3.060000000000000000e+02,-1.275110465024948070e+00,1.000000000000000000e+00
3.070000000000000000e+02,-1.565549589513132389e+00,0.000000000000000000e+00
3.080000000000000000e+02,-1.352900063088010807e+00,0.000000000000000000e+00
3.090000000000000000e+02,-9.835268488091044592e-01,0.000000000000000000e+00
3.100000000000000000e+02,-1.246701158010631971e+00,0.000000000000000000e+00
3.110000000000000000e+02,-7.818579043889937186e-01,0.000000000000000000e+00
3.120000000000000000e+02,-8.492697169431321358e-01,0.000000000000000000e+00
3.130000000000000000e+02,-6.529724366161727689e-01,0.000000000000000000e+00
3.140000000000000000e+02,-6.062194772392029973e-01,0.000000000000000000e+00
3.150000000000000000e+02,-4.413041598585156766e-01,0.000000000000000000e+00
3.160000000000000000e+02,-2.972477615555563779e-01,0.000000000000000000e+00
3.170000000000000000e+02,-2.055465611992609576e-01,0.000000000000000000e+00
3.180000000000000000e+02,-2.339196710886926878e-01,0.000000000000000000e+00
3.190000000000000000e+02,3.189139022751914521e-01,0.000000000000000000e+00
3.200000000000000000e+02,5.541947998667150488e-01,0.000000000000000000e+00
3.210000000000000000e+02,6.028016482801216158e-01,0.000000000000000000e+00
3.220000000000000000e+02,6.556495897732866895e-01,0.000000000000000000e+00
3.230000000000000000e+02,7.344377488992207548e-01,0.000000000000000000e+00
3.240000000000000000e+02,5.931645905989073597e-01,0.000000000000000000e+00
3.250000000000000000e+02,2.104672272587192194e-01,0.000000000000000000e+00
3.260000000000000000e+02,-3.357140693065625847e-02,0.000000000000000000e+00
3.270000000000000000e+02,-2.121361405974147851e-01,0.000000000000000000e+00
3.280000000000000000e+02,-1.814017435585575100e-01,0.000000000000000000e+00
3.290000000000000000e+02,-3.292495179941852257e-01,0.000000000000000000e+00
3.300000000000000000e+02,-1.863151593638280312e-01,0.000000000000000000e+00
3.310000000000000000e+02,-2.004997074237917787e-01,0.000000000000000000e+00
3.320000000000000000e+02,-4.837764208543512967e-02,0.000000000000000000e+00
3.330000000000000000e+02,-8.482486157142390959e-02,0.000000000000000000e+00
3.340000000000000000e+02,-1.644152251912132656e-01,0.000000000000000000e+00
3.350000000000000000e+02,-7.537896484050721213e-02,0.000000000000000000e+00
3.360000000000000000e+02,-2.138673276788221334e-01,0.000000000000000000e+00
3.370000000000000000e+02,-1.118516197115121680e-01,0.000000000000000000e+00
3.380000000000000000e+02,-1.333767070430120529e-02,0.000000000000000000e+00
3.390000000000000000e+02,-3.140130703090762143e-01,0.000000000000000000e+00
3.400000000000000000e+02,1.029883125432117241e-01,0.000000000000000000e+00
3.410000000000000000e+02,4.665211324118516412e-02,0.000000000000000000e+00
3.420000000000000000e+02,-1.218555634410597860e-01,0.000000000000000000e+00
3.430000000000000000e+02,2.512608524171486835e-01,0.000000000000000000e+00
3.440000000000000000e+02,2.230417312196363022e-01,0.000000000000000000e+00
3.450000000000000000e+02,2.622082647825015878e-01,0.000000000000000000e+00
3.460000000000000000e+02,2.240758511799313957e-01,0.000000000000000000e+00
3.470000000000000000e+02,-1.114059345445568422e-01,0.000000000000000000e+00
3.480000000000000000e+02,-4.539192961093710954e-01,0.000000000000000000e+00
3.490000000000000000e+02,-5.691660192227390030e-02,0.000000000000000000e+00
3.500000000000000000e+02,-4.709109994449530712e-01,0.000000000000000000e+00
3.510000000000000000e+02,8.400699945689711623e-02,0.000000000000000000e+00
3.520000000000000000e+02,-2.747265986451216113e-01,0.000000000000000000e+00
3.530000000000000000e+02,-7.616751142652700146e-02,0.000000000000000000e+00
3.540000000000000000e+02,-7.582116321519698221e-02,0.000000000000000000e+00
3.550000000000000000e+02,1.356353792317892104e+00,0.000000000000000000e+00
3.560000000000000000e+02,6.080180123079858667e+00,0.000000000000000000e+00
3.570000000000000000e+02,1.876203948816831113e-01,1.000000000000000000e+00
3.580000000000000000e+02,-1.756493938757095474e+00,0.000000000000000000e+00
3.590000000000000000e+02,-1.206414534555683815e+00,0.000000000000000000e+00
3.600000000000000000e+02,-1.301193215113830126e+00,0.000000000000000000e+00
3.610000000000000000e+02,-7.149464075479854408e-01,0.000000000000000000e+00
3.620000000000000000e+02,-1.362866883249908678e+00,0.000000000000000000e+00
3.630000000000000000e+02,-5.606188181862701292e-01,0.000000000000000000e+00
3.640000000000000000e+02,-9.154760035546947172e-01,0.000000000000000000e+00
3.650000000000000000e+02,-3.376872043062276174e-01,0.000000000000000000e+00
3.660000000000000000e+02,-2.651136036469446955e-01,0.000000000000000000e+00
3.670000000000000000e+02,-7.023791534752875654e-01,0.000000000000000000e+00
3.680000000000000000e+02,-2.089752937803418253e-01,0.000000000000000000e+00
3.690000000000000000e+02,-1.503788536578566093e-01,0.000000000000000000e+00
3.700000000000000000e+02,2.809342758939396001e-01,0.000000000000000000e+00
3.710000000000000000e+02,6.484839907521324776e-01,0.000000000000000000e+00
3.720000000000000000e+02,5.989753999484787039e-01,0.000000000000000000e+00
3.730000000000000000e+02,5.362012387856525120e-01,0.000000000000000000e+00
3.740000000000000000e+02,7.879160014712131010e-01,0.000000000000000000e+00
3.750000000000000000e+02,7.501726372503034757e-01,0.000000000000000000e+00
3.760000000000000000e+02,5.932809558421251461e-01,0.000000000000000000e+00
3.770000000000000000e+02,9.458561551081585972e-02,0.000000000000000000e+00
3.780000000000000000e+02,1.813402946844887842e-01,0.000000000000000000e+00
3.790000000000000000e+02,-1.173334309124765829e-01,0.000000000000000000e+00
3.800000000000000000e+02,-1.891192813928386229e-01,0.000000000000000000e+00
3.810000000000000000e+02,5.399258061749394322e-02,0.000000000000000000e+00
3.820000000000000000e+02,-3.793974606475939426e-01,0.000000000000000000e+00
3.830000000000000000e+02,1.987541710991025945e-01,0.000000000000000000e+00
3.840000000000000000e+02,2.042212564410555153e-01,0.000000000000000000e+00
3.850000000000000000e+02,-9.562054800069760829e-02,0.000000000000000000e+00
3.860000000000000000e+02,-3.574658125602044739e-02,0.000000000000000000e+00
3.870000000000000000e+02,-3.120166052611865123e-02,0.000000000000000000e+00
3.880000000000000000e+02,-4.110328029773248348e-02,0.000000000000000000e+00
3.890000000000000000e+02,2.329288949483920290e-01,0.000000000000000000e+00
3.900000000000000000e+02,-2.322705512398800798e-01,0.000000000000000000e+00
3.910000000000000000e+02,1.028585207625165726e-01,0.000000000000000000e+00
3.920000000000000000e+02,9.916520764584192682e-02,0.000000000000000000e+00
3.930000000000000000e+02,1.921602402672801801e-01,0.000000000000000000e+00
3.940000000000000000e+02,8.233617269374349235e-02,0.000000000000000000e+00
3.950000000000000000e+02,3.130242291672182819e-01,0.000000000000000000e+00
3.960000000000000000e+02,2.502058195608267144e-01,0.000000000000000000e+00
3.970000000000000000e+02,4.250585240373880858e-01,0.000000000000000000e+00
3.980000000000000000e+02,-1.055830648244614756e-01,0.000000000000000000e+00
3.990000000000000000e+02,-8.382101714169530593e-02,0.000000000000000000e+00
4.000000000000000000e+02,-6.724634598968652899e-01,0.000000000000000000e+00
4.010000000000000000e+02,1.586152983059401778e-01,0.000000000000000000e+00
4.020000000000000000e+02,-4.836507294221942810e-01,0.000000000000000000e+00
4.030000000000000000e+02,9.458667483448360280e-02,0.000000000000000000e+00
4.040000000000000000e+02,-2.228531628029019607e-01,0.000000000000000000e+00
4.050000000000000000e+02,2.518963575722679704e-01,0.000000000000000000e+00
4.060000000000000000e+02,-4.864226482287601350e-01,0.000000000000000000e+00
4.070000000000000000e+02,4.341403446114748377e+00,0.000000000000000000e+00
4.080000000000000000e+02,4.130268143331083941e+00,0.000000000000000000e+00
4.090000000000000000e+02,-1.643319531654316101e+00,1.000000000000000000e+00
4.100000000000000000e+02,-1.131979882620667510e+00,0.000000000000000000e+00
4.110000000000000000e+02,-1.534431907318990929e+00,0.000000000000000000e+00
4.120000000000000000e+02,-1.143368228844391821e+00,0.000000000000000000e+00
4.130000000000000000e+02,-1.124650677719082559e+00,0.000000000000000000e+00
4.140000000000000000e+02,-6.721422296550714215e-01,0.000000000000000000e+00
4.150000000000000000e+02,-7.889754130862258741e-01,0.000000000000000000e+00
4.160000000000000000e+02,-7.164755095396396767e-01,0.000000000000000000e+00
4.170000000000000000e+02,-7.578709470245378332e-01,0.000000000000000000e+00
4.180000000000000000e+02,-4.019921422975724079e-01,0.000000000000000000e+00
4.190000000000000000e+02,-6.685497597474389098e-01,0.000000000000000000e+00
4.200000000000000000e+02,-4.593013953295643770e-02,0.000000000000000000e+00
4.210000000000000000e+02,-1.414237452954776042e-01,0.000000000000000000e+00
4.220000000000000000e+02,5.220037260954827341e-01,0.000000000000000000e+00
4.230000000000000000e+02,5.613585462084283995e-01,0.000000000000000000e+00
4.240000000000000000e+02,7.198402884168224602e-01,0.000000000000000000e+00
4.250000000000000000e+02,5.711385254926801824e-01,0.000000000000000000e+00
4.260000000000000000e+02,6.853675923388009572e-01,0.000000000000000000e+00
4.270000000000000000e+02,7.040485106538761917e-01,0.000000000000000000e+00
4.280000000000000000e+02,2.631601453306112171e-01,0.000000000000000000e+00
4.290000000000000000e+02,1.018127225444687145e-02,0.000000000000000000e+00
4.300000000000000000e+02,-1.938821019063031725e-01,0.000000000000000000e+00
4.310000000000000000e+02,-2.608833426173777781e-01,0.000000000000000000e+00
4.320000000000000000e+02,-1.020007424815181779e-01,0.000000000000000000e+00
4.330000000000000000e+02,-1.974492608890288381e-01,0.000000000000000000e+00
4.340000000000000000e+02,-1.192509146133149955e-01,0.000000000000000000e+00
4.350000000000000000e+02,-2.336714806444456505e-01,0.000000000000000000e+00
4.360000000000000000e+02,-1.022589967965360953e-02,0.000000000000000000e+00
4.370000000000000000e+02,-2.211877761546386656e-01,0.000000000000000000e+00
4.380000000000000000e+02,-5.410808272418819731e-02,0.000000000000000000e+00
4.390000000000000000e+02,-1.696271267528298710e-01,0.000000000000000000e+00
4.400000000000000000e+02,-7.453416761495029741e-02,0.000000000000000000e+00
4.410000000000000000e+02,-4.280872176318246125e-01,0.000000000000000000e+00
4.420000000000000000e+02,1.571383129330203299e-02,0.000000000000000000e+00
4.430000000000000000e+02,-1.853599006189729781e-01,0.000000000000000000e+00
4.440000000000000000e+02,2.106248759333820553e-01,0.000000000000000000e+00
4.450000000000000000e+02,6.887852930520460548e-02,0.000000000000000000e+00
4.460000000000000000e+02,-2.232504000887932383e-01,0.000000000000000000e+00
4.470000000000000000e+02,3.373002612754687907e-02,0.000000000000000000e+00
4.480000000000000000e+02,3.498256272064495520e-01,0.000000000000000000e+00
4.490000000000000000e+02,1.500888082903938658e-01,0.000000000000000000e+00
4.500000000000000000e+02,-3.856152827523638971e-01,0.000000000000000000e+00
4.510000000000000000e+02,-6.757303485900935103e-01,0.000000000000000000e+00
4.520000000000000000e+02,4.064180576919698001e-02,0.000000000000000000e+00
4.530000000000000000e+02,-4.467110203397084978e-01,0.000000000000000000e+00
4.540000000000000000e+02,-2.525228942105325336e-01,0.000000000000000000e+00
4.550000000000000000e+02,-3.384678151977010274e-01,0.000000000000000000e+00
4.560000000000000000e+02,2.266781831227403232e-01,0.000000000000000000e+00
4.570000000000000000e+02,-6.507651098760482977e-01,0.000000000000000000e+00
4.580000000000000000e+02,2.223084382128191816e+00,0.000000000000000000e+00
4.590000000000000000e+02,5.738308524337773164e+00,0.000000000000000000e+00
4.600000000000000000e+02,-6.654566401305535006e-01,1.000000000000000000e+00
4.610000000000000000e+02,-1.767328559441647462e+00,0.000000000000000000e+00
4.620000000000000000e+02,-1.175137809559789748e+00,0.000000000000000000e+00
4.630000000000000000e+02,-1.279402780739843148e+00,0.000000000000000000e+00
4.640000000000000000e+02,-1.029338571051393147e+00,0.000000000000000000e+00
4.650000000000000000e+02,-8.083913935074991119e-01,0.000000000000000000e+00
4.660000000000000000e+02,-6.009272377735754844e-01,0.000000000000000000e+00
4.670000000000000000e+02,-7.242195423469228732e-01,0.000000000000000000e+00
4.680000000000000000e+02,-7.987718922676493305e-01,0.000000000000000000e+00
4.690000000000000000e+02,-6.988509202758054484e-02,0.000000000000000000e+00
4.700000000000000000e+02,-5.224359429894742668e-01,0.000000000000000000e+00
4.710000000000000000e+02,-1.219722489734041265e-01,0.000000000000000000e+00
4.720000000000000000e+02,1.003841505340105772e-01,0.000000000000000000e+00
4.730000000000000000e+02,5.266508366592971280e-01,0.000000000000000000e+00
4.740000000000000000e+02,4.558072316538519519e-01,0.000000000000000000e+00
4.750000000000000000e+02,6.922614764560420797e-01,0.000000000000000000e+00
4.760000000000000000e+02,9.281515609887037721e-01,0.000000000000000000e+00
4.770000000000000000e+02,6.545546400602132442e-01,0.000000000000000000e+00
4.780000000000000000e+02,8.128884949462734655e-01,0.000000000000000000e+00
4.790000000000000000e+02,4.459434483637208513e-01,0.000000000000000000e+00
4.800000000000000000e+02,1.493701759176803701e-01,0.000000000000000000e+00
4.810000000000000000e+02,-1.309955086365615917e-01,0.000000000000000000e+00
4.820000000000000000e+02,-8.007026195801773827e-02,0.000000000000000000e+00
4.830000000000000000e+02,-1.553149615471206280e-01,0.000000000000000000e+00
4.840000000000000000e+02,-1.288512375959071643e-01,0.000000000000000000e+00
4.850000000000000000e+02,4.606748385669365980e-02,0.000000000000000000e+00
4.860000000000000000e+02,-1.026277607975275008e-01,0.000000000000000000e+00
4.870000000000000000e+02,3.236828752018978267e-02,0.000000000000000000e+00
4.880000000000000000e+02,1.135294699018256082e-01,0.000000000000000000e+00
4.890000000000000000e+02,-2.252817216785777954e-01,0.000000000000000000e+00
4.900000000000000000e+02,1.833132406953068561e-01,0.000000000000000000e+00
4.910000000000000000e+02,-1.094233065678326816e-01,0.000000000000000000e+00
4.920000000000000000e+02,1.286065266423519760e-01,0.000000000000000000e+00
4.930000000000000000e+02,-5.370093810637368431e-02,0.000000000000000000e+00
4.940000000000000000e+02,-1.897886694848673408e-02,0.000000000000000000e+00
4.950000000000000000e+02,-8.154492029213951387e-02,0.000000000000000000e+00
4.960000000000000000e+02,1.948155343956586849e-01,0.000000000000000000e+00
4.970000000000000000e+02,3.341528567057981403e-01,0.000000000000000000e+00
4.980000000000000000e+02,3.126786840924143385e-01,0.000000000000000000e+00
4.990000000000000000e+02,2.891746272763106029e-01,0.000000000000000000e+00
5.000000000000000000e+02,3.835828770626052986e-01,0.000000000000000000e+00
5.010000000000000000e+02,9.671611076924770123e-02,0.000000000000000000e+00
5.020000000000000000e+02,-3.070731690348532661e-01,0.000000000000000000e+00
5.030000000000000000e+02,-1.419491783916752847e-01,0.000000000000000000e+00
5.040000000000000000e+02,2.905275972253786032e-02,0.000000000000000000e+00
5.050000000000000000e+02,-1.828362325612963302e-01,0.000000000000000000e+00
5.060000000000000000e+02,-2.737112477612664851e-01,0.000000000000000000e+00
5.070000000000000000e+02,-1.799504856687144383e-01,0.000000000000000000e+00
5.080000000000000000e+02,-1.949910473883042228e-01,0.000000000000000000e+00
5.090000000000000000e+02,1.492678689663395675e+00,0.000000000000000000e+00
5.100000000000000000e+02,5.883374236695654957e+00,0.000000000000000000e+00
5.110000000000000000e+02,1.176234108678585839e-03,1.000000000000000000e+00
5.120000000000000000e+02,-1.874663422357188969e+00,0.000000000000000000e+00
5.130000000000000000e+02,-1.152055468313914366e+00,0.000000000000000000e+00
5.140000000000000000e+02,-1.239364190502004304e+00,0.000000000000000000e+00
5.150000000000000000e+02,-9.780101142758006461e-01,0.000000000000000000e+00
5.160000000000000000e+02,-1.072737849418474054e+00,0.000000000000000000e+00
5.170000000000000000e+02,-8.270213914236115293e-01,0.000000000000000000e+00
5.180000000000000000e+02,-4.554047146411198677e-01,0.000000000000000000e+00
5.190000000000000000e+02,-8.752625889181404606e-01,0.000000000000000000e+00
5.200000000000000000e+02,-3.810697129418690876e-01,0.000000000000000000e+00
5.210000000000000000e+02,-6.536484110055074126e-01,0.000000000000000000e+00
5.220000000000000000e+02,-4.029903165024636968e-01,0.000000000000000000e+00
5.230000000000000000e+02,1.136225182450852772e-01,0.000000000000000000e+00
5.240000000000000000e+02,-1.416671140061387668e-01,0.000000000000000000e+00
5.250000000000000000e+02,6.084288839827834972e-01,0.000000000000000000e+00
5.260000000000000000e+02,4.559656561626838078e-01,0.000000000000000000e+00
5.270000000000000000e+02,6.681074933391099036e-01,0.000000000000000000e+00
5.280000000000000000e+02,5.669111613869550759e-01,0.000000000000000000e+00
5.290000000000000000e+02,7.843038542653602008e-01,0.000000000000000000e+00
5.300000000000000000e+02,3.175519500478398705e-01,0.000000000000000000e+00
5.310000000000000000e+02,-5.289743386847614234e-03,0.000000000000000000e+00
5.320000000000000000e+02,-1.245081218808053031e-01,0.000000000000000000e+00
5.330000000000000000e+02,-1.569730524063169541e-01,0.000000000000000000e+00
5.340000000000000000e+02,-2.765602538201100136e-01,0.000000000000000000e+00
5.350000000000000000e+02,-1.830553810823117855e-01,0.000000000000000000e+00
5.360000000000000000e+02,-1.671617376555180612e-01,0.000000000000000000e+00
5.370000000000000000e+02,-4.570074869309532772e-01,0.000000000000000000e+00
5.380000000000000000e+02,2.065859926296091109e-01,0.000000000000000000e+00
5.390000000000000000e+02,-2.520673677681398717e-01,0.000000000000000000e+00
5.400000000000000000e+02,1.662656401984927840e-02,0.000000000000000000e+00
5.410000000000000000e+02,-5.000804086446843932e-01,0.000000000000000000e+00
5.420000000000000000e+02,1.655180253782452260e-01,0.000000000000000000e+00
5.430000000000000000e+02,-2.816071289838769087e-01,0.000000000000000000e+00
5.440000000000000000e+02,-6.604999342814638075e-01,0.000000000000000000e+00
5.450000000000000000e+02,4.445732839545590842e-01,0.000000000000000000e+00
5.460000000000000000e+02,-5.275356917917866095e-01,0.000000000000000000e+00
5.470000000000000000e+02,8.486766282304822329e-02,0.000000000000000000e+00
5.480000000000000000e+02,1.906094549132885951e-01,0.000000000000000000e+00
5.490000000000000000e+02,-8.738819297011162293e-03,0.000000000000000000e+00
5.500000000000000000e+02,5.185417039212411039e-01,0.000000000000000000e+00
5.510000000000000000e+02,5.872615990028562036e-03,0.000000000000000000e+00
5.520000000000000000e+02,-6.229962028936298912e-01,0.000000000000000000e+00
5.530000000000000000e+02,4.230513856007959150e-01,0.000000000000000000e+00
5.540000000000000000e+02,-1.088490844173788386e+00,0.000000000000000000e+00
5.550000000000000000e+02,1.427761499481996488e-01,0.000000000000000000e+00
5.560000000000000000e+02,-5.212123333879242759e-01,0.000000000000000000e+00
5.570000000000000000e+02,6.092202941093611407e-02,0.000000000000000000e+00
5.580000000000000000e+02,-6.113183676770915786e-01,0.000000000000000000e+00
5.590000000000000000e+02,-1.228643023724663302e-01,0.000000000000000000e+00
5.600000000000000000e+02,7.488111247798340253e-01,0.000000000000000000e+00
5.610000000000000000e+02,5.988754951339443799e+00,0.000000000000000000e+00
5.620000000000000000e+02,1.000821766307314231e+00,1.000000000000000000e+00
5.630000000000000000e+02,-2.046311114153694266e+00,0.000000000000000000e+00
5.640000000000000000e+02,-1.224603791611328374e+00,0.000000000000000000e+00
5.650000000000000000e+02,-1.316483063007443777e+00,0.000000000000000000e+00
5.660000000000000000e+02,-9.175140569415056735e-01,0.000000000000000000e+00
5.670000000000000000e+02,-1.281081149475600034e+00,0.000000000000000000e+00
5.680000000000000000e+02,-7.134885511896457144e-01,0.000000000000000000e+00
5.690000000000000000e+02,-7.409337451685219511e-01,0.000000000000000000e+00
5.700000000000000000e+02,-5.954755935354849594e-01,0.000000000000000000e+00
5.710000000000000000e+02,-8.116847829359691291e-01,0.000000000000000000e+00
5.720000000000000000e+02,-3.235142047766915163e-01,0.000000000000000000e+00
5.730000000000000000e+02,-4.338260824044112285e-01,0.000000000000000000e+00
5.740000000000000000e+02,2.138169543572136788e-01,0.000000000000000000e+00
5.750000000000000000e+02,-5.354208335376760969e-02,0.000000000000000000e+00
5.760000000000000000e+02,3.734782180162333209e-01,0.000000000000000000e+00
5.770000000000000000e+02,1.198711586541424623e+00,0.000000000000000000e+00
5.780000000000000000e+02,7.802024549667313513e-01,0.000000000000000000e+00
5.790000000000000000e+02,4.587836218908654673e-01,0.000000000000000000e+00
5.800000000000000000e+02,1.148464859654652725e+00,0.000000000000000000e+00
5.810000000000000000e+02,7.724303368735719877e-01,0.000000000000000000e+00
5.820000000000000000e+02,-7.644695299220695406e-02,0.000000000000000000e+00
5.830000000000000000e+02,1.364554343677753523e-01,0.000000000000000000e+00
5.840000000000000000e+02,2.292699200973057627e-01,0.000000000000000000e+00
5.850000000000000000e+02,-7.969459374562758158e-02,0.000000000000000000e+00
5.860000000000000000e+02,-1.215026262931635931e-01,0.000000000000000000e+00
5.870000000000000000e+02,-2.218245002126582044e-01,0.000000000000000000e+00
5.880000000000000000e+02,3.270224108914894234e-01,0.000000000000000000e+00
5.890000000000000000e+02,-1.488010706222971380e-01,0.000000000000000000e+00
5.900000000000000000e+02,2.003232035718701398e-01,0.000000000000000000e+00
5.910000000000000000e+02,2.756482858691592167e-02,0.000000000000000000e+00
5.920000000000000000e+02,1.068001120658377684e-01,0.000000000000000000e+00
5.930000000000000000e+02,3.749524444190686923e-02,0.000000000000000000e+00
5.940000000000000000e+02,-2.239306914555438954e-01,0.000000000000000000e+00
5.950000000000000000e+02,4.077600940316549183e-01,0.000000000000000000e+00
5.960000000000000000e+02,-3.602157401531727587e-02,0.000000000000000000e+00
5.970000000000000000e+02,-1.507736360900225336e-01,0.000000000000000000e+00
5.980000000000000000e+02,3.448962638080669829e-01,0.000000000000000000e+00
5.990000000000000000e+02,6.768426782088352023e-02,0.000000000000000000e+00
6.000000000000000000e+02,2.577148570518723036e-01,0.000000000000000000e+00
6.010000000000000000e+02,3.651352146517511943e-01,0.000000000000000000e+00
6.020000000000000000e+02,1.420129676428099896e-01,0.000000000000000000e+00
6.030000000000000000e+02,2.437576119735379854e-01,0.000000000000000000e+00
6.040000000000000000e+02,-2.266699119978273225e-01,0.000000000000000000e+00
6.050000000000000000e+02,-2.104513780234416043e-01,0.000000000000000000e+00
6.060000000000000000e+02,-1.741965610240462925e-01,0.000000000000000000e+00
6.070000000000000000e+02,-1.660785728690211405e-01,0.000000000000000000e+00
6.080000000000000000e+02,1.253513890556494093e-01,0.000000000000000000e+00
6.090000000000000000e+02,-1.175966623982888648e-01,0.000000000000000000e+00
6.100000000000000000e+02,1.714064404781361073e-01,0.000000000000000000e+00
6.110000000000000000e+02,-6.541486080384376622e-01,0.000000000000000000e+00
6.120000000000000000e+02,4.389450956356187206e+00,0.000000000000000000e+00
6.130000000000000000e+02,4.716571201387687928e+00,0.000000000000000000e+00
6.140000000000000000e+02,-1.557170601719241043e+00,1.000000000000000000e+00
6.150000000000000000e+02,-1.277021703515299089e+00,0.000000000000000000e+00
6.160000000000000000e+02,-1.663941537744561883e+00,0.000000000000000000e+00
6.170000000000000000e+02,-9.122520920930121680e-01,0.000000000000000000e+00
6.180000000000000000e+02,-9.548155096633443861e-01,0.000000000000000000e+00
6.190000000000000000e+02,-6.053611051659558706e-01,0.000000000000000000e+00
6.200000000000000000e+02,-9.067078240271646550e-01,0.000000000000000000e+00
6.210000000000000000e+02,-6.878561313544891975e-01,0.000000000000000000e+00
6.220000000000000000e+02,-5.048896797052611074e-01,0.000000000000000000e+00
6.230000000000000000e+02,-5.705564828232984054e-01,0.000000000000000000e+00
6.240000000000000000e+02,-1.872953912091270823e-01,0.000000000000000000e+00
6.250000000000000000e+02,-6.437250594118998359e-01,0.000000000000000000e+00
6.260000000000000000e+02,1.835579282317183758e-01,0.000000000000000000e+00
6.270000000000000000e+02,-1.117319485849142292e-02,0.000000000000000000e+00
6.280000000000000000e+02,8.657741573223581844e-01,0.000000000000000000e+00
6.290000000000000000e+02,6.580523442802537204e-01,0.000000000000000000e+00
6.300000000000000000e+02,1.214093574502116551e-01,0.000000000000000000e+00
6.310000000000000000e+02,1.371999064655832434e+00,0.000000000000000000e+00
6.320000000000000000e+02,2.730063274239125093e-01,0.000000000000000000e+00
6.330000000000000000e+02,-1.013608816382623873e-01,0.000000000000000000e+00
6.340000000000000000e+02,5.086861895898698860e-01,0.000000000000000000e+00
6.350000000000000000e+02,-3.689727030171884303e-01,0.000000000000000000e+00
6.360000000000000000e+02,-3.343152424155265146e-01,0.000000000000000000e+00
6.370000000000000000e+02,-1.840485098490514115e-01,0.000000000000000000e+00
6.380000000000000000e+02,-2.248262756357438386e-01,0.000000000000000000e+00
6.390000000000000000e+02,-8.748548089938767980e-02,0.000000000000000000e+00
6.400000000000000000e+02,-4.028391323454173500e-01,0.000000000000000000e+00
6.410000000000000000e+02,-7.589204301631997940e-02,0.000000000000000000e+00
6.420000000000000000e+02,1.408869147340312822e-01,0.000000000000000000e+00
6.430000000000000000e+02,-3.774818674367957927e-01,0.000000000000000000e+00
6.440000000000000000e+02,-1.823740667919332703e-01,0.000000000000000000e+00
6.450000000000000000e+02,4.664030217873699202e-01,0.000000000000000000e+00
6.460000000000000000e+02,-6.622986238852099916e-01,0.000000000000000000e+00
6.470000000000000000e+02,1.725024546359058275e-01,0.000000000000000000e+00
6.480000000000000000e+02,2.638876203987844948e-01,0.000000000000000000e+00
6.490000000000000000e+02,-6.185748347444531836e-01,0.000000000000000000e+00
6.500000000000000000e+02,2.988826455418395756e-01,0.000000000000000000e+00
6.510000000000000000e+02,5.315317256389742173e-01,0.000000000000000000e+00
6.520000000000000000e+02,-2.747324478280434579e-01,0.000000000000000000e+00
6.530000000000000000e+02,6.527287527382062970e-01,0.000000000000000000e+00
6.540000000000000000e+02,-9.299835013165000386e-02,0.000000000000000000e+00
6.550000000000000000e+02,-1.551870173302316303e-01,0.000000000000000000e+00
6.560000000000000000e+02,-4.585606853852051690e-01,0.000000000000000000e+00
6.570000000000000000e+02,-3.239262546995943515e-01,0.000000000000000000e+00
6.580000000000000000e+02,-3.674020683883743033e-01,0.000000000000000000e+00
6.590000000000000000e+02,-1.193688948595716254e-01,0.000000000000000000e+00
6.600000000000000000e+02,-3.675134665632102671e-01,0.000000000000000000e+00
6.610000000000000000e+02,3.857572052147328900e-02,0.000000000000000000e+00
6.620000000000000000e+02,-7.288463702283787260e-01,0.000000000000000000e+00
6.630000000000000000e+02,1.666868921123558778e+00,0.000000000000000000e+00
6.640000000000000000e+02,5.863329715574212564e+00,0.000000000000000000e+00
6.650000000000000000e+02,-7.497483428315193654e-02,1.000000000000000000e+00
6.660000000000000000e+02,-2.143822300650377155e+00,0.000000000000000000e+00
6.670000000000000000e+02,-1.064604253735758066e+00,0.000000000000000000e+00
6.680000000000000000e+02,-1.355053119955025753e+00,0.000000000000000000e+00
6.690000000000000000e+02,-1.199734035650796615e+00,0.000000000000000000e+00
6.700000000000000000e+02,-9.944001056726146093e-01,0.000000000000000000e+00
6.710000000000000000e+02,-8.819102169597911045e-01,0.000000000000000000e+00
6.720000000000000000e+02,-1.047149632941691388e+00,0.000000000000000000e+00
6.730000000000000000e+02,-5.281915220016951684e-01,0.000000000000000000e+00
6.740000000000000000e+02,-8.901897566705758713e-01,0.000000000000000000e+00
6.750000000000000000e+02,-5.294365600304226094e-01,0.000000000000000000e+00
6.760000000000000000e+02,-2.592571908368139222e-01,0.000000000000000000e+00
6.770000000000000000e+02,1.316137210832853399e-01,0.000000000000000000e+00
6.780000000000000000e+02,2.824187647649868960e-01,0.000000000000000000e+00
6.790000000000000000e+02,5.511004268522682326e-01,0.000000000000000000e+00
6.800000000000000000e+02,7.908071243146784779e-01,0.000000000000000000e+00
6.810000000000000000e+02,6.617392775709827202e-01,0.000000000000000000e+00
6.820000000000000000e+02,1.026563709869413588e+00,0.000000000000000000e+00
6.830000000000000000e+02,5.878999097111793359e-01,0.000000000000000000e+00
6.840000000000000000e+02,5.130415907255689856e-01,0.000000000000000000e+00
6.850000000000000000e+02,1.229036161044643333e-01,0.000000000000000000e+00
6.860000000000000000e+02,1.283989568217354382e-01,0.000000000000000000e+00
6.870000000000000000e+02,-1.783019098628806087e-01,0.000000000000000000e+00
6.880000000000000000e+02,-3.771123425541068608e-01,0.000000000000000000e+00
6.890000000000000000e+02,9.153197866640674918e-02,0.000000000000000000e+00
6.900000000000000000e+02,2.405028249276760788e-01,0.000000000000000000e+00
6.910000000000000000e+02,-2.198892404003589818e-01,0.000000000000000000e+00
6.920000000000000000e+02,1.119794346768106935e-01,0.000000000000000000e+00
6.930000000000000000e+02,-2.180102403446544657e-02,0.000000000000000000e+00
6.940000000000000000e+02,-3.385030614717329800e-02,0.000000000000000000e+00
6.950000000000000000e+02,3.325104015945454794e-01,0.000000000000000000e+00
6.960000000000000000e+02,5.798231884815799320e-02,0.000000000000000000e+00
6.970000000000000000e+02,7.063588395031439315e-02,0.000000000000000000e+00
6.980000000000000000e+02,1.362001086444301901e-01,0.000000000000000000e+00
6.990000000000000000e+02,-7.613526045110176679e-03,0.000000000000000000e+00
7.000000000000000000e+02,-7.159081576145870374e-02,0.000000000000000000e+00
7.010000000000000000e+02,3.137490334152018834e-01,0.000000000000000000e+00
7.020000000000000000e+02,-1.744843648246660953e-02,0.000000000000000000e+00
7.030000000000000000e+02,2.183804151227451140e-01,0.000000000000000000e+00
7.040000000000000000e+02,3.669059784947584779e-01,0.000000000000000000e+00
7.050000000000000000e+02,3.459455737658489460e-01,0.000000000000000000e+00
7.060000000000000000e+02,-1.846965920675578410e-01,0.000000000000000000e+00
7.070000000000000000e+02,-3.118674298025543301e-01,0.000000000000000000e+00
7.080000000000000000e+02,-2.385012303709896364e-01,0.000000000000000000e+00
7.090000000000000000e+02,1.470521683253197542e-01,0.000000000000000000e+00
7.100000000000000000e+02,-5.179802112014468829e-01,0.000000000000000000e+00
7.110000000000000000e+02,6.563766078981768393e-02,0.000000000000000000e+00
7.120000000000000000e+02,-3.202273284299326783e-01,0.000000000000000000e+00
7.130000000000000000e+02,-2.373190731064699771e-02,0.000000000000000000e+00
7.140000000000000000e+02,-4.755937189435640450e-02,0.000000000000000000e+00
7.150000000000000000e+02,5.132137860933084994e+00,0.000000000000000000e+00
7.160000000000000000e+02,3.030486156913908324e+00,1.000000000000000000e+00
7.170000000000000000e+02,-2.217990684794399314e+00,0.000000000000000000e+00
7.180000000000000000e+02,-1.055522670648721517e+00,0.000000000000000000e+00
7.190000000000000000e+02,-1.453678604850275669e+00,0.000000000000000000e+00
7.200000000000000000e+02,-7.886067959988475318e-01,0.000000000000000000e+00
7.210000000000000000e+02,-1.248813409872600255e+00,0.000000000000000000e+00
7.220000000000000000e+02,-7.273734297728786657e-01,0.000000000000000000e+00
7.230000000000000000e+02,-7.915978380284923732e-01,0.000000000000000000e+00
7.240000000000000000e+02,-7.464362307376281036e-01,0.000000000000000000e+00
7.250000000000000000e+02,-7.045999333555540423e-01,0.000000000000000000e+00
7.260000000000000000e+02,-4.449720219367016560e-01,0.000000000000000000e+00
7.270000000000000000e+02,-9.330732743620807901e-02,0.000000000000000000e+00
7.280000000000000000e+02,-1.924171267758018333e-01,0.000000000000000000e+00
7.290000000000000000e+02,4.931625035350448855e-02,0.000000000000000000e+00
7.300000000000000000e+02,5.710779491859769852e-01,0.000000000000000000e+00
7.310000000000000000e+02,5.793000912323829077e-01,0.000000000000000000e+00
7.320000000000000000e+02,1.011086460082720073e+00,0.000000000000000000e+00
7.330000000000000000e+02,6.895737622886224383e-01,0.000000000000000000e+00
7.340000000000000000e+02,5.249347502554647660e-01,0.000000000000000000e+00
7.350000000000000000e+02,5.579391940892539647e-01,0.000000000000000000e+00
7.360000000000000000e+02,2.989221683802723573e-01,0.000000000000000000e+00
7.370000000000000000e+02,-8.841243247828370344e-02,0.000000000000000000e+00
7.380000000000000000e+02,-3.141203711554027000e-01,0.000000000000000000e+00
7.390000000000000000e+02,-1.449672385024909915e-01,0.000000000000000000e+00
7.400000000000000000e+02,-2.762849785340393272e-01,0.000000000000000000e+00
7.410000000000000000e+02,-3.287671374757136222e-01,0.000000000000000000e+00
7.420000000000000000e+02,1.225687749966995616e-01,0.000000000000000000e+00
7.430000000000000000e+02,-1.157918743239170628e-01,0.000000000000000000e+00
7.440000000000000000e+02,2.913585836924423855e-01,0.000000000000000000e+00
7.450000000000000000e+02,-5.483307209477114030e-01,0.000000000000000000e+00
7.460000000000000000e+02,7.289100817462806914e-02,0.000000000000000000e+00
7.470000000000000000e+02,2.252782597547994814e-01,0.000000000000000000e+00
7.480000000000000000e+02,-5.934514928971207359e-01,0.000000000000000000e+00
7.490000000000000000e+02,5.472350398983082398e-01,0.000000000000000000e+00
7.500000000000000000e+02,-1.868194128550753619e-01,0.000000000000000000e+00
7.510000000000000000e+02,-4.876951554822319124e-01,0.000000000000000000e+00
7.520000000000000000e+02,6.604312960181631942e-01,0.000000000000000000e+00
7.530000000000000000e+02,6.165357412301895185e-02,0.000000000000000000e+00
7.540000000000000000e+02,-2.546483446262602923e-01,0.000000000000000000e+00
7.550000000000000000e+02,5.839365080111149631e-01,0.000000000000000000e+00
7.560000000000000000e+02,4.650707369403696556e-01,0.000000000000000000e+00
7.570000000000000000e+02,-4.697647241038393484e-01,0.000000000000000000e+00
7.580000000000000000e+02,1.039306327665425606e-01,0.000000000000000000e+00
7.590000000000000000e+02,-7.553772303998174120e-01,0.000000000000000000e+00
7.600000000000000000e+02,-1.812174637787790366e-01,0.000000000000000000e+00
7.610000000000000000e+02,-2.617470054837414128e-01,0.000000000000000000e+00
7.620000000000000000e+02,-3.350515504526840327e-01,0.000000000000000000e+00
7.630000000000000000e+02,3.093726909665351354e-01,0.000000000000000000e+00
7.640000000000000000e+02,-4.659775254328364369e-01,0.000000000000000000e+00
7.650000000000000000e+02,-9.505740174436995427e-02,0.000000000000000000e+00
7.660000000000000000e+02,4.330494849773419475e+00,0.000000000000000000e+00
7.670000000000000000e+02,3.987514229645643837e+00,0.000000000000000000e+00
7.680000000000000000e+02,-1.487744734030221450e+00,1.000000000000000000e+00
7.690000000000000000e+02,-1.431746789801732200e+00,0.000000000000000000e+00
7.700000000000000000e+02,-1.570648387055981976e+00,0.000000000000000000e+00
7.710000000000000000e+02,-6.305359448639401565e-01,0.000000000000000000e+00
7.720000000000000000e+02,-1.501546586603536459e+00,0.000000000000000000e+00
7.730000000000000000e+02,-9.999770748815194343e-01,0.000000000000000000e+00
7.740000000000000000e+02,-5.059068612077504135e-01,0.000000000000000000e+00
7.750000000000000000e+02,-9.444543320321533431e-01,0.000000000000000000e+00
7.760000000000000000e+02,-5.016730251061612966e-01,0.000000000000000000e+00
7.770000000000000000e+02,-5.322671616016658724e-01,0.000000000000000000e+00
7.780000000000000000e+02,-8.562450222607093098e-01,0.000000000000000000e+00
7.790000000000000000e+02,4.154699129069887031e-01,0.000000000000000000e+00
7.800000000000000000e+02,-3.690961993890566895e-01,0.000000000000000000e+00
7.810000000000000000e+02,5.530792498623334774e-01,0.000000000000000000e+00
7.820000000000000000e+02,3.653792896900118214e-01,0.000000000000000000e+00
7.830000000000000000e+02,6.108733439076944327e-01,0.000000000000000000e+00
7.840000000000000000e+02,1.223656116433578189e+00,0.000000000000000000e+00
7.850000000000000000e+02,5.244409641940197542e-01,0.000000000000000000e+00
7.860000000000000000e+02,4.282712547773089851e-01,0.000000000000000000e+00
7.870000000000000000e+02,9.110038147477378390e-01,0.000000000000000000e+00
7.880000000000000000e+02,-7.258939009327979308e-01,0.000000000000000000e+00
7.890000000000000000e+02,3.515924540562621603e-01,0.000000000000000000e+00
7.900000000000000000e+02,-6.609624674904512887e-02,0.000000000000000000e+00
7.910000000000000000e+02,-5.086807226989800146e-01,0.000000000000000000e+00
7.920000000000000000e+02,1.685071738004847164e-01,0.000000000000000000e+00
7.930000000000000000e+02,-2.886563824040467852e-01,0.000000000000000000e+00
7.940000000000000000e+02,-1.270832729553944274e-01,0.000000000000000000e+00
7.950000000000000000e+02,3.845247671640249498e-01,0.000000000000000000e+00
7.960000000000000000e+02,-3.083895857924873751e-01,0.000000000000000000e+00
7.970000000000000000e+02,4.538202884797748471e-02,0.000000000000000000e+00
7.980000000000000000e+02,8.070274511291780639e-02,0.000000000000000000e+00
7.990000000000000000e+02,-2.990550393543983110e-01,0.000000000000000000e+00
8.000000000000000000e+02,1.897756825047668960e-01,0.000000000000000000e+00
8.010000000000000000e+02,-2.669434567254598822e-01,0.000000000000000000e+00
8.020000000000000000e+02,3.677659033107025244e-01,0.000000000000000000e+00
8.030000000000000000e+02,-1.105718741614234168e-01,0.000000000000000000e+00
8.040000000000000000e+02,1.541002688054648184e-01,0.000000000000000000e+00
8.050000000000000000e+02,3.192104158061201957e-01,0.000000000000000000e+00
8.060000000000000000e+02,-1.320627358821873376e-01,0.000000000000000000e+00
8.070000000000000000e+02,8.212930958644840684e-01,0.000000000000000000e+00
8.080000000000000000e+02,-2.287632629386538996e-01,0.000000000000000000e+00
8.090000000000000000e+02,-2.087151165096700137e-02,0.000000000000000000e+00
8.100000000000000000e+02,-2.310697111324223063e-01,0.000000000000000000e+00
8.110000000000000000e+02,-6.653017665436302686e-01,0.000000000000000000e+00
8.120000000000000000e+02,-3.638279209065038711e-02,0.000000000000000000e+00
8.130000000000000000e+02,5.398498315885272986e-02,0.000000000000000000e+00
8.140000000000000000e+02,-6.371778128382744599e-01,0.000000000000000000e+00
8.150000000000000000e+02,2.463467597320468661e-01,0.000000000000000000e+00
8.160000000000000000e+02,-5.021856027351961904e-01,0.000000000000000000e+00
8.170000000000000000e+02,1.842644277753713977e+00,0.000000000000000000e+00
8.180000000000000000e+02,6.013528000953025199e+00,0.000000000000000000e+00
8.190000000000000000e+02,-2.642434530490841427e-01,1.000000000000000000e+00
8.200000000000000000e+02,-1.665761339698838883e+00,0.000000000000000000e+00
8.210000000000000000e+02,-1.725317578181654099e+00,0.000000000000000000e+00
8.220000000000000000e+02,-1.013809090697575188e+00,0.000000000000000000e+00
8.230000000000000000e+02,-1.487476472034965136e+00,0.000000000000000000e+00
8.240000000000000000e+02,-7.930612672488527304e-01,0.000000000000000000e+00
8.250000000000000000e+02,-8.840583354156095197e-01,0.000000000000000000e+00
8.260000000000000000e+02,-1.141512754721915490e+00,0.000000000000000000e+00
8.270000000000000000e+02,-6.409973665788292196e-01,0.000000000000000000e+00
8.280000000000000000e+02,-7.074366715225198776e-01,0.000000000000000000e+00
8.290000000000000000e+02,-2.544009195998656048e-01,0.000000000000000000e+00
8.300000000000000000e+02,-2.580367752223680644e-01,0.000000000000000000e+00
8.310000000000000000e+02,-3.694647880325517830e-01,0.000000000000000000e+00
8.320000000000000000e+02,4.472179145008585710e-01,0.000000000000000000e+00
8.330000000000000000e+02,4.855474433925984767e-01,0.000000000000000000e+00
8.340000000000000000e+02,4.762366977814340707e-01,0.000000000000000000e+00
8.350000000000000000e+02,9.124185303507519329e-01,0.000000000000000000e+00
8.360000000000000000e+02,6.281321483683377505e-01,0.000000000000000000e+00
8.370000000000000000e+02,1.074817354830056582e+00,0.000000000000000000e+00
8.380000000000000000e+02,3.746181730527343712e-01,0.000000000000000000e+00
8.390000000000000000e+02,2.734271851169510215e-01,0.000000000000000000e+00
8.400000000000000000e+02,-2.071036948999073757e-01,0.000000000000000000e+00
8.410000000000000000e+02,-2.020851565520837001e-02,0.000000000000000000e+00
8.420000000000000000e+02,-2.941579629273031737e-01,0.000000000000000000e+00
8.430000000000000000e+02,-1.225697595643517566e-02,0.000000000000000000e+00
8.440000000000000000e+02,-2.532027153644916262e-01,0.000000000000000000e+00
8.450000000000000000e+02,4.423057705921103200e-02,0.000000000000000000e+00
8.460000000000000000e+02,-5.536507161752995260e-02,0.000000000000000000e+00
8.470000000000000000e+02,-1.589319416292009346e-01,0.000000000000000000e+00
8.480000000000000000e+02,-1.571339816283939816e-01,0.000000000000000000e+00
8.490000000000000000e+02,3.164662318310559885e-01,0.000000000000000000e+00
8.500000000000000000e+02,-2.617068454659217114e-01,0.000000000000000000e+00
8.510000000000000000e+02,-2.194845630551594540e-01,0.000000000000000000e+00
8.520000000000000000e+02,-8.434195881673008099e-02,0.000000000000000000e+00
8.530000000000000000e+02,2.685439883197922040e-01,0.000000000000000000e+00
8.540000000000000000e+02,-1.876381357277893125e-01,0.000000000000000000e+00
8.550000000000000000e+02,1.777201273040888152e-01,0.000000000000000000e+00
8.560000000000000000e+02,9.083902487836913175e-02,0.000000000000000000e+00
8.570000000000000000e+02,2.569730095733040454e-01,0.000000000000000000e+00
8.580000000000000000e+02,1.847204119765485375e-01,0.000000000000000000e+00
8.590000000000000000e+02,2.931319770158174465e-01,0.000000000000000000e+00
8.600000000000000000e+02,-2.740629680765191978e-01,0.000000000000000000e+00
8.610000000000000000e+02,-4.234103458247856500e-01,0.000000000000000000e+00
8.620000000000000000e+02,-5.251682464546653106e-01,0.000000000000000000e+00
8.630000000000000000e+02,-1.778909419020211491e-01,0.000000000000000000e+00
8.640000000000000000e+02,-1.722084974345232111e-01,0.000000000000000000e+00
8.650000000000000000e+02,-2.221619402135026067e-01,0.000000000000000000e+00
8.660000000000000000e+02,-8.590907000019699924e-02,0.000000000000000000e+00
8.670000000000000000e+02,-2.226613193470184660e-01,0.000000000000000000e+00
8.680000000000000000e+02,3.627154840333256525e-01,0.000000000000000000e+00
8.690000000000000000e+02,5.466146620922191168e+00,0.000000000000000000e+00
8.700000000000000000e+02,2.222934874074493639e+00,1.000000000000000000e+00
8.710000000000000000e+02,-2.041080860565530841e+00,0.000000000000000000e+00
8.720000000000000000e+02,-1.281496200124835338e+00,0.000000000000000000e+00
8.730000000000000000e+02,-1.217349275679915133e+00,0.000000000000000000e+00
8.740000000000000000e+02,-8.906723571353363234e-01,0.000000000000000000e+00
8.750000000000000000e+02,-8.995236864505308239e-01,0.000000000000000000e+00
8.760000000000000000e+02,-6.975003416522826960e-01,0.000000000000000000e+00
8.770000000000000000e+02,-5.378992186294616618e-01,0.000000000000000000e+00
8.780000000000000000e+02,-3.914443352624747963e-01,0.000000000000000000e+00
8.790000000000000000e+02,-6.655128085125376902e-01,0.000000000000000000e+00
8.800000000000000000e+02,1.818612623019533192e-02,0.000000000000000000e+00
8.810000000000000000e+02,-2.582489669525118159e-01,0.000000000000000000e+00
8.820000000000000000e+02,-1.534942634735542988e-01,0.000000000000000000e+00
8.830000000000000000e+02,2.097302951926434678e-01,0.000000000000000000e+00
8.840000000000000000e+02,5.415632301274470040e-01,0.000000000000000000e+00
8.850000000000000000e+02,7.246401408786267151e-01,0.000000000000000000e+00
8.860000000000000000e+02,7.893217384429898065e-01,0.000000000000000000e+00
8.870000000000000000e+02,6.693323688730897780e-01,0.000000000000000000e+00
8.880000000000000000e+02,6.934184597735161271e-01,0.000000000000000000e+00
8.890000000000000000e+02,4.838952897248177676e-01,0.000000000000000000e+00
8.900000000000000000e+02,3.688884284589844520e-01,0.000000000000000000e+00
8.910000000000000000e+02,-3.540587029892456883e-01,0.000000000000000000e+00
8.920000000000000000e+02,-2.140702483173562154e-02,0.000000000000000000e+00
8.930000000000000000e+02,-3.954012682362059716e-01,0.000000000000000000e+00
8.940000000000000000e+02,1.199595916807206092e-01,0.000000000000000000e+00
8.950000000000000000e+02,-2.384638443350334258e-01,0.000000000000000000e+00
8.960000000000000000e+02,-2.225507395733635624e-02,0.000000000000000000e+00
8.970000000000000000e+02,3.832304184520048812e-02,0.000000000000000000e+00
8.980000000000000000e+02,1.141203834709936943e-01,0.000000000000000000e+00
8.990000000000000000e+02,-1.812296306728124751e-01,0.000000000000000000e+00
9.000000000000000000e+02,8.263380349231932986e-02,0.000000000000000000e+00
9.010000000000000000e+02,-2.972145786567915171e-01,0.000000000000000000e+00
9.020000000000000000e+02,-3.670990991455831687e-02,0.000000000000000000e+00
9.030000000000000000e+02,-7.430681446006540125e-02,0.000000000000000000e+00
9.040000000000000000e+02,-1.264723093177785862e-01,0.000000000000000000e+00
9.050000000000000000e+02,-2.210264303253106632e-01,0.000000000000000000e+00
9.060000000000000000e+02,-1.452198782983132319e-01,0.000000000000000000e+00
9.070000000000000000e+02,1.902461342892870777e-01,0.000000000000000000e+00
9.080000000000000000e+02,7.482452890428657744e-02,0.000000000000000000e+00
9.090000000000000000e+02,2.196241765448306293e-01,0.000000000000000000e+00
9.100000000000000000e+02,1.229374175463311680e-01,0.000000000000000000e+00
9.110000000000000000e+02,-1.696995478589632261e-02,0.000000000000000000e+00
9.120000000000000000e+02,-3.194277009480622764e-01,0.000000000000000000e+00
9.130000000000000000e+02,-4.162677010517090714e-01,0.000000000000000000e+00
9.140000000000000000e+02,-1.661952418407877385e-01,0.000000000000000000e+00
9.150000000000000000e+02,-2.400445589104233945e-01,0.000000000000000000e+00
9.160000000000000000e+02,-1.586590388767898929e-01,0.000000000000000000e+00
9.170000000000000000e+02,-3.188834445846335242e-01,0.000000000000000000e+00
9.180000000000000000e+02,3.556432660785052713e-02,0.000000000000000000e+00
9.190000000000000000e+02,-3.262705818436101302e-01,0.000000000000000000e+00
9.200000000000000000e+02,4.747012145323092014e+00,0.000000000000000000e+00
9.210000000000000000e+02,3.579334118093765671e+00,0.000000000000000000e+00
9.220000000000000000e+02,-1.911548878359787151e+00,1.000000000000000000e+00
9.230000000000000000e+02,-1.189361513062537679e+00,0.000000000000000000e+00
9.240000000000000000e+02,-1.255629795043881280e+00,0.000000000000000000e+00
9.250000000000000000e+02,-1.039172518413333135e+00,0.000000000000000000e+00
9.260000000000000000e+02,-1.151553304587479509e+00,0.000000000000000000e+00
9.270000000000000000e+02,-9.793327232573326713e-01,0.000000000000000000e+00
9.280000000000000000e+02,-8.874904774594458701e-01,0.000000000000000000e+00
9.290000000000000000e+02,-2.368974738742239960e-01,0.000000000000000000e+00
9.300000000000000000e+02,-6.624990069258777092e-01,0.000000000000000000e+00
9.310000000000000000e+02,-4.503878201684775595e-01,0.000000000000000000e+00
9.320000000000000000e+02,-5.009549981265375429e-01,0.000000000000000000e+00
9.330000000000000000e+02,-4.396446623980139468e-02,0.000000000000000000e+00
9.340000000000000000e+02,9.233358134379929250e-02,0.000000000000000000e+00
9.350000000000000000e+02,3.658867933347439982e-01,0.000000000000000000e+00
9.360000000000000000e+02,1.066747678129106980e+00,0.000000000000000000e+00
9.370000000000000000e+02,5.240047066873099180e-01,0.000000000000000000e+00
9.380000000000000000e+02,9.240184523521277615e-01,0.000000000000000000e+00
9.390000000000000000e+02,5.288893949962717445e-01,0.000000000000000000e+00
9.400000000000000000e+02,8.732969928604059628e-01,0.000000000000000000e+00
9.410000000000000000e+02,4.562327253386594950e-01,0.000000000000000000e+00
9.420000000000000000e+02,-1.049641518521138295e-01,0.000000000000000000e+00
9.430000000000000000e+02,4.696685063649710251e-02,0.000000000000000000e+00
9.440000000000000000e+02,-5.689457557071619237e-02,0.000000000000000000e+00
9.450000000000000000e+02,-1.593518880381146752e-01,0.000000000000000000e+00
9.460000000000000000e+02,-3.049196618845840256e-01,0.000000000000000000e+00
9.470000000000000000e+02,1.408996090905983156e-01,0.000000000000000000e+00
9.480000000000000000e+02,-1.116889131008288738e-01,0.000000000000000000e+00
9.490000000000000000e+02,1.041587248820428635e-01,0.000000000000000000e+00
9.500000000000000000e+02,1.041728821683970546e-01,0.000000000000000000e+00
9.510000000000000000e+02,4.730179960838028219e-02,0.000000000000000000e+00
9.520000000000000000e+02,-1.392090920132161846e-01,0.000000000000000000e+00
9.530000000000000000e+02,-2.919985815974203078e-02,0.000000000000000000e+00
9.540000000000000000e+02,6.193152789702368460e-02,0.000000000000000000e+00
9.550000000000000000e+02,1.487844437325495928e-01,0.000000000000000000e+00
9.560000000000000000e+02,-5.320608655986049096e-02,0.000000000000000000e+00
9.570000000000000000e+02,1.938621065813660727e-01,0.000000000000000000e+00
9.580000000000000000e+02,-1.441966159374905576e-01,0.000000000000000000e+00
9.590000000000000000e+02,4.272839913293516867e-01,0.000000000000000000e+00
9.600000000000000000e+02,2.153148045101822283e-01,0.000000000000000000e+00
9.610000000000000000e+02,3.223788641794533283e-01,0.000000000000000000e+00
9.620000000000000000e+02,-9.718306639047791240e-02,0.000000000000000000e+00
9.630000000000000000e+02,-9.851447606063315487e-02,0.000000000000000000e+00
9.640000000000000000e+02,-3.237966015199386649e-01,0.000000000000000000e+00
9.650000000000000000e+02,-1.703465197622986982e-01,0.000000000000000000e+00
9.660000000000000000e+02,-3.087966742221126548e-01,0.000000000000000000e+00
9.670000000000000000e+02,2.778727649137578970e-01,0.000000000000000000e+00
9.680000000000000000e+02,-3.916492949827159453e-01,0.000000000000000000e+00
9.690000000000000000e+02,8.156323453968690462e-02,0.000000000000000000e+00
9.700000000000000000e+02,-3.300770834550580957e-01,0.000000000000000000e+00
9.710000000000000000e+02,3.696625725061714718e+00,0.000000000000000000e+00
9.720000000000000000e+02,4.957435131307882159e+00,0.000000000000000000e+00
9.730000000000000000e+02,-1.343766694647115401e+00,1.000000000000000000e+00
9.740000000000000000e+02,-1.622248351367582719e+00,0.000000000000000000e+00
9.750000000000000000e+02,-1.583361159976628851e+00,0.000000000000000000e+00
9.760000000000000000e+02,-1.099226468502002785e+00,0.000000000000000000e+00
9.770000000000000000e+02,-1.139036242774629004e+00,0.000000000000000000e+00
9.780000000000000000e+02,-8.452392330102133089e-01,0.000000000000000000e+00
9.790000000000000000e+02,-1.019965623620668671e+00,0.000000000000000000e+00
9.800000000000000000e+02,-8.504966852700429625e-01,0.000000000000000000e+00
9.810000000000000000e+02,-7.806629324924467817e-01,0.000000000000000000e+00
9.820000000000000000e+02,-8.166105260293599066e-01,0.000000000000000000e+00
9.830000000000000000e+02,-3.960525800125330176e-01,0.000000000000000000e+00
9.840000000000000000e+02,-1.579001431796970556e-01,0.000000000000000000e+00
9.850000000000000000e+02,-1.446709634345303697e-01,0.000000000000000000e+00
9.860000000000000000e+02,-7.805723942452276465e-02,0.000000000000000000e+00
9.870000000000000000e+02,4.536405314005960698e-01,0.000000000000000000e+00
9.880000000000000000e+02,8.044646803735111540e-01,0.000000000000000000e+00
9.890000000000000000e+02,5.729328709642420581e-01,0.000000000000000000e+00
9.900000000000000000e+02,7.112143781138611232e-01,0.000000000000000000e+00
9.910000000000000000e+02,3.335737763819690005e-01,0.000000000000000000e+00
9.920000000000000000e+02,5.346391924175595278e-01,0.000000000000000000e+00
9.930000000000000000e+02,-1.428425802665022060e-01,0.000000000000000000e+00
9.940000000000000000e+02,-1.514237481147583664e-01,0.000000000000000000e+00
9.950000000000000000e+02,-5.507635771723032869e-01,0.000000000000000000e+00
9.960000000000000000e+02,-2.647883672704514080e-01,0.000000000000000000e+00
9.970000000000000000e+02,-2.288066164291877036e-01,0.000000000000000000e+00
9.980000000000000000e+02,-2.850766152058342717e-01,0.000000000000000000e+00
9.990000000000000000e+02,2.591800999931625007e-02,0.000000000000000000e+00
1.000000000000000000e+03,-1.071738461207095844e-01,0.000000000000000000e+00
1.001000000000000000e+03,3.537060541080105230e-02,0.000000000000000000e+00
1.002000000000000000e+03,-1.715669843258267602e-01,0.000000000000000000e+00
1.003000000000000000e+03,-1.918006313560254861e-01,0.000000000000000000e+00
1.004000000000000000e+03,-2.311839087881707375e-02,0.000000000000000000e+00
1.005000000000000000e+03,-8.383925127210377359e-02,0.000000000000000000e+00
1.006000000000000000e+03,-4.001481604336709630e-02,0.000000000000000000e+00
1.007000000000000000e+03,-1.689192947740337236e-01,0.000000000000000000e+00
1.008000000000000000e+03,2.708087399228902292e-01,0.000000000000000000e+00
1.009000000000000000e+03,-1.361990955910083179e-01,0.000000000000000000e+00
1.010000000000000000e+03,7.712896097081178848e-02,0.000000000000000000e+00
1.011000000000000000e+03,4.480527184956074604e-01,0.000000000000000000e+00
1.012000000000000000e+03,1.043750100866797266e-02,0.000000000000000000e+00
1.013000000000000000e+03,3.239165746369337406e-01,0.000000000000000000e+00
1.014000000000000000e+03,-1.048490059057707591e-01,0.000000000000000000e+00
1.015000000000000000e+03,-2.248484988625730763e-01,0.000000000000000000e+00
1.016000000000000000e+03,-2.463624204521583372e-01,0.000000000000000000e+00
1.017000000000000000e+03,-1.684758147795706318e-01,0.000000000000000000e+00
1.018000000000000000e+03,-5.147688032439554778e-02,0.000000000000000000e+00
1.019000000000000000e+03,-1.849877441378037224e-01,0.000000000000000000e+00
1.020000000000000000e+03,1.389267009892235782e-01,0.000000000000000000e+00
1.021000000000000000e+03,-4.483511069022811935e-01,0.000000000000000000e+00
1.022000000000000000e+03,2.168287621865050863e+00,0.000000000000000000e+00
1.023000000000000000e+03,5.750169188992613201e+00,0.000000000000000000e+00
1.024000000000000000e+03,-5.220772551226539049e-01,1.000000000000000000e+00
1.025000000000000000e+03,-1.527421416718941272e+00,0.000000000000000000e+00
1.026000000000000000e+03,-1.220050375227617501e+00,0.000000000000000000e+00
1.027000000000000000e+03,-8.449020169313503636e-01,0.000000000000000000e+00
1.028000000000000000e+03,-1.095236813044776936e+00,0.000000000000000000e+00
1.029000000000000000e+03,-7.391354061214443494e-01,0.000000000000000000e+00
1.030000000000000000e+03,-6.603298774424022355e-01,0.000000000000000000e+00
1.031000000000000000e+03,-6.682168780912750572e-01,0.000000000000000000e+00
1.032000000000000000e+03,-5.434256304456498432e-01,0.000000000000000000e+00
1.033000000000000000e+03,-3.433250843230103433e-01,0.000000000000000000e+00
1.034000000000000000e+03,-2.554228171693458949e-01,0.000000000000000000e+00
1.035000000000000000e+03,-2.769638954951017529e-01,0.000000000000000000e+00
1.036000000000000000e+03,9.528782514363523526e-03,0.000000000000000000e+00
1.037000000000000000e+03,1.961488636650761674e-01,0.000000000000000000e+00
1.038000000000000000e+03,3.914849531663822102e-01,0.000000000000000000e+00
1.039000000000000000e+03,8.412790703559299699e-01,0.000000000000000000e+00
1.040000000000000000e+03,7.694878813743769586e-01,0.000000000000000000e+00
1.041000000000000000e+03,5.628393045624381363e-01,0.000000000000000000e+00
1.042000000000000000e+03,8.284910688042695925e-01,0.000000000000000000e+00
1.043000000000000000e+03,1.517078359761512008e-01,0.000000000000000000e+00
1.044000000000000000e+03,2.594757288743842483e-01,0.000000000000000000e+00
1.045000000000000000e+03,-2.113156892049034563e-01,0.000000000000000000e+00
1.046000000000000000e+03,-4.785198129706084158e-01,0.000000000000000000e+00
1.047000000000000000e+03,-2.368843074278553229e-01,0.000000000000000000e+00
1.048000000000000000e+03,-2.480661096325425530e-01,0.000000000000000000e+00
1.049000000000000000e+03,-3.316586864391460332e-01,0.000000000000000000e+00
1.050000000000000000e+03,1.863804452235125197e-02,0.000000000000000000e+00
1.051000000000000000e+03,-1.936878802640928585e-02,0.000000000000000000e+00
1.052000000000000000e+03,-8.161065907095398086e-02,0.000000000000000000e+00
1.053000000000000000e+03,-6.885265692928525805e-02,0.000000000000000000e+00
1.054000000000000000e+03,-6.031557389397596003e-02,0.000000000000000000e+00
1.055000000000000000e+03,-2.275080786063271576e-01,0.000000000000000000e+00
1.056000000000000000e+03,1.308023999930519043e-01,0.000000000000000000e+00
1.057000000000000000e+03,-3.382373121137982053e-01,0.000000000000000000e+00
1.058000000000000000e+03,-1.191902318732939586e-01,0.000000000000000000e+00
1.059000000000000000e+03,2.312855202082916561e-01,0.000000000000000000e+00
1.060000000000000000e+03,-1.588747067292317627e-01,0.000000000000000000e+00
1.061000000000000000e+03,2.424169193293041619e-02,0.000000000000000000e+00
1.062000000000000000e+03,-4.754893643744861204e-02,0.000000000000000000e+00
1.063000000000000000e+03,2.439586935636673948e-01,0.000000000000000000e+00
1.064000000000000000e+03,2.036141074309519572e-01,0.000000000000000000e+00
1.065000000000000000e+03,-1.835626772292461503e-02,0.000000000000000000e+00
1.066000000000000000e+03,-4.052816237354797124e-01,0.000000000000000000e+00
1.067000000000000000e+03,-3.017249508557030002e-01,0.000000000000000000e+00
1.068000000000000000e+03,-1.860882075836286786e-01,0.000000000000000000e+00
1.069000000000000000e+03,-4.184954107858693817e-01,0.000000000000000000e+00
1.070000000000000000e+03,2.298572441875117167e-01,0.000000000000000000e+00
1.071000000000000000e+03,-1.711506387558587861e-01,0.000000000000000000e+00
1.072000000000000000e+03,-1.763757702464465449e-01,0.000000000000000000e+00
1.073000000000000000e+03,-3.797743497923807693e-02,0.000000000000000000e+00
1.074000000000000000e+03,5.370189854476760338e+00,0.000000000000000000e+00
1.075000000000000000e+03,2.758937286489832275e+00,1.000000000000000000e+00
1.076000000000000000e+03,-2.240390530229736665e+00,0.000000000000000000e+00
1.077000000000000000e+03,-1.108024644897213973e+00,0.000000000000000000e+00
1.078000000000000000e+03,-1.090116465585778238e+00,0.000000000000000000e+00
1.079000000000000000e+03,-1.044671589744079254e+00,0.000000000000000000e+00
1.080000000000000000e+03,-1.120047896997234282e+00,0.000000000000000000e+00
1.081000000000000000e+03,-7.086788723712903471e-01,0.000000000000000000e+00
1.082000000000000000e+03,-7.989466118434938036e-01,0.000000000000000000e+00
1.083000000000000000e+03,-6.339444666748977886e-01,0.000000000000000000e+00
1.084000000000000000e+03,-8.071216265940681645e-01,0.000000000000000000e+00
1.085000000000000000e+03,-1.998751353654794616e-01,0.000000000000000000e+00
1.086000000000000000e+03,-4.469190382333483869e-01,0.000000000000000000e+00
1.087000000000000000e+03,4.110415111091591297e-05,0.000000000000000000e+00
1.088000000000000000e+03,-2.037197472743026982e-02,0.000000000000000000e+00
1.089000000000000000e+03,5.859994278482976160e-01,0.000000000000000000e+00
1.090000000000000000e+03,6.866085043977522284e-01,0.000000000000000000e+00
1.091000000000000000e+03,7.111588267212614056e-01,0.000000000000000000e+00
1.092000000000000000e+03,7.453394179749424087e-01,0.000000000000000000e+00
1.093000000000000000e+03,1.000969070112374792e+00,0.000000000000000000e+00
1.094000000000000000e+03,4.340448878189485105e-01,0.000000000000000000e+00
1.095000000000000000e+03,2.944993502775397620e-01,0.000000000000000000e+00
1.096000000000000000e+03,1.254338539509677886e-01,0.000000000000000000e+00
1.097000000000000000e+03,2.169705883777932887e-01,0.000000000000000000e+00
1.098000000000000000e+03,-2.970676788751832609e-01,0.000000000000000000e+00
1.099000000000000000e+03,-2.176225536728105397e-02,0.000000000000000000e+00
1.100000000000000000e+03,-3.926955155187532021e-01,0.000000000000000000e+00
1.101000000000000000e+03,1.865468776111798010e-01,0.000000000000000000e+00
1.102000000000000000e+03,7.358460825177592923e-02,0.000000000000000000e+00
1.103000000000000000e+03,7.598397975135515181e-02,0.000000000000000000e+00
1.104000000000000000e+03,-2.118633849691020088e-01,0.000000000000000000e+00
1.105000000000000000e+03,2.446240621445238128e-01,0.000000000000000000e+00
1.106000000000000000e+03,-1.829673511477812597e-02,0.000000000000000000e+00
1.107000000000000000e+03,-2.637179223661956784e-01,0.000000000000000000e+00
1.108000000000000000e+03,8.329923161815317584e-03,0.000000000000000000e+00
1.109000000000000000e+03,-4.523418608339676433e-02,0.000000000000000000e+00
1.110000000000000000e+03,-1.777637522364119704e-01,0.000000000000000000e+00
1.111000000000000000e+03,5.445771088799906956e-02,0.000000000000000000e+00
1.112000000000000000e+03,-1.030011162432579869e-01,0.000000000000000000e+00
1.113000000000000000e+03,3.857875018595553485e-01,0.000000000000000000e+00
1.114000000000000000e+03,3.476846281044556480e-02,0.000000000000000000e+00
1.115000000000000000e+03,2.912444926816389335e-01,0.000000000000000000e+00
1.116000000000000000e+03,1.329243852302095519e-01,0.000000000000000000e+00
1.117000000000000000e+03,-3.051251618285932832e-01,0.000000000000000000e+00
1.118000000000000000e+03,-6.357213531029051040e-03,0.000000000000000000e+00
1.119000000000000000e+03,-2.706776559764690893e-01,0.000000000000000000e+00
1.120000000000000000e+03,-1.837463985802371691e-01,0.000000000000000000e+00
1.121000000000000000e+03,-7.613210337544842887e-02,0.000000000000000000e+00
1.122000000000000000e+03,-2.263190338805481927e-01,0.000000000000000000e+00
1.123000000000000000e+03,-2.370778494534983849e-01,0.000000000000000000e+00
1.124000000000000000e+03,-1.669563839565577079e-01,0.000000000000000000e+00
1.125000000000000000e+03,8.514585554939819723e-01,0.000000000000000000e+00
1.126000000000000000e+03,5.797824766454930945e+00,0.000000000000000000e+00
1.127000000000000000e+03,1.462454958130971150e+00,1.000000000000000000e+00
1.128000000000000000e+03,-1.942256516978435155e+00,0.000000000000000000e+00
1.129000000000000000e+03,-1.150147033539129060e+00,0.000000000000000000e+00
1.130000000000000000e+03,-1.435235199578974719e+00,0.000000000000000000e+00
1.131000000000000000e+03,-1.003482344647382174e+00,0.000000000000000000e+00
1.132000000000000000e+03,-9.786092687024611214e-01,0.000000000000000000e+00
1.133000000000000000e+03,-8.785178778425642987e-01,0.000000000000000000e+00
1.134000000000000000e+03,-1.113574817762138291e+00,0.000000000000000000e+00
1.135000000000000000e+03,-2.913445628077225846e-01,0.000000000000000000e+00
1.136000000000000000e+03,-6.962691926996316116e-01,0.000000000000000000e+00
1.137000000000000000e+03,-6.501216325307744848e-01,0.000000000000000000e+00
1.138000000000000000e+03,-2.811165174270055522e-01,0.000000000000000000e+00
1.139000000000000000e+03,-7.539609917990505727e-02,0.000000000000000000e+00
1.140000000000000000e+03,6.107903278211688353e-02,0.000000000000000000e+00
1.141000000000000000e+03,2.740392713818643466e-01,0.000000000000000000e+00
1.142000000000000000e+03,9.047776047365824192e-01,0.000000000000000000e+00
1.143000000000000000e+03,6.102178976721860382e-01,0.000000000000000000e+00
1.144000000000000000e+03,6.432505012261164890e-01,0.000000000000000000e+00
1.145000000000000000e+03,9.498116439228780905e-01,0.000000000000000000e+00
1.146000000000000000e+03,3.166287928952338793e-01,0.000000000000000000e+00
1.147000000000000000e+03,5.680729370846901993e-01,0.000000000000000000e+00
1.148000000000000000e+03,-4.005616809114329047e-02,0.000000000000000000e+00
1.149000000000000000e+03,6.402180964901764415e-02,0.000000000000000000e+00
1.150000000000000000e+03,-3.299078124487532793e-01,0.000000000000000000e+00
1.151000000000000000e+03,-1.534684170308747431e-01,0.000000000000000000e+00
1.152000000000000000e+03,-6.075449157076848183e-02,0.000000000000000000e+00
1.153000000000000000e+03,-7.625899782527068016e-02,0.000000000000000000e+00
1.154000000000000000e+03,-1.655306949267604799e-01,0.000000000000000000e+00
1.155000000000000000e+03,2.569836939022763882e-03,0.000000000000000000e+00
1.156000000000000000e+03,4.593179261893551302e-02,0.000000000000000000e+00
1.157000000000000000e+03,1.271043491983428197e-01,0.000000000000000000e+00
1.158000000000000000e+03,6.622711405256974382e-02,0.000000000000000000e+00
1.159000000000000000e+03,-5.516776437289691581e-02,0.000000000000000000e+00
1.160000000000000000e+03,4.744392759655417791e-02,0.000000000000000000e+00
1.161000000000000000e+03,-2.491328555351265406e-01,0.000000000000000000e+00
1.162000000000000000e+03,1.228340947891436302e-01,0.000000000000000000e+00
1.163000000000000000e+03,-9.803532875628432827e-03,0.000000000000000000e+00
1.164000000000000000e+03,1.766832560078494263e-01,0.000000000000000000e+00
1.165000000000000000e+03,3.435813693287597705e-03,0.000000000000000000e+00
1.166000000000000000e+03,1.392003597491184297e-01,0.000000000000000000e+00
1.167000000000000000e+03,3.903821381657199274e-01,0.000000000000000000e+00
1.168000000000000000e+03,2.852605357730088054e-01,0.000000000000000000e+00
1.169000000000000000e+03,-2.207863003722797535e-01,0.000000000000000000e+00
1.170000000000000000e+03,-2.029684862879717056e-01,0.000000000000000000e+00
1.171000000000000000e+03,-4.668933885331120193e-01,0.000000000000000000e+00
1.172000000000000000e+03,-1.706697803465721808e-01,0.000000000000000000e+00
1.173000000000000000e+03,-2.659804709058664063e-01,0.000000000000000000e+00
1.174000000000000000e+03,-4.239842815189167474e-02,0.000000000000000000e+00
1.175000000000000000e+03,-2.198126425321827726e-01,0.000000000000000000e+00
1.176000000000000000e+03,5.807788128407877573e-03,0.000000000000000000e+00
1.177000000000000000e+03,-3.792223357684664231e-01,0.000000000000000000e+00
1.178000000000000000e+03,4.873711340751490262e+00,0.000000000000000000e+00
1.179000000000000000e+03,3.930348534518615544e+00,0.000000000000000000e+00
1.180000000000000000e+03,-2.021483022361046267e+00,1.000000000000000000e+00
1.181000000000000000e+03,-1.224969652006544729e+00,0.000000000000000000e+00
1.182000000000000000e+03,-1.771226125469341772e+00,0.000000000000000000e+00
1.183000000000000000e+03,-1.064405979625767662e+00,0.000000000000000000e+00
1.184000000000000000e+03,-1.068086357032541178e+00,0.000000000000000000e+00
1.185000000000000000e+03,-1.091407319548833188e+00,0.000000000000000000e+00
1.186000000000000000e+03,-6.717074016188558927e-01,0.000000000000000000e+00
1.187000000000000000e+03,-9.309834953751178199e-01,0.000000000000000000e+00
1.188000000000000000e+03,-6.919599163490968152e-01,0.000000000000000000e+00
1.189000000000000000e+03,-5.911462604491306561e-01,0.000000000000000000e+00
1.190000000000000000e+03,-4.390410602772939486e-01,0.000000000000000000e+00
1.191000000000000000e+03,-3.079794373698158463e-02,0.000000000000000000e+00
1.192000000000000000e+03,-6.190057739206125675e-02,0.000000000000000000e+00
1.193000000000000000e+03,3.217651657210526817e-01,0.000000000000000000e+00
1.194000000000000000e+03,4.384914643640542842e-01,0.000000000000000000e+00
1.195000000000000000e+03,7.669885685971853384e-01,0.000000000000000000e+00
1.196000000000000000e+03,8.215199608123728847e-01,0.000000000000000000e+00
1.197000000000000000e+03,5.770178767593547864e-01,0.000000000000000000e+00
1.198000000000000000e+03,6.294571167817754054e-01,0.000000000000000000e+00
1.199000000000000000e+03,4.958961450083546607e-01,0.000000000000000000e+00
1.200000000000000000e+03,-9.308855718365117993e-02,0.000000000000000000e+00
1.201000000000000000e+03,4.743110232073195764e-02,0.000000000000000000e+00
1.202000000000000000e+03,-2.279720394008266371e-01,0.000000000000000000e+00
1.203000000000000000e+03,-1.928112093746912892e-01,0.000000000000000000e+00
1.204000000000000000e+03,-1.545443425090680112e-01,0.000000000000000000e+00
1.205000000000000000e+03,-1.514605498135913331e-01,0.000000000000000000e+00
1.206000000000000000e+03,-1.795171573353069802e-02,0.000000000000000000e+00
1.207000000000000000e+03,5.754735184795895658e-02,0.000000000000000000e+00
1.208000000000000000e+03,4.806351133219138178e-02,0.000000000000000000e+00
1.209000000000000000e+03,-2.028294682332356935e-01,0.000000000000000000e+00
1.210000000000000000e+03,1.681264470314151882e-01,0.000000000000000000e+00
1.211000000000000000e+03,-1.781304870548901798e-01,0.000000000000000000e+00
1.212000000000000000e+03,1.250308467431626158e-01,0.000000000000000000e+00
1.213000000000000000e+03,-1.899364515600663120e-02,0.000000000000000000e+00
1.214000000000000000e+03,7.582545192990031158e-02,0.000000000000000000e+00
1.215000000000000000e+03,-2.251165468592454533e-01,0.000000000000000000e+00
1.216000000000000000e+03,1.043840329810195866e-01,0.000000000000000000e+00
1.217000000000000000e+03,2.659001167896147821e-01,0.000000000000000000e+00
1.218000000000000000e+03,-1.767638380336112799e-02,0.000000000000000000e+00
1.219000000000000000e+03,2.682946928412918153e-01,0.000000000000000000e+00
1.220000000000000000e+03,3.717106975819111092e-01,0.000000000000000000e+00
1.221000000000000000e+03,8.199708613361653131e-02,0.000000000000000000e+00
1.222000000000000000e+03,-3.298006860434521403e-01,0.000000000000000000e+00
1.223000000000000000e+03,-1.726638076063579941e-01,0.000000000000000000e+00
1.224000000000000000e+03,-2.391817100906108717e-01,0.000000000000000000e+00
1.225000000000000000e+03,-1.039941746881492268e-01,0.000000000000000000e+00
1.226000000000000000e+03,-2.168438622051505338e-01,0.000000000000000000e+00
1.227000000000000000e+03,-1.349910351883104320e-01,0.000000000000000000e+00
1.228000000000000000e+03,1.350987485255424891e-01,0.000000000000000000e+00
1.229000000000000000e+03,-3.244716761843212116e-01,0.000000000000000000e+00
1.230000000000000000e+03,2.335980759428626374e+00,0.000000000000000000e+00
1.231000000000000000e+03,5.581234725815291675e+00,0.000000000000000000e+00
1.232000000000000000e+03,-9.481679333930568276e-01,1.000000000000000000e+00
1.233000000000000000e+03,-1.770203295480303751e+00,0.000000000000000000e+00
1.234000000000000000e+03,-1.528465788121740054e+00,0.000000000000000000e+00
1.235000000000000000e+03,-1.073831469616573164e+00,0.000000000000000000e+00
1.236000000000000000e+03,-1.053618001664518689e+00,0.000000000000000000e+00
1.237000000000000000e+03,-9.413873329123292333e-01,0.000000000000000000e+00
1.238000000000000000e+03,-7.935070928767065102e-01,0.000000000000000000e+00
1.239000000000000000e+03,-7.129076477618264684e-01,0.000000000000000000e+00
1.240000000000000000e+03,-7.731905096896553031e-01,0.000000000000000000e+00
1.241000000000000000e+03,-5.515556796200589140e-01,0.000000000000000000e+00
1.242000000000000000e+03,-4.460761266411543691e-01,0.000000000000000000e+00
1.243000000000000000e+03,-3.274356525985452349e-01,0.000000000000000000e+00
1.244000000000000000e+03,1.519408019122108211e-01,0.000000000000000000e+00
1.245000000000000000e+03,2.061308464524617967e-01,0.000000000000000000e+00
1.246000000000000000e+03,3.647870168884853048e-01,0.000000000000000000e+00
1.247000000000000000e+03,6.271641118599917686e-01,0.000000000000000000e+00
1.248000000000000000e+03,8.708357453574012697e-01,0.000000000000000000e+00
1.249000000000000000e+03,8.119193127069034288e-01,0.000000000000000000e+00
1.250000000000000000e+03,5.662825798293896762e-01,0.000000000000000000e+00
1.251000000000000000e+03,5.811989854746079098e-01,0.000000000000000000e+00
1.252000000000000000e+03,9.129350596836943721e-02,0.000000000000000000e+00
1.253000000000000000e+03,-8.698173290957234016e-02,0.000000000000000000e+00
1.254000000000000000e+03,-2.532657508153515202e-01,0.000000000000000000e+00
1.255000000000000000e+03,-1.476570704775112819e-01,0.000000000000000000e+00
1.256000000000000000e+03,-9.427680299116658613e-02,0.000000000000000000e+00
1.257000000000000000e+03,-3.425451710847188247e-01,0.000000000000000000e+00
1.258000000000000000e+03,4.704860788205363770e-02,0.000000000000000000e+00
1.259000000000000000e+03,6.861671122617408157e-03,0.000000000000000000e+00
1.260000000000000000e+03,3.306565681058588890e-02,0.000000000000000000e+00
1.261000000000000000e+03,-1.176527259459872327e-01,0.000000000000000000e+00
1.262000000000000000e+03,-2.151597951226174033e-01,0.000000000000000000e+00
1.263000000000000000e+03,2.301927214118636503e-02,0.000000000000000000e+00
1.264000000000000000e+03,4.343758792279624886e-02,0.000000000000000000e+00
1.265000000000000000e+03,-2.345396838843033516e-01,0.000000000000000000e+00
1.266000000000000000e+03,2.435447027396432304e-02,0.000000000000000000e+00
1.267000000000000000e+03,-9.413694902073480031e-02,0.000000000000000000e+00
1.268000000000000000e+03,-2.059792467520740467e-01,0.000000000000000000e+00
1.269000000000000000e+03,2.060065806091126717e-01,0.000000000000000000e+00
1.270000000000000000e+03,9.008028975790373372e-03,0.000000000000000000e+00
1.271000000000000000e+03,1.814753441130171618e-01,0.000000000000000000e+00
1.272000000000000000e+03,8.774937875118422881e-02,0.000000000000000000e+00
1.273000000000000000e+03,2.967651520879288629e-01,0.000000000000000000e+00
1.274000000000000000e+03,-4.703885531689427218e-02,0.000000000000000000e+00
1.275000000000000000e+03,-2.155250827816883319e-01,0.000000000000000000e+00
1.276000000000000000e+03,-3.859970135066229657e-01,0.000000000000000000e+00
1.277000000000000000e+03,-1.878709978039250772e-01,0.000000000000000000e+00
1.278000000000000000e+03,-2.078670962726325289e-01,0.000000000000000000e+00
1.279000000000000000e+03,-3.831373691047421006e-03,0.000000000000000000e+00
1.280000000000000000e+03,-2.747796084276253326e-01,0.000000000000000000e+00
1.281000000000000000e+03,-1.719482007818631808e-01,0.000000000000000000e+00
1.282000000000000000e+03,-9.876759043505800584e-02,0.000000000000000000e+00
1.283000000000000000e+03,5.013816146447412692e+00,0.000000000000000000e+00
1.284000000000000000e+03,3.159714039036603417e+00,1.000000000000000000e+00
1.285000000000000000e+03,-1.784252263876693112e+00,0.000000000000000000e+00
1.286000000000000000e+03,-1.076750380465457457e+00,0.000000000000000000e+00
1.287000000000000000e+03,-1.357018706276493125e+00,0.000000000000000000e+00
1.288000000000000000e+03,-8.370803608181710542e-01,0.000000000000000000e+00
1.289000000000000000e+03,-1.018369270443707952e+00,0.000000000000000000e+00
1.290000000000000000e+03,-8.002379409609214900e-01,0.000000000000000000e+00
1.291000000000000000e+03,-9.457027856344737415e-01,0.000000000000000000e+00
1.292000000000000000e+03,-3.766401389479074879e-01,0.000000000000000000e+00
1.293000000000000000e+03,-6.774393791623233296e-01,0.000000000000000000e+00
1.294000000000000000e+03,-5.395882986759666933e-01,0.000000000000000000e+00
1.295000000000000000e+03,-5.135654378692570132e-01,0.000000000000000000e+00
1.296000000000000000e+03,-5.845712742011852786e-02,0.000000000000000000e+00
1.297000000000000000e+03,1.691745024173591655e-02,0.000000000000000000e+00
1.298000000000000000e+03,4.017827108669998482e-01,0.000000000000000000e+00
1.299000000000000000e+03,6.249625145958825900e-01,0.000000000000000000e+00
1.300000000000000000e+03,8.064818033975892364e-01,0.000000000000000000e+00
1.301000000000000000e+03,7.534921595758309332e-01,0.000000000000000000e+00
1.302000000000000000e+03,5.082904429425364468e-01,0.000000000000000000e+00
1.303000000000000000e+03,8.163213800630034767e-01,0.000000000000000000e+00
1.304000000000000000e+03,2.313741838633129044e-01,0.000000000000000000e+00
1.305000000000000000e+03,1.346909545075990200e-01,0.000000000000000000e+00
1.306000000000000000e+03,-6.885966491613675078e-02,0.000000000000000000e+00
1.307000000000000000e+03,-3.010202631307210552e-01,0.000000000000000000e+00
1.308000000000000000e+03,-1.163223133738410520e-01,0.000000000000000000e+00
1.309000000000000000e+03,-2.777266607838215773e-01,0.000000000000000000e+00
1.310000000000000000e+03,-3.064125529611202992e-02,0.000000000000000000e+00
1.311000000000000000e+03,2.189556802399757196e-01,0.000000000000000000e+00
1.312000000000000000e+03,1.321642338432170716e-01,0.000000000000000000e+00
1.313000000000000000e+03,-8.976115565077512348e-02,0.000000000000000000e+00
1.314000000000000000e+03,-1.849565546096165192e-01,0.000000000000000000e+00
1.315000000000000000e+03,-1.242442597295562584e-01,0.000000000000000000e+00
1.316000000000000000e+03,3.621265700739240145e-01,0.000000000000000000e+00
1.317000000000000000e+03,-4.336626020091629563e-01,0.000000000000000000e+00
1.318000000000000000e+03,2.518318579951408509e-01,0.000000000000000000e+00
1.319000000000000000e+03,-7.635307235641523860e-02,0.000000000000000000e+00
1.320000000000000000e+03,4.910364578491498988e-01,0.000000000000000000e+00
1.321000000000000000e+03,-1.184956907417384769e-01,0.000000000000000000e+00
1.322000000000000000e+03,3.754640209782906246e-01,0.000000000000000000e+00
1.323000000000000000e+03,1.001705561415520279e-01,0.000000000000000000e+00
1.324000000000000000e+03,4.289177594634618895e-01,0.000000000000000000e+00
1.325000000000000000e+03,5.861977211359932216e-01,0.000000000000000000e+00
1.326000000000000000e+03,1.235748200668247559e-01,0.000000000000000000e+00
1.327000000000000000e+03,-1.716485952914541813e-01,0.000000000000000000e+00
1.328000000000000000e+03,-5.233366885418876402e-01,0.000000000000000000e+00
1.329000000000000000e+03,4.399138730536390762e-02,0.000000000000000000e+00
1.330000000000000000e+03,1.653585605883116025e-02,0.000000000000000000e+00
1.331000000000000000e+03,-3.467831736286538513e-01,0.000000000000000000e+00
1.332000000000000000e+03,1.451299923244236123e-01,0.000000000000000000e+00
1.333000000000000000e+03,-2.648989093132765940e-02,0.000000000000000000e+00
1.334000000000000000e+03,-2.142235169750895674e-01,0.000000000000000000e+00
1.335000000000000000e+03,9.163279626329576821e-01,0.000000000000000000e+00
1.336000000000000000e+03,5.692633205284503894e+00,0.000000000000000000e+00
1.337000000000000000e+03,1.412435174578239527e+00,1.000000000000000000e+00
1.338000000000000000e+03,-1.947401428412340874e+00,0.000000000000000000e+00
1.339000000000000000e+03,-1.042192045894986041e+00,0.000000000000000000e+00
1.340000000000000000e+03,-1.331420183875591912e+00,0.000000000000000000e+00
1.341000000000000000e+03,-1.247842924344876092e+00,0.000000000000000000e+00
1.342000000000000000e+03,-1.049335631443300443e+00,0.000000000000000000e+00
1.343000000000000000e+03,-7.336666571906301781e-01,0.000000000000000000e+00
1.344000000000000000e+03,-6.473080316700204895e-01,0.000000000000000000e+00
1.345000000000000000e+03,-7.888423326588280826e-01,0.000000000000000000e+00
1.346000000000000000e+03,-7.186773876595852206e-01,0.000000000000000000e+00
1.347000000000000000e+03,-4.893820873359059354e-01,0.000000000000000000e+00
1.348000000000000000e+03,-5.205901202388150129e-01,0.000000000000000000e+00
1.349000000000000000e+03,-8.837419232290465165e-02,0.000000000000000000e+00
1.350000000000000000e+03,-1.008472912690596274e-01,0.000000000000000000e+00
1.351000000000000000e+03,3.969794236937998488e-01,0.000000000000000000e+00
1.352000000000000000e+03,3.251997185549226899e-01,0.000000000000000000e+00
1.353000000000000000e+03,5.058659449597178170e-01,0.000000000000000000e+00
1.354000000000000000e+03,5.857907225828685727e-01,0.000000000000000000e+00
1.355000000000000000e+03,8.210424015196936542e-01,0.000000000000000000e+00
1.356000000000000000e+03,4.540466115046989382e-01,0.000000000000000000e+00
1.357000000000000000e+03,2.155400581275747907e-01,0.000000000000000000e+00
1.358000000000000000e+03,-5.587439722645651252e-02,0.000000000000000000e+00
1.359000000000000000e+03,-5.792878175823080317e-02,0.000000000000000000e+00
1.360000000000000000e+03,-3.893366790680597433e-01,0.000000000000000000e+00
1.361000000000000000e+03,1.730952946411398463e-01,0.000000000000000000e+00
1.362000000000000000e+03,-5.264887708655600074e-01,0.000000000000000000e+00
1.363000000000000000e+03,3.520064877073700305e-02,0.000000000000000000e+00
1.364000000000000000e+03,-1.326900128733438378e-01,0.000000000000000000e+00
1.365000000000000000e+03,5.957118208157270028e-02,0.000000000000000000e+00
1.366000000000000000e+03,-1.303613865590323162e-01,0.000000000000000000e+00
1.367000000000000000e+03,-2.962452526553911447e-01,0.000000000000000000e+00
1.368000000000000000e+03,1.941918338801053301e-01,0.000000000000000000e+00
1.369000000000000000e+03,-1.878110786918388009e-01,0.000000000000000000e+00
1.370000000000000000e+03,6.514901883845461428e-02,0.000000000000000000e+00
1.371000000000000000e+03,-2.324281693850130392e-01,0.000000000000000000e+00
1.372000000000000000e+03,-1.511517174519898254e-01,0.000000000000000000e+00
1.373000000000000000e+03,-7.398140038484705971e-02,0.000000000000000000e+00
1.374000000000000000e+03,-3.077996879989897683e-01,0.000000000000000000e+00
1.375000000000000000e+03,2.725748110746636366e-01,0.000000000000000000e+00
1.376000000000000000e+03,-1.655729219134770627e-02,0.000000000000000000e+00
1.377000000000000000e+03,4.012727456305659746e-01,0.000000000000000000e+00
1.378000000000000000e+03,1.747033062360136280e-01,0.000000000000000000e+00
1.379000000000000000e+03,-3.744665774227531885e-02,0.000000000000000000e+00
1.380000000000000000e+03,7.461680738245735078e-02,0.000000000000000000e+00
1.381000000000000000e+03,-9.484850457043134675e-01,0.000000000000000000e+00
1.382000000000000000e+03,-8.525234903844569612e-02,0.000000000000000000e+00
1.383000000000000000e+03,1.036485947871669672e-01,0.000000000000000000e+00
1.384000000000000000e+03,-7.042297406223589906e-01,0.000000000000000000e+00
1.385000000000000000e+03,-1.017448682181328230e-02,0.000000000000000000e+00
1.386000000000000000e+03,3.106495188070514946e-01,0.000000000000000000e+00
1.387000000000000000e+03,-1.366306240481980350e+00,0.000000000000000000e+00
1.388000000000000000e+03,2.849374739705201165e+00,0.000000000000000000e+00
1.389000000000000000e+03,5.873518307262649785e+00,0.000000000000000000e+00
1.390000000000000000e+03,-9.795915941346439171e-01,1.000000000000000000e+00
1.391000000000000000e+03,-1.085759879581773113e+00,0.000000000000000000e+00
1.392000000000000000e+03,-1.606222484593766486e+00,0.000000000000000000e+00
1.393000000000000000e+03,-1.603562005733885076e+00,0.000000000000000000e+00
1.394000000000000000e+03,-7.084735602093583662e-01,0.000000000000000000e+00
1.395000000000000000e+03,-1.399788721299701333e+00,0.000000000000000000e+00
1.396000000000000000e+03,-8.777803794193572706e-01,0.000000000000000000e+00
1.397000000000000000e+03,-3.651696035544517716e-01,0.000000000000000000e+00
1.398000000000000000e+03,-1.281480251152627092e+00,0.000000000000000000e+00
1.399000000000000000e+03,-1.267826327685047105e-01,0.000000000000000000e+00
1.400000000000000000e+03,-4.442389344799240192e-01,0.000000000000000000e+00
1.401000000000000000e+03,-5.535319712333056641e-01,0.000000000000000000e+00
1.402000000000000000e+03,3.750313835415051700e-01,0.000000000000000000e+00
1.403000000000000000e+03,-4.655930602079005332e-01,0.000000000000000000e+00
1.404000000000000000e+03,6.571624932481748838e-01,0.000000000000000000e+00
1.405000000000000000e+03,1.034598363614184890e+00,0.000000000000000000e+00
1.406000000000000000e+03,2.101488068533872711e-01,0.000000000000000000e+00
1.407000000000000000e+03,1.142413632577504723e+00,0.000000000000000000e+00
1.408000000000000000e+03,7.381473246553574841e-01,0.000000000000000000e+00
1.409000000000000000e+03,1.864647664113129599e-01,0.000000000000000000e+00
1.410000000000000000e+03,6.637337320388683182e-01,0.000000000000000000e+00
1.411000000000000000e+03,-4.725514587402241951e-01,0.000000000000000000e+00
1.412000000000000000e+03,2.140461607659369658e-01,0.000000000000000000e+00
1.413000000000000000e+03,-3.352812633694797761e-01,0.000000000000000000e+00
1.414000000000000000e+03,7.927762965686233065e-02,0.000000000000000000e+00
1.415000000000000000e+03,1.562054961303428052e-02,0.000000000000000000e+00
1.416000000000000000e+03,-1.309481318384791149e-01,0.000000000000000000e+00
1.417000000000000000e+03,2.800311397487837417e-01,0.000000000000000000e+00
1.418000000000000000e+03,-1.753501162075600094e-03,0.000000000000000000e+00
1.419000000000000000e+03,2.621434432616677815e-02,0.000000000000000000e+00
1.420000000000000000e+03,1.691877792351233756e-01,0.000000000000000000e+00
1.421000000000000000e+03,-8.246425186984544797e-02,0.000000000000000000e+00
1.422000000000000000e+03,2.778249519592436156e-01,0.000000000000000000e+00
1.423000000000000000e+03,2.555832511909058788e-02,0.000000000000000000e+00
1.424000000000000000e+03,-2.423422803167532905e-02,0.000000000000000000e+00
1.425000000000000000e+03,-2.289011195829361925e-02,0.000000000000000000e+00
1.426000000000000000e+03,1.525242698730707447e-01,0.000000000000000000e+00
1.427000000000000000e+03,1.011724284421001291e-01,0.000000000000000000e+00
1.428000000000000000e+03,1.270090793463047596e-01,0.000000000000000000e+00
1.429000000000000000e+03,7.724534938592822475e-02,0.000000000000000000e+00
1.430000000000000000e+03,1.677955294327958258e-01,0.000000000000000000e+00
1.431000000000000000e+03,6.514338342858949638e-02,0.000000000000000000e+00
1.432000000000000000e+03,-2.675795667532887556e-01,0.000000000000000000e+00
1.433000000000000000e+03,-3.878609066579493669e-01,0.000000000000000000e+00
1.434000000000000000e+03,-1.888260889878921045e-01,0.000000000000000000e+00
1.435000000000000000e+03,-3.493019140526562039e-01,0.000000000000000000e+00
1.436000000000000000e+03,1.752151344036315395e-01,0.000000000000000000e+00
1.437000000000000000e+03,-2.818934910064997412e-01,0.000000000000000000e+00
1.438000000000000000e+03,-1.533321471638088018e-01,0.000000000000000000e+00
1.439000000000000000e+03,-6.753613943713558665e-02,0.000000000000000000e+00
1.440000000000000000e+03,5.165110192471993322e+00,0.000000000000000000e+00
1.441000000000000000e+03,2.708790940343051457e+00,1.000000000000000000e+00
1.442000000000000000e+03,-2.027964747975957049e+00,0.000000000000000000e+00
1.443000000000000000e+03,-1.085059278898278246e+00,0.000000000000000000e+00
1.444000000000000000e+03,-1.219672367074246644e+00,0.000000000000000000e+00
1.445000000000000000e+03,-9.828767546113668097e-01,0.000000000000000000e+00
1.446000000000000000e+03,-8.930998040516373582e-01,0.000000000000000000e+00
1.447000000000000000e+03,-7.892618742780379559e-01,0.000000000000000000e+00
1.448000000000000000e+03,-7.703711443545128157e-01,0.000000000000000000e+00
1.449000000000000000e+03,-3.243495857171520558e-01,0.000000000000000000e+00
1.450000000000000000e+03,-4.677760107393347799e-01,0.000000000000000000e+00
1.451000000000000000e+03,-3.030844035998315755e-01,0.000000000000000000e+00
1.452000000000000000e+03,-5.921226265486124740e-01,0.000000000000000000e+00
1.453000000000000000e+03,2.854751349431993712e-01,0.000000000000000000e+00
1.454000000000000000e+03,-1.198441887762342201e-01,0.000000000000000000e+00
1.455000000000000000e+03,6.866485529833444845e-01,0.000000000000000000e+00
1.456000000000000000e+03,5.561958332075535028e-01,0.000000000000000000e+00
1.457000000000000000e+03,6.162476994998342672e-01,0.000000000000000000e+00
1.458000000000000000e+03,1.025077666954893774e+00,0.000000000000000000e+00
1.459000000000000000e+03,5.122361335952693162e-01,0.000000000000000000e+00
1.460000000000000000e+03,5.775922531227253298e-01,0.000000000000000000e+00
1.461000000000000000e+03,3.658352283456600129e-01,0.000000000000000000e+00
1.462000000000000000e+03,1.826919491176633159e-01,0.000000000000000000e+00
1.463000000000000000e+03,2.109024023009835064e-03,0.000000000000000000e+00
1.464000000000000000e+03,-1.925039620592228495e-01,0.000000000000000000e+00
1.465000000000000000e+03,1.632053757460024956e-01,0.000000000000000000e+00
1.466000000000000000e+03,-2.672631139452992244e-01,0.000000000000000000e+00
1.467000000000000000e+03,3.085442695467320307e-01,0.000000000000000000e+00
1.468000000000000000e+03,-2.564207601433093897e-01,0.000000000000000000e+00
1.469000000000000000e+03,1.948457266897143381e-01,0.000000000000000000e+00
1.470000000000000000e+03,-4.632128535995554963e-01,0.000000000000000000e+00
1.471000000000000000e+03,-7.110497244315056031e-02,0.000000000000000000e+00
1.472000000000000000e+03,-2.176856808246528663e-01,0.000000000000000000e+00
1.473000000000000000e+03,3.214564773216568860e-02,0.000000000000000000e+00
1.474000000000000000e+03,-5.425518118228796899e-02,0.000000000000000000e+00
1.475000000000000000e+03,-4.577695810799075060e-01,0.000000000000000000e+00
1.476000000000000000e+03,-1.208733709563472730e-01,0.000000000000000000e+00
1.477000000000000000e+03,-5.129101792501893076e-02,0.000000000000000000e+00
1.478000000000000000e+03,1.105899946907477338e-01,0.000000000000000000e+00
1.479000000000000000e+03,-2.860081309141998540e-01,0.000000000000000000e+00
1.480000000000000000e+03,-1.767503085787624217e-01,0.000000000000000000e+00
1.481000000000000000e+03,-1.403333467962785686e-01,0.000000000000000000e+00
1.482000000000000000e+03,1.373091542047747415e-01,0.000000000000000000e+00
1.483000000000000000e+03,3.743190265102612213e-01,0.000000000000000000e+00
1.484000000000000000e+03,3.363674514231745905e-02,0.000000000000000000e+00
1.485000000000000000e+03,-8.022759493596760827e-02,0.000000000000000000e+00
1.486000000000000000e+03,-3.227576151158479956e-01,0.000000000000000000e+00
1.487000000000000000e+03,-4.145913119007106351e-01,0.000000000000000000e+00
1.488000000000000000e+03,-3.667391111004731918e-01,0.000000000000000000e+00
1.489000000000000000e+03,-3.103415040783966683e-01,0.000000000000000000e+00
1.490000000000000000e+03,-9.794269549258714791e-02,0.000000000000000000e+00
1.491000000000000000e+03,-2.333365386207771619e-01,0.000000000000000000e+00
1.492000000000000000e+03,-4.641850512007249241e-02,0.000000000000000000e+00
1.493000000000000000e+03,-5.143830174155927804e-01,0.000000000000000000e+00
1.494000000000000000e+03,3.284805564866120964e+00,0.000000000000000000e+00
1.495000000000000000e+03,4.778567005128409484e+00,0.000000000000000000e+00
1.496000000000000000e+03,-1.138138121102062916e+00,1.000000000000000000e+00
1.497000000000000000e+03,-1.335021010480789805e+00,0.000000000000000000e+00
1.498000000000000000e+03,-1.782439828874521792e+00,0.000000000000000000e+00
1.499000000000000000e+03,-1.042089048077206925e+00,0.000000000000000000e+00
1.500000000000000000e+03,-1.073653575486418266e+00,0.000000000000000000e+00
1.501000000000000000e+03,-8.227053618978550364e-01,0.000000000000000000e+00
1.502000000000000000e+03,-8.388007234847512095e-01,0.000000000000000000e+00
1.503000000000000000e+03,-7.449953457905730270e-01,0.000000000000000000e+00
1.504000000000000000e+03,-5.272868924658072887e-01,0.000000000000000000e+00
1.505000000000000000e+03,-6.552413761185451602e-01,0.000000000000000000e+00
1.506000000000000000e+03,-4.621829319591068685e-01,0.000000000000000000e+00
1.507000000000000000e+03,-1.628476183990119897e-01,0.000000000000000000e+00
1.508000000000000000e+03,-1.289601423746307429e-02,0.000000000000000000e+00
1.509000000000000000e+03,1.753672994800897500e-01,0.000000000000000000e+00
1.510000000000000000e+03,3.783046297522322798e-01,0.000000000000000000e+00
1.511000000000000000e+03,7.746865742913118247e-01,0.000000000000000000e+00
1.512000000000000000e+03,8.131359960168064172e-01,0.000000000000000000e+00
1.513000000000000000e+03,8.884578733092654002e-01,0.000000000000000000e+00
1.514000000000000000e+03,7.055746830457840790e-01,0.000000000000000000e+00
1.515000000000000000e+03,4.568561506832951036e-01,0.000000000000000000e+00
1.516000000000000000e+03,2.793313597142472737e-01,0.000000000000000000e+00
1.517000000000000000e+03,2.207980063874632748e-01,0.000000000000000000e+00
1.518000000000000000e+03,-1.238457578601002973e-01,0.000000000000000000e+00
1.519000000000000000e+03,-7.007656183102899117e-02,0.000000000000000000e+00
1.520000000000000000e+03,-3.356968918104362709e-01,0.000000000000000000e+00
1.521000000000000000e+03,2.146892307516657938e-01,0.000000000000000000e+00
1.522000000000000000e+03,-1.678772423699398941e-01,0.000000000000000000e+00
1.523000000000000000e+03,3.499157330157077750e-01,0.000000000000000000e+00
1.524000000000000000e+03,-3.185942815345528256e-01,0.000000000000000000e+00
1.525000000000000000e+03,2.304820839882911476e-01,0.000000000000000000e+00
1.526000000000000000e+03,-1.752030581850422819e-01,0.000000000000000000e+00
1.527000000000000000e+03,1.081674732206116540e-01,0.000000000000000000e+00
1.528000000000000000e+03,-3.717345093949330215e-01,0.000000000000000000e+00
1.529000000000000000e+03,3.744088392008900756e-01,0.000000000000000000e+00
1.530000000000000000e+03,-3.774163736258304702e-01,0.000000000000000000e+00
1.531000000000000000e+03,1.440834270399836692e-01,0.000000000000000000e+00
1.532000000000000000e+03,-2.413681720685005860e-01,0.000000000000000000e+00
1.533000000000000000e+03,2.415173718854056184e-01,0.000000000000000000e+00
1.534000000000000000e+03,2.700554514039221646e-04,0.000000000000000000e+00
1.535000000000000000e+03,2.721014746286246622e-01,0.000000000000000000e+00
1.536000000000000000e+03,1.609047398629489811e-01,0.000000000000000000e+00
1.537000000000000000e+03,4.326523806984473586e-01,0.000000000000000000e+00
1.538000000000000000e+03,1.258129450725333776e-01,0.000000000000000000e+00
1.539000000000000000e+03,-5.157229359246537914e-01,0.000000000000000000e+00
1.540000000000000000e+03,-2.351108140564563131e-01,0.000000000000000000e+00
1.541000000000000000e+03,-4.891677569810943260e-01,0.000000000000000000e+00
1.542000000000000000e+03,-1.905271071781118042e-01,0.000000000000000000e+00
1.543000000000000000e+03,4.224368187854593559e-02,0.000000000000000000e+00
1.544000000000000000e+03,-2.934883914889847012e-01,0.000000000000000000e+00
1.545000000000000000e+03,-1.265546930217628374e-01,0.000000000000000000e+00
1.546000000000000000e+03,-2.957658278160818499e-01,0.000000000000000000e+00
1.547000000000000000e+03,1.610852687078875967e+00,0.000000000000000000e+00
1.548000000000000000e+03,6.016747831334959606e+00,0.000000000000000000e+00
1.549000000000000000e+03,1.818040330788235903e-01,1.000000000000000000e+00
1.550000000000000000e+03,-1.927748223018747487e+00,0.000000000000000000e+00
1.551000000000000000e+03,-1.120430193866713386e+00,0.000000000000000000e+00
1.552000000000000000e+03,-1.237081261887197359e+00,0.000000000000000000e+00
1.553000000000000000e+03,-1.248597867038134579e+00,0.000000000000000000e+00
1.554000000000000000e+03,-8.076778283850563067e-01,0.000000000000000000e+00
1.555000000000000000e+03,-6.832003005147276875e-01,0.000000000000000000e+00
1.556000000000000000e+03,-8.029684463809423356e-01,0.000000000000000000e+00
1.557000000000000000e+03,-6.798165884427763705e-01,0.000000000000000000e+00
1.558000000000000000e+03,-5.074477086671005388e-01,0.000000000000000000e+00
1.559000000000000000e+03,-3.703973416719310574e-01,0.000000000000000000e+00
1.560000000000000000e+03,-4.520680240593170640e-01,0.000000000000000000e+00
1.561000000000000000e+03,9.598648240194308789e-02,0.000000000000000000e+00
1.562000000000000000e+03,3.290630067939655928e-02,0.000000000000000000e+00
1.563000000000000000e+03,6.943995016390719366e-01,0.000000000000000000e+00
1.564000000000000000e+03,7.388114843131473597e-01,0.000000000000000000e+00
1.565000000000000000e+03,6.351944696490778863e-01,0.000000000000000000e+00
1.566000000000000000e+03,1.009244477194409129e+00,0.000000000000000000e+00
1.567000000000000000e+03,7.006300738350607071e-01,0.000000000000000000e+00
1.568000000000000000e+03,6.594609619383073884e-01,0.000000000000000000e+00
1.569000000000000000e+03,2.156276103011600109e-01,0.000000000000000000e+00
1.570000000000000000e+03,-6.340668306640975804e-02,0.000000000000000000e+00
1.571000000000000000e+03,-1.733703135701063214e-02,0.000000000000000000e+00
1.572000000000000000e+03,-2.272524242968227970e-01,0.000000000000000000e+00
1.573000000000000000e+03,-1.194788543675906062e-01,0.000000000000000000e+00
1.574000000000000000e+03,-6.102586095007442313e-02,0.000000000000000000e+00
1.575000000000000000e+03,1.558728910120414646e-01,0.000000000000000000e+00
1.576000000000000000e+03,-1.235758683069410335e-01,0.000000000000000000e+00
1.577000000000000000e+03,-1.372901150425504258e-01,0.000000000000000000e+00
1.578000000000000000e+03,4.870073668490647323e-02,0.000000000000000000e+00
1.579000000000000000e+03,1.682946812026619998e-02,0.000000000000000000e+00
1.580000000000000000e+03,-2.080012231074573892e-01,0.000000000000000000e+00
1.581000000000000000e+03,8.556334289470177157e-02,0.000000000000000000e+00
1.582000000000000000e+03,-5.235632625853090527e-01,0.000000000000000000e+00
1.583000000000000000e+03,5.683671071134940161e-02,0.000000000000000000e+00
1.584000000000000000e+03,-1.016201884589052890e-01,0.000000000000000000e+00
1.585000000000000000e+03,1.027495063837464973e-01,0.000000000000000000e+00
1.586000000000000000e+03,-1.588568034262602680e-01,0.000000000000000000e+00
