timestamp,ecg_measurement,qrs_detected
0.000000000000000000e+00,-1.562108869109394282e-01,0.000000000000000000e+00
1.000000000000000000e+00,-4.667649173944385388e-01,0.000000000000000000e+00
2.000000000000000000e+00,-1.135686023183247462e-01,0.000000000000000000e+00
3.000000000000000000e+00,-2.550852987442581710e-01,0.000000000000000000e+00
4.000000000000000000e+00,-2.222021921837426806e-01,0.000000000000000000e+00
5.000000000000000000e+00,4.418834364054272101e-01,0.000000000000000000e+00
6.000000000000000000e+00,-4.750724483170155055e-01,0.000000000000000000e+00
7.000000000000000000e+00,2.818633383202638898e-01,0.000000000000000000e+00
8.000000000000000000e+00,6.013626812067485866e-02,0.000000000000000000e+00
9.000000000000000000e+00,1.374426889034625621e-01,0.000000000000000000e+00
1.000000000000000000e+01,4.385377509310288136e-01,0.000000000000000000e+00
1.100000000000000000e+01,-2.078587601237270877e-01,0.000000000000000000e+00
1.200000000000000000e+01,7.108960335301186539e-01,0.000000000000000000e+00
1.300000000000000000e+01,1.668868423298590919e-01,0.000000000000000000e+00
1.400000000000000000e+01,7.778010686294865028e-01,0.000000000000000000e+00
1.500000000000000000e+01,2.719823979607564023e-03,0.000000000000000000e+00
1.600000000000000000e+01,5.306289506277424017e-01,0.000000000000000000e+00
1.700000000000000000e+01,2.109099525422042654e-01,0.000000000000000000e+00
1.800000000000000000e+01,4.532433122280065674e-01,0.000000000000000000e+00
1.900000000000000000e+01,7.219741915433966484e-02,0.000000000000000000e+00
2.000000000000000000e+01,6.330646905187096163e-01,0.000000000000000000e+00
2.100000000000000000e+01,3.387208876963350712e-01,0.000000000000000000e+00
2.200000000000000000e+01,6.006091059046683167e-01,0.000000000000000000e+00
2.300000000000000000e+01,3.413566057635588624e-01,0.000000000000000000e+00
2.400000000000000000e+01,4.559577358371035838e-01,0.000000000000000000e+00
2.500000000000000000e+01,2.194284323828769590e-01,0.000000000000000000e+00
2.600000000000000000e+01,1.709787575631136758e-01,0.000000000000000000e+00
2.700000000000000000e+01,3.649797386355950191e-01,0.000000000000000000e+00
2.800000000000000000e+01,4.851293600712869303e-01,0.000000000000000000e+00
2.900000000000000000e+01,1.786833778810452689e-01,0.000000000000000000e+00
3.000000000000000000e+01,2.461112546958217628e-01,0.000000000000000000e+00
3.100000000000000000e+01,2.959880610354300723e-01,0.000000000000000000e+00
3.200000000000000000e+01,4.195021342877298109e-01,0.000000000000000000e+00
3.300000000000000000e+01,-8.006780039748254141e-02,0.000000000000000000e+00
3.400000000000000000e+01,3.637912212757867803e-01,0.000000000000000000e+00
3.500000000000000000e+01,-3.967308366082563688e-03,0.000000000000000000e+00
3.600000000000000000e+01,1.719017271314511042e-01,0.000000000000000000e+00
3.700000000000000000e+01,1.220950100471890482e-01,0.000000000000000000e+00
3.800000000000000000e+01,1.617864406892372542e-01,0.000000000000000000e+00
3.900000000000000000e+01,2.653866746765160545e-01,0.000000000000000000e+00
4.000000000000000000e+01,3.898830213512119273e-03,0.000000000000000000e+00
4.100000000000000000e+01,3.123904528365977762e-01,0.000000000000000000e+00
4.200000000000000000e+01,-1.348153211725457712e-01,0.000000000000000000e+00
4.300000000000000000e+01,2.500590909982414733e-01,0.000000000000000000e+00
4.400000000000000000e+01,-1.749569560582611150e-01,0.000000000000000000e+00
4.500000000000000000e+01,9.828782456863043027e-02,0.000000000000000000e+00
4.600000000000000000e+01,-1.544498801715318836e-02,0.000000000000000000e+00
4.700000000000000000e+01,-1.243330388156422758e-02,0.000000000000000000e+00
4.800000000000000000e+01,2.105214380066167124e-01,0.000000000000000000e+00
4.900000000000000000e+01,1.719309754893816322e-01,0.000000000000000000e+00
5.000000000000000000e+01,-3.889846481226221786e-01,0.000000000000000000e+00
5.100000000000000000e+01,1.849319531532815086e-01,0.000000000000000000e+00
5.200000000000000000e+01,7.693647205491427332e-02,0.000000000000000000e+00
5.300000000000000000e+01,-1.468468517958856911e-01,0.000000000000000000e+00
5.400000000000000000e+01,-6.398113665093016489e-02,0.000000000000000000e+00
5.500000000000000000e+01,-1.020381184324733320e-01,0.000000000000000000e+00
5.600000000000000000e+01,-1.230259471066350307e-01,0.000000000000000000e+00
5.700000000000000000e+01,-1.469703886798717496e-01,0.000000000000000000e+00
5.800000000000000000e+01,1.312070719702463500e-02,0.000000000000000000e+00
5.900000000000000000e+01,-9.062137462473539296e-02,0.000000000000000000e+00
6.000000000000000000e+01,-1.901371733345413317e-01,0.000000000000000000e+00
6.100000000000000000e+01,-2.515767466799058716e-01,0.000000000000000000e+00
6.200000000000000000e+01,-1.561431235942330187e-01,0.000000000000000000e+00
6.300000000000000000e+01,-1.368384602026474217e-01,0.000000000000000000e+00
6.400000000000000000e+01,-1.064330781068016651e-01,0.000000000000000000e+00
6.500000000000000000e+01,4.131430607628578944e-01,0.000000000000000000e+00
6.600000000000000000e+01,3.927584741074992003e+00,0.000000000000000000e+00
6.700000000000000000e+01,-4.654214153936638287e-01,1.000000000000000000e+00
6.800000000000000000e+01,-2.377349528262362455e+00,0.000000000000000000e+00
6.900000000000000000e+01,-1.571339442470121861e-01,0.000000000000000000e+00
7.000000000000000000e+01,-8.711828885929416844e-01,0.000000000000000000e+00
7.100000000000000000e+01,-6.289100288726656718e-01,0.000000000000000000e+00
7.200000000000000000e+01,-4.447390674485439122e-01,0.000000000000000000e+00
7.300000000000000000e+01,-5.876547025272313984e-01,0.000000000000000000e+00
7.400000000000000000e+01,-3.090144035445767101e-01,0.000000000000000000e+00
7.500000000000000000e+01,-4.823722438570929305e-01,0.000000000000000000e+00
7.600000000000000000e+01,-3.720153505628575052e-01,0.000000000000000000e+00
7.700000000000000000e+01,-3.880233806559593712e-01,0.000000000000000000e+00
7.800000000000000000e+01,-3.373120132622557388e-01,0.000000000000000000e+00
7.900000000000000000e+01,-1.435115703636409556e-01,0.000000000000000000e+00
8.000000000000000000e+01,-1.058218143039200282e-01,0.000000000000000000e+00
8.100000000000000000e+01,1.141726924085026407e-01,0.000000000000000000e+00
8.200000000000000000e+01,1.314293737035926724e-01,0.000000000000000000e+00
8.300000000000000000e+01,2.518850052288763575e-01,0.000000000000000000e+00
8.400000000000000000e+01,7.206947703946752215e-01,0.000000000000000000e+00
8.500000000000000000e+01,6.520005431889728253e-01,0.000000000000000000e+00
8.600000000000000000e+01,9.470357792693361310e-01,0.000000000000000000e+00
8.700000000000000000e+01,9.777461370774960248e-01,0.000000000000000000e+00
8.800000000000000000e+01,4.036670922846469778e-01,0.000000000000000000e+00
8.900000000000000000e+01,-6.055715624136541742e-01,0.000000000000000000e+00
9.000000000000000000e+01,-9.720595000738563307e-01,0.000000000000000000e+00
9.100000000000000000e+01,-1.440072765364724949e+00,0.000000000000000000e+00
9.200000000000000000e+01,-1.010942173288924550e+00,0.000000000000000000e+00
9.300000000000000000e+01,-1.299376010123824976e+00,0.000000000000000000e+00
9.400000000000000000e+01,-1.036324634545548573e+00,0.000000000000000000e+00
9.500000000000000000e+01,-9.349660147816679645e-01,0.000000000000000000e+00
9.600000000000000000e+01,-9.122789164435345377e-01,0.000000000000000000e+00
9.700000000000000000e+01,-3.754193910915595844e-01,0.000000000000000000e+00
9.800000000000000000e+01,-5.775289381222408203e-01,0.000000000000000000e+00
9.900000000000000000e+01,-5.501818205240602833e-01,0.000000000000000000e+00
1.000000000000000000e+02,-7.235435342406361103e-01,0.000000000000000000e+00
1.010000000000000000e+02,-3.635482046691136393e-01,0.000000000000000000e+00
1.020000000000000000e+02,-6.059022613683325842e-01,0.000000000000000000e+00
1.030000000000000000e+02,-1.286599525378307185e-01,0.000000000000000000e+00
1.040000000000000000e+02,-3.711705461704882802e-01,0.000000000000000000e+00
1.050000000000000000e+02,-2.388214830207805589e-02,0.000000000000000000e+00
1.060000000000000000e+02,3.941393685457480339e-02,0.000000000000000000e+00
1.070000000000000000e+02,-5.451344637782967739e-02,0.000000000000000000e+00
1.080000000000000000e+02,1.395433156037893807e-01,0.000000000000000000e+00
1.090000000000000000e+02,1.358489504907501866e-01,0.000000000000000000e+00
1.100000000000000000e+02,1.398820791039835920e-01,0.000000000000000000e+00
1.110000000000000000e+02,-1.374227203378237394e-01,0.000000000000000000e+00
1.120000000000000000e+02,1.521276389749245961e-04,0.000000000000000000e+00
1.130000000000000000e+02,4.590042808334467983e-01,0.000000000000000000e+00
1.140000000000000000e+02,4.177412718314739148e-01,0.000000000000000000e+00
1.150000000000000000e+02,1.788177354789495521e-01,0.000000000000000000e+00
1.160000000000000000e+02,5.733617478191334049e-01,0.000000000000000000e+00
1.170000000000000000e+02,1.448775239800855208e-01,0.000000000000000000e+00
1.180000000000000000e+02,6.669413646917333738e-01,0.000000000000000000e+00
1.190000000000000000e+02,1.815655422767621374e-01,0.000000000000000000e+00
1.200000000000000000e+02,5.799287264676896703e-01,0.000000000000000000e+00
1.210000000000000000e+02,3.750858442812473048e-01,0.000000000000000000e+00
1.220000000000000000e+02,4.329763742163194706e+00,0.000000000000000000e+00
1.230000000000000000e+02,2.728186224105057178e+00,1.000000000000000000e+00
1.240000000000000000e+02,-2.444689940904335668e+00,0.000000000000000000e+00
1.250000000000000000e+02,4.964480646274225389e-02,0.000000000000000000e+00
1.260000000000000000e+02,-1.893595925991512496e-01,0.000000000000000000e+00
1.270000000000000000e+02,2.325657582911059285e-01,0.000000000000000000e+00
1.280000000000000000e+02,-7.278717451846752895e-02,0.000000000000000000e+00
1.290000000000000000e+02,2.899553072227822881e-01,0.000000000000000000e+00
1.300000000000000000e+02,3.903955944282830881e-01,0.000000000000000000e+00
1.310000000000000000e+02,4.082907748883080057e-01,0.000000000000000000e+00
1.320000000000000000e+02,3.906419614096131032e-01,0.000000000000000000e+00
1.330000000000000000e+02,4.476425229049713628e-01,0.000000000000000000e+00
1.340000000000000000e+02,3.704273879561428284e-01,0.000000000000000000e+00
1.350000000000000000e+02,2.904797757078925735e-01,0.000000000000000000e+00
1.360000000000000000e+02,4.982444128803756311e-01,0.000000000000000000e+00
1.370000000000000000e+02,5.875102877277840197e-01,0.000000000000000000e+00
1.380000000000000000e+02,7.911065738654667889e-01,0.000000000000000000e+00
1.390000000000000000e+02,1.159081289446762364e+00,0.000000000000000000e+00
1.400000000000000000e+02,1.144766347270873563e+00,0.000000000000000000e+00
1.410000000000000000e+02,1.432350457853612591e+00,0.000000000000000000e+00
1.420000000000000000e+02,1.580026880198329264e+00,0.000000000000000000e+00
1.430000000000000000e+02,1.125347889345012842e+00,0.000000000000000000e+00
1.440000000000000000e+02,2.285145836003294739e-01,0.000000000000000000e+00
1.450000000000000000e+02,-8.263753854477468019e-01,0.000000000000000000e+00
1.460000000000000000e+02,-1.341443836671766032e+00,0.000000000000000000e+00
1.470000000000000000e+02,-1.633229114697374751e+00,0.000000000000000000e+00
1.480000000000000000e+02,-1.798914727689025606e+00,0.000000000000000000e+00
1.490000000000000000e+02,-1.214089459589914766e+00,0.000000000000000000e+00
1.500000000000000000e+02,-1.520151811458604785e+00,0.000000000000000000e+00
1.510000000000000000e+02,-1.143616097171093582e+00,0.000000000000000000e+00
1.520000000000000000e+02,-1.035819516058451795e+00,0.000000000000000000e+00
1.530000000000000000e+02,-7.820178050146990856e-01,0.000000000000000000e+00
1.540000000000000000e+02,-4.051001679320745952e-01,0.000000000000000000e+00
1.550000000000000000e+02,-9.611024449697587180e-01,0.000000000000000000e+00
1.560000000000000000e+02,-5.131331044962076371e-01,0.000000000000000000e+00
1.570000000000000000e+02,-6.580691186901603817e-01,0.000000000000000000e+00
1.580000000000000000e+02,-3.213880956818898627e-01,0.000000000000000000e+00
1.590000000000000000e+02,-4.290599161858352772e-01,0.000000000000000000e+00
1.600000000000000000e+02,-4.124155630357488889e-01,0.000000000000000000e+00
1.610000000000000000e+02,-2.352567216463247735e-01,0.000000000000000000e+00
1.620000000000000000e+02,-1.485372911695491127e-01,0.000000000000000000e+00
1.630000000000000000e+02,-3.015248200134164613e-01,0.000000000000000000e+00
1.640000000000000000e+02,-1.763205256291322798e-01,0.000000000000000000e+00
1.650000000000000000e+02,7.239359768080712298e-02,0.000000000000000000e+00
1.660000000000000000e+02,-1.901812791306711492e-01,0.000000000000000000e+00
1.670000000000000000e+02,1.596059756899064208e-01,0.000000000000000000e+00
1.680000000000000000e+02,-6.542146930326210585e-02,0.000000000000000000e+00
1.690000000000000000e+02,-1.085233622423332073e-01,0.000000000000000000e+00
1.700000000000000000e+02,3.098343278378891119e-01,0.000000000000000000e+00
1.710000000000000000e+02,3.424761390639498027e-01,0.000000000000000000e+00
1.720000000000000000e+02,2.828657018112360255e+00,0.000000000000000000e+00
1.730000000000000000e+02,3.429613633946825502e+00,0.000000000000000000e+00
1.740000000000000000e+02,-2.459627841780871904e+00,1.000000000000000000e+00
1.750000000000000000e+02,-6.425768775748376127e-01,0.000000000000000000e+00
1.760000000000000000e+02,-1.993904306041743568e-01,0.000000000000000000e+00
1.770000000000000000e+02,-4.066373300128827556e-02,0.000000000000000000e+00
1.780000000000000000e+02,1.888031824738164444e-01,0.000000000000000000e+00
1.790000000000000000e+02,9.374349121464651408e-03,0.000000000000000000e+00
1.800000000000000000e+02,3.774928159947530393e-01,0.000000000000000000e+00
1.810000000000000000e+02,9.346488578407365078e-02,0.000000000000000000e+00
1.820000000000000000e+02,2.382666534997281704e-01,0.000000000000000000e+00
1.830000000000000000e+02,2.959462333560308189e-01,0.000000000000000000e+00
1.840000000000000000e+02,1.103911962771627481e-01,0.000000000000000000e+00
1.850000000000000000e+02,4.635625315290100579e-01,0.000000000000000000e+00
1.860000000000000000e+02,4.534646335600003297e-01,0.000000000000000000e+00
1.870000000000000000e+02,6.216671273428762134e-01,0.000000000000000000e+00
1.880000000000000000e+02,6.907434105928823564e-01,0.000000000000000000e+00
1.890000000000000000e+02,1.038662533785315256e+00,0.000000000000000000e+00
1.900000000000000000e+02,1.220237687412155436e+00,0.000000000000000000e+00
1.910000000000000000e+02,1.563448594947944637e+00,0.000000000000000000e+00
1.920000000000000000e+02,1.465344571573610422e+00,0.000000000000000000e+00
1.930000000000000000e+02,1.272253118601878841e+00,0.000000000000000000e+00
1.940000000000000000e+02,3.780601872068002356e-01,0.000000000000000000e+00
1.950000000000000000e+02,-6.227168668098811422e-01,0.000000000000000000e+00
1.960000000000000000e+02,-1.186543259387603078e+00,0.000000000000000000e+00
1.970000000000000000e+02,-1.818001219168647431e+00,0.000000000000000000e+00
1.980000000000000000e+02,-1.165542154901702654e+00,0.000000000000000000e+00
1.990000000000000000e+02,-1.427751421815659949e+00,0.000000000000000000e+00
2.000000000000000000e+02,-1.351134566775461732e+00,0.000000000000000000e+00
2.010000000000000000e+02,-1.008230359934057851e+00,0.000000000000000000e+00
2.020000000000000000e+02,-1.085825558994102824e+00,0.000000000000000000e+00
2.030000000000000000e+02,-7.167364639463705833e-01,0.000000000000000000e+00
2.040000000000000000e+02,-4.219264418397860039e-01,0.000000000000000000e+00
2.050000000000000000e+02,-7.172108126076174317e-01,0.000000000000000000e+00
2.060000000000000000e+02,-1.791000768495611684e-01,0.000000000000000000e+00
2.070000000000000000e+02,-8.141502149226245155e-01,0.000000000000000000e+00
2.080000000000000000e+02,-5.021856397509537606e-01,0.000000000000000000e+00
2.090000000000000000e+02,-3.889436485868286164e-01,0.000000000000000000e+00
2.100000000000000000e+02,-1.844660028048724920e-01,0.000000000000000000e+00
2.110000000000000000e+02,-3.283554955214564863e-01,0.000000000000000000e+00
2.120000000000000000e+02,-4.777115311961561972e-02,0.000000000000000000e+00
2.130000000000000000e+02,-1.331642894458706095e-01,0.000000000000000000e+00
2.140000000000000000e+02,1.686592719941781005e-01,0.000000000000000000e+00
2.150000000000000000e+02,-2.724523371168706132e-01,0.000000000000000000e+00
2.160000000000000000e+02,3.935302352208675664e-02,0.000000000000000000e+00
2.170000000000000000e+02,-3.522646205610675124e-02,0.000000000000000000e+00
2.180000000000000000e+02,4.090818413291502642e-02,0.000000000000000000e+00
2.190000000000000000e+02,-1.706892048585650565e-02,0.000000000000000000e+00
2.200000000000000000e+02,3.519347449560507601e-01,0.000000000000000000e+00
2.210000000000000000e+02,9.344871688514289065e-02,0.000000000000000000e+00
2.220000000000000000e+02,4.855586998301710810e-01,0.000000000000000000e+00
2.230000000000000000e+02,3.658309588212211444e-02,0.000000000000000000e+00
2.240000000000000000e+02,3.902395059753235307e-01,0.000000000000000000e+00
2.250000000000000000e+02,-2.893026442947921675e-02,0.000000000000000000e+00
2.260000000000000000e+02,3.016887158460501706e+00,0.000000000000000000e+00
2.270000000000000000e+02,3.250880223454487794e+00,0.000000000000000000e+00
2.280000000000000000e+02,-2.184750288376683169e+00,1.000000000000000000e+00
2.290000000000000000e+02,-7.760710433058165547e-02,0.000000000000000000e+00
2.300000000000000000e+02,-2.461816135148413576e-01,0.000000000000000000e+00
2.310000000000000000e+02,2.486065005936563266e-01,0.000000000000000000e+00
2.320000000000000000e+02,-1.214171785830539946e-01,0.000000000000000000e+00
2.330000000000000000e+02,1.819852359093807603e-01,0.000000000000000000e+00
2.340000000000000000e+02,-1.146414017439853772e-01,0.000000000000000000e+00
2.350000000000000000e+02,1.710119812640852333e-01,0.000000000000000000e+00
2.360000000000000000e+02,9.260236716155695325e-02,0.000000000000000000e+00
2.370000000000000000e+02,3.790686412705430164e-01,0.000000000000000000e+00
2.380000000000000000e+02,1.195048932933623770e-01,0.000000000000000000e+00
2.390000000000000000e+02,4.808181777406481672e-01,0.000000000000000000e+00
2.400000000000000000e+02,5.676705686289549302e-01,0.000000000000000000e+00
2.410000000000000000e+02,6.460902712927210079e-01,0.000000000000000000e+00
2.420000000000000000e+02,5.126086265037165246e-01,0.000000000000000000e+00
2.430000000000000000e+02,7.575115726994018361e-01,0.000000000000000000e+00
2.440000000000000000e+02,1.130118348254017802e+00,0.000000000000000000e+00
2.450000000000000000e+02,1.420326819915339822e+00,0.000000000000000000e+00
2.460000000000000000e+02,1.096736344808797003e+00,0.000000000000000000e+00
2.470000000000000000e+02,1.214566461304649847e+00,0.000000000000000000e+00
2.480000000000000000e+02,-2.837942113744583092e-02,0.000000000000000000e+00
2.490000000000000000e+02,-5.436546282479648440e-01,0.000000000000000000e+00
2.500000000000000000e+02,-1.402960155000744891e+00,0.000000000000000000e+00
2.510000000000000000e+02,-1.272859282309633411e+00,0.000000000000000000e+00
2.520000000000000000e+02,-1.493371824995790131e+00,0.000000000000000000e+00
2.530000000000000000e+02,-1.058667739713679667e+00,0.000000000000000000e+00
2.540000000000000000e+02,-1.204194469972997172e+00,0.000000000000000000e+00
2.550000000000000000e+02,-9.905760167561908913e-01,0.000000000000000000e+00
2.560000000000000000e+02,-9.322772297363040028e-01,0.000000000000000000e+00
2.570000000000000000e+02,-7.785530849137815013e-01,0.000000000000000000e+00
2.580000000000000000e+02,-5.820428041544848385e-01,0.000000000000000000e+00
2.590000000000000000e+02,-3.144421274530547761e-01,0.000000000000000000e+00
2.600000000000000000e+02,-6.479311351346027648e-01,0.000000000000000000e+00
2.610000000000000000e+02,-3.932667571051329247e-01,0.000000000000000000e+00
2.620000000000000000e+02,-2.597172056941811080e-01,0.000000000000000000e+00
2.630000000000000000e+02,-4.031446528869259138e-01,0.000000000000000000e+00
2.640000000000000000e+02,-3.753241327095012680e-01,0.000000000000000000e+00
2.650000000000000000e+02,-1.954351330338850445e-01,0.000000000000000000e+00
2.660000000000000000e+02,-2.628207540475215320e-01,0.000000000000000000e+00
2.670000000000000000e+02,-2.232023172323184187e-02,0.000000000000000000e+00
2.680000000000000000e+02,-1.917378197934640760e-01,0.000000000000000000e+00
2.690000000000000000e+02,-1.254215254237130428e-01,0.000000000000000000e+00
2.700000000000000000e+02,1.195570859461581731e-01,0.000000000000000000e+00
2.710000000000000000e+02,2.700997822297001791e-02,0.000000000000000000e+00
2.720000000000000000e+02,4.677868887322594177e-02,0.000000000000000000e+00
2.730000000000000000e+02,1.478830928256738841e-01,0.000000000000000000e+00
2.740000000000000000e+02,-2.912860331114013046e-02,0.000000000000000000e+00
2.750000000000000000e+02,4.126796483069168353e-01,0.000000000000000000e+00
2.760000000000000000e+02,3.676786897824979757e-03,0.000000000000000000e+00
2.770000000000000000e+02,3.634571344770915480e-01,0.000000000000000000e+00
2.780000000000000000e+02,-1.052865345308639927e-01,0.000000000000000000e+00
2.790000000000000000e+02,4.145053563627280613e-01,0.000000000000000000e+00
2.800000000000000000e+02,7.221464770659187515e-02,0.000000000000000000e+00
2.810000000000000000e+02,2.299760666963322209e-01,0.000000000000000000e+00
2.820000000000000000e+02,3.508012448375489450e-02,0.000000000000000000e+00
2.830000000000000000e+02,3.925886998358730784e-01,0.000000000000000000e+00
2.840000000000000000e+02,2.455613055209192597e-01,0.000000000000000000e+00
2.850000000000000000e+02,4.118094205843956246e-01,0.000000000000000000e+00
2.860000000000000000e+02,1.450528765174016466e-01,0.000000000000000000e+00
2.870000000000000000e+02,3.330664690282471585e-01,0.000000000000000000e+00
2.880000000000000000e+02,3.145803002882777699e-01,0.000000000000000000e+00
2.890000000000000000e+02,3.735682697156600396e-01,0.000000000000000000e+00
2.900000000000000000e+02,2.513849787402353542e-01,0.000000000000000000e+00
2.910000000000000000e+02,4.001841445815184084e-01,0.000000000000000000e+00
2.920000000000000000e+02,1.950135503360197198e-01,0.000000000000000000e+00
2.930000000000000000e+02,5.044701879029468428e-01,0.000000000000000000e+00
2.940000000000000000e+02,7.204131689488312007e-02,0.000000000000000000e+00
2.950000000000000000e+02,3.403594709783559935e+00,0.000000000000000000e+00
2.960000000000000000e+02,3.044763127793768120e+00,0.000000000000000000e+00
2.970000000000000000e+02,-2.240256090454317839e+00,1.000000000000000000e+00
2.980000000000000000e+02,-5.619912071199071324e-01,0.000000000000000000e+00
2.990000000000000000e+02,8.141932035656945787e-02,0.000000000000000000e+00
3.000000000000000000e+02,-2.099994682190919337e-01,0.000000000000000000e+00
3.010000000000000000e+02,-2.274185279140026605e-01,0.000000000000000000e+00
3.020000000000000000e+02,2.620031050456604338e-01,0.000000000000000000e+00
3.030000000000000000e+02,-3.075179879427774599e-01,0.000000000000000000e+00
3.040000000000000000e+02,1.407487323684846192e-01,0.000000000000000000e+00
3.050000000000000000e+02,1.452320951233646018e-01,0.000000000000000000e+00
3.060000000000000000e+02,1.020156349836672804e-01,0.000000000000000000e+00
3.070000000000000000e+02,-2.676136547124066123e-01,0.000000000000000000e+00
3.080000000000000000e+02,2.547327343435905056e-01,0.000000000000000000e+00
3.090000000000000000e+02,4.174472012368317664e-01,0.000000000000000000e+00
3.100000000000000000e+02,1.199281136847232532e-01,0.000000000000000000e+00
3.110000000000000000e+02,3.316349266831797871e-01,0.000000000000000000e+00
3.120000000000000000e+02,4.836007285607656359e-01,0.000000000000000000e+00
3.130000000000000000e+02,1.048728667028273165e+00,0.000000000000000000e+00
3.140000000000000000e+02,8.614563228573938192e-01,0.000000000000000000e+00
3.150000000000000000e+02,1.523482990019886962e+00,0.000000000000000000e+00
3.160000000000000000e+02,1.251772740775752846e+00,0.000000000000000000e+00
3.170000000000000000e+02,1.840229480565543918e-01,0.000000000000000000e+00
3.180000000000000000e+02,-6.803948246286686263e-01,0.000000000000000000e+00
3.190000000000000000e+02,-1.557645611316190726e+00,0.000000000000000000e+00
3.200000000000000000e+02,-1.659006797392404087e+00,0.000000000000000000e+00
3.210000000000000000e+02,-1.718119397163171191e+00,0.000000000000000000e+00
3.220000000000000000e+02,-1.917334204035790579e+00,0.000000000000000000e+00
3.230000000000000000e+02,-1.232785812152271454e+00,0.000000000000000000e+00
3.240000000000000000e+02,-1.465598440607011943e+00,0.000000000000000000e+00
3.250000000000000000e+02,-8.530306882755042119e-01,0.000000000000000000e+00
3.260000000000000000e+02,-1.382757338402166081e+00,0.000000000000000000e+00
3.270000000000000000e+02,-1.054523877396533749e+00,0.000000000000000000e+00
3.280000000000000000e+02,-6.138028679818902100e-01,0.000000000000000000e+00
3.290000000000000000e+02,-9.806826009027052038e-01,0.000000000000000000e+00
3.300000000000000000e+02,-3.113586849068329943e-01,0.000000000000000000e+00
3.310000000000000000e+02,-5.805715917139562254e-01,0.000000000000000000e+00
3.320000000000000000e+02,-8.100112009292138593e-01,0.000000000000000000e+00
3.330000000000000000e+02,-2.747514132046720570e-01,0.000000000000000000e+00
3.340000000000000000e+02,-4.105308125504135708e-01,0.000000000000000000e+00
3.350000000000000000e+02,-1.868763167858696339e-01,0.000000000000000000e+00
3.360000000000000000e+02,-4.794060062162421865e-01,0.000000000000000000e+00
3.370000000000000000e+02,-2.812931009262927273e-01,0.000000000000000000e+00
3.380000000000000000e+02,-9.539880388712436432e-02,0.000000000000000000e+00
3.390000000000000000e+02,3.247027038568838231e-01,0.000000000000000000e+00
3.400000000000000000e+02,-2.326533411204566304e-01,0.000000000000000000e+00
3.410000000000000000e+02,1.945173107159814674e-01,0.000000000000000000e+00
3.420000000000000000e+02,-1.002037249109472006e-01,0.000000000000000000e+00
3.430000000000000000e+02,4.340922246271217699e-01,0.000000000000000000e+00
3.440000000000000000e+02,1.701990684793942554e-01,0.000000000000000000e+00
3.450000000000000000e+02,2.633127518412317625e-01,0.000000000000000000e+00
3.460000000000000000e+02,2.761062077954227201e-01,0.000000000000000000e+00
3.470000000000000000e+02,2.600282405817084808e-01,0.000000000000000000e+00
3.480000000000000000e+02,3.988826334992431333e-01,0.000000000000000000e+00
3.490000000000000000e+02,2.471810754897341422e-01,0.000000000000000000e+00
3.500000000000000000e+02,3.008157845803242636e-01,0.000000000000000000e+00
3.510000000000000000e+02,5.518743314564642510e-01,0.000000000000000000e+00
3.520000000000000000e+02,1.493826815706202904e-01,0.000000000000000000e+00
3.530000000000000000e+02,7.148961087151095573e-01,0.000000000000000000e+00
3.540000000000000000e+02,4.407604113678827429e-01,0.000000000000000000e+00
3.550000000000000000e+02,4.582951632540739340e+00,0.000000000000000000e+00
3.560000000000000000e+02,1.127860392450257487e+00,1.000000000000000000e+00
3.570000000000000000e+02,-2.371152890849843597e+00,0.000000000000000000e+00
3.580000000000000000e+02,3.709872230248387748e-01,0.000000000000000000e+00
3.590000000000000000e+02,-4.161057692278069542e-01,0.000000000000000000e+00
3.600000000000000000e+02,3.285280501379769791e-01,0.000000000000000000e+00
3.610000000000000000e+02,6.380476886974302542e-02,0.000000000000000000e+00
3.620000000000000000e+02,3.474126166017192929e-01,0.000000000000000000e+00
3.630000000000000000e+02,1.515267961543212138e-01,0.000000000000000000e+00
3.640000000000000000e+02,2.252676393172440839e-01,0.000000000000000000e+00
3.650000000000000000e+02,4.614418855438024991e-01,0.000000000000000000e+00
3.660000000000000000e+02,-9.271100705051073254e-02,0.000000000000000000e+00
3.670000000000000000e+02,3.708975820294281300e-01,0.000000000000000000e+00
3.680000000000000000e+02,2.292277194148668318e-01,0.000000000000000000e+00
3.690000000000000000e+02,3.161420086406252494e-01,0.000000000000000000e+00
3.700000000000000000e+02,6.535872292881702572e-01,0.000000000000000000e+00
3.710000000000000000e+02,3.885258771156172020e-01,0.000000000000000000e+00
3.720000000000000000e+02,1.195266270231925443e+00,0.000000000000000000e+00
3.730000000000000000e+02,9.782530075180908558e-01,0.000000000000000000e+00
3.740000000000000000e+02,1.633283731538495154e+00,0.000000000000000000e+00
3.750000000000000000e+02,1.215073392218689818e+00,0.000000000000000000e+00
3.760000000000000000e+02,1.183165426427514211e+00,0.000000000000000000e+00
3.770000000000000000e+02,-1.561651785479702681e-01,0.000000000000000000e+00
3.780000000000000000e+02,-7.778492959544437424e-01,0.000000000000000000e+00
3.790000000000000000e+02,-1.362087868624937581e+00,0.000000000000000000e+00
3.800000000000000000e+02,-1.291447046265119969e+00,0.000000000000000000e+00
3.810000000000000000e+02,-1.758310373508385149e+00,0.000000000000000000e+00
3.820000000000000000e+02,-9.333721358065062423e-01,0.000000000000000000e+00
3.830000000000000000e+02,-1.242658667017570551e+00,0.000000000000000000e+00
3.840000000000000000e+02,-9.967166804219828036e-01,0.000000000000000000e+00
3.850000000000000000e+02,-9.764373823820833298e-01,0.000000000000000000e+00
3.860000000000000000e+02,-8.370563649486650881e-01,0.000000000000000000e+00
3.870000000000000000e+02,-8.932716122784688517e-01,0.000000000000000000e+00
3.880000000000000000e+02,-5.964577312119929697e-01,0.000000000000000000e+00
3.890000000000000000e+02,-6.011255819493622754e-01,0.000000000000000000e+00
3.900000000000000000e+02,-5.346456568613290328e-01,0.000000000000000000e+00
3.910000000000000000e+02,-3.038753360808342241e-01,0.000000000000000000e+00
3.920000000000000000e+02,-2.497871587103754065e-01,0.000000000000000000e+00
3.930000000000000000e+02,-3.361779692675787024e-01,0.000000000000000000e+00
3.940000000000000000e+02,-3.289538231815598013e-01,0.000000000000000000e+00
3.950000000000000000e+02,-4.795453146046705362e-01,0.000000000000000000e+00
3.960000000000000000e+02,-1.113033096608156552e-01,0.000000000000000000e+00
3.970000000000000000e+02,3.321403033530394289e-02,0.000000000000000000e+00
3.980000000000000000e+02,1.624086387386312336e-01,0.000000000000000000e+00
3.990000000000000000e+02,-9.231950276634352803e-02,0.000000000000000000e+00
4.000000000000000000e+02,2.455641041613131348e-01,0.000000000000000000e+00
4.010000000000000000e+02,2.864355195619337421e-02,0.000000000000000000e+00
4.020000000000000000e+02,6.811707804582585457e-02,0.000000000000000000e+00
4.030000000000000000e+02,3.826660541437715279e-01,0.000000000000000000e+00
4.040000000000000000e+02,-1.259628624371292027e-01,0.000000000000000000e+00
4.050000000000000000e+02,2.192757469780582391e-01,0.000000000000000000e+00
4.060000000000000000e+02,2.800742242001472149e-01,0.000000000000000000e+00
4.070000000000000000e+02,2.425285085942852636e-01,0.000000000000000000e+00
4.080000000000000000e+02,8.460798567591933106e-02,0.000000000000000000e+00
4.090000000000000000e+02,7.608686145534504508e-01,0.000000000000000000e+00
4.100000000000000000e+02,-1.457252861941401301e-01,0.000000000000000000e+00
4.110000000000000000e+02,7.952647402745346428e-01,0.000000000000000000e+00
4.120000000000000000e+02,-1.002852597562640669e-01,0.000000000000000000e+00
4.130000000000000000e+02,5.646556152601680534e-01,0.000000000000000000e+00
4.140000000000000000e+02,1.107135894674307758e-01,0.000000000000000000e+00
4.150000000000000000e+02,3.140291947454562749e+00,0.000000000000000000e+00
4.160000000000000000e+02,3.567865651951626305e+00,0.000000000000000000e+00
4.170000000000000000e+02,-1.789864286891819534e+00,1.000000000000000000e+00
4.180000000000000000e+02,-4.765638142587350079e-01,0.000000000000000000e+00
4.190000000000000000e+02,-2.374186104075476089e-01,0.000000000000000000e+00
4.200000000000000000e+02,1.113074464982826035e-02,0.000000000000000000e+00
4.210000000000000000e+02,-1.783023401946395026e-01,0.000000000000000000e+00
4.220000000000000000e+02,1.631169296691817663e-02,0.000000000000000000e+00
4.230000000000000000e+02,-1.599788222439177954e-01,0.000000000000000000e+00
4.240000000000000000e+02,1.095517149565732734e-01,0.000000000000000000e+00
4.250000000000000000e+02,7.078352904971711712e-02,0.000000000000000000e+00
4.260000000000000000e+02,1.446083133009463395e-01,0.000000000000000000e+00
4.270000000000000000e+02,1.902707304458902682e-01,0.000000000000000000e+00
4.280000000000000000e+02,3.309433551107150429e-01,0.000000000000000000e+00
4.290000000000000000e+02,2.131834140940177535e-01,0.000000000000000000e+00
4.300000000000000000e+02,4.728247514626726655e-01,0.000000000000000000e+00
4.310000000000000000e+02,6.196217990789457675e-01,0.000000000000000000e+00
4.320000000000000000e+02,8.313109415975191707e-01,0.000000000000000000e+00
4.330000000000000000e+02,1.085551318442428137e+00,0.000000000000000000e+00
4.340000000000000000e+02,1.455109734762111140e+00,0.000000000000000000e+00
4.350000000000000000e+02,1.462675356431256013e+00,0.000000000000000000e+00
4.360000000000000000e+02,1.287150302401107282e+00,0.000000000000000000e+00
4.370000000000000000e+02,3.623751714848907346e-01,0.000000000000000000e+00
4.380000000000000000e+02,-5.431665912309113775e-01,0.000000000000000000e+00
4.390000000000000000e+02,-1.466721061941710147e+00,0.000000000000000000e+00
4.400000000000000000e+02,-1.452907570569177853e+00,0.000000000000000000e+00
4.410000000000000000e+02,-1.682629653246672685e+00,0.000000000000000000e+00
4.420000000000000000e+02,-1.371057598406828504e+00,0.000000000000000000e+00
4.430000000000000000e+02,-1.266635065946520422e+00,0.000000000000000000e+00
4.440000000000000000e+02,-9.583980899512014595e-01,0.000000000000000000e+00
4.450000000000000000e+02,-1.388547701577381277e+00,0.000000000000000000e+00
4.460000000000000000e+02,-6.699183625180116231e-01,0.000000000000000000e+00
4.470000000000000000e+02,-6.697291000348987167e-01,0.000000000000000000e+00
4.480000000000000000e+02,-7.843859269117363642e-01,0.000000000000000000e+00
4.490000000000000000e+02,-6.155859597140455053e-01,0.000000000000000000e+00
4.500000000000000000e+02,-5.357736567692161778e-01,0.000000000000000000e+00
4.510000000000000000e+02,-7.420124081644147163e-01,0.000000000000000000e+00
4.520000000000000000e+02,-1.315968810899651176e-01,0.000000000000000000e+00
4.530000000000000000e+02,-5.170570086497670026e-01,0.000000000000000000e+00
4.540000000000000000e+02,-1.035368572700555989e-01,0.000000000000000000e+00
4.550000000000000000e+02,-3.211773120177826568e-01,0.000000000000000000e+00
4.560000000000000000e+02,-9.121783097699839860e-02,0.000000000000000000e+00
4.570000000000000000e+02,-2.572675641124561596e-01,0.000000000000000000e+00
4.580000000000000000e+02,-1.410244736947972033e-01,0.000000000000000000e+00
4.590000000000000000e+02,-2.357719812337737419e-01,0.000000000000000000e+00
4.600000000000000000e+02,-3.254677742565931786e-01,0.000000000000000000e+00
4.610000000000000000e+02,1.346568789658587062e-01,0.000000000000000000e+00
4.620000000000000000e+02,3.356223265908604980e-01,0.000000000000000000e+00
4.630000000000000000e+02,4.059866209349766858e-02,0.000000000000000000e+00
4.640000000000000000e+02,2.301421099310898000e-01,0.000000000000000000e+00
4.650000000000000000e+02,7.374543316655757241e-02,0.000000000000000000e+00
4.660000000000000000e+02,3.144868750939610602e-01,0.000000000000000000e+00
4.670000000000000000e+02,2.247163968680120361e-01,0.000000000000000000e+00
4.680000000000000000e+02,5.443554570972903434e-02,0.000000000000000000e+00
4.690000000000000000e+02,-2.529134500968007182e-01,0.000000000000000000e+00
4.700000000000000000e+02,2.568111916218390745e-01,0.000000000000000000e+00
4.710000000000000000e+02,2.376375120959807186e-01,0.000000000000000000e+00
4.720000000000000000e+02,2.917110788826072221e-01,0.000000000000000000e+00
4.730000000000000000e+02,5.935198555373061291e-02,0.000000000000000000e+00
4.740000000000000000e+02,4.030272731555024635e-01,0.000000000000000000e+00
4.750000000000000000e+02,3.844509359692582090e-02,0.000000000000000000e+00
4.760000000000000000e+02,2.974781525928487103e-01,0.000000000000000000e+00
4.770000000000000000e+02,3.125903234149481902e-01,0.000000000000000000e+00
4.780000000000000000e+02,1.101247359364802003e-01,0.000000000000000000e+00
4.790000000000000000e+02,3.388707411137979464e-01,0.000000000000000000e+00
4.800000000000000000e+02,8.119333745776962097e-01,0.000000000000000000e+00
4.810000000000000000e+02,-2.003241564419849796e-01,0.000000000000000000e+00
4.820000000000000000e+02,1.016275549775859099e+00,0.000000000000000000e+00
4.830000000000000000e+02,-1.539868292911518444e-01,0.000000000000000000e+00
4.840000000000000000e+02,4.119037284587292014e+00,0.000000000000000000e+00
4.850000000000000000e+02,2.135226760592660700e+00,1.000000000000000000e+00
4.860000000000000000e+02,-2.789267466305926479e+00,0.000000000000000000e+00
4.870000000000000000e+02,1.191468626592527280e-01,0.000000000000000000e+00
4.880000000000000000e+02,-4.646918962918151763e-01,0.000000000000000000e+00
4.890000000000000000e+02,2.910431521603125127e-01,0.000000000000000000e+00
4.900000000000000000e+02,-2.839183812151283570e-01,0.000000000000000000e+00
4.910000000000000000e+02,1.853551113071594258e-01,0.000000000000000000e+00
4.920000000000000000e+02,-4.723004638209156447e-02,0.000000000000000000e+00
4.930000000000000000e+02,1.461020722189247112e-01,0.000000000000000000e+00
4.940000000000000000e+02,-1.995016012690731810e-01,0.000000000000000000e+00
4.950000000000000000e+02,5.748960133923243510e-02,0.000000000000000000e+00
4.960000000000000000e+02,-3.035659112838547460e-02,0.000000000000000000e+00
4.970000000000000000e+02,3.419167812921423133e-01,0.000000000000000000e+00
4.980000000000000000e+02,7.687258298142216062e-02,0.000000000000000000e+00
4.990000000000000000e+02,5.080136212075873070e-01,0.000000000000000000e+00
5.000000000000000000e+02,2.852346041939705645e-01,0.000000000000000000e+00
5.010000000000000000e+02,9.148213235675316524e-01,0.000000000000000000e+00
5.020000000000000000e+02,4.587323989509045630e-01,0.000000000000000000e+00
5.030000000000000000e+02,1.580835872057531954e+00,0.000000000000000000e+00
5.040000000000000000e+02,1.131383851388781281e+00,0.000000000000000000e+00
5.050000000000000000e+02,1.294436599729836823e+00,0.000000000000000000e+00
5.060000000000000000e+02,2.619414949824943051e-01,0.000000000000000000e+00
5.070000000000000000e+02,-6.032864576562088077e-01,0.000000000000000000e+00
5.080000000000000000e+02,-1.325580988232037738e+00,0.000000000000000000e+00
5.090000000000000000e+02,-1.367341248636807283e+00,0.000000000000000000e+00
5.100000000000000000e+02,-1.939752138083878474e+00,0.000000000000000000e+00
5.110000000000000000e+02,-1.606390104854133583e+00,0.000000000000000000e+00
5.120000000000000000e+02,-1.468831860612509255e+00,0.000000000000000000e+00
5.130000000000000000e+02,-9.715174995418254245e-01,0.000000000000000000e+00
5.140000000000000000e+02,-9.601128788915189727e-01,0.000000000000000000e+00
5.150000000000000000e+02,-8.632852376017537965e-01,0.000000000000000000e+00
5.160000000000000000e+02,-5.041880900359824169e-01,0.000000000000000000e+00
5.170000000000000000e+02,-9.260197886977924453e-01,0.000000000000000000e+00
5.180000000000000000e+02,-3.453362623907883511e-01,0.000000000000000000e+00
5.190000000000000000e+02,-5.524915727501870100e-01,0.000000000000000000e+00
5.200000000000000000e+02,-5.265843833089136616e-01,0.000000000000000000e+00
5.210000000000000000e+02,-3.425437725151318502e-01,0.000000000000000000e+00
5.220000000000000000e+02,-4.281807662407955406e-01,0.000000000000000000e+00
5.230000000000000000e+02,-2.713820716321658222e-01,0.000000000000000000e+00
5.240000000000000000e+02,-7.225878349951254942e-02,0.000000000000000000e+00
5.250000000000000000e+02,-1.887705330204023924e-01,0.000000000000000000e+00
5.260000000000000000e+02,-2.848652261521629203e-01,0.000000000000000000e+00
5.270000000000000000e+02,9.617472091860647387e-02,0.000000000000000000e+00
5.280000000000000000e+02,-2.258982950826841085e-01,0.000000000000000000e+00
5.290000000000000000e+02,1.225226385467330370e-01,0.000000000000000000e+00
5.300000000000000000e+02,1.459791305163526121e-01,0.000000000000000000e+00
5.310000000000000000e+02,3.627773463290754896e-01,0.000000000000000000e+00
5.320000000000000000e+02,3.158573424923296485e-02,0.000000000000000000e+00
5.330000000000000000e+02,5.132658723082822450e-01,0.000000000000000000e+00
5.340000000000000000e+02,-1.748702289727618320e-01,0.000000000000000000e+00
5.350000000000000000e+02,3.391994775201008228e-01,0.000000000000000000e+00
5.360000000000000000e+02,7.399072785348824455e-02,0.000000000000000000e+00
5.370000000000000000e+02,3.888776244974557206e-01,0.000000000000000000e+00
5.380000000000000000e+02,3.352805163904524766e-01,0.000000000000000000e+00
5.390000000000000000e+02,4.789363919606000608e-01,0.000000000000000000e+00
5.400000000000000000e+02,3.213474242693126759e-01,0.000000000000000000e+00
5.410000000000000000e+02,5.139884876566387373e-01,0.000000000000000000e+00
5.420000000000000000e+02,-1.228143870158320862e-02,0.000000000000000000e+00
5.430000000000000000e+02,4.852083062816804349e-01,0.000000000000000000e+00
5.440000000000000000e+02,-2.245621496033400888e-02,0.000000000000000000e+00
5.450000000000000000e+02,6.111233543265875978e-01,0.000000000000000000e+00
5.460000000000000000e+02,1.007807512349743057e-01,0.000000000000000000e+00
5.470000000000000000e+02,4.026701296139973074e+00,0.000000000000000000e+00
5.480000000000000000e+02,2.605873359974731240e+00,1.000000000000000000e+00
5.490000000000000000e+02,-2.185361202853038254e+00,0.000000000000000000e+00
5.500000000000000000e+02,-2.141991924347398935e-01,0.000000000000000000e+00
5.510000000000000000e+02,-4.460876419055707642e-01,0.000000000000000000e+00
5.520000000000000000e+02,7.076032170102293517e-02,0.000000000000000000e+00
5.530000000000000000e+02,-2.782441479045931823e-02,0.000000000000000000e+00
5.540000000000000000e+02,1.359237217368715889e-01,0.000000000000000000e+00
5.550000000000000000e+02,1.099368694117563855e-01,0.000000000000000000e+00
5.560000000000000000e+02,5.774146457397592164e-02,0.000000000000000000e+00
5.570000000000000000e+02,-2.508698186968799648e-02,0.000000000000000000e+00
5.580000000000000000e+02,3.225456770906619530e-01,0.000000000000000000e+00
5.590000000000000000e+02,-2.798653564987524378e-01,0.000000000000000000e+00
5.600000000000000000e+02,1.395440590849452156e-01,0.000000000000000000e+00
5.610000000000000000e+02,2.724808484868848080e-01,0.000000000000000000e+00
5.620000000000000000e+02,1.734462556568218961e-01,0.000000000000000000e+00
5.630000000000000000e+02,6.946236784981805190e-01,0.000000000000000000e+00
5.640000000000000000e+02,7.233898532740201670e-01,0.000000000000000000e+00
5.650000000000000000e+02,1.009848901300874902e+00,0.000000000000000000e+00
5.660000000000000000e+02,1.117241582589231674e+00,0.000000000000000000e+00
5.670000000000000000e+02,1.409921046529444943e+00,0.000000000000000000e+00
5.680000000000000000e+02,1.020922460604188897e+00,0.000000000000000000e+00
5.690000000000000000e+02,6.064045034082404806e-01,0.000000000000000000e+00
5.700000000000000000e+02,-6.733401668628612446e-01,0.000000000000000000e+00
5.710000000000000000e+02,-1.085196887918253417e+00,0.000000000000000000e+00
5.720000000000000000e+02,-1.233522924193932280e+00,0.000000000000000000e+00
5.730000000000000000e+02,-1.513637974132244102e+00,0.000000000000000000e+00
5.740000000000000000e+02,-1.020537493920953720e+00,0.000000000000000000e+00
5.750000000000000000e+02,-1.594996963893170250e+00,0.000000000000000000e+00
5.760000000000000000e+02,-9.703771060328374443e-01,0.000000000000000000e+00
5.770000000000000000e+02,-1.088165019840995784e+00,0.000000000000000000e+00
5.780000000000000000e+02,-1.128470081417138227e+00,0.000000000000000000e+00
5.790000000000000000e+02,-4.075497402098848809e-01,0.000000000000000000e+00
5.800000000000000000e+02,-7.983657877860930174e-01,0.000000000000000000e+00
5.810000000000000000e+02,-3.729356927498770902e-01,0.000000000000000000e+00
5.820000000000000000e+02,-5.642178091892671166e-01,0.000000000000000000e+00
5.830000000000000000e+02,-4.628973128536497672e-01,0.000000000000000000e+00
5.840000000000000000e+02,-4.573107075472112037e-01,0.000000000000000000e+00
5.850000000000000000e+02,-4.290552512516513373e-01,0.000000000000000000e+00
5.860000000000000000e+02,-3.536514183859185145e-01,0.000000000000000000e+00
5.870000000000000000e+02,-1.679567648405403957e-01,0.000000000000000000e+00
5.880000000000000000e+02,-2.326786747062175031e-01,0.000000000000000000e+00
5.890000000000000000e+02,5.622054540865900618e-02,0.000000000000000000e+00
5.900000000000000000e+02,-2.897561277216963438e-01,0.000000000000000000e+00
5.910000000000000000e+02,2.346069178440337577e-01,0.000000000000000000e+00
5.920000000000000000e+02,1.165006735227492804e-02,0.000000000000000000e+00
5.930000000000000000e+02,-1.859918018204287093e-01,0.000000000000000000e+00
5.940000000000000000e+02,-1.892723997269391556e-01,0.000000000000000000e+00
5.950000000000000000e+02,1.052465600556283937e-01,0.000000000000000000e+00
5.960000000000000000e+02,8.697186294756863861e-03,0.000000000000000000e+00
5.970000000000000000e+02,4.194462580699410692e-01,0.000000000000000000e+00
5.980000000000000000e+02,1.083507517455906399e-01,0.000000000000000000e+00
5.990000000000000000e+02,3.611075757368657491e-01,0.000000000000000000e+00
6.000000000000000000e+02,1.120840126401039250e-01,0.000000000000000000e+00
6.010000000000000000e+02,2.293152262464120295e+00,0.000000000000000000e+00
6.020000000000000000e+02,4.545538107161371855e+00,0.000000000000000000e+00
6.030000000000000000e+02,-2.234799462349328358e+00,1.000000000000000000e+00
6.040000000000000000e+02,-5.731821912084904547e-01,0.000000000000000000e+00
6.050000000000000000e+02,2.912164836759286723e-01,0.000000000000000000e+00
6.060000000000000000e+02,-1.725578781848481624e-01,0.000000000000000000e+00
6.070000000000000000e+02,2.669620413184534136e-01,0.000000000000000000e+00
6.080000000000000000e+02,-1.944360574897136540e-01,0.000000000000000000e+00
6.090000000000000000e+02,5.006742104896435425e-02,0.000000000000000000e+00
6.100000000000000000e+02,1.905667320358184758e-01,0.000000000000000000e+00
6.110000000000000000e+02,9.452855319121875044e-02,0.000000000000000000e+00
6.120000000000000000e+02,3.109997237900349321e-01,0.000000000000000000e+00
6.130000000000000000e+02,3.615810569867219382e-01,0.000000000000000000e+00
6.140000000000000000e+02,2.658481858589971658e-01,0.000000000000000000e+00
6.150000000000000000e+02,3.931342849014772267e-01,0.000000000000000000e+00
6.160000000000000000e+02,4.395688635383738774e-01,0.000000000000000000e+00
6.170000000000000000e+02,8.001238839803545000e-01,0.000000000000000000e+00
6.180000000000000000e+02,7.913699989278459856e-01,0.000000000000000000e+00
6.190000000000000000e+02,1.109595568701623236e+00,0.000000000000000000e+00
6.200000000000000000e+02,1.437745719704961678e+00,0.000000000000000000e+00
6.210000000000000000e+02,1.725060112305943916e+00,0.000000000000000000e+00
6.220000000000000000e+02,1.185601524243320215e+00,0.000000000000000000e+00
6.230000000000000000e+02,4.707358959579362456e-01,0.000000000000000000e+00
6.240000000000000000e+02,-1.071767673724738357e+00,0.000000000000000000e+00
6.250000000000000000e+02,-1.319564145593985272e+00,0.000000000000000000e+00
6.260000000000000000e+02,-1.731666111497254468e+00,0.000000000000000000e+00
6.270000000000000000e+02,-1.863199783959119671e+00,0.000000000000000000e+00
6.280000000000000000e+02,-1.524406863070137952e+00,0.000000000000000000e+00
6.290000000000000000e+02,-1.327731307031061458e+00,0.000000000000000000e+00
6.300000000000000000e+02,-1.371681683436906551e+00,0.000000000000000000e+00
6.310000000000000000e+02,-1.137309305488299227e+00,0.000000000000000000e+00
6.320000000000000000e+02,-9.756768376391768971e-01,0.000000000000000000e+00
6.330000000000000000e+02,-7.821941451739553575e-01,0.000000000000000000e+00
6.340000000000000000e+02,-4.807088578438531434e-01,0.000000000000000000e+00
6.350000000000000000e+02,-6.809349317655135625e-01,0.000000000000000000e+00
6.360000000000000000e+02,-3.353418159420256672e-01,0.000000000000000000e+00
6.370000000000000000e+02,-3.931852987279448319e-01,0.000000000000000000e+00
6.380000000000000000e+02,-5.519970716430621094e-01,0.000000000000000000e+00
6.390000000000000000e+02,-2.244792899308595269e-01,0.000000000000000000e+00
6.400000000000000000e+02,-2.521053580421258045e-01,0.000000000000000000e+00
6.410000000000000000e+02,-3.371205353366973356e-01,0.000000000000000000e+00
6.420000000000000000e+02,-1.814167183465992261e-01,0.000000000000000000e+00
6.430000000000000000e+02,4.761816683302105314e-03,0.000000000000000000e+00
6.440000000000000000e+02,-3.233322598814515336e-01,0.000000000000000000e+00
6.450000000000000000e+02,3.436606692468007207e-01,0.000000000000000000e+00
6.460000000000000000e+02,-4.026981852143588642e-02,0.000000000000000000e+00
6.470000000000000000e+02,2.981905786341990106e-01,0.000000000000000000e+00
6.480000000000000000e+02,2.330378788473058960e-01,0.000000000000000000e+00
6.490000000000000000e+02,2.500112451830910354e-01,0.000000000000000000e+00
6.500000000000000000e+02,1.294632145843245707e+00,0.000000000000000000e+00
6.510000000000000000e+02,4.578212607893976660e+00,0.000000000000000000e+00
6.520000000000000000e+02,-9.247129358346934946e-01,1.000000000000000000e+00
6.530000000000000000e+02,-1.530439626191145708e+00,0.000000000000000000e+00
6.540000000000000000e+02,1.533300986301626145e-01,0.000000000000000000e+00
6.550000000000000000e+02,-2.292917362643083767e-01,0.000000000000000000e+00
6.560000000000000000e+02,3.999874308218911989e-01,0.000000000000000000e+00
6.570000000000000000e+02,5.969854529011216215e-02,0.000000000000000000e+00
6.580000000000000000e+02,1.965806818611361695e-01,0.000000000000000000e+00
6.590000000000000000e+02,1.060267421933871190e-01,0.000000000000000000e+00
6.600000000000000000e+02,4.357863903857797094e-01,0.000000000000000000e+00
6.610000000000000000e+02,2.580749007703393993e-01,0.000000000000000000e+00
6.620000000000000000e+02,5.116009325085282278e-01,0.000000000000000000e+00
6.630000000000000000e+02,4.059802919430705592e-01,0.000000000000000000e+00
6.640000000000000000e+02,6.778667272657513676e-01,0.000000000000000000e+00
6.650000000000000000e+02,4.232693759319648974e-01,0.000000000000000000e+00
6.660000000000000000e+02,8.002627743880479372e-01,0.000000000000000000e+00
6.670000000000000000e+02,1.032757373060426476e+00,0.000000000000000000e+00
6.680000000000000000e+02,1.430083511409385277e+00,0.000000000000000000e+00
6.690000000000000000e+02,1.666347520507739377e+00,0.000000000000000000e+00
6.700000000000000000e+02,1.876548587345284513e+00,0.000000000000000000e+00
6.710000000000000000e+02,1.371344413530852790e+00,0.000000000000000000e+00
6.720000000000000000e+02,2.393899205972757904e-01,0.000000000000000000e+00
6.730000000000000000e+02,-2.440055751398204631e-01,0.000000000000000000e+00
6.740000000000000000e+02,-1.529308073973709270e+00,0.000000000000000000e+00
6.750000000000000000e+02,-1.062489309784643954e+00,0.000000000000000000e+00
6.760000000000000000e+02,-1.785267583546059411e+00,0.000000000000000000e+00
6.770000000000000000e+02,-1.111982952521761492e+00,0.000000000000000000e+00
6.780000000000000000e+02,-1.366423431046503323e+00,0.000000000000000000e+00
6.790000000000000000e+02,-9.986711326197623695e-01,0.000000000000000000e+00
6.800000000000000000e+02,-8.249409835887139275e-01,0.000000000000000000e+00
6.810000000000000000e+02,-1.093247970768387534e+00,0.000000000000000000e+00
6.820000000000000000e+02,-4.359868845958830286e-01,0.000000000000000000e+00
6.830000000000000000e+02,-7.841323645625933869e-01,0.000000000000000000e+00
6.840000000000000000e+02,-1.711403079757502568e-02,0.000000000000000000e+00
6.850000000000000000e+02,-4.579790525262983913e-01,0.000000000000000000e+00
6.860000000000000000e+02,-4.105096678880461036e-01,0.000000000000000000e+00
6.870000000000000000e+02,-2.697157809510169479e-01,0.000000000000000000e+00
6.880000000000000000e+02,-3.641354435939919698e-01,0.000000000000000000e+00
6.890000000000000000e+02,9.806501668226214399e-03,0.000000000000000000e+00
6.900000000000000000e+02,-2.605609221102519468e-01,0.000000000000000000e+00
6.910000000000000000e+02,-4.995499551955254192e-02,0.000000000000000000e+00
6.920000000000000000e+02,-1.691593875098837407e-01,0.000000000000000000e+00
6.930000000000000000e+02,2.097115738368675042e-01,0.000000000000000000e+00
6.940000000000000000e+02,-1.848122076412591908e-01,0.000000000000000000e+00
6.950000000000000000e+02,-6.748222218777415182e-02,0.000000000000000000e+00
6.960000000000000000e+02,4.243607789550242204e-01,0.000000000000000000e+00
6.970000000000000000e+02,4.056503566249299197e+00,0.000000000000000000e+00
6.980000000000000000e+02,9.449771221053020476e-01,1.000000000000000000e+00
6.990000000000000000e+02,-2.461461989657145466e+00,0.000000000000000000e+00
7.000000000000000000e+02,3.185634084697541724e-01,0.000000000000000000e+00
7.010000000000000000e+02,-3.310621063235889561e-01,0.000000000000000000e+00
7.020000000000000000e+02,4.606537202534027875e-02,0.000000000000000000e+00
7.030000000000000000e+02,1.621686151061162151e-02,0.000000000000000000e+00
7.040000000000000000e+02,1.083712747867997261e-01,0.000000000000000000e+00
7.050000000000000000e+02,-4.164117143913530217e-02,0.000000000000000000e+00
7.060000000000000000e+02,2.406900361125412502e-01,0.000000000000000000e+00
7.070000000000000000e+02,1.934952450824947712e-01,0.000000000000000000e+00
7.080000000000000000e+02,3.618170937739974002e-01,0.000000000000000000e+00
7.090000000000000000e+02,1.211422645762560008e-01,0.000000000000000000e+00
7.100000000000000000e+02,8.362094752725386382e-01,0.000000000000000000e+00
7.110000000000000000e+02,4.638362768644414547e-01,0.000000000000000000e+00
7.120000000000000000e+02,9.107687284029480912e-01,0.000000000000000000e+00
7.130000000000000000e+02,8.659617835024298049e-01,0.000000000000000000e+00
7.140000000000000000e+02,1.090905777073436722e+00,0.000000000000000000e+00
7.150000000000000000e+02,1.470428086558729142e+00,0.000000000000000000e+00
7.160000000000000000e+02,1.622910641322563796e+00,0.000000000000000000e+00
7.170000000000000000e+02,1.578584215513753275e+00,0.000000000000000000e+00
7.180000000000000000e+02,3.965811201821746179e-01,0.000000000000000000e+00
7.190000000000000000e+02,-6.094676798211375868e-01,0.000000000000000000e+00
7.200000000000000000e+02,-1.077497984772666895e+00,0.000000000000000000e+00
7.210000000000000000e+02,-1.270236988860560468e+00,0.000000000000000000e+00
7.220000000000000000e+02,-1.559654417481822986e+00,0.000000000000000000e+00
7.230000000000000000e+02,-1.563508967147003270e+00,0.000000000000000000e+00
7.240000000000000000e+02,-1.150435583606680412e+00,0.000000000000000000e+00
7.250000000000000000e+02,-8.518045118564289142e-01,0.000000000000000000e+00
7.260000000000000000e+02,-9.268258523222663303e-01,0.000000000000000000e+00
7.270000000000000000e+02,-5.794286825864697343e-01,0.000000000000000000e+00
7.280000000000000000e+02,-7.459074027384551275e-01,0.000000000000000000e+00
7.290000000000000000e+02,-3.651733087675070322e-01,0.000000000000000000e+00
7.300000000000000000e+02,-1.788897329449574136e-01,0.000000000000000000e+00
7.310000000000000000e+02,-6.593912716870508062e-01,0.000000000000000000e+00
7.320000000000000000e+02,-3.016015699913509596e-01,0.000000000000000000e+00
7.330000000000000000e+02,-5.359049660488447442e-01,0.000000000000000000e+00
7.340000000000000000e+02,-1.449645159321431669e-02,0.000000000000000000e+00
7.350000000000000000e+02,-5.756089712712381123e-01,0.000000000000000000e+00
7.360000000000000000e+02,-1.429217547322328974e-01,0.000000000000000000e+00
7.370000000000000000e+02,-3.568443279625833076e-01,0.000000000000000000e+00
7.380000000000000000e+02,3.132186303342440192e-01,0.000000000000000000e+00
7.390000000000000000e+02,-2.877225737841497266e-01,0.000000000000000000e+00
7.400000000000000000e+02,2.004236600582469940e-01,0.000000000000000000e+00
7.410000000000000000e+02,-3.566287597957678024e-01,0.000000000000000000e+00
7.420000000000000000e+02,3.872708874817544888e+00,0.000000000000000000e+00
7.430000000000000000e+02,2.441368666454475811e+00,1.000000000000000000e+00
7.440000000000000000e+02,-2.655844429342909319e+00,0.000000000000000000e+00
7.450000000000000000e+02,-3.537073960854431043e-01,0.000000000000000000e+00
7.460000000000000000e+02,-1.507192541832276245e-01,0.000000000000000000e+00
7.470000000000000000e+02,2.228965812981120176e-01,0.000000000000000000e+00
7.480000000000000000e+02,-9.575203519401091767e-02,0.000000000000000000e+00
7.490000000000000000e+02,-2.003126051048762998e-02,0.000000000000000000e+00
7.500000000000000000e+02,3.843898142516407601e-01,0.000000000000000000e+00
7.510000000000000000e+02,-4.030493440497466551e-02,0.000000000000000000e+00
7.520000000000000000e+02,2.548669624032441350e-01,0.000000000000000000e+00
7.530000000000000000e+02,5.044163876536288393e-01,0.000000000000000000e+00
7.540000000000000000e+02,2.667601947776561677e-01,0.000000000000000000e+00
7.550000000000000000e+02,4.481999391944364031e-01,0.000000000000000000e+00
7.560000000000000000e+02,1.192080282058624596e-01,0.000000000000000000e+00
7.570000000000000000e+02,9.156120450800926402e-01,0.000000000000000000e+00
7.580000000000000000e+02,8.037547178519006685e-01,0.000000000000000000e+00
7.590000000000000000e+02,1.267747160062080658e+00,0.000000000000000000e+00
7.600000000000000000e+02,1.398182413145484082e+00,0.000000000000000000e+00
7.610000000000000000e+02,1.868749790186713833e+00,0.000000000000000000e+00
7.620000000000000000e+02,1.317964887801744256e+00,0.000000000000000000e+00
7.630000000000000000e+02,5.027289013512735716e-01,0.000000000000000000e+00
7.640000000000000000e+02,-5.346750014559072950e-01,0.000000000000000000e+00
7.650000000000000000e+02,-1.562059352407427770e+00,0.000000000000000000e+00
7.660000000000000000e+02,-1.507756330241179610e+00,0.000000000000000000e+00
7.670000000000000000e+02,-1.565830429597962370e+00,0.000000000000000000e+00
7.680000000000000000e+02,-1.392754075624985877e+00,0.000000000000000000e+00
7.690000000000000000e+02,-1.104937165416688627e+00,0.000000000000000000e+00
7.700000000000000000e+02,-1.407749075419720608e+00,0.000000000000000000e+00
7.710000000000000000e+02,-8.509044593898774655e-01,0.000000000000000000e+00
7.720000000000000000e+02,-7.952742177659205547e-01,0.000000000000000000e+00
7.730000000000000000e+02,-7.651243119316515351e-01,0.000000000000000000e+00
7.740000000000000000e+02,-3.965651274875847121e-01,0.000000000000000000e+00
7.750000000000000000e+02,-3.934616452577491263e-01,0.000000000000000000e+00
7.760000000000000000e+02,-6.656857912385536480e-01,0.000000000000000000e+00
7.770000000000000000e+02,-3.270225360493512201e-01,0.000000000000000000e+00
7.780000000000000000e+02,-6.389564185972202992e-01,0.000000000000000000e+00
7.790000000000000000e+02,-6.667565487060685137e-02,0.000000000000000000e+00
7.800000000000000000e+02,-2.210518834600395666e-01,0.000000000000000000e+00
7.810000000000000000e+02,-7.751541360172525819e-02,0.000000000000000000e+00
7.820000000000000000e+02,7.470980951451407226e-02,0.000000000000000000e+00
7.830000000000000000e+02,1.080452493328868391e-01,0.000000000000000000e+00
7.840000000000000000e+02,-1.157367500010855338e-01,0.000000000000000000e+00
7.850000000000000000e+02,4.858126732122313163e-01,0.000000000000000000e+00
7.860000000000000000e+02,-3.586766937137449429e-01,0.000000000000000000e+00
7.870000000000000000e+02,4.136930338938544227e-01,0.000000000000000000e+00
7.880000000000000000e+02,2.511629403783493530e-01,0.000000000000000000e+00
7.890000000000000000e+02,2.928595428347895435e-01,0.000000000000000000e+00
7.900000000000000000e+02,3.760412116936954763e-01,0.000000000000000000e+00
7.910000000000000000e+02,7.322387985041124703e-02,0.000000000000000000e+00
7.920000000000000000e+02,6.014952843983014663e-01,0.000000000000000000e+00
7.930000000000000000e+02,2.964046952981100325e-01,0.000000000000000000e+00
7.940000000000000000e+02,8.229296610729044947e-02,0.000000000000000000e+00
7.950000000000000000e+02,6.559814725988190043e-01,0.000000000000000000e+00
7.960000000000000000e+02,2.008784648441152287e-01,0.000000000000000000e+00
7.970000000000000000e+02,3.145488993148492174e+00,0.000000000000000000e+00
7.980000000000000000e+02,3.539172006261866787e+00,0.000000000000000000e+00
7.990000000000000000e+02,-1.881777862246164723e+00,1.000000000000000000e+00
8.000000000000000000e+02,-7.905183169081101413e-01,0.000000000000000000e+00
8.010000000000000000e+02,8.229844903249765309e-02,0.000000000000000000e+00
8.020000000000000000e+02,-1.462911955634039751e-01,0.000000000000000000e+00
8.030000000000000000e+02,-8.337307115285930159e-02,0.000000000000000000e+00
8.040000000000000000e+02,2.343318859790444464e-01,0.000000000000000000e+00
8.050000000000000000e+02,2.332204252597116778e-01,0.000000000000000000e+00
8.060000000000000000e+02,1.440400073398773462e-01,0.000000000000000000e+00
8.070000000000000000e+02,1.632294258019602318e-01,0.000000000000000000e+00
8.080000000000000000e+02,3.831013743371834424e-01,0.000000000000000000e+00
8.090000000000000000e+02,9.111154415889492764e-03,0.000000000000000000e+00
8.100000000000000000e+02,3.831708657987295541e-01,0.000000000000000000e+00
8.110000000000000000e+02,-3.160191620722269112e-02,0.000000000000000000e+00
8.120000000000000000e+02,8.887217530095946616e-01,0.000000000000000000e+00
8.130000000000000000e+02,2.286512732725091424e-01,0.000000000000000000e+00
8.140000000000000000e+02,1.024875892436966307e+00,0.000000000000000000e+00
8.150000000000000000e+02,1.110382241326087316e+00,0.000000000000000000e+00
8.160000000000000000e+02,1.278476878381536119e+00,0.000000000000000000e+00
8.170000000000000000e+02,1.353839585038406845e+00,0.000000000000000000e+00
8.180000000000000000e+02,7.225920106346278571e-01,0.000000000000000000e+00
8.190000000000000000e+02,-1.321385888092701522e-01,0.000000000000000000e+00
8.200000000000000000e+02,-9.423525673231890609e-01,0.000000000000000000e+00
8.210000000000000000e+02,-1.256803951675860231e+00,0.000000000000000000e+00
8.220000000000000000e+02,-1.471690350415001625e+00,0.000000000000000000e+00
8.230000000000000000e+02,-1.257612908885789249e+00,0.000000000000000000e+00
8.240000000000000000e+02,-1.400218608413803079e+00,0.000000000000000000e+00
8.250000000000000000e+02,-1.098339766729721445e+00,0.000000000000000000e+00
8.260000000000000000e+02,-1.179541967261380719e+00,0.000000000000000000e+00
8.270000000000000000e+02,-9.630276826633406007e-01,0.000000000000000000e+00
8.280000000000000000e+02,-8.850542735393104321e-01,0.000000000000000000e+00
8.290000000000000000e+02,-5.379895983056179887e-01,0.000000000000000000e+00
8.300000000000000000e+02,-5.937849793098175510e-01,0.000000000000000000e+00
8.310000000000000000e+02,-5.805842466224737652e-01,0.000000000000000000e+00
8.320000000000000000e+02,-3.244590664701659244e-01,0.000000000000000000e+00
8.330000000000000000e+02,-5.089039814794960037e-01,0.000000000000000000e+00
8.340000000000000000e+02,-4.294490192998528522e-01,0.000000000000000000e+00
8.350000000000000000e+02,-4.720956377999481202e-01,0.000000000000000000e+00
8.360000000000000000e+02,-5.926519952707829386e-01,0.000000000000000000e+00
8.370000000000000000e+02,-2.922190163773380478e-01,0.000000000000000000e+00
8.380000000000000000e+02,-2.928631478921266962e-01,0.000000000000000000e+00
8.390000000000000000e+02,-9.962199910942373671e-02,0.000000000000000000e+00
8.400000000000000000e+02,-3.409408728044598103e-02,0.000000000000000000e+00
8.410000000000000000e+02,-1.941549959024349292e-01,0.000000000000000000e+00
8.420000000000000000e+02,5.864469483377752514e-03,0.000000000000000000e+00
8.430000000000000000e+02,1.051295844307785776e-01,0.000000000000000000e+00
8.440000000000000000e+02,-1.798807538777083825e-01,0.000000000000000000e+00
8.450000000000000000e+02,3.863660970206292400e-01,0.000000000000000000e+00
8.460000000000000000e+02,-5.485666730982539235e-02,0.000000000000000000e+00
8.470000000000000000e+02,6.119789441639565675e-02,0.000000000000000000e+00
8.480000000000000000e+02,3.452012031792744962e-01,0.000000000000000000e+00
8.490000000000000000e+02,9.788629424523856426e-02,0.000000000000000000e+00
8.500000000000000000e+02,3.423511906023365969e-01,0.000000000000000000e+00
8.510000000000000000e+02,2.351696329017927828e-02,0.000000000000000000e+00
8.520000000000000000e+02,3.211042913811308908e-01,0.000000000000000000e+00
8.530000000000000000e+02,2.283535390552459687e-01,0.000000000000000000e+00
8.540000000000000000e+02,2.373397685492974196e-01,0.000000000000000000e+00
8.550000000000000000e+02,5.044744020995952649e-01,0.000000000000000000e+00
8.560000000000000000e+02,3.819106022873870049e-02,0.000000000000000000e+00
8.570000000000000000e+02,4.938473555730154563e-01,0.000000000000000000e+00
8.580000000000000000e+02,4.015171371115874854e-01,0.000000000000000000e+00
8.590000000000000000e+02,3.286300943661789598e-01,0.000000000000000000e+00
8.600000000000000000e+02,3.318588806316663531e-01,0.000000000000000000e+00
8.610000000000000000e+02,2.291141988787577521e-01,0.000000000000000000e+00
8.620000000000000000e+02,5.278940273095583668e-01,0.000000000000000000e+00
8.630000000000000000e+02,3.060187078429223440e-01,0.000000000000000000e+00
8.640000000000000000e+02,3.144871388249334543e-01,0.000000000000000000e+00
8.650000000000000000e+02,4.121091575709662225e-01,0.000000000000000000e+00
8.660000000000000000e+02,1.063819067745024050e-01,0.000000000000000000e+00
8.670000000000000000e+02,3.373195849196785612e-01,0.000000000000000000e+00
8.680000000000000000e+02,2.080511633319249154e-01,0.000000000000000000e+00
8.690000000000000000e+02,8.993001583010183653e-02,0.000000000000000000e+00
8.700000000000000000e+02,9.109306746445292036e-02,0.000000000000000000e+00
8.710000000000000000e+02,4.308023181297078730e-01,0.000000000000000000e+00
8.720000000000000000e+02,4.204505048198632355e-01,0.000000000000000000e+00
8.730000000000000000e+02,6.815993540868223177e-02,0.000000000000000000e+00
8.740000000000000000e+02,3.636241493004870873e-01,0.000000000000000000e+00
8.750000000000000000e+02,2.605938598048051502e-01,0.000000000000000000e+00
8.760000000000000000e+02,-1.134836057708358062e-02,0.000000000000000000e+00
8.770000000000000000e+02,2.713775187292654323e+00,0.000000000000000000e+00
8.780000000000000000e+02,3.392344870197310236e+00,0.000000000000000000e+00
8.790000000000000000e+02,-1.836920255900954313e+00,1.000000000000000000e+00
8.800000000000000000e+02,-6.709509411368187459e-01,0.000000000000000000e+00
8.810000000000000000e+02,-3.562861769440677229e-01,0.000000000000000000e+00
8.820000000000000000e+02,-4.198029782137664423e-01,0.000000000000000000e+00
8.830000000000000000e+02,-2.565475371811375971e-01,0.000000000000000000e+00
8.840000000000000000e+02,-4.036164065042165960e-01,0.000000000000000000e+00
8.850000000000000000e+02,-3.406739932855163411e-01,0.000000000000000000e+00
8.860000000000000000e+02,-1.141443621879615761e-01,0.000000000000000000e+00
8.870000000000000000e+02,-3.595440506899793554e-01,0.000000000000000000e+00
8.880000000000000000e+02,-4.071551051168362939e-02,0.000000000000000000e+00
8.890000000000000000e+02,-3.460265410474352987e-01,0.000000000000000000e+00
8.900000000000000000e+02,-7.940619113152300179e-02,0.000000000000000000e+00
8.910000000000000000e+02,-3.105742473153462746e-01,0.000000000000000000e+00
8.920000000000000000e+02,-1.315984327390792852e-01,0.000000000000000000e+00
8.930000000000000000e+02,3.216598218733592862e-01,0.000000000000000000e+00
8.940000000000000000e+02,1.027460205128822024e-01,0.000000000000000000e+00
8.950000000000000000e+02,7.141112170738547205e-01,0.000000000000000000e+00
8.960000000000000000e+02,9.653713254501415930e-01,0.000000000000000000e+00
8.970000000000000000e+02,1.092260102268932664e+00,0.000000000000000000e+00
8.980000000000000000e+02,1.022509774774138736e+00,0.000000000000000000e+00
8.990000000000000000e+02,4.666805033802506886e-01,0.000000000000000000e+00
9.000000000000000000e+02,-4.319937742103015510e-01,0.000000000000000000e+00
9.010000000000000000e+02,-1.276941233857178171e+00,0.000000000000000000e+00
9.020000000000000000e+02,-1.523028669720562389e+00,0.000000000000000000e+00
9.030000000000000000e+02,-1.461000081188720490e+00,0.000000000000000000e+00
9.040000000000000000e+02,-1.514510623891017538e+00,0.000000000000000000e+00
9.050000000000000000e+02,-1.381960632836788383e+00,0.000000000000000000e+00
9.060000000000000000e+02,-1.254218774759938704e+00,0.000000000000000000e+00
9.070000000000000000e+02,-9.186395630948532842e-01,0.000000000000000000e+00
9.080000000000000000e+02,-7.147087088782063669e-01,0.000000000000000000e+00
9.090000000000000000e+02,-9.602597857627077627e-01,0.000000000000000000e+00
9.100000000000000000e+02,-4.842566562825700305e-01,0.000000000000000000e+00
9.110000000000000000e+02,-7.987686884187289449e-01,0.000000000000000000e+00
9.120000000000000000e+02,-5.939470051221650282e-01,0.000000000000000000e+00
9.130000000000000000e+02,-6.922162553931752171e-01,0.000000000000000000e+00
9.140000000000000000e+02,-4.110962421841535264e-01,0.000000000000000000e+00
9.150000000000000000e+02,-2.858989358691424454e-01,0.000000000000000000e+00
9.160000000000000000e+02,-1.678669125050911981e-01,0.000000000000000000e+00
9.170000000000000000e+02,-3.440821212814909602e-02,0.000000000000000000e+00
9.180000000000000000e+02,-5.008953057946308185e-01,0.000000000000000000e+00
9.190000000000000000e+02,1.649580401255620887e-02,0.000000000000000000e+00
9.200000000000000000e+02,-2.747877776453199750e-01,0.000000000000000000e+00
9.210000000000000000e+02,-1.263232793421159850e-01,0.000000000000000000e+00
9.220000000000000000e+02,-2.828132459677617366e-02,0.000000000000000000e+00
9.230000000000000000e+02,1.686314577046748586e-01,0.000000000000000000e+00
9.240000000000000000e+02,9.471771951140345314e-02,0.000000000000000000e+00
9.250000000000000000e+02,7.174606805347286675e-01,0.000000000000000000e+00
9.260000000000000000e+02,-1.609368570030507151e-01,0.000000000000000000e+00
9.270000000000000000e+02,6.277342324019246078e-01,0.000000000000000000e+00
9.280000000000000000e+02,1.957766259202199932e-01,0.000000000000000000e+00
9.290000000000000000e+02,4.134380982178290864e+00,0.000000000000000000e+00
9.300000000000000000e+02,1.066605057990087868e+00,1.000000000000000000e+00
9.310000000000000000e+02,-2.372080530468518855e+00,0.000000000000000000e+00
9.320000000000000000e+02,2.511888997941685298e-01,0.000000000000000000e+00
9.330000000000000000e+02,-1.372880935228172616e-01,0.000000000000000000e+00
9.340000000000000000e+02,3.227922425043248111e-01,0.000000000000000000e+00
9.350000000000000000e+02,1.922426930988218319e-01,0.000000000000000000e+00
9.360000000000000000e+02,2.912191984870131645e-01,0.000000000000000000e+00
9.370000000000000000e+02,2.527123100279001777e-01,0.000000000000000000e+00
9.380000000000000000e+02,1.935222102172882430e-01,0.000000000000000000e+00
9.390000000000000000e+02,2.271179372795475992e-01,0.000000000000000000e+00
9.400000000000000000e+02,4.285244646531589097e-01,0.000000000000000000e+00
9.410000000000000000e+02,6.798023601863553145e-01,0.000000000000000000e+00
9.420000000000000000e+02,5.163282972038096830e-01,0.000000000000000000e+00
9.430000000000000000e+02,6.672183056065988938e-01,0.000000000000000000e+00
9.440000000000000000e+02,8.477124499290693560e-01,0.000000000000000000e+00
9.450000000000000000e+02,9.230116091996050098e-01,0.000000000000000000e+00
9.460000000000000000e+02,1.019333233520540061e+00,0.000000000000000000e+00
9.470000000000000000e+02,1.278868695310046988e+00,0.000000000000000000e+00
9.480000000000000000e+02,1.748595904544812729e+00,0.000000000000000000e+00
9.490000000000000000e+02,1.672937203275655316e+00,0.000000000000000000e+00
9.500000000000000000e+02,1.049984329925843340e+00,0.000000000000000000e+00
9.510000000000000000e+02,-2.745565083336792278e-01,0.000000000000000000e+00
9.520000000000000000e+02,-7.646872585362128882e-01,0.000000000000000000e+00
9.530000000000000000e+02,-1.694156896375846655e+00,0.000000000000000000e+00
9.540000000000000000e+02,-1.307147994562493309e+00,0.000000000000000000e+00
9.550000000000000000e+02,-1.290034518356946380e+00,0.000000000000000000e+00
9.560000000000000000e+02,-1.245962403985893419e+00,0.000000000000000000e+00
9.570000000000000000e+02,-1.235991089801895537e+00,0.000000000000000000e+00
9.580000000000000000e+02,-8.790566361661844574e-01,0.000000000000000000e+00
9.590000000000000000e+02,-8.410881831811752862e-01,0.000000000000000000e+00
9.600000000000000000e+02,-2.302800532546801227e-01,0.000000000000000000e+00
9.610000000000000000e+02,-6.411006022559916362e-01,0.000000000000000000e+00
9.620000000000000000e+02,-7.706540260504450846e-01,0.000000000000000000e+00
9.630000000000000000e+02,-3.147527515858533631e-02,0.000000000000000000e+00
9.640000000000000000e+02,-7.108671363572943713e-01,0.000000000000000000e+00
9.650000000000000000e+02,-1.082084464176763794e-01,0.000000000000000000e+00
9.660000000000000000e+02,-6.082115512444111749e-01,0.000000000000000000e+00
9.670000000000000000e+02,-4.102014442924889481e-01,0.000000000000000000e+00
9.680000000000000000e+02,4.806378351162302748e-02,0.000000000000000000e+00
9.690000000000000000e+02,-4.524177820571466113e-01,0.000000000000000000e+00
9.700000000000000000e+02,1.190608481423254261e-01,0.000000000000000000e+00
9.710000000000000000e+02,-2.244211858277737337e-01,0.000000000000000000e+00
9.720000000000000000e+02,3.202476588581109618e-01,0.000000000000000000e+00
9.730000000000000000e+02,2.356438168486095774e-01,0.000000000000000000e+00
9.740000000000000000e+02,2.600376700249341644e-01,0.000000000000000000e+00
9.750000000000000000e+02,3.163725036063272378e-01,0.000000000000000000e+00
9.760000000000000000e+02,1.931142932802769052e-01,0.000000000000000000e+00
9.770000000000000000e+02,2.126861862133545139e-02,0.000000000000000000e+00
9.780000000000000000e+02,4.423802091791922964e-01,0.000000000000000000e+00
9.790000000000000000e+02,4.381776981113205682e-02,0.000000000000000000e+00
9.800000000000000000e+02,6.812761573375865076e-01,0.000000000000000000e+00
9.810000000000000000e+02,1.113957506003395923e-02,0.000000000000000000e+00
9.820000000000000000e+02,1.011443462065297477e-01,0.000000000000000000e+00
9.830000000000000000e+02,6.043099900566463178e-01,0.000000000000000000e+00
9.840000000000000000e+02,2.031659256244995881e-01,0.000000000000000000e+00
9.850000000000000000e+02,2.412428010003490886e-01,0.000000000000000000e+00
9.860000000000000000e+02,5.665920964965838191e-01,0.000000000000000000e+00
9.870000000000000000e+02,2.350457284268258340e-01,0.000000000000000000e+00
9.880000000000000000e+02,2.511301835455908571e-01,0.000000000000000000e+00
9.890000000000000000e+02,4.187433405861966107e-01,0.000000000000000000e+00
9.900000000000000000e+02,2.372252141879885867e-01,0.000000000000000000e+00
9.910000000000000000e+02,4.215290206786863059e-01,0.000000000000000000e+00
9.920000000000000000e+02,1.912436098017235020e-01,0.000000000000000000e+00
9.930000000000000000e+02,4.309427913390974085e-01,0.000000000000000000e+00
9.940000000000000000e+02,1.648685957288200388e-01,0.000000000000000000e+00
9.950000000000000000e+02,7.845737411805805417e-01,0.000000000000000000e+00
9.960000000000000000e+02,-3.976696907016638582e-01,0.000000000000000000e+00
9.970000000000000000e+02,3.826245649012419481e+00,0.000000000000000000e+00
9.980000000000000000e+02,2.937362928755203217e+00,0.000000000000000000e+00
9.990000000000000000e+02,-2.058938538416660080e+00,1.000000000000000000e+00
1.000000000000000000e+03,-7.015247310172643136e-01,0.000000000000000000e+00
1.001000000000000000e+03,-3.588377531487325078e-01,0.000000000000000000e+00
1.002000000000000000e+03,-2.053740597245804628e-02,0.000000000000000000e+00
1.003000000000000000e+03,-4.251134739980971244e-01,0.000000000000000000e+00
1.004000000000000000e+03,4.004872629342770551e-02,0.000000000000000000e+00
1.005000000000000000e+03,-5.986612593524861525e-01,0.000000000000000000e+00
1.006000000000000000e+03,-1.349524462921121437e-01,0.000000000000000000e+00
1.007000000000000000e+03,-2.034089717839354383e-01,0.000000000000000000e+00
1.008000000000000000e+03,1.209183364616563949e-01,0.000000000000000000e+00
1.009000000000000000e+03,-1.971558329047305713e-01,0.000000000000000000e+00
1.010000000000000000e+03,-2.525934136031678934e-01,0.000000000000000000e+00
1.011000000000000000e+03,1.106952411192669433e-01,0.000000000000000000e+00
1.012000000000000000e+03,1.629792110759363255e-01,0.000000000000000000e+00
1.013000000000000000e+03,3.558271124102074801e-01,0.000000000000000000e+00
1.014000000000000000e+03,4.626336085234416529e-01,0.000000000000000000e+00
1.015000000000000000e+03,7.253084464877814774e-01,0.000000000000000000e+00
1.016000000000000000e+03,8.855247773827259472e-01,0.000000000000000000e+00
1.017000000000000000e+03,1.039113012462387298e+00,0.000000000000000000e+00
1.018000000000000000e+03,1.038685423060491608e+00,0.000000000000000000e+00
1.019000000000000000e+03,1.844172545374413719e-01,0.000000000000000000e+00
1.020000000000000000e+03,-5.382003956166165892e-01,0.000000000000000000e+00
1.021000000000000000e+03,-1.563655387565578092e+00,0.000000000000000000e+00
1.022000000000000000e+03,-1.159396246101332739e+00,0.000000000000000000e+00
1.023000000000000000e+03,-1.526120260430842368e+00,0.000000000000000000e+00
1.024000000000000000e+03,-1.274090505795038464e+00,0.000000000000000000e+00
1.025000000000000000e+03,-1.515787528332976031e+00,0.000000000000000000e+00
1.026000000000000000e+03,-1.151088868303263402e+00,0.000000000000000000e+00
1.027000000000000000e+03,-1.281057987027242273e+00,0.000000000000000000e+00
1.028000000000000000e+03,-8.792677406108955207e-01,0.000000000000000000e+00
1.029000000000000000e+03,-8.318805433822950013e-01,0.000000000000000000e+00
1.030000000000000000e+03,-9.156493870802527857e-01,0.000000000000000000e+00
1.031000000000000000e+03,-5.284910916243795720e-01,0.000000000000000000e+00
1.032000000000000000e+03,-4.637439925380757444e-01,0.000000000000000000e+00
1.033000000000000000e+03,-4.364262067286500679e-01,0.000000000000000000e+00
1.034000000000000000e+03,-2.735959126313937673e-01,0.000000000000000000e+00
1.035000000000000000e+03,-3.727048624064267512e-01,0.000000000000000000e+00
1.036000000000000000e+03,-2.315007944254920125e-01,0.000000000000000000e+00
1.037000000000000000e+03,-5.648635173463339987e-01,0.000000000000000000e+00
1.038000000000000000e+03,-2.140730834344953537e-01,0.000000000000000000e+00
1.039000000000000000e+03,-3.092160975809565837e-01,0.000000000000000000e+00
1.040000000000000000e+03,1.238497323547803342e-01,0.000000000000000000e+00
1.041000000000000000e+03,-1.852258955342247354e-02,0.000000000000000000e+00
1.042000000000000000e+03,4.330494780284277478e-02,0.000000000000000000e+00
1.043000000000000000e+03,-1.300633193974526196e-02,0.000000000000000000e+00
1.044000000000000000e+03,1.582431491866936879e-01,0.000000000000000000e+00
1.045000000000000000e+03,2.219406359382114224e-01,0.000000000000000000e+00
1.046000000000000000e+03,-2.041138097017100930e-02,0.000000000000000000e+00
1.047000000000000000e+03,2.632330266185154422e-01,0.000000000000000000e+00
1.048000000000000000e+03,3.158001171313781219e-01,0.000000000000000000e+00
1.049000000000000000e+03,1.643912422151401764e-01,0.000000000000000000e+00
1.050000000000000000e+03,4.574917015286324440e-01,0.000000000000000000e+00
1.051000000000000000e+03,-1.971235439140435475e-02,0.000000000000000000e+00
1.052000000000000000e+03,5.200172388176270699e-01,0.000000000000000000e+00
1.053000000000000000e+03,2.503972706274585902e-01,0.000000000000000000e+00
1.054000000000000000e+03,1.386089048209771246e-01,0.000000000000000000e+00
1.055000000000000000e+03,6.356875260392420568e-01,0.000000000000000000e+00
1.056000000000000000e+03,2.959314282555814205e-02,0.000000000000000000e+00
1.057000000000000000e+03,6.765736060241667182e-01,0.000000000000000000e+00
1.058000000000000000e+03,3.164386614445629520e-01,0.000000000000000000e+00
1.059000000000000000e+03,4.278706535664067445e-01,0.000000000000000000e+00
1.060000000000000000e+03,2.392256694260963823e-01,0.000000000000000000e+00
1.061000000000000000e+03,3.165775528256902782e-01,0.000000000000000000e+00
1.062000000000000000e+03,2.559133876781016781e-01,0.000000000000000000e+00
1.063000000000000000e+03,3.275444202192814847e-01,0.000000000000000000e+00
1.064000000000000000e+03,3.368273242836271608e-01,0.000000000000000000e+00
1.065000000000000000e+03,1.148917328830563189e+00,0.000000000000000000e+00
1.066000000000000000e+03,5.120904868194606330e+00,0.000000000000000000e+00
1.067000000000000000e+03,-9.838829749800880320e-01,1.000000000000000000e+00
1.068000000000000000e+03,-1.402983920043649801e+00,0.000000000000000000e+00
1.069000000000000000e+03,-6.238985358833886927e-03,0.000000000000000000e+00
1.070000000000000000e+03,-2.291408514719664447e-01,0.000000000000000000e+00
1.071000000000000000e+03,1.250972945011409989e-03,0.000000000000000000e+00
1.072000000000000000e+03,-1.355492622110540668e-01,0.000000000000000000e+00
1.073000000000000000e+03,2.553675519618855971e-01,0.000000000000000000e+00
1.074000000000000000e+03,-1.918492915991015235e-01,0.000000000000000000e+00
1.075000000000000000e+03,2.117260029147379208e-01,0.000000000000000000e+00
1.076000000000000000e+03,2.018684033472988026e-01,0.000000000000000000e+00
1.077000000000000000e+03,-3.671062161492760767e-02,0.000000000000000000e+00
1.078000000000000000e+03,3.369577873828818460e-01,0.000000000000000000e+00
1.079000000000000000e+03,-2.532098249510746080e-02,0.000000000000000000e+00
1.080000000000000000e+03,1.182038290200720099e-01,0.000000000000000000e+00
1.081000000000000000e+03,5.176651545537328536e-01,0.000000000000000000e+00
1.082000000000000000e+03,2.182700432205777752e-01,0.000000000000000000e+00
1.083000000000000000e+03,1.177376206168637474e+00,0.000000000000000000e+00
1.084000000000000000e+03,8.026954118490399193e-01,0.000000000000000000e+00
1.085000000000000000e+03,1.076156192798848110e+00,0.000000000000000000e+00
1.086000000000000000e+03,1.328331932717602859e+00,0.000000000000000000e+00
1.087000000000000000e+03,7.526046925462706039e-01,0.000000000000000000e+00
1.088000000000000000e+03,1.271622060793482951e-02,0.000000000000000000e+00
1.089000000000000000e+03,-1.064979491566203418e+00,0.000000000000000000e+00
1.090000000000000000e+03,-1.519912048045579445e+00,0.000000000000000000e+00
1.091000000000000000e+03,-1.416652365456803953e+00,0.000000000000000000e+00
1.092000000000000000e+03,-1.668578263465631428e+00,0.000000000000000000e+00
1.093000000000000000e+03,-1.437531117362061295e+00,0.000000000000000000e+00
1.094000000000000000e+03,-1.460162175512791816e+00,0.000000000000000000e+00
1.095000000000000000e+03,-8.934771809883037541e-01,0.000000000000000000e+00
1.096000000000000000e+03,-9.267790162544341515e-01,0.000000000000000000e+00
1.097000000000000000e+03,-6.442736731958125240e-01,0.000000000000000000e+00
1.098000000000000000e+03,-6.541846126135725248e-01,0.000000000000000000e+00
1.099000000000000000e+03,-5.835229980369954772e-01,0.000000000000000000e+00
1.100000000000000000e+03,-6.883838663518829781e-01,0.000000000000000000e+00
1.101000000000000000e+03,-5.014271877796958599e-01,0.000000000000000000e+00
1.102000000000000000e+03,-3.216691884856257011e-01,0.000000000000000000e+00
1.103000000000000000e+03,-3.709535073007661499e-01,0.000000000000000000e+00
1.104000000000000000e+03,-3.766589617178701666e-01,0.000000000000000000e+00
1.105000000000000000e+03,-6.295800730137178502e-02,0.000000000000000000e+00
1.106000000000000000e+03,-9.159404253361606851e-02,0.000000000000000000e+00
1.107000000000000000e+03,4.544992401130081017e-02,0.000000000000000000e+00
1.108000000000000000e+03,-2.384413118061942949e-01,0.000000000000000000e+00
1.109000000000000000e+03,-2.706731096055967623e-01,0.000000000000000000e+00
1.110000000000000000e+03,-1.525516402083347822e-01,0.000000000000000000e+00
1.111000000000000000e+03,-1.673036695025661713e-01,0.000000000000000000e+00
1.112000000000000000e+03,4.588222656253797271e-02,0.000000000000000000e+00
1.113000000000000000e+03,-8.909077153017894157e-02,0.000000000000000000e+00
1.114000000000000000e+03,8.684518034736425640e-02,0.000000000000000000e+00
1.115000000000000000e+03,3.314595988688144867e-01,0.000000000000000000e+00
1.116000000000000000e+03,2.838054000877889838e-01,0.000000000000000000e+00
1.117000000000000000e+03,1.435444228263411670e-01,0.000000000000000000e+00
1.118000000000000000e+03,4.455587720059835943e-01,0.000000000000000000e+00
1.119000000000000000e+03,7.705214684291984695e-02,0.000000000000000000e+00
1.120000000000000000e+03,3.562532115174137926e-01,0.000000000000000000e+00
1.121000000000000000e+03,3.015194256410236306e-01,0.000000000000000000e+00
1.122000000000000000e+03,3.019849664802277123e-01,0.000000000000000000e+00
1.123000000000000000e+03,3.700138302895589204e-01,0.000000000000000000e+00
1.124000000000000000e+03,5.587200511028329597e-01,0.000000000000000000e+00
1.125000000000000000e+03,2.544112013886470347e-01,0.000000000000000000e+00
1.126000000000000000e+03,2.897674566921447648e-01,0.000000000000000000e+00
1.127000000000000000e+03,2.578117100925180760e-01,0.000000000000000000e+00
1.128000000000000000e+03,2.788098840987379701e-01,0.000000000000000000e+00
1.129000000000000000e+03,1.010350236726148820e-01,0.000000000000000000e+00
1.130000000000000000e+03,7.281044814305352997e-01,0.000000000000000000e+00
1.131000000000000000e+03,7.890062278285296432e-05,0.000000000000000000e+00
1.132000000000000000e+03,3.126376432398729199e-01,0.000000000000000000e+00
1.133000000000000000e+03,1.903101094590792797e-01,0.000000000000000000e+00
1.134000000000000000e+03,5.288445557628400351e-02,0.000000000000000000e+00
1.135000000000000000e+03,4.006232009450561016e-01,0.000000000000000000e+00
1.136000000000000000e+03,4.014849493675207159e-01,0.000000000000000000e+00
1.137000000000000000e+03,5.397424246957999855e-02,0.000000000000000000e+00
1.138000000000000000e+03,5.151486359462310594e-01,0.000000000000000000e+00
1.139000000000000000e+03,1.535141405024168654e-02,0.000000000000000000e+00
1.140000000000000000e+03,2.481026981507331308e-01,0.000000000000000000e+00
1.141000000000000000e+03,4.080889335603624102e-01,0.000000000000000000e+00
1.142000000000000000e+03,-2.424199237778246196e-01,0.000000000000000000e+00
1.143000000000000000e+03,4.682697345565356994e-01,0.000000000000000000e+00
1.144000000000000000e+03,5.115548587759798094e-02,0.000000000000000000e+00
1.145000000000000000e+03,2.862336394820269025e-01,0.000000000000000000e+00
1.146000000000000000e+03,2.455789196569249655e-01,0.000000000000000000e+00
1.147000000000000000e+03,2.257751494704518247e-01,0.000000000000000000e+00
1.148000000000000000e+03,3.273879860678317599e-01,0.000000000000000000e+00
1.149000000000000000e+03,-2.202927513610035692e-01,0.000000000000000000e+00
1.150000000000000000e+03,2.226824459253002875e-01,0.000000000000000000e+00
1.151000000000000000e+03,1.253393810627562166e+00,0.000000000000000000e+00
1.152000000000000000e+03,4.507417783845546921e+00,0.000000000000000000e+00
1.153000000000000000e+03,-6.606813867645858762e-01,1.000000000000000000e+00
1.154000000000000000e+03,-1.880556399071715790e+00,0.000000000000000000e+00
1.155000000000000000e+03,-8.282922690286631529e-02,0.000000000000000000e+00
1.156000000000000000e+03,-4.789669626204118291e-01,0.000000000000000000e+00
1.157000000000000000e+03,-2.301454601006425182e-01,0.000000000000000000e+00
1.158000000000000000e+03,-5.269180390554945026e-01,0.000000000000000000e+00
1.159000000000000000e+03,-4.768642606844056830e-01,0.000000000000000000e+00
1.160000000000000000e+03,-3.979443738450607060e-01,0.000000000000000000e+00
1.161000000000000000e+03,-7.937696162716001425e-02,0.000000000000000000e+00
1.162000000000000000e+03,-1.537029895802360102e-01,0.000000000000000000e+00
1.163000000000000000e+03,-1.672676418992784797e-01,0.000000000000000000e+00
1.164000000000000000e+03,-1.144922825854028103e-01,0.000000000000000000e+00
1.165000000000000000e+03,1.101959992783954206e-01,0.000000000000000000e+00
1.166000000000000000e+03,-2.125885012895588067e-01,0.000000000000000000e+00
1.167000000000000000e+03,2.009936615413618899e-01,0.000000000000000000e+00
1.168000000000000000e+03,2.336877088990285123e-01,0.000000000000000000e+00
1.169000000000000000e+03,1.537479522644527030e-01,0.000000000000000000e+00
1.170000000000000000e+03,7.793999688552809557e-01,0.000000000000000000e+00
1.171000000000000000e+03,9.068018391959727920e-01,0.000000000000000000e+00
1.172000000000000000e+03,1.233688259067101445e+00,0.000000000000000000e+00
1.173000000000000000e+03,9.679013259412841963e-01,0.000000000000000000e+00
1.174000000000000000e+03,-7.652311963529956351e-02,0.000000000000000000e+00
1.175000000000000000e+03,-6.924526836322251189e-01,0.000000000000000000e+00
1.176000000000000000e+03,-1.430178549994100434e+00,0.000000000000000000e+00
1.177000000000000000e+03,-1.449888462530967592e+00,0.000000000000000000e+00
1.178000000000000000e+03,-1.467446188679817354e+00,0.000000000000000000e+00
1.179000000000000000e+03,-1.458468830807279071e+00,0.000000000000000000e+00
1.180000000000000000e+03,-1.256649037237870470e+00,0.000000000000000000e+00
1.181000000000000000e+03,-1.099285178974940269e+00,0.000000000000000000e+00
1.182000000000000000e+03,-9.015778651585223402e-01,0.000000000000000000e+00
1.183000000000000000e+03,-1.124424114356152193e+00,0.000000000000000000e+00
1.184000000000000000e+03,-8.240032155066959740e-01,0.000000000000000000e+00
1.185000000000000000e+03,-8.069418848628608920e-01,0.000000000000000000e+00
1.186000000000000000e+03,-6.785873782296357737e-01,0.000000000000000000e+00
1.187000000000000000e+03,-4.901422147480978819e-01,0.000000000000000000e+00
1.188000000000000000e+03,-2.808838814853263366e-01,0.000000000000000000e+00
1.189000000000000000e+03,-5.437067189298772085e-01,0.000000000000000000e+00
1.190000000000000000e+03,-4.137958525731577075e-01,0.000000000000000000e+00
1.191000000000000000e+03,-3.463232627415511189e-01,0.000000000000000000e+00
1.192000000000000000e+03,-4.030675117975179300e-01,0.000000000000000000e+00
1.193000000000000000e+03,-1.371606335255974030e-01,0.000000000000000000e+00
1.194000000000000000e+03,-2.275706436412636424e-01,0.000000000000000000e+00
1.195000000000000000e+03,-1.297068905065264233e-01,0.000000000000000000e+00
1.196000000000000000e+03,-2.306143523300263620e-02,0.000000000000000000e+00
1.197000000000000000e+03,2.922398205653969905e-01,0.000000000000000000e+00
1.198000000000000000e+03,-1.942766000518544589e-01,0.000000000000000000e+00
1.199000000000000000e+03,3.631098946842294395e-01,0.000000000000000000e+00
1.200000000000000000e+03,2.151340700554630614e-01,0.000000000000000000e+00
1.201000000000000000e+03,2.529291022559016638e-02,0.000000000000000000e+00
1.202000000000000000e+03,3.635860206003375117e-01,0.000000000000000000e+00
1.203000000000000000e+03,6.948413754573244949e-01,0.000000000000000000e+00
1.204000000000000000e+03,4.490242784665082199e-01,0.000000000000000000e+00
1.205000000000000000e+03,4.804792891120381881e+00,0.000000000000000000e+00
1.206000000000000000e+03,9.630481050893550110e-01,1.000000000000000000e+00
1.207000000000000000e+03,-2.110224528012226930e+00,0.000000000000000000e+00
1.208000000000000000e+03,-3.463560767197445406e-02,0.000000000000000000e+00
1.209000000000000000e+03,3.503595070016014834e-02,0.000000000000000000e+00
1.210000000000000000e+03,3.207589987596479175e-01,0.000000000000000000e+00
1.211000000000000000e+03,-8.705003309819941970e-02,0.000000000000000000e+00
1.212000000000000000e+03,6.296041750635585910e-01,0.000000000000000000e+00
1.213000000000000000e+03,1.055752517198763757e-01,0.000000000000000000e+00
1.214000000000000000e+03,3.833602179037621238e-01,0.000000000000000000e+00
1.215000000000000000e+03,4.094099783788578972e-01,0.000000000000000000e+00
1.216000000000000000e+03,3.102705840975565899e-01,0.000000000000000000e+00
1.217000000000000000e+03,2.246055831375634027e-01,0.000000000000000000e+00
1.218000000000000000e+03,7.381476275557774525e-01,0.000000000000000000e+00
1.219000000000000000e+03,1.827528412725764329e-01,0.000000000000000000e+00
1.220000000000000000e+03,8.095301377550565558e-01,0.000000000000000000e+00
1.221000000000000000e+03,5.461671451893408413e-01,0.000000000000000000e+00
1.222000000000000000e+03,1.019934832443804895e+00,0.000000000000000000e+00
1.223000000000000000e+03,1.464830690921911094e+00,0.000000000000000000e+00
1.224000000000000000e+03,1.255075028876349474e+00,0.000000000000000000e+00
1.225000000000000000e+03,1.899798976669939465e+00,0.000000000000000000e+00
1.226000000000000000e+03,1.096091024296767191e+00,0.000000000000000000e+00
1.227000000000000000e+03,2.542689884040764681e-01,0.000000000000000000e+00
1.228000000000000000e+03,-5.471145896317224366e-01,0.000000000000000000e+00
1.229000000000000000e+03,-1.438664502231121967e+00,0.000000000000000000e+00
1.230000000000000000e+03,-1.539190474642147866e+00,0.000000000000000000e+00
1.231000000000000000e+03,-1.544597900729415718e+00,0.000000000000000000e+00
1.232000000000000000e+03,-1.399512223903421448e+00,0.000000000000000000e+00
1.233000000000000000e+03,-1.166194202844460737e+00,0.000000000000000000e+00
1.234000000000000000e+03,-9.295815856612688055e-01,0.000000000000000000e+00
1.235000000000000000e+03,-1.120421682013703624e+00,0.000000000000000000e+00
1.236000000000000000e+03,-8.020258574103059646e-01,0.000000000000000000e+00
1.237000000000000000e+03,-7.819517992716811250e-01,0.000000000000000000e+00
1.238000000000000000e+03,-5.291229549448950298e-01,0.000000000000000000e+00
1.239000000000000000e+03,-5.418087102133748445e-01,0.000000000000000000e+00
1.240000000000000000e+03,-6.968146244063459782e-02,0.000000000000000000e+00
1.241000000000000000e+03,-3.800087990507083346e-01,0.000000000000000000e+00
1.242000000000000000e+03,-1.537867708883859375e-01,0.000000000000000000e+00
1.243000000000000000e+03,-1.415157226213597519e-01,0.000000000000000000e+00
1.244000000000000000e+03,-3.104911381180612828e-01,0.000000000000000000e+00
1.245000000000000000e+03,-2.532377869284486160e-01,0.000000000000000000e+00
1.246000000000000000e+03,-1.671006489288519303e-01,0.000000000000000000e+00
1.247000000000000000e+03,-1.033233288603699479e-01,0.000000000000000000e+00
1.248000000000000000e+03,-1.418410056945338948e-01,0.000000000000000000e+00
1.249000000000000000e+03,3.417337687525787704e-01,0.000000000000000000e+00
1.250000000000000000e+03,2.249907580391621587e-01,0.000000000000000000e+00
1.251000000000000000e+03,-5.470364063245115871e-02,0.000000000000000000e+00
1.252000000000000000e+03,2.028024600643524300e-01,0.000000000000000000e+00
1.253000000000000000e+03,4.698088663365926343e-02,0.000000000000000000e+00
1.254000000000000000e+03,2.291422128457131502e-01,0.000000000000000000e+00
1.255000000000000000e+03,1.950483272168593019e-01,0.000000000000000000e+00
1.256000000000000000e+03,3.977371748696903464e-01,0.000000000000000000e+00
1.257000000000000000e+03,-4.590661119166974946e-02,0.000000000000000000e+00
1.258000000000000000e+03,7.453903265766468333e-01,0.000000000000000000e+00
1.259000000000000000e+03,-6.082746013934960116e-02,0.000000000000000000e+00
1.260000000000000000e+03,6.882401451479762677e-01,0.000000000000000000e+00
1.261000000000000000e+03,-7.185605335787440678e-03,0.000000000000000000e+00
1.262000000000000000e+03,1.634152629360723363e-01,0.000000000000000000e+00
1.263000000000000000e+03,2.967774764224418993e-01,0.000000000000000000e+00
1.264000000000000000e+03,2.053310902330808541e-01,0.000000000000000000e+00
1.265000000000000000e+03,5.219121971298289475e-01,0.000000000000000000e+00
1.266000000000000000e+03,4.908465427523588387e-01,0.000000000000000000e+00
1.267000000000000000e+03,1.519866818300758260e-01,0.000000000000000000e+00
1.268000000000000000e+03,5.582124868451548982e-01,0.000000000000000000e+00
1.269000000000000000e+03,2.036799541641289568e-01,0.000000000000000000e+00
1.270000000000000000e+03,4.264572389855728618e-01,0.000000000000000000e+00
1.271000000000000000e+03,2.135431157129666635e-01,0.000000000000000000e+00
1.272000000000000000e+03,2.721118943335403828e-01,0.000000000000000000e+00
1.273000000000000000e+03,5.514521771468409161e-01,0.000000000000000000e+00
1.274000000000000000e+03,4.523735409894741322e-01,0.000000000000000000e+00
1.275000000000000000e+03,-7.951708693223302760e-02,0.000000000000000000e+00
1.276000000000000000e+03,5.780317101616391229e-01,0.000000000000000000e+00
1.277000000000000000e+03,7.936230495724778955e-02,0.000000000000000000e+00
1.278000000000000000e+03,4.952812871082817869e-02,0.000000000000000000e+00
1.279000000000000000e+03,1.639047918253631886e-01,0.000000000000000000e+00
1.280000000000000000e+03,2.581008525471578108e-01,0.000000000000000000e+00
1.281000000000000000e+03,1.421990605372632499e-01,0.000000000000000000e+00
1.282000000000000000e+03,3.935450151785716555e-01,0.000000000000000000e+00
1.283000000000000000e+03,-5.448159698635848119e-02,0.000000000000000000e+00
1.284000000000000000e+03,3.979312777592786676e-01,0.000000000000000000e+00
1.285000000000000000e+03,7.571593630924247087e-01,0.000000000000000000e+00
1.286000000000000000e+03,4.571634247983587862e+00,0.000000000000000000e+00
1.287000000000000000e+03,-5.899525082042986757e-01,1.000000000000000000e+00
1.288000000000000000e+03,-1.897669077624953626e+00,0.000000000000000000e+00
1.289000000000000000e+03,-1.345201279311382947e-01,0.000000000000000000e+00
1.290000000000000000e+03,-6.584510559718336209e-01,0.000000000000000000e+00
1.291000000000000000e+03,-1.499017083967685848e-01,0.000000000000000000e+00
1.292000000000000000e+03,-2.483113598595046712e-01,0.000000000000000000e+00
1.293000000000000000e+03,-3.614737088866659676e-01,0.000000000000000000e+00
1.294000000000000000e+03,-3.660486817045320862e-01,0.000000000000000000e+00
1.295000000000000000e+03,-2.065934181185155039e-01,0.000000000000000000e+00
1.296000000000000000e+03,-4.381365997671116119e-01,0.000000000000000000e+00
1.297000000000000000e+03,-3.259826724139278098e-01,0.000000000000000000e+00
1.298000000000000000e+03,-2.018837249876913320e-01,0.000000000000000000e+00
1.299000000000000000e+03,-3.466086809944847191e-01,0.000000000000000000e+00
1.300000000000000000e+03,-8.027709494043133720e-02,0.000000000000000000e+00
1.301000000000000000e+03,2.259529628884047181e-01,0.000000000000000000e+00
1.302000000000000000e+03,8.222559196833008344e-02,0.000000000000000000e+00
1.303000000000000000e+03,3.122390443358744050e-01,0.000000000000000000e+00
1.304000000000000000e+03,6.988535840563819823e-01,0.000000000000000000e+00
1.305000000000000000e+03,6.305349740922358004e-01,0.000000000000000000e+00
1.306000000000000000e+03,1.083372568579995976e+00,0.000000000000000000e+00
1.307000000000000000e+03,9.467076397106805041e-01,0.000000000000000000e+00
1.308000000000000000e+03,8.406436866994120016e-02,0.000000000000000000e+00
1.309000000000000000e+03,-4.920484693823120037e-01,0.000000000000000000e+00
1.310000000000000000e+03,-1.227646508952984661e+00,0.000000000000000000e+00
1.311000000000000000e+03,-1.729970966165250257e+00,0.000000000000000000e+00
1.312000000000000000e+03,-1.319488517400120520e+00,0.000000000000000000e+00
1.313000000000000000e+03,-1.576494839748272314e+00,0.000000000000000000e+00
1.314000000000000000e+03,-1.389519041142265987e+00,0.000000000000000000e+00
1.315000000000000000e+03,-9.585881386070850274e-01,0.000000000000000000e+00
1.316000000000000000e+03,-1.221824201212872829e+00,0.000000000000000000e+00
1.317000000000000000e+03,-8.515218719136019576e-01,0.000000000000000000e+00
1.318000000000000000e+03,-6.641431713619171395e-01,0.000000000000000000e+00
1.319000000000000000e+03,-7.554498485258607232e-01,0.000000000000000000e+00
1.320000000000000000e+03,-4.885940972514469238e-01,0.000000000000000000e+00
1.321000000000000000e+03,-6.037907609441029999e-01,0.000000000000000000e+00
1.322000000000000000e+03,-3.975625237419076474e-01,0.000000000000000000e+00
1.323000000000000000e+03,-4.117878413441775631e-01,0.000000000000000000e+00
1.324000000000000000e+03,-5.018768711164649510e-01,0.000000000000000000e+00
1.325000000000000000e+03,-4.944676899730163222e-01,0.000000000000000000e+00
1.326000000000000000e+03,-3.818356790053306082e-01,0.000000000000000000e+00
1.327000000000000000e+03,-4.078479545072112300e-01,0.000000000000000000e+00
1.328000000000000000e+03,1.813207956420419542e-01,0.000000000000000000e+00
1.329000000000000000e+03,-4.137387707553257243e-01,0.000000000000000000e+00
1.330000000000000000e+03,3.502645324396752025e-01,0.000000000000000000e+00
1.331000000000000000e+03,-1.256301627003078847e-01,0.000000000000000000e+00
1.332000000000000000e+03,8.759216502846962904e-02,0.000000000000000000e+00
1.333000000000000000e+03,-3.320146478547890499e-03,0.000000000000000000e+00
1.334000000000000000e+03,4.852339375667951149e-01,0.000000000000000000e+00
1.335000000000000000e+03,-3.070820375507699040e-01,0.000000000000000000e+00
1.336000000000000000e+03,4.355250802243832431e-01,0.000000000000000000e+00
1.337000000000000000e+03,1.439878068281337797e-01,0.000000000000000000e+00
1.338000000000000000e+03,5.575246637877954159e-01,0.000000000000000000e+00
1.339000000000000000e+03,3.887292817999807859e-01,0.000000000000000000e+00
1.340000000000000000e+03,4.597355162083778812e-01,0.000000000000000000e+00
1.341000000000000000e+03,-1.398816807484870237e-02,0.000000000000000000e+00
1.342000000000000000e+03,8.658427432350968012e-01,0.000000000000000000e+00
1.343000000000000000e+03,-5.459375612248552889e-02,0.000000000000000000e+00
1.344000000000000000e+03,3.918648072961295359e+00,0.000000000000000000e+00
1.345000000000000000e+03,3.397644924198987670e+00,0.000000000000000000e+00
1.346000000000000000e+03,-2.088914710045195022e+00,1.000000000000000000e+00
1.347000000000000000e+03,-2.382188919765127477e-01,0.000000000000000000e+00
1.348000000000000000e+03,-5.271338009293931037e-01,0.000000000000000000e+00
1.349000000000000000e+03,2.901285638879548268e-01,0.000000000000000000e+00
1.350000000000000000e+03,-1.630764069852446985e-01,0.000000000000000000e+00
1.351000000000000000e+03,2.167951668195377823e-01,0.000000000000000000e+00
1.352000000000000000e+03,-2.083396137308699547e-01,0.000000000000000000e+00
1.353000000000000000e+03,3.042891867484437962e-01,0.000000000000000000e+00
1.354000000000000000e+03,3.387255999825727337e-01,0.000000000000000000e+00
1.355000000000000000e+03,3.055387632111079554e-01,0.000000000000000000e+00
1.356000000000000000e+03,2.995299713932125796e-01,0.000000000000000000e+00
1.357000000000000000e+03,3.487674450799823078e-01,0.000000000000000000e+00
1.358000000000000000e+03,2.594998147647641917e-01,0.000000000000000000e+00
1.359000000000000000e+03,4.484897311627296657e-01,0.000000000000000000e+00
1.360000000000000000e+03,4.136640381745434469e-01,0.000000000000000000e+00
1.361000000000000000e+03,1.083005982013775181e+00,0.000000000000000000e+00
1.362000000000000000e+03,1.104890354634930238e+00,0.000000000000000000e+00
1.363000000000000000e+03,1.386788320862382573e+00,0.000000000000000000e+00
1.364000000000000000e+03,1.475993582265498372e+00,0.000000000000000000e+00
1.365000000000000000e+03,1.525556534290709809e+00,0.000000000000000000e+00
1.366000000000000000e+03,5.240038484322109280e-01,0.000000000000000000e+00
1.367000000000000000e+03,-3.372973711975255640e-01,0.000000000000000000e+00
1.368000000000000000e+03,-1.118881360275465031e+00,0.000000000000000000e+00
1.369000000000000000e+03,-1.453308596046527734e+00,0.000000000000000000e+00
1.370000000000000000e+03,-1.667718577768068311e+00,0.000000000000000000e+00
1.371000000000000000e+03,-1.256085082059646529e+00,0.000000000000000000e+00
1.372000000000000000e+03,-1.302076584448064400e+00,0.000000000000000000e+00
1.373000000000000000e+03,-1.231864079710903948e+00,0.000000000000000000e+00
1.374000000000000000e+03,-1.125661468047911562e+00,0.000000000000000000e+00
1.375000000000000000e+03,-7.437627643135942268e-01,0.000000000000000000e+00
1.376000000000000000e+03,-9.914700278001853384e-01,0.000000000000000000e+00
1.377000000000000000e+03,-5.933667073090203026e-01,0.000000000000000000e+00
1.378000000000000000e+03,-5.769949408580352657e-01,0.000000000000000000e+00
1.379000000000000000e+03,-5.501583059639447715e-01,0.000000000000000000e+00
1.380000000000000000e+03,-4.118577432911536551e-01,0.000000000000000000e+00
1.381000000000000000e+03,-5.623970033342883257e-01,0.000000000000000000e+00
1.382000000000000000e+03,-5.219626482339613238e-01,0.000000000000000000e+00
1.383000000000000000e+03,-1.614607367221158052e-01,0.000000000000000000e+00
1.384000000000000000e+03,-2.311209618111025599e-01,0.000000000000000000e+00
1.385000000000000000e+03,-3.673827887915548929e-01,0.000000000000000000e+00
1.386000000000000000e+03,1.858103536156832103e-01,0.000000000000000000e+00
1.387000000000000000e+03,-5.660786982908472958e-02,0.000000000000000000e+00
1.388000000000000000e+03,1.855994757798947459e-01,0.000000000000000000e+00
1.389000000000000000e+03,1.184423798490664564e-01,0.000000000000000000e+00
1.390000000000000000e+03,2.746605796287786005e-01,0.000000000000000000e+00
1.391000000000000000e+03,8.721240051608642602e-03,0.000000000000000000e+00
1.392000000000000000e+03,5.241087565279284322e-01,0.000000000000000000e+00
1.393000000000000000e+03,3.407956045761608710e-01,0.000000000000000000e+00
1.394000000000000000e+03,6.233111367749480936e-01,0.000000000000000000e+00
1.395000000000000000e+03,1.272950235100931138e-01,0.000000000000000000e+00
1.396000000000000000e+03,2.718329935342162496e-01,0.000000000000000000e+00
1.397000000000000000e+03,1.200505404334134774e+00,0.000000000000000000e+00
1.398000000000000000e+03,4.889216005168927737e+00,0.000000000000000000e+00
1.399000000000000000e+03,-9.776944991319929112e-01,1.000000000000000000e+00
1.400000000000000000e+03,-1.516429282864101946e+00,0.000000000000000000e+00
1.401000000000000000e+03,3.213473443069400637e-01,0.000000000000000000e+00
1.402000000000000000e+03,-2.781619896289147520e-01,0.000000000000000000e+00
1.403000000000000000e+03,7.412390267691146839e-01,0.000000000000000000e+00
1.404000000000000000e+03,-1.207984948397247127e-01,0.000000000000000000e+00
1.405000000000000000e+03,7.933316636070005812e-01,0.000000000000000000e+00
1.406000000000000000e+03,1.484844320106911975e-01,0.000000000000000000e+00
1.407000000000000000e+03,2.562430723743672756e-01,0.000000000000000000e+00
1.408000000000000000e+03,4.865238522737737603e-01,0.000000000000000000e+00
1.409000000000000000e+03,1.926581723886637842e-01,0.000000000000000000e+00
1.410000000000000000e+03,2.394025791581698426e-01,0.000000000000000000e+00
1.411000000000000000e+03,4.742171047883772528e-01,0.000000000000000000e+00
1.412000000000000000e+03,4.195770917649063736e-01,0.000000000000000000e+00
1.413000000000000000e+03,5.165598412823787511e-01,0.000000000000000000e+00
1.414000000000000000e+03,9.643271607080128316e-01,0.000000000000000000e+00
1.415000000000000000e+03,9.067496366587459722e-01,0.000000000000000000e+00
1.416000000000000000e+03,1.273421412063699076e+00,0.000000000000000000e+00
1.417000000000000000e+03,1.421796793211476118e+00,0.000000000000000000e+00
1.418000000000000000e+03,1.520242265395424619e+00,0.000000000000000000e+00
1.419000000000000000e+03,1.027915161459973747e+00,0.000000000000000000e+00
1.420000000000000000e+03,-4.319645297546331753e-01,0.000000000000000000e+00
1.421000000000000000e+03,-1.110507869934994618e+00,0.000000000000000000e+00
1.422000000000000000e+03,-1.750247985887982693e+00,0.000000000000000000e+00
1.423000000000000000e+03,-1.612283943500055550e+00,0.000000000000000000e+00
1.424000000000000000e+03,-1.766905476939695241e+00,0.000000000000000000e+00
1.425000000000000000e+03,-1.626792447704209721e+00,0.000000000000000000e+00
1.426000000000000000e+03,-1.284077292167897566e+00,0.000000000000000000e+00
1.427000000000000000e+03,-8.912754017439282750e-01,0.000000000000000000e+00
1.428000000000000000e+03,-1.195428365519049185e+00,0.000000000000000000e+00
1.429000000000000000e+03,-8.063212230216210141e-01,0.000000000000000000e+00
1.430000000000000000e+03,-8.776068379908407158e-01,0.000000000000000000e+00
1.431000000000000000e+03,-8.756656986689483890e-01,0.000000000000000000e+00
1.432000000000000000e+03,-1.321215323832845290e-01,0.000000000000000000e+00
1.433000000000000000e+03,-9.222244574803332151e-01,0.000000000000000000e+00
1.434000000000000000e+03,-7.159411468806015089e-02,0.000000000000000000e+00
1.435000000000000000e+03,-7.248485087317727560e-01,0.000000000000000000e+00
1.436000000000000000e+03,-1.025114142152280111e-01,0.000000000000000000e+00
1.437000000000000000e+03,-3.040171111283951344e-01,0.000000000000000000e+00
1.438000000000000000e+03,-1.410296592387052794e-01,0.000000000000000000e+00
1.439000000000000000e+03,1.903245327078895849e-02,0.000000000000000000e+00
1.440000000000000000e+03,-4.209102766904688764e-01,0.000000000000000000e+00
1.441000000000000000e+03,2.113659723332102502e-01,0.000000000000000000e+00
1.442000000000000000e+03,-2.389342550027058476e-01,0.000000000000000000e+00
1.443000000000000000e+03,2.012359536110241709e-01,0.000000000000000000e+00
1.444000000000000000e+03,8.147592192564422076e-02,0.000000000000000000e+00
1.445000000000000000e+03,2.399480661797390724e-01,0.000000000000000000e+00
1.446000000000000000e+03,3.687587617633760195e-01,0.000000000000000000e+00
1.447000000000000000e+03,-3.836123557692080466e-01,0.000000000000000000e+00
1.448000000000000000e+03,3.898704154573985337e-01,0.000000000000000000e+00
1.449000000000000000e+03,-6.611877407123512018e-02,0.000000000000000000e+00
1.450000000000000000e+03,2.995151436757076402e-01,0.000000000000000000e+00
1.451000000000000000e+03,2.199225523529634296e-01,0.000000000000000000e+00
1.452000000000000000e+03,9.417130839922159546e-02,0.000000000000000000e+00
1.453000000000000000e+03,6.311520815355272651e-01,0.000000000000000000e+00
1.454000000000000000e+03,1.252665924723334323e-01,0.000000000000000000e+00
1.455000000000000000e+03,1.344387171600975206e+00,0.000000000000000000e+00
1.456000000000000000e+03,4.773254509028882708e+00,0.000000000000000000e+00
1.457000000000000000e+03,-1.427047540045949525e-01,1.000000000000000000e+00
1.458000000000000000e+03,-1.628605899961987680e+00,0.000000000000000000e+00
1.459000000000000000e+03,1.917991071844924733e-01,0.000000000000000000e+00
1.460000000000000000e+03,-3.014972650911855734e-01,0.000000000000000000e+00
1.461000000000000000e+03,9.886128885704718872e-02,0.000000000000000000e+00
1.462000000000000000e+03,-1.167475792811430574e-01,0.000000000000000000e+00
1.463000000000000000e+03,2.295238331547613808e-01,0.000000000000000000e+00
1.464000000000000000e+03,-2.581093034457361823e-01,0.000000000000000000e+00
1.465000000000000000e+03,9.375813089113674975e-03,0.000000000000000000e+00
1.466000000000000000e+03,2.472247995978198720e-01,0.000000000000000000e+00
1.467000000000000000e+03,1.671688552520935178e-01,0.000000000000000000e+00
1.468000000000000000e+03,1.659050758213326815e-01,0.000000000000000000e+00
1.469000000000000000e+03,3.203463328802090282e-01,0.000000000000000000e+00
1.470000000000000000e+03,1.281322030164311898e-01,0.000000000000000000e+00
1.471000000000000000e+03,5.052312967844418967e-01,0.000000000000000000e+00
1.472000000000000000e+03,2.393785816804378797e-01,0.000000000000000000e+00
1.473000000000000000e+03,1.117704658581215371e+00,0.000000000000000000e+00
1.474000000000000000e+03,7.739370281854326405e-01,0.000000000000000000e+00
1.475000000000000000e+03,1.394388486680025352e+00,0.000000000000000000e+00
1.476000000000000000e+03,1.314483770522303141e+00,0.000000000000000000e+00
1.477000000000000000e+03,9.508565637964658812e-01,0.000000000000000000e+00
1.478000000000000000e+03,-1.389707199048923481e-01,0.000000000000000000e+00
1.479000000000000000e+03,-1.118303376925426473e+00,0.000000000000000000e+00
1.480000000000000000e+03,-1.346894852330032144e+00,0.000000000000000000e+00
1.481000000000000000e+03,-1.309771014959123958e+00,0.000000000000000000e+00
1.482000000000000000e+03,-1.416020695517493877e+00,0.000000000000000000e+00
1.483000000000000000e+03,-1.363237273901828361e+00,0.000000000000000000e+00
1.484000000000000000e+03,-1.027863427713235467e+00,0.000000000000000000e+00
1.485000000000000000e+03,-8.368891477700990400e-01,0.000000000000000000e+00
1.486000000000000000e+03,-7.098370298270555434e-01,0.000000000000000000e+00
1.487000000000000000e+03,-8.821233854216155024e-01,0.000000000000000000e+00
1.488000000000000000e+03,-7.213791074113521384e-01,0.000000000000000000e+00
1.489000000000000000e+03,-5.590448232592997169e-01,0.000000000000000000e+00
1.490000000000000000e+03,-5.876788991427642772e-01,0.000000000000000000e+00
1.491000000000000000e+03,-5.297025261065528845e-01,0.000000000000000000e+00
1.492000000000000000e+03,-3.372521888676033863e-01,0.000000000000000000e+00
1.493000000000000000e+03,-3.849873663332323837e-01,0.000000000000000000e+00
1.494000000000000000e+03,-3.511732941088812621e-01,0.000000000000000000e+00
1.495000000000000000e+03,2.486432989535470803e-02,0.000000000000000000e+00
1.496000000000000000e+03,-2.786140643560583996e-01,0.000000000000000000e+00
1.497000000000000000e+03,-1.254399002194283262e-02,0.000000000000000000e+00
1.498000000000000000e+03,-2.530806271951587805e-01,0.000000000000000000e+00
1.499000000000000000e+03,1.950729005011093420e-01,0.000000000000000000e+00
1.500000000000000000e+03,-3.730776778716640152e-01,0.000000000000000000e+00
1.501000000000000000e+03,1.362066688198414199e-01,0.000000000000000000e+00
1.502000000000000000e+03,5.615108087365930367e-02,0.000000000000000000e+00
1.503000000000000000e+03,6.593954408272027778e-02,0.000000000000000000e+00
1.504000000000000000e+03,3.355111688278146209e-01,0.000000000000000000e+00
1.505000000000000000e+03,2.818919471819192335e-01,0.000000000000000000e+00
1.506000000000000000e+03,2.013972150338992628e-01,0.000000000000000000e+00
1.507000000000000000e+03,2.525630919018053144e-01,0.000000000000000000e+00
1.508000000000000000e+03,2.296374715843418901e-01,0.000000000000000000e+00
1.509000000000000000e+03,4.590115988289600879e-01,0.000000000000000000e+00
1.510000000000000000e+03,2.936286850809017857e-01,0.000000000000000000e+00
1.511000000000000000e+03,2.410667465840969914e-01,0.000000000000000000e+00
1.512000000000000000e+03,3.652497328815879629e-01,0.000000000000000000e+00
1.513000000000000000e+03,5.024132089220366693e-01,0.000000000000000000e+00
1.514000000000000000e+03,3.485737549146689651e-01,0.000000000000000000e+00
1.515000000000000000e+03,3.201799317917069509e-01,0.000000000000000000e+00
1.516000000000000000e+03,4.860854766211216149e-01,0.000000000000000000e+00
1.517000000000000000e+03,2.136399448525051203e-01,0.000000000000000000e+00
1.518000000000000000e+03,2.002864477886029115e-01,0.000000000000000000e+00
1.519000000000000000e+03,3.388559578987296317e-01,0.000000000000000000e+00
1.520000000000000000e+03,3.649754537623959849e-01,0.000000000000000000e+00
1.521000000000000000e+03,3.271949658160545615e-01,0.000000000000000000e+00
1.522000000000000000e+03,7.991286154236450223e-02,0.000000000000000000e+00
1.523000000000000000e+03,3.512701056788227749e-01,0.000000000000000000e+00
1.524000000000000000e+03,4.333782952789153597e-01,0.000000000000000000e+00
1.525000000000000000e+03,1.681253734065163430e-01,0.000000000000000000e+00
1.526000000000000000e+03,4.591659393234840958e-01,0.000000000000000000e+00
1.527000000000000000e+03,4.195812413937001217e-01,0.000000000000000000e+00
1.528000000000000000e+03,9.617713517362333486e-02,0.000000000000000000e+00
1.529000000000000000e+03,2.195899487110636317e-01,0.000000000000000000e+00
1.530000000000000000e+03,1.583262636482335728e-01,0.000000000000000000e+00
1.531000000000000000e+03,2.893441839568363094e-01,0.000000000000000000e+00
1.532000000000000000e+03,2.222697493457476969e-01,0.000000000000000000e+00
1.533000000000000000e+03,-1.917049768948220767e-01,0.000000000000000000e+00
1.534000000000000000e+03,3.720023798827167827e-01,0.000000000000000000e+00
1.535000000000000000e+03,-1.821887916577311362e-01,0.000000000000000000e+00
1.536000000000000000e+03,3.458813090187864425e-01,0.000000000000000000e+00
1.537000000000000000e+03,-1.393370523302904784e-01,0.000000000000000000e+00
1.538000000000000000e+03,1.692554151972339160e-01,0.000000000000000000e+00
1.539000000000000000e+03,1.322160950458001472e-01,0.000000000000000000e+00
1.540000000000000000e+03,8.578516303839993362e-02,0.000000000000000000e+00
1.541000000000000000e+03,-1.863569783050111894e-01,0.000000000000000000e+00
1.542000000000000000e+03,4.972261173696375103e-01,0.000000000000000000e+00
1.543000000000000000e+03,-1.242456549107886360e-01,0.000000000000000000e+00
1.544000000000000000e+03,4.403465568697034760e-02,0.000000000000000000e+00
1.545000000000000000e+03,1.655363052678902880e-01,0.000000000000000000e+00
1.546000000000000000e+03,9.045420289638568534e-02,0.000000000000000000e+00
1.547000000000000000e+03,-4.233123570920845902e-01,0.000000000000000000e+00
1.548000000000000000e+03,4.829381345248681678e-01,0.000000000000000000e+00
1.549000000000000000e+03,-4.805429218611434461e-01,0.000000000000000000e+00
1.550000000000000000e+03,3.158534380826091059e+00,0.000000000000000000e+00
1.551000000000000000e+03,2.829301276066086945e+00,0.000000000000000000e+00
1.552000000000000000e+03,-2.691120248584691677e+00,1.000000000000000000e+00
1.553000000000000000e+03,-4.288234543237635643e-01,0.000000000000000000e+00
1.554000000000000000e+03,-8.513455679471396698e-01,0.000000000000000000e+00
1.555000000000000000e+03,-4.070355981961957803e-01,0.000000000000000000e+00
1.556000000000000000e+03,-5.927548613934415789e-01,0.000000000000000000e+00
1.557000000000000000e+03,-3.450164295166252559e-01,0.000000000000000000e+00
1.558000000000000000e+03,-4.966604081664857673e-01,0.000000000000000000e+00
1.559000000000000000e+03,-3.105478249026779047e-01,0.000000000000000000e+00
1.560000000000000000e+03,-4.678285329563635075e-01,0.000000000000000000e+00
1.561000000000000000e+03,-3.501887794943112642e-01,0.000000000000000000e+00
1.562000000000000000e+03,-2.228409624865783367e-01,0.000000000000000000e+00
1.563000000000000000e+03,-2.128706057049479378e-02,0.000000000000000000e+00
1.564000000000000000e+03,-1.646367981633649336e-01,0.000000000000000000e+00
1.565000000000000000e+03,-6.553674961928866727e-02,0.000000000000000000e+00
1.566000000000000000e+03,-4.288281361598462321e-02,0.000000000000000000e+00
1.567000000000000000e+03,3.800296939262491902e-01,0.000000000000000000e+00
1.568000000000000000e+03,3.091657041019137409e-01,0.000000000000000000e+00
1.569000000000000000e+03,8.136415970369198503e-01,0.000000000000000000e+00
1.570000000000000000e+03,7.468116284226713475e-01,0.000000000000000000e+00
1.571000000000000000e+03,1.310947242795664103e+00,0.000000000000000000e+00
1.572000000000000000e+03,4.611239836845855700e-01,0.000000000000000000e+00
1.573000000000000000e+03,1.505366261105843817e-01,0.000000000000000000e+00
1.574000000000000000e+03,-1.161500652758207464e+00,0.000000000000000000e+00
1.575000000000000000e+03,-1.230654017706195535e+00,0.000000000000000000e+00
1.576000000000000000e+03,-1.609908475910078129e+00,0.000000000000000000e+00
1.577000000000000000e+03,-1.517967363729912700e+00,0.000000000000000000e+00
1.578000000000000000e+03,-1.288870638790897916e+00,0.000000000000000000e+00
1.579000000000000000e+03,-9.446224427414624536e-01,0.000000000000000000e+00
1.580000000000000000e+03,-1.228852901349215543e+00,0.000000000000000000e+00
1.581000000000000000e+03,-5.903065966389188235e-01,0.000000000000000000e+00
1.582000000000000000e+03,-1.029926992384400775e+00,0.000000000000000000e+00
1.583000000000000000e+03,-5.971409777074881964e-01,0.000000000000000000e+00
1.584000000000000000e+03,-9.565922590860368446e-01,0.000000000000000000e+00
1.585000000000000000e+03,-7.373321375102448449e-01,0.000000000000000000e+00
1.586000000000000000e+03,-4.439645882097836838e-01,0.000000000000000000e+00
1.587000000000000000e+03,-5.697523313015245838e-01,0.000000000000000000e+00
1.588000000000000000e+03,-4.494945685044777761e-01,0.000000000000000000e+00
