timestamp,ecg_measurement,qrs_detected
0.000000000000000000e+00,1.554610278619807384e-01,0.000000000000000000e+00
1.000000000000000000e+00,-1.437616537528234872e-01,0.000000000000000000e+00
2.000000000000000000e+00,1.212738064798430937e-01,0.000000000000000000e+00
3.000000000000000000e+00,6.217702999137068171e-02,0.000000000000000000e+00
4.000000000000000000e+00,8.228358048124785606e-02,0.000000000000000000e+00
5.000000000000000000e+00,1.175056143661468711e-01,0.000000000000000000e+00
6.000000000000000000e+00,3.579361763094880966e-01,0.000000000000000000e+00
7.000000000000000000e+00,-9.845290548308343048e-01,0.000000000000000000e+00
8.000000000000000000e+00,4.086182422925096702e+00,0.000000000000000000e+00
9.000000000000000000e+00,5.347343028293915168e+00,0.000000000000000000e+00
1.000000000000000000e+01,2.827831073792406169e-01,1.000000000000000000e+00
1.100000000000000000e+01,-2.544754999066620171e-01,0.000000000000000000e+00
1.200000000000000000e+01,-9.762866931148951322e-01,0.000000000000000000e+00
1.300000000000000000e+01,-8.174238460346350266e-01,0.000000000000000000e+00
1.400000000000000000e+01,-9.920499851138494529e-01,0.000000000000000000e+00
1.500000000000000000e+01,-6.821109594177915403e-01,0.000000000000000000e+00
1.600000000000000000e+01,-8.635406382599837283e-01,0.000000000000000000e+00
1.700000000000000000e+01,-2.476521958890132158e-01,0.000000000000000000e+00
1.800000000000000000e+01,-6.469882861508506888e-01,0.000000000000000000e+00
1.900000000000000000e+01,-3.870921115529273315e-01,0.000000000000000000e+00
2.000000000000000000e+01,-1.384340040511356229e-01,0.000000000000000000e+00
2.100000000000000000e+01,-1.102520375779848794e-01,0.000000000000000000e+00
2.200000000000000000e+01,-1.474679503121415214e-01,0.000000000000000000e+00
2.300000000000000000e+01,3.959656737557967210e-01,0.000000000000000000e+00
2.400000000000000000e+01,5.090503270701407512e-01,0.000000000000000000e+00
2.500000000000000000e+01,9.690029385687277674e-01,0.000000000000000000e+00
2.600000000000000000e+01,1.096031486672228050e+00,0.000000000000000000e+00
2.700000000000000000e+01,7.403848073166110488e-01,0.000000000000000000e+00
2.800000000000000000e+01,4.138702771528734448e-01,0.000000000000000000e+00
2.900000000000000000e+01,-4.498753773084493979e-01,0.000000000000000000e+00
3.000000000000000000e+01,-7.634690728618341860e-01,0.000000000000000000e+00
3.100000000000000000e+01,-1.002762799748819766e+00,0.000000000000000000e+00
3.200000000000000000e+01,-1.198099682932027843e+00,0.000000000000000000e+00
3.300000000000000000e+01,-7.599599576326951933e-01,0.000000000000000000e+00
3.400000000000000000e+01,-1.033412096905073074e+00,0.000000000000000000e+00
3.500000000000000000e+01,-8.520117741981590997e-01,0.000000000000000000e+00
3.600000000000000000e+01,-6.881126696077798366e-01,0.000000000000000000e+00
3.700000000000000000e+01,-8.047890668944446269e-01,0.000000000000000000e+00
3.800000000000000000e+01,-3.331767259426642869e-01,0.000000000000000000e+00
3.900000000000000000e+01,-5.746256557618757421e-01,0.000000000000000000e+00
4.000000000000000000e+01,-4.784176165597843755e-01,0.000000000000000000e+00
4.100000000000000000e+01,-3.039138954262091130e-01,0.000000000000000000e+00
4.200000000000000000e+01,-4.035417206704915993e-01,0.000000000000000000e+00
4.300000000000000000e+01,-6.960007389557572310e-02,0.000000000000000000e+00
4.400000000000000000e+01,-4.334078763151671954e-01,0.000000000000000000e+00
4.500000000000000000e+01,-2.027549006860716596e-01,0.000000000000000000e+00
4.600000000000000000e+01,-3.598297519359445508e-03,0.000000000000000000e+00
4.700000000000000000e+01,1.605629259067281947e-02,0.000000000000000000e+00
4.800000000000000000e+01,-7.623203080578620783e-02,0.000000000000000000e+00
4.900000000000000000e+01,4.438476778298986597e-02,0.000000000000000000e+00
5.000000000000000000e+01,1.122338537947985410e-01,0.000000000000000000e+00
5.100000000000000000e+01,8.076747988635303577e-02,0.000000000000000000e+00
5.200000000000000000e+01,1.549776024168056932e-01,0.000000000000000000e+00
5.300000000000000000e+01,1.457826928433499369e-01,0.000000000000000000e+00
5.400000000000000000e+01,4.779046063025926827e-01,0.000000000000000000e+00
5.500000000000000000e+01,4.022203381403870459e-01,0.000000000000000000e+00
5.600000000000000000e+01,5.369986934282634516e-01,0.000000000000000000e+00
5.700000000000000000e+01,2.305955351584402235e-01,0.000000000000000000e+00
5.800000000000000000e+01,4.425325689330512902e-02,0.000000000000000000e+00
5.900000000000000000e+01,5.403912638303649818e-02,0.000000000000000000e+00
6.000000000000000000e+01,1.184138648833932828e-01,0.000000000000000000e+00
6.100000000000000000e+01,1.935795501023514220e-01,0.000000000000000000e+00
6.200000000000000000e+01,1.021827809627318256e-01,0.000000000000000000e+00
6.300000000000000000e+01,2.307590572630806858e-01,0.000000000000000000e+00
6.400000000000000000e+01,6.957779498128340012e-02,0.000000000000000000e+00
6.500000000000000000e+01,2.943419924212243854e-01,0.000000000000000000e+00
6.600000000000000000e+01,1.451806808280074468e-01,0.000000000000000000e+00
6.700000000000000000e+01,-4.856839482246302353e-01,0.000000000000000000e+00
6.800000000000000000e+01,5.281909955893534736e+00,0.000000000000000000e+00
6.900000000000000000e+01,4.154863403941366329e+00,1.000000000000000000e+00
7.000000000000000000e+01,-1.749621835850998508e-01,0.000000000000000000e+00
7.100000000000000000e+01,-4.997626666233295212e-01,0.000000000000000000e+00
7.200000000000000000e+01,-8.185883079866078660e-01,0.000000000000000000e+00
7.300000000000000000e+01,-7.040651771813786208e-01,0.000000000000000000e+00
7.400000000000000000e+01,-8.823434431048597926e-01,0.000000000000000000e+00
7.500000000000000000e+01,-4.262574255293495318e-01,0.000000000000000000e+00
7.600000000000000000e+01,-6.784299664898290061e-01,0.000000000000000000e+00
7.700000000000000000e+01,-1.456197169199614505e-01,0.000000000000000000e+00
7.800000000000000000e+01,-5.201110333546717923e-01,0.000000000000000000e+00
7.900000000000000000e+01,-1.171188150734536887e-01,0.000000000000000000e+00
8.000000000000000000e+01,-2.191031945818322224e-01,0.000000000000000000e+00
8.100000000000000000e+01,4.714891623559841483e-02,0.000000000000000000e+00
8.200000000000000000e+01,1.599241788819180665e-01,0.000000000000000000e+00
8.300000000000000000e+01,6.490312669784745747e-01,0.000000000000000000e+00
8.400000000000000000e+01,7.795105425550293843e-01,0.000000000000000000e+00
8.500000000000000000e+01,1.080022830960345015e+00,0.000000000000000000e+00
8.600000000000000000e+01,1.227609905387378797e+00,0.000000000000000000e+00
8.700000000000000000e+01,9.049045646214700644e-01,0.000000000000000000e+00
8.800000000000000000e+01,-8.385152181211125155e-02,0.000000000000000000e+00
8.900000000000000000e+01,-5.243655118245762470e-01,0.000000000000000000e+00
9.000000000000000000e+01,-1.055918594951432032e+00,0.000000000000000000e+00
9.100000000000000000e+01,-1.182171042601123823e+00,0.000000000000000000e+00
9.200000000000000000e+01,-1.107853372383550861e+00,0.000000000000000000e+00
9.300000000000000000e+01,-1.132279792845983568e+00,0.000000000000000000e+00
9.400000000000000000e+01,-1.079334658531955649e+00,0.000000000000000000e+00
9.500000000000000000e+01,-7.792137609557335809e-01,0.000000000000000000e+00
9.600000000000000000e+01,-9.704438388805523008e-01,0.000000000000000000e+00
9.700000000000000000e+01,-6.322878937383820119e-01,0.000000000000000000e+00
9.800000000000000000e+01,-6.881815750210912297e-01,0.000000000000000000e+00
9.900000000000000000e+01,-5.732837055169891505e-01,0.000000000000000000e+00
1.000000000000000000e+02,-6.141297041816019542e-01,0.000000000000000000e+00
1.010000000000000000e+02,-4.189715038690243198e-01,0.000000000000000000e+00
1.020000000000000000e+02,-6.458492334192436068e-01,0.000000000000000000e+00
1.030000000000000000e+02,-2.620521337736832490e-01,0.000000000000000000e+00
1.040000000000000000e+02,-3.165521020808998442e-01,0.000000000000000000e+00
1.050000000000000000e+02,-9.928954887384786043e-02,0.000000000000000000e+00
1.060000000000000000e+02,-1.881881306003660159e-01,0.000000000000000000e+00
1.070000000000000000e+02,-8.374853425187127332e-02,0.000000000000000000e+00
1.080000000000000000e+02,-1.293586626871633949e-01,0.000000000000000000e+00
1.090000000000000000e+02,3.697395863903974594e-02,0.000000000000000000e+00
1.100000000000000000e+02,2.567677520328967913e-02,0.000000000000000000e+00
1.110000000000000000e+02,1.678505850805364630e-01,0.000000000000000000e+00
1.120000000000000000e+02,2.583858473099782602e-02,0.000000000000000000e+00
1.130000000000000000e+02,3.242857538375812365e-01,0.000000000000000000e+00
1.140000000000000000e+02,4.964177469686286703e-01,0.000000000000000000e+00
1.150000000000000000e+02,3.937857331400753669e-01,0.000000000000000000e+00
1.160000000000000000e+02,2.920786282196293770e-01,0.000000000000000000e+00
1.170000000000000000e+02,8.090519180990569936e-02,0.000000000000000000e+00
1.180000000000000000e+02,7.309376242656029365e-02,0.000000000000000000e+00
1.190000000000000000e+02,2.080153798518239727e-01,0.000000000000000000e+00
1.200000000000000000e+02,8.035698260895755840e-02,0.000000000000000000e+00
1.210000000000000000e+02,2.256315808668747924e-01,0.000000000000000000e+00
1.220000000000000000e+02,3.695737837274498672e-02,0.000000000000000000e+00
1.230000000000000000e+02,2.992487651230892332e-01,0.000000000000000000e+00
1.240000000000000000e+02,6.426107706022810007e-02,0.000000000000000000e+00
1.250000000000000000e+02,3.255775639805530974e-01,0.000000000000000000e+00
1.260000000000000000e+02,-5.489768559275022275e-01,0.000000000000000000e+00
1.270000000000000000e+02,4.226101224099342524e+00,0.000000000000000000e+00
1.280000000000000000e+02,4.597298487821485757e+00,0.000000000000000000e+00
1.290000000000000000e+02,-3.888494727513785304e-02,1.000000000000000000e+00
1.300000000000000000e+02,-3.867089264837815787e-01,0.000000000000000000e+00
1.310000000000000000e+02,-8.527840343039178039e-01,0.000000000000000000e+00
1.320000000000000000e+02,-4.863841653859937164e-01,0.000000000000000000e+00
1.330000000000000000e+02,-7.155945798037067762e-01,0.000000000000000000e+00
1.340000000000000000e+02,-4.170576614520671854e-01,0.000000000000000000e+00
1.350000000000000000e+02,-4.777618693441691433e-01,0.000000000000000000e+00
1.360000000000000000e+02,-3.927194975380509656e-01,0.000000000000000000e+00
1.370000000000000000e+02,-2.052247402007026933e-01,0.000000000000000000e+00
1.380000000000000000e+02,-1.037986149569428140e-01,0.000000000000000000e+00
1.390000000000000000e+02,-1.407118510144026446e-01,0.000000000000000000e+00
1.400000000000000000e+02,1.592613206244596347e-01,0.000000000000000000e+00
1.410000000000000000e+02,5.773735243923708987e-02,0.000000000000000000e+00
1.420000000000000000e+02,5.687746813117210420e-01,0.000000000000000000e+00
1.430000000000000000e+02,7.325635867168778237e-01,0.000000000000000000e+00
1.440000000000000000e+02,1.140683191007702657e+00,0.000000000000000000e+00
1.450000000000000000e+02,1.362680535343140598e+00,0.000000000000000000e+00
1.460000000000000000e+02,8.729945388953328500e-01,0.000000000000000000e+00
1.470000000000000000e+02,8.343307886896364489e-02,0.000000000000000000e+00
1.480000000000000000e+02,-4.026120215026188776e-01,0.000000000000000000e+00
1.490000000000000000e+02,-1.077638594541396211e+00,0.000000000000000000e+00
1.500000000000000000e+02,-9.603551127754250683e-01,0.000000000000000000e+00
1.510000000000000000e+02,-9.462105696092366625e-01,0.000000000000000000e+00
1.520000000000000000e+02,-1.100017713678175468e+00,0.000000000000000000e+00
1.530000000000000000e+02,-9.233525241241297143e-01,0.000000000000000000e+00
1.540000000000000000e+02,-8.115959983984731840e-01,0.000000000000000000e+00
1.550000000000000000e+02,-6.443225788135594767e-01,0.000000000000000000e+00
1.560000000000000000e+02,-6.662172891625256499e-01,0.000000000000000000e+00
1.570000000000000000e+02,-6.072771152766351932e-01,0.000000000000000000e+00
1.580000000000000000e+02,-6.088153868761074783e-01,0.000000000000000000e+00
1.590000000000000000e+02,-4.122720139333558298e-01,0.000000000000000000e+00
1.600000000000000000e+02,-3.789515207648703754e-01,0.000000000000000000e+00
1.610000000000000000e+02,-2.999935909470846096e-01,0.000000000000000000e+00
1.620000000000000000e+02,-4.136201700192997377e-01,0.000000000000000000e+00
1.630000000000000000e+02,-1.087124589914733735e-01,0.000000000000000000e+00
1.640000000000000000e+02,-3.616627708692206067e-01,0.000000000000000000e+00
1.650000000000000000e+02,-1.557088443138496814e-01,0.000000000000000000e+00
1.660000000000000000e+02,-1.453047292090478559e-01,0.000000000000000000e+00
1.670000000000000000e+02,-1.067340267750256366e-01,0.000000000000000000e+00
1.680000000000000000e+02,1.235882944856574045e-01,0.000000000000000000e+00
1.690000000000000000e+02,1.635772895819661565e-01,0.000000000000000000e+00
1.700000000000000000e+02,-2.988787618354348669e-02,0.000000000000000000e+00
1.710000000000000000e+02,-1.037491833161139354e-01,0.000000000000000000e+00
1.720000000000000000e+02,2.764931015289570637e-01,0.000000000000000000e+00
1.730000000000000000e+02,3.131220527608568061e-01,0.000000000000000000e+00
1.740000000000000000e+02,4.165372906364107619e-01,0.000000000000000000e+00
1.750000000000000000e+02,2.316896555763389154e-01,0.000000000000000000e+00
1.760000000000000000e+02,-2.739040856698607418e-02,0.000000000000000000e+00
1.770000000000000000e+02,2.094044715664188094e-02,0.000000000000000000e+00
1.780000000000000000e+02,1.166482169304592642e-01,0.000000000000000000e+00
1.790000000000000000e+02,4.173354217261900090e-02,0.000000000000000000e+00
1.800000000000000000e+02,2.268787632343744753e-01,0.000000000000000000e+00
1.810000000000000000e+02,7.973727869713644056e-02,0.000000000000000000e+00
1.820000000000000000e+02,6.712043654531979486e-02,0.000000000000000000e+00
1.830000000000000000e+02,2.321014213217060529e-01,0.000000000000000000e+00
1.840000000000000000e+02,1.996722245395001483e-01,0.000000000000000000e+00
1.850000000000000000e+02,-5.962731829859615473e-01,0.000000000000000000e+00
1.860000000000000000e+02,2.458226049304735650e+00,0.000000000000000000e+00
1.870000000000000000e+02,5.623773878209524568e+00,0.000000000000000000e+00
1.880000000000000000e+02,1.097799698932805823e+00,1.000000000000000000e+00
1.890000000000000000e+02,-3.148589688983952639e-01,0.000000000000000000e+00
1.900000000000000000e+02,-9.641868576773718891e-01,0.000000000000000000e+00
1.910000000000000000e+02,-7.496489786955886636e-01,0.000000000000000000e+00
1.920000000000000000e+02,-8.852764541879495352e-01,0.000000000000000000e+00
1.930000000000000000e+02,-5.661376444634179661e-01,0.000000000000000000e+00
1.940000000000000000e+02,-8.649401639214967519e-01,0.000000000000000000e+00
1.950000000000000000e+02,-4.529034493898226876e-01,0.000000000000000000e+00
1.960000000000000000e+02,-5.225065879209026543e-01,0.000000000000000000e+00
1.970000000000000000e+02,-3.142249465274437603e-01,0.000000000000000000e+00
1.980000000000000000e+02,-3.351615375234112681e-01,0.000000000000000000e+00
1.990000000000000000e+02,-7.787212169122602334e-02,0.000000000000000000e+00
2.000000000000000000e+02,-6.362743581401651694e-02,0.000000000000000000e+00
2.010000000000000000e+02,1.540213247553263443e-01,0.000000000000000000e+00
2.020000000000000000e+02,5.148287767653192404e-01,0.000000000000000000e+00
2.030000000000000000e+02,6.784483271098743495e-01,0.000000000000000000e+00
2.040000000000000000e+02,1.016212732711345490e+00,0.000000000000000000e+00
2.050000000000000000e+02,1.177438036132703481e+00,0.000000000000000000e+00
2.060000000000000000e+02,4.350944599865734785e-01,0.000000000000000000e+00
2.070000000000000000e+02,-1.400799586283533182e-01,0.000000000000000000e+00
2.080000000000000000e+02,-6.889778538617618020e-01,0.000000000000000000e+00
2.090000000000000000e+02,-7.521504095701063708e-01,0.000000000000000000e+00
2.100000000000000000e+02,-5.691799431704045453e-01,0.000000000000000000e+00
2.110000000000000000e+02,-8.702114176881077245e-01,0.000000000000000000e+00
2.120000000000000000e+02,-5.752800183924403621e-01,0.000000000000000000e+00
2.130000000000000000e+02,-6.031700424835801932e-01,0.000000000000000000e+00
2.140000000000000000e+02,-7.229898430474059889e-01,0.000000000000000000e+00
2.150000000000000000e+02,-5.275491713701520036e-01,0.000000000000000000e+00
2.160000000000000000e+02,-3.368995932905006208e-01,0.000000000000000000e+00
2.170000000000000000e+02,-4.409736660075859738e-01,0.000000000000000000e+00
2.180000000000000000e+02,-2.979504741318049210e-01,0.000000000000000000e+00
2.190000000000000000e+02,-2.475039543626124383e-01,0.000000000000000000e+00
2.200000000000000000e+02,-2.817263883255097245e-01,0.000000000000000000e+00
2.210000000000000000e+02,-3.037866169596912802e-01,0.000000000000000000e+00
2.220000000000000000e+02,-2.441670794307925774e-01,0.000000000000000000e+00
2.230000000000000000e+02,-1.733923854296584299e-01,0.000000000000000000e+00
2.240000000000000000e+02,-1.075329278555864493e-01,0.000000000000000000e+00
2.250000000000000000e+02,-3.389041995802200696e-02,0.000000000000000000e+00
2.260000000000000000e+02,-6.939079877329659696e-02,0.000000000000000000e+00
2.270000000000000000e+02,6.444418756787514968e-02,0.000000000000000000e+00
2.280000000000000000e+02,-4.661787800710787133e-02,0.000000000000000000e+00
2.290000000000000000e+02,7.300982015492744892e-02,0.000000000000000000e+00
2.300000000000000000e+02,-7.046620620775229105e-02,0.000000000000000000e+00
2.310000000000000000e+02,3.496820775588769248e-01,0.000000000000000000e+00
2.320000000000000000e+02,1.759284841159431678e-01,0.000000000000000000e+00
2.330000000000000000e+02,2.427834716260957870e-01,0.000000000000000000e+00
2.340000000000000000e+02,4.220418190003250580e-01,0.000000000000000000e+00
2.350000000000000000e+02,5.566379435754775784e-01,0.000000000000000000e+00
2.360000000000000000e+02,1.270172166971461347e-01,0.000000000000000000e+00
2.370000000000000000e+02,-9.915105629741348403e-02,0.000000000000000000e+00
2.380000000000000000e+02,2.927863361143658305e-01,0.000000000000000000e+00
2.390000000000000000e+02,8.544946193085289909e-02,0.000000000000000000e+00
2.400000000000000000e+02,-2.037137164941267842e-01,0.000000000000000000e+00
2.410000000000000000e+02,4.017156370912819963e-01,0.000000000000000000e+00
2.420000000000000000e+02,-4.179002287773013122e-03,0.000000000000000000e+00
2.430000000000000000e+02,3.184001633347340876e-01,0.000000000000000000e+00
2.440000000000000000e+02,-2.360889589386128140e-02,0.000000000000000000e+00
2.450000000000000000e+02,-2.007899573860138717e-02,0.000000000000000000e+00
2.460000000000000000e+02,-4.433575169984146913e-01,0.000000000000000000e+00
2.470000000000000000e+02,4.224461185124417817e+00,0.000000000000000000e+00
2.480000000000000000e+02,4.518682876767688761e+00,0.000000000000000000e+00
2.490000000000000000e+02,7.319932997926850149e-01,1.000000000000000000e+00
2.500000000000000000e+02,-1.807542115340065592e-01,0.000000000000000000e+00
2.510000000000000000e+02,-1.397847627643788559e+00,0.000000000000000000e+00
2.520000000000000000e+02,-6.610536006321180436e-01,0.000000000000000000e+00
2.530000000000000000e+02,-8.015819283322629385e-01,0.000000000000000000e+00
2.540000000000000000e+02,-8.376283279592031672e-01,0.000000000000000000e+00
2.550000000000000000e+02,-8.681679853038194450e-01,0.000000000000000000e+00
2.560000000000000000e+02,-2.453505050450137948e-01,0.000000000000000000e+00
2.570000000000000000e+02,-6.266760172784096028e-01,0.000000000000000000e+00
2.580000000000000000e+02,-2.134376914869345054e-01,0.000000000000000000e+00
2.590000000000000000e+02,-2.307042022939223835e-01,0.000000000000000000e+00
2.600000000000000000e+02,-2.136498292420289380e-01,0.000000000000000000e+00
2.610000000000000000e+02,-8.396502838974402583e-02,0.000000000000000000e+00
2.620000000000000000e+02,3.898416034825926690e-01,0.000000000000000000e+00
2.630000000000000000e+02,3.965060457161362351e-01,0.000000000000000000e+00
2.640000000000000000e+02,9.700142068323230893e-01,0.000000000000000000e+00
2.650000000000000000e+02,8.912799095305428132e-01,0.000000000000000000e+00
2.660000000000000000e+02,9.308924096498469858e-01,0.000000000000000000e+00
2.670000000000000000e+02,3.771149762316211573e-01,0.000000000000000000e+00
2.680000000000000000e+02,-2.424384008764714216e-01,0.000000000000000000e+00
2.690000000000000000e+02,-6.330777240619482882e-01,0.000000000000000000e+00
2.700000000000000000e+02,-7.435054517359092063e-01,0.000000000000000000e+00
2.710000000000000000e+02,-6.228575817412239646e-01,0.000000000000000000e+00
2.720000000000000000e+02,-5.936641710722549981e-01,0.000000000000000000e+00
2.730000000000000000e+02,-8.596013571315304080e-01,0.000000000000000000e+00
2.740000000000000000e+02,-5.611232720331417179e-01,0.000000000000000000e+00
2.750000000000000000e+02,-5.813290100083478018e-01,0.000000000000000000e+00
2.760000000000000000e+02,-5.270857413696055094e-01,0.000000000000000000e+00
2.770000000000000000e+02,-4.298734083018863616e-01,0.000000000000000000e+00
2.780000000000000000e+02,-4.527319901461491214e-01,0.000000000000000000e+00
2.790000000000000000e+02,-5.874981236211629376e-01,0.000000000000000000e+00
2.800000000000000000e+02,-1.196864618976675176e-01,0.000000000000000000e+00
2.810000000000000000e+02,-3.174472507336262295e-01,0.000000000000000000e+00
2.820000000000000000e+02,-3.122065556232639927e-01,0.000000000000000000e+00
2.830000000000000000e+02,-4.195258689746463390e-03,0.000000000000000000e+00
2.840000000000000000e+02,-3.100999555016660802e-01,0.000000000000000000e+00
2.850000000000000000e+02,-9.008349555859188063e-02,0.000000000000000000e+00
2.860000000000000000e+02,-2.082694067913190561e-02,0.000000000000000000e+00
2.870000000000000000e+02,-3.247631036523885295e-01,0.000000000000000000e+00
2.880000000000000000e+02,2.330660968029203417e-01,0.000000000000000000e+00
2.890000000000000000e+02,-2.006751275025592807e-01,0.000000000000000000e+00
2.900000000000000000e+02,-3.173907826084689660e-02,0.000000000000000000e+00
2.910000000000000000e+02,2.334249073555006437e-01,0.000000000000000000e+00
2.920000000000000000e+02,1.277787403608914539e-02,0.000000000000000000e+00
2.930000000000000000e+02,-2.104101872662728356e-01,0.000000000000000000e+00
2.940000000000000000e+02,4.886191241017993625e-01,0.000000000000000000e+00
2.950000000000000000e+02,4.431421424138397569e-01,0.000000000000000000e+00
2.960000000000000000e+02,3.015012297187090184e-01,0.000000000000000000e+00
2.970000000000000000e+02,2.626019282878713779e-01,0.000000000000000000e+00
2.980000000000000000e+02,9.311878935616724196e-02,0.000000000000000000e+00
2.990000000000000000e+02,-2.552452442031268864e-01,0.000000000000000000e+00
3.000000000000000000e+02,2.536223171717743030e-01,0.000000000000000000e+00
3.010000000000000000e+02,-2.347481282195882368e-01,0.000000000000000000e+00
3.020000000000000000e+02,-2.500932602751888834e-02,0.000000000000000000e+00
3.030000000000000000e+02,1.002059403079962746e-01,0.000000000000000000e+00
3.040000000000000000e+02,-7.161208270108261609e-02,0.000000000000000000e+00
3.050000000000000000e+02,-6.414372465220154196e-02,0.000000000000000000e+00
3.060000000000000000e+02,3.976441916984298497e-01,0.000000000000000000e+00
3.070000000000000000e+02,-1.064410062389466116e+00,0.000000000000000000e+00
3.080000000000000000e+02,2.359243657698633090e+00,0.000000000000000000e+00
3.090000000000000000e+02,5.896873000453699554e+00,0.000000000000000000e+00
3.100000000000000000e+02,1.274574667074880763e+00,1.000000000000000000e+00
3.110000000000000000e+02,-2.039142617301625826e-01,0.000000000000000000e+00
3.120000000000000000e+02,-8.395891993565954836e-01,0.000000000000000000e+00
3.130000000000000000e+02,-1.341404566950950894e+00,0.000000000000000000e+00
3.140000000000000000e+02,-9.869912294805927022e-01,0.000000000000000000e+00
3.150000000000000000e+02,-6.067544973784975149e-01,0.000000000000000000e+00
3.160000000000000000e+02,-1.084287978652650697e+00,0.000000000000000000e+00
3.170000000000000000e+02,-4.153251644428982425e-01,0.000000000000000000e+00
3.180000000000000000e+02,-8.651339604566529173e-01,0.000000000000000000e+00
3.190000000000000000e+02,-5.689669964338431862e-01,0.000000000000000000e+00
3.200000000000000000e+02,-4.395282316908460940e-01,0.000000000000000000e+00
3.210000000000000000e+02,-3.338096175823294098e-01,0.000000000000000000e+00
3.220000000000000000e+02,-3.203095489038845084e-02,0.000000000000000000e+00
3.230000000000000000e+02,2.699246781497491865e-01,0.000000000000000000e+00
3.240000000000000000e+02,2.115104210992722611e-01,0.000000000000000000e+00
3.250000000000000000e+02,8.199738674011899375e-01,0.000000000000000000e+00
3.260000000000000000e+02,8.556457064472737795e-01,0.000000000000000000e+00
3.270000000000000000e+02,7.690815988160352168e-01,0.000000000000000000e+00
3.280000000000000000e+02,6.278475843018459512e-01,0.000000000000000000e+00
3.290000000000000000e+02,-2.511177325221968237e-01,0.000000000000000000e+00
3.300000000000000000e+02,-7.852397738017545814e-01,0.000000000000000000e+00
3.310000000000000000e+02,-8.024225487546233770e-01,0.000000000000000000e+00
3.320000000000000000e+02,-9.397031861058542379e-01,0.000000000000000000e+00
3.330000000000000000e+02,-7.742171306402644282e-01,0.000000000000000000e+00
3.340000000000000000e+02,-9.311159213491607689e-01,0.000000000000000000e+00
3.350000000000000000e+02,-8.355912873774810068e-01,0.000000000000000000e+00
3.360000000000000000e+02,-6.845260146873457519e-01,0.000000000000000000e+00
3.370000000000000000e+02,-7.323419011258777145e-01,0.000000000000000000e+00
3.380000000000000000e+02,-5.057013703973675112e-01,0.000000000000000000e+00
3.390000000000000000e+02,-4.413716032061280603e-01,0.000000000000000000e+00
3.400000000000000000e+02,-6.281143486046031343e-01,0.000000000000000000e+00
3.410000000000000000e+02,-1.022177032373161459e-01,0.000000000000000000e+00
3.420000000000000000e+02,-2.756083312200732771e-01,0.000000000000000000e+00
3.430000000000000000e+02,-4.872074810194544914e-01,0.000000000000000000e+00
3.440000000000000000e+02,-1.503462568291239754e-01,0.000000000000000000e+00
3.450000000000000000e+02,2.959348855999019163e-03,0.000000000000000000e+00
3.460000000000000000e+02,-3.403003454146487361e-02,0.000000000000000000e+00
3.470000000000000000e+02,-1.234722765040263126e-01,0.000000000000000000e+00
3.480000000000000000e+02,6.527782549866661954e-02,0.000000000000000000e+00
3.490000000000000000e+02,1.019961664085148739e-01,0.000000000000000000e+00
3.500000000000000000e+02,1.625894472640485311e-01,0.000000000000000000e+00
3.510000000000000000e+02,1.059803186924151985e-01,0.000000000000000000e+00
3.520000000000000000e+02,2.517831440609893390e-01,0.000000000000000000e+00
3.530000000000000000e+02,7.554260602041089345e-02,0.000000000000000000e+00
3.540000000000000000e+02,1.366923823048244446e-01,0.000000000000000000e+00
3.550000000000000000e+02,5.835841302483980586e-01,0.000000000000000000e+00
3.560000000000000000e+02,-7.062484106674195294e-02,0.000000000000000000e+00
3.570000000000000000e+02,7.900888772067100607e-01,0.000000000000000000e+00
3.580000000000000000e+02,5.019996884898904055e-01,0.000000000000000000e+00
3.590000000000000000e+02,3.446262980035322276e-01,0.000000000000000000e+00
3.600000000000000000e+02,4.791004543261221382e-01,0.000000000000000000e+00
3.610000000000000000e+02,2.735671542010076340e-01,0.000000000000000000e+00
3.620000000000000000e+02,-1.199410867895097516e-01,0.000000000000000000e+00
3.630000000000000000e+02,3.784993673858341734e-01,0.000000000000000000e+00
3.640000000000000000e+02,9.796927330116317334e-02,0.000000000000000000e+00
3.650000000000000000e+02,1.288558311911901511e-01,0.000000000000000000e+00
3.660000000000000000e+02,2.365885545895116404e-01,0.000000000000000000e+00
3.670000000000000000e+02,1.839720468424213828e-01,0.000000000000000000e+00
3.680000000000000000e+02,-1.286306877177638697e-01,0.000000000000000000e+00
3.690000000000000000e+02,6.339011361096620334e-01,0.000000000000000000e+00
3.700000000000000000e+02,-7.917492128819715314e-01,0.000000000000000000e+00
3.710000000000000000e+02,2.357361931414725387e+00,0.000000000000000000e+00
3.720000000000000000e+02,5.902991228810289037e+00,0.000000000000000000e+00
3.730000000000000000e+02,1.674328626718711854e+00,1.000000000000000000e+00
3.740000000000000000e+02,-4.496458267855219515e-01,0.000000000000000000e+00
3.750000000000000000e+02,-8.852110652512847899e-01,0.000000000000000000e+00
3.760000000000000000e+02,-5.574658835570114324e-01,0.000000000000000000e+00
3.770000000000000000e+02,-1.254061330072975933e+00,0.000000000000000000e+00
3.780000000000000000e+02,-6.420051061440930074e-01,0.000000000000000000e+00
3.790000000000000000e+02,-8.708863103058639421e-01,0.000000000000000000e+00
3.800000000000000000e+02,-6.191207525668736000e-01,0.000000000000000000e+00
3.810000000000000000e+02,-5.484712403700974237e-01,0.000000000000000000e+00
3.820000000000000000e+02,-2.224321617803255990e-01,0.000000000000000000e+00
3.830000000000000000e+02,-5.164262733080047241e-01,0.000000000000000000e+00
3.840000000000000000e+02,-1.261391683272064246e-01,0.000000000000000000e+00
3.850000000000000000e+02,-4.079801334376092353e-02,0.000000000000000000e+00
3.860000000000000000e+02,2.973484399758506980e-01,0.000000000000000000e+00
3.870000000000000000e+02,5.173556911896468602e-01,0.000000000000000000e+00
3.880000000000000000e+02,7.274275141243874421e-01,0.000000000000000000e+00
3.890000000000000000e+02,1.084632578421000693e+00,0.000000000000000000e+00
3.900000000000000000e+02,9.203392910665679771e-01,0.000000000000000000e+00
3.910000000000000000e+02,7.242739321693638654e-01,0.000000000000000000e+00
3.920000000000000000e+02,-2.182352760063000496e-01,0.000000000000000000e+00
3.930000000000000000e+02,-8.102459125861228850e-01,0.000000000000000000e+00
3.940000000000000000e+02,-6.105166039658558308e-01,0.000000000000000000e+00
3.950000000000000000e+02,-9.363101745918455121e-01,0.000000000000000000e+00
3.960000000000000000e+02,-7.853070522303839951e-01,0.000000000000000000e+00
3.970000000000000000e+02,-9.088477253618169049e-01,0.000000000000000000e+00
3.980000000000000000e+02,-8.393405141237102463e-01,0.000000000000000000e+00
3.990000000000000000e+02,-9.223652354348190752e-01,0.000000000000000000e+00
4.000000000000000000e+02,-6.170146731170307319e-01,0.000000000000000000e+00
4.010000000000000000e+02,-5.466269121849793855e-01,0.000000000000000000e+00
4.020000000000000000e+02,-3.742059248650156378e-01,0.000000000000000000e+00
4.030000000000000000e+02,-4.389909341128016562e-01,0.000000000000000000e+00
4.040000000000000000e+02,-5.924221244315263091e-01,0.000000000000000000e+00
4.050000000000000000e+02,-1.844056044294721530e-01,0.000000000000000000e+00
4.060000000000000000e+02,-3.809419601392308730e-01,0.000000000000000000e+00
4.070000000000000000e+02,-1.160682962010718688e-01,0.000000000000000000e+00
4.080000000000000000e+02,-8.037272814577421653e-02,0.000000000000000000e+00
4.090000000000000000e+02,-4.021121061419690168e-01,0.000000000000000000e+00
4.100000000000000000e+02,1.656801995713994280e-01,0.000000000000000000e+00
4.110000000000000000e+02,6.586441846155599578e-02,0.000000000000000000e+00
4.120000000000000000e+02,-1.720169661468556599e-01,0.000000000000000000e+00
4.130000000000000000e+02,1.001211017287182425e-01,0.000000000000000000e+00
4.140000000000000000e+02,2.346457566373358339e-01,0.000000000000000000e+00
4.150000000000000000e+02,1.180318538684635571e-01,0.000000000000000000e+00
4.160000000000000000e+02,2.243769840824866996e-02,0.000000000000000000e+00
4.170000000000000000e+02,3.673752690122091269e-01,0.000000000000000000e+00
4.180000000000000000e+02,1.112866513904691435e-01,0.000000000000000000e+00
4.190000000000000000e+02,2.998917650132003065e-01,0.000000000000000000e+00
4.200000000000000000e+02,2.786105876330793873e-01,0.000000000000000000e+00
4.210000000000000000e+02,5.214878415826982305e-01,0.000000000000000000e+00
4.220000000000000000e+02,5.975473508685288371e-01,0.000000000000000000e+00
4.230000000000000000e+02,5.021727836828882019e-01,0.000000000000000000e+00
4.240000000000000000e+02,3.053905666653302098e-01,0.000000000000000000e+00
4.250000000000000000e+02,1.263275111023330899e-01,0.000000000000000000e+00
4.260000000000000000e+02,2.671626909763146762e-01,0.000000000000000000e+00
4.270000000000000000e+02,1.562195171654867376e-01,0.000000000000000000e+00
4.280000000000000000e+02,1.982713944061714750e-02,0.000000000000000000e+00
4.290000000000000000e+02,1.733638857640306674e-01,0.000000000000000000e+00
4.300000000000000000e+02,6.738399896358748808e-02,0.000000000000000000e+00
4.310000000000000000e+02,-2.138512393620952898e-02,0.000000000000000000e+00
4.320000000000000000e+02,9.988035771843334354e-02,0.000000000000000000e+00
4.330000000000000000e+02,3.128300197675688565e-01,0.000000000000000000e+00
4.340000000000000000e+02,-5.330682596705303977e-01,0.000000000000000000e+00
4.350000000000000000e+02,6.962591841401615245e-01,0.000000000000000000e+00
4.360000000000000000e+02,6.175767127693004177e+00,0.000000000000000000e+00
4.370000000000000000e+02,2.750936990855996189e+00,1.000000000000000000e+00
4.380000000000000000e+02,-1.587114584237228898e-01,0.000000000000000000e+00
4.390000000000000000e+02,-6.879808566235955380e-01,0.000000000000000000e+00
4.400000000000000000e+02,-1.226205943970339440e+00,0.000000000000000000e+00
4.410000000000000000e+02,-9.613472676788994420e-01,0.000000000000000000e+00
4.420000000000000000e+02,-8.541802261532467355e-01,0.000000000000000000e+00
4.430000000000000000e+02,-7.175944430362811710e-01,0.000000000000000000e+00
4.440000000000000000e+02,-8.166872404317657708e-01,0.000000000000000000e+00
4.450000000000000000e+02,-4.851530271107385439e-01,0.000000000000000000e+00
4.460000000000000000e+02,-5.315783241539862036e-01,0.000000000000000000e+00
4.470000000000000000e+02,-4.218200763121045527e-01,0.000000000000000000e+00
4.480000000000000000e+02,-3.628263097382888325e-01,0.000000000000000000e+00
4.490000000000000000e+02,2.871275876229709145e-02,0.000000000000000000e+00
4.500000000000000000e+02,-1.374919075258548840e-01,0.000000000000000000e+00
4.510000000000000000e+02,4.202981307730019322e-01,0.000000000000000000e+00
4.520000000000000000e+02,9.407536219622146811e-01,0.000000000000000000e+00
4.530000000000000000e+02,9.748098502500107676e-01,0.000000000000000000e+00
4.540000000000000000e+02,1.000692972453680829e+00,0.000000000000000000e+00
4.550000000000000000e+02,9.426508223930819552e-01,0.000000000000000000e+00
4.560000000000000000e+02,-2.048193693860505538e-01,0.000000000000000000e+00
4.570000000000000000e+02,-6.079846142118683350e-01,0.000000000000000000e+00
4.580000000000000000e+02,-9.430022413792784608e-01,0.000000000000000000e+00
4.590000000000000000e+02,-1.395134983402266160e+00,0.000000000000000000e+00
4.600000000000000000e+02,-8.723618486503164071e-01,0.000000000000000000e+00
4.610000000000000000e+02,-1.139447832371147440e+00,0.000000000000000000e+00
4.620000000000000000e+02,-9.572576794776487263e-01,0.000000000000000000e+00
4.630000000000000000e+02,-7.149940409051185330e-01,0.000000000000000000e+00
4.640000000000000000e+02,-1.052013271116534199e+00,0.000000000000000000e+00
4.650000000000000000e+02,-4.541630249191074276e-01,0.000000000000000000e+00
4.660000000000000000e+02,-5.543344626349399062e-01,0.000000000000000000e+00
4.670000000000000000e+02,-4.538465772832631084e-01,0.000000000000000000e+00
4.680000000000000000e+02,-4.027063639684782537e-01,0.000000000000000000e+00
4.690000000000000000e+02,-6.307015953409916831e-01,0.000000000000000000e+00
4.700000000000000000e+02,-4.133689850531945265e-01,0.000000000000000000e+00
4.710000000000000000e+02,-1.057816639045578294e-01,0.000000000000000000e+00
4.720000000000000000e+02,-4.384553845851106857e-01,0.000000000000000000e+00
4.730000000000000000e+02,-6.018813072158582522e-02,0.000000000000000000e+00
4.740000000000000000e+02,-3.541765607094735091e-01,0.000000000000000000e+00
4.750000000000000000e+02,-4.202998887453771731e-02,0.000000000000000000e+00
4.760000000000000000e+02,-3.366542365430274381e-02,0.000000000000000000e+00
4.770000000000000000e+02,-2.565615105045503941e-01,0.000000000000000000e+00
4.780000000000000000e+02,1.892376502344448042e-01,0.000000000000000000e+00
4.790000000000000000e+02,6.177243494652123745e-02,0.000000000000000000e+00
4.800000000000000000e+02,-1.123144295074098159e-01,0.000000000000000000e+00
4.810000000000000000e+02,2.238422633084548585e-01,0.000000000000000000e+00
4.820000000000000000e+02,1.376663354677339123e-03,0.000000000000000000e+00
4.830000000000000000e+02,4.529281065367534720e-01,0.000000000000000000e+00
4.840000000000000000e+02,3.687491158024597260e-01,0.000000000000000000e+00
4.850000000000000000e+02,3.582425068263838108e-01,0.000000000000000000e+00
4.860000000000000000e+02,1.316625290566539874e-01,0.000000000000000000e+00
4.870000000000000000e+02,1.950366985910265138e-01,0.000000000000000000e+00
4.880000000000000000e+02,-2.818630985097705932e-01,0.000000000000000000e+00
4.890000000000000000e+02,3.616869359005953632e-01,0.000000000000000000e+00
4.900000000000000000e+02,-1.359723271537100799e-02,0.000000000000000000e+00
4.910000000000000000e+02,2.737993733401756224e-01,0.000000000000000000e+00
4.920000000000000000e+02,5.486521336686427108e-02,0.000000000000000000e+00
4.930000000000000000e+02,1.510862494115428611e-01,0.000000000000000000e+00
4.940000000000000000e+02,9.501134638979151503e-02,0.000000000000000000e+00
4.950000000000000000e+02,3.175621889457752589e-01,0.000000000000000000e+00
4.960000000000000000e+02,-7.017756399718608762e-01,0.000000000000000000e+00
4.970000000000000000e+02,3.826522067017441131e+00,0.000000000000000000e+00
4.980000000000000000e+02,5.181911238254895302e+00,0.000000000000000000e+00
4.990000000000000000e+02,5.350942721155173970e-02,1.000000000000000000e+00
5.000000000000000000e+02,-5.724182878744035197e-01,0.000000000000000000e+00
5.010000000000000000e+02,-7.851943380010232287e-01,0.000000000000000000e+00
5.020000000000000000e+02,-5.314315425561780826e-01,0.000000000000000000e+00
5.030000000000000000e+02,-9.789508450579743615e-01,0.000000000000000000e+00
5.040000000000000000e+02,-5.374777140899276162e-01,0.000000000000000000e+00
5.050000000000000000e+02,-5.907498511130466756e-01,0.000000000000000000e+00
5.060000000000000000e+02,-3.959758573313014729e-01,0.000000000000000000e+00
5.070000000000000000e+02,-4.895697452658290261e-01,0.000000000000000000e+00
5.080000000000000000e+02,-7.500702275609731802e-03,0.000000000000000000e+00
5.090000000000000000e+02,-1.947776073857477863e-01,0.000000000000000000e+00
5.100000000000000000e+02,2.751659674839418077e-02,0.000000000000000000e+00
5.110000000000000000e+02,1.605163478428700830e-01,0.000000000000000000e+00
5.120000000000000000e+02,3.760441703979695016e-01,0.000000000000000000e+00
5.130000000000000000e+02,8.307963160365603450e-01,0.000000000000000000e+00
5.140000000000000000e+02,1.256049241997891697e+00,0.000000000000000000e+00
5.150000000000000000e+02,1.203046405605242120e+00,0.000000000000000000e+00
5.160000000000000000e+02,1.097908180247660681e+00,0.000000000000000000e+00
5.170000000000000000e+02,2.487858410366079465e-01,0.000000000000000000e+00
5.180000000000000000e+02,-3.469645428678994614e-01,0.000000000000000000e+00
5.190000000000000000e+02,-8.213091485366014188e-01,0.000000000000000000e+00
5.200000000000000000e+02,-8.611039928616336381e-01,0.000000000000000000e+00
5.210000000000000000e+02,-9.712595031057961181e-01,0.000000000000000000e+00
5.220000000000000000e+02,-1.036882580845812418e+00,0.000000000000000000e+00
5.230000000000000000e+02,-8.165596507182293351e-01,0.000000000000000000e+00
5.240000000000000000e+02,-9.269096336996289764e-01,0.000000000000000000e+00
5.250000000000000000e+02,-6.458372669315965986e-01,0.000000000000000000e+00
5.260000000000000000e+02,-5.616049885495835170e-01,0.000000000000000000e+00
5.270000000000000000e+02,-4.954954111164628916e-01,0.000000000000000000e+00
5.280000000000000000e+02,-5.591159525534384889e-01,0.000000000000000000e+00
5.290000000000000000e+02,-4.474723494073941654e-01,0.000000000000000000e+00
5.300000000000000000e+02,-2.611028567110715293e-01,0.000000000000000000e+00
5.310000000000000000e+02,-5.019783433042204202e-01,0.000000000000000000e+00
5.320000000000000000e+02,-1.908292203172929080e-01,0.000000000000000000e+00
5.330000000000000000e+02,-1.792696914445176537e-01,0.000000000000000000e+00
5.340000000000000000e+02,-2.716630661423707904e-01,0.000000000000000000e+00
5.350000000000000000e+02,-1.136380655859377947e-02,0.000000000000000000e+00
5.360000000000000000e+02,-7.232346233034010752e-02,0.000000000000000000e+00
5.370000000000000000e+02,-3.330801672422018661e-02,0.000000000000000000e+00
5.380000000000000000e+02,8.039792525571681781e-02,0.000000000000000000e+00
5.390000000000000000e+02,-1.270331636993026758e-01,0.000000000000000000e+00
5.400000000000000000e+02,5.306179184805695330e-03,0.000000000000000000e+00
5.410000000000000000e+02,8.870936686282378247e-02,0.000000000000000000e+00
5.420000000000000000e+02,1.083554671093220692e-02,0.000000000000000000e+00
5.430000000000000000e+02,3.064688222762027570e-01,0.000000000000000000e+00
5.440000000000000000e+02,2.012309120434697118e-01,0.000000000000000000e+00
5.450000000000000000e+02,3.432244379625266628e-01,0.000000000000000000e+00
5.460000000000000000e+02,4.098118829084493875e-01,0.000000000000000000e+00
5.470000000000000000e+02,3.416666928786843416e-01,0.000000000000000000e+00
5.480000000000000000e+02,4.499361162375730694e-01,0.000000000000000000e+00
5.490000000000000000e+02,1.004902495748881547e-01,0.000000000000000000e+00
5.500000000000000000e+02,3.896823306619329880e-02,0.000000000000000000e+00
5.510000000000000000e+02,1.209023902323206057e-01,0.000000000000000000e+00
5.520000000000000000e+02,1.673653859417487677e-01,0.000000000000000000e+00
5.530000000000000000e+02,4.753336670038407763e-02,0.000000000000000000e+00
5.540000000000000000e+02,8.916755700304621057e-02,0.000000000000000000e+00
5.550000000000000000e+02,2.386737211973495310e-01,0.000000000000000000e+00
5.560000000000000000e+02,5.130371580340138682e-02,0.000000000000000000e+00
5.570000000000000000e+02,2.691440411103805941e-01,0.000000000000000000e+00
5.580000000000000000e+02,-5.249952595733520244e-01,0.000000000000000000e+00
5.590000000000000000e+02,4.765909766141368742e+00,0.000000000000000000e+00
5.600000000000000000e+02,4.278267722256389405e+00,1.000000000000000000e+00
5.610000000000000000e+02,-4.399867747163080552e-03,0.000000000000000000e+00
5.620000000000000000e+02,-1.977001772745498320e-01,0.000000000000000000e+00
5.630000000000000000e+02,-1.161383362685660892e+00,0.000000000000000000e+00
5.640000000000000000e+02,-9.018591169237485383e-01,0.000000000000000000e+00
5.650000000000000000e+02,-7.660624406448683921e-01,0.000000000000000000e+00
5.660000000000000000e+02,-7.316053435555299744e-01,0.000000000000000000e+00
5.670000000000000000e+02,-5.991031546292644450e-01,0.000000000000000000e+00
5.680000000000000000e+02,-4.199073742629508832e-01,0.000000000000000000e+00
5.690000000000000000e+02,-6.307198623476908406e-01,0.000000000000000000e+00
5.700000000000000000e+02,-4.363642359021880357e-01,0.000000000000000000e+00
5.710000000000000000e+02,-1.167155591376296264e-01,0.000000000000000000e+00
5.720000000000000000e+02,-3.041110720353248920e-01,0.000000000000000000e+00
5.730000000000000000e+02,2.121711666985331979e-01,0.000000000000000000e+00
5.740000000000000000e+02,3.721396611433954171e-01,0.000000000000000000e+00
5.750000000000000000e+02,2.705159910164680048e-01,0.000000000000000000e+00
5.760000000000000000e+02,1.273413089074848736e+00,0.000000000000000000e+00
5.770000000000000000e+02,5.970398876247123843e-01,0.000000000000000000e+00
5.780000000000000000e+02,9.396288677552429025e-01,0.000000000000000000e+00
5.790000000000000000e+02,4.260313786544954184e-01,0.000000000000000000e+00
5.800000000000000000e+02,-4.485901802859338927e-01,0.000000000000000000e+00
5.810000000000000000e+02,-8.641387960397920454e-01,0.000000000000000000e+00
5.820000000000000000e+02,-6.444189412694409924e-01,0.000000000000000000e+00
5.830000000000000000e+02,-9.207339491529528130e-01,0.000000000000000000e+00
5.840000000000000000e+02,-8.621121497397825628e-01,0.000000000000000000e+00
5.850000000000000000e+02,-6.634928472423913259e-01,0.000000000000000000e+00
5.860000000000000000e+02,-7.280539038585963629e-01,0.000000000000000000e+00
5.870000000000000000e+02,-5.236325195529895060e-01,0.000000000000000000e+00
5.880000000000000000e+02,-5.282790719116284839e-01,0.000000000000000000e+00
5.890000000000000000e+02,-4.676230235015592096e-01,0.000000000000000000e+00
5.900000000000000000e+02,-4.915679729346649207e-01,0.000000000000000000e+00
5.910000000000000000e+02,-3.887006975547262488e-01,0.000000000000000000e+00
5.920000000000000000e+02,-2.425971198937828810e-01,0.000000000000000000e+00
5.930000000000000000e+02,-3.180082729562954125e-01,0.000000000000000000e+00
5.940000000000000000e+02,-2.349339538587254250e-01,0.000000000000000000e+00
5.950000000000000000e+02,-1.785995908057730619e-01,0.000000000000000000e+00
5.960000000000000000e+02,-1.605612714711411593e-01,0.000000000000000000e+00
5.970000000000000000e+02,-2.482056452713328754e-01,0.000000000000000000e+00
5.980000000000000000e+02,2.237675353266447287e-01,0.000000000000000000e+00
5.990000000000000000e+02,-1.967327481891606722e-01,0.000000000000000000e+00
6.000000000000000000e+02,-4.974545667753144801e-02,0.000000000000000000e+00
6.010000000000000000e+02,4.776876404943385113e-02,0.000000000000000000e+00
6.020000000000000000e+02,-7.020522842809215347e-02,0.000000000000000000e+00
6.030000000000000000e+02,1.235094316177118984e-01,0.000000000000000000e+00
6.040000000000000000e+02,1.497237081272818349e-01,0.000000000000000000e+00
6.050000000000000000e+02,-1.024821438550072850e-01,0.000000000000000000e+00
6.060000000000000000e+02,1.847473060718596571e-01,0.000000000000000000e+00
6.070000000000000000e+02,5.072117322619339452e-01,0.000000000000000000e+00
6.080000000000000000e+02,2.311268004480779292e-01,0.000000000000000000e+00
6.090000000000000000e+02,3.046364928622993795e-01,0.000000000000000000e+00
6.100000000000000000e+02,3.105099088464043366e-01,0.000000000000000000e+00
6.110000000000000000e+02,-2.028923405371463873e-01,0.000000000000000000e+00
6.120000000000000000e+02,3.430142156110295160e-01,0.000000000000000000e+00
6.130000000000000000e+02,-1.363808542126207501e-01,0.000000000000000000e+00
6.140000000000000000e+02,-1.033184510252676408e-02,0.000000000000000000e+00
6.150000000000000000e+02,6.009821765134924082e-02,0.000000000000000000e+00
6.160000000000000000e+02,4.034200516065280379e-02,0.000000000000000000e+00
6.170000000000000000e+02,2.060676347239658590e-01,0.000000000000000000e+00
6.180000000000000000e+02,1.225449529385261443e-01,0.000000000000000000e+00
6.190000000000000000e+02,-2.026842030339195133e-01,0.000000000000000000e+00
6.200000000000000000e+02,-8.870654093327227929e-02,0.000000000000000000e+00
6.210000000000000000e+02,4.849626274823598315e+00,0.000000000000000000e+00
6.220000000000000000e+02,3.931198931093208504e+00,1.000000000000000000e+00
6.230000000000000000e+02,3.670094491241691625e-01,0.000000000000000000e+00
6.240000000000000000e+02,-4.746991748298098890e-01,0.000000000000000000e+00
6.250000000000000000e+02,-1.246942886676843498e+00,0.000000000000000000e+00
6.260000000000000000e+02,-9.223378575399147072e-01,0.000000000000000000e+00
6.270000000000000000e+02,-1.045215043924714093e+00,0.000000000000000000e+00
6.280000000000000000e+02,-5.153463821054815597e-01,0.000000000000000000e+00
6.290000000000000000e+02,-7.642266976893291597e-01,0.000000000000000000e+00
6.300000000000000000e+02,-8.084389206089921398e-01,0.000000000000000000e+00
6.310000000000000000e+02,-3.829392106971374887e-01,0.000000000000000000e+00
6.320000000000000000e+02,-5.182743600902464109e-01,0.000000000000000000e+00
6.330000000000000000e+02,-2.312731749149727067e-01,0.000000000000000000e+00
6.340000000000000000e+02,2.268141801260301071e-01,0.000000000000000000e+00
6.350000000000000000e+02,-2.970665141688197397e-01,0.000000000000000000e+00
6.360000000000000000e+02,4.210502446066846094e-01,0.000000000000000000e+00
6.370000000000000000e+02,4.865106786917085535e-01,0.000000000000000000e+00
6.380000000000000000e+02,9.429278682664505862e-01,0.000000000000000000e+00
6.390000000000000000e+02,1.113033765464249036e+00,0.000000000000000000e+00
6.400000000000000000e+02,8.701906385822295587e-01,0.000000000000000000e+00
6.410000000000000000e+02,2.442751383391643938e-01,0.000000000000000000e+00
6.420000000000000000e+02,-2.576009546552712748e-01,0.000000000000000000e+00
6.430000000000000000e+02,-7.790424795557155946e-01,0.000000000000000000e+00
6.440000000000000000e+02,-7.663772025827437773e-01,0.000000000000000000e+00
6.450000000000000000e+02,-9.232191813983472439e-01,0.000000000000000000e+00
6.460000000000000000e+02,-7.377494634087992109e-01,0.000000000000000000e+00
6.470000000000000000e+02,-7.215568902321003453e-01,0.000000000000000000e+00
6.480000000000000000e+02,-7.562227586202560081e-01,0.000000000000000000e+00
6.490000000000000000e+02,-4.986451707730434335e-01,0.000000000000000000e+00
6.500000000000000000e+02,-7.781707676097684434e-01,0.000000000000000000e+00
6.510000000000000000e+02,-5.374401231335710349e-01,0.000000000000000000e+00
6.520000000000000000e+02,-4.205852786532511267e-01,0.000000000000000000e+00
6.530000000000000000e+02,-5.182131934429505815e-01,0.000000000000000000e+00
6.540000000000000000e+02,-2.509477671022257717e-01,0.000000000000000000e+00
6.550000000000000000e+02,-3.794881984304746547e-01,0.000000000000000000e+00
6.560000000000000000e+02,-2.445785596063924927e-01,0.000000000000000000e+00
6.570000000000000000e+02,-2.844310960143724420e-01,0.000000000000000000e+00
6.580000000000000000e+02,-1.120331190320914549e-01,0.000000000000000000e+00
6.590000000000000000e+02,-9.306146224814193513e-02,0.000000000000000000e+00
6.600000000000000000e+02,-3.843146274492848652e-02,0.000000000000000000e+00
6.610000000000000000e+02,-5.730300598061113804e-02,0.000000000000000000e+00
6.620000000000000000e+02,-2.444693560842391838e-02,0.000000000000000000e+00
6.630000000000000000e+02,2.860503540576807627e-02,0.000000000000000000e+00
6.640000000000000000e+02,1.069872844789546557e-01,0.000000000000000000e+00
6.650000000000000000e+02,-6.926329564620370416e-02,0.000000000000000000e+00
6.660000000000000000e+02,2.994855519545661093e-01,0.000000000000000000e+00
6.670000000000000000e+02,1.461807520014533381e-02,0.000000000000000000e+00
6.680000000000000000e+02,4.271419901323634249e-01,0.000000000000000000e+00
6.690000000000000000e+02,9.780579865276957385e-02,0.000000000000000000e+00
6.700000000000000000e+02,6.710820874067219277e-01,0.000000000000000000e+00
6.710000000000000000e+02,2.934267278481458852e-01,0.000000000000000000e+00
6.720000000000000000e+02,5.776221958618636965e-01,0.000000000000000000e+00
6.730000000000000000e+02,2.548864477932613060e-01,0.000000000000000000e+00
6.740000000000000000e+02,3.589728329968290832e-01,0.000000000000000000e+00
6.750000000000000000e+02,2.679386374684558092e-01,0.000000000000000000e+00
6.760000000000000000e+02,3.300724059464024696e-01,0.000000000000000000e+00
6.770000000000000000e+02,2.024088988506944076e-01,0.000000000000000000e+00
6.780000000000000000e+02,3.584762204236212613e-01,0.000000000000000000e+00
6.790000000000000000e+02,1.590032692294113259e-01,0.000000000000000000e+00
6.800000000000000000e+02,3.785008886164162312e-01,0.000000000000000000e+00
6.810000000000000000e+02,2.664416692487574512e-01,0.000000000000000000e+00
6.820000000000000000e+02,3.772484541987213835e-01,0.000000000000000000e+00
6.830000000000000000e+02,-6.588158747090728795e-01,0.000000000000000000e+00
6.840000000000000000e+02,4.144281581359239297e+00,0.000000000000000000e+00
6.850000000000000000e+02,5.203944621096223244e+00,0.000000000000000000e+00
6.860000000000000000e+02,7.248520543128013083e-01,1.000000000000000000e+00
6.870000000000000000e+02,-1.487638332475190173e-01,0.000000000000000000e+00
6.880000000000000000e+02,-1.088168939359277720e+00,0.000000000000000000e+00
6.890000000000000000e+02,-8.232560772864122578e-01,0.000000000000000000e+00
6.900000000000000000e+02,-9.754059839273673260e-01,0.000000000000000000e+00
6.910000000000000000e+02,-8.370885377788568338e-01,0.000000000000000000e+00
6.920000000000000000e+02,-8.800288843604654465e-01,0.000000000000000000e+00
6.930000000000000000e+02,-7.539798719584146491e-01,0.000000000000000000e+00
6.940000000000000000e+02,-5.745243395766900241e-01,0.000000000000000000e+00
6.950000000000000000e+02,-6.047890685571543079e-01,0.000000000000000000e+00
6.960000000000000000e+02,-5.198577384392205625e-01,0.000000000000000000e+00
6.970000000000000000e+02,-3.211859856309256522e-01,0.000000000000000000e+00
6.980000000000000000e+02,-1.105387709220355813e-01,0.000000000000000000e+00
6.990000000000000000e+02,1.167275109636508601e-01,0.000000000000000000e+00
7.000000000000000000e+02,3.726795236307805514e-01,0.000000000000000000e+00
7.010000000000000000e+02,6.074140127375186049e-01,0.000000000000000000e+00
7.020000000000000000e+02,9.411801172886412603e-01,0.000000000000000000e+00
7.030000000000000000e+02,7.217599779642125402e-01,0.000000000000000000e+00
7.040000000000000000e+02,1.588839512621800232e-01,0.000000000000000000e+00
7.050000000000000000e+02,-3.822703865221001585e-01,0.000000000000000000e+00
7.060000000000000000e+02,-8.643816893794101786e-01,0.000000000000000000e+00
7.070000000000000000e+02,-1.012009833594278208e+00,0.000000000000000000e+00
7.080000000000000000e+02,-1.144969168112182967e+00,0.000000000000000000e+00
7.090000000000000000e+02,-1.031354433385229363e+00,0.000000000000000000e+00
7.100000000000000000e+02,-8.871487463184362099e-01,0.000000000000000000e+00
7.110000000000000000e+02,-9.288909716996548438e-01,0.000000000000000000e+00
7.120000000000000000e+02,-8.655492284186170338e-01,0.000000000000000000e+00
7.130000000000000000e+02,-6.935559883600050934e-01,0.000000000000000000e+00
7.140000000000000000e+02,-6.434391441941990086e-01,0.000000000000000000e+00
7.150000000000000000e+02,-5.670895534272524241e-01,0.000000000000000000e+00
7.160000000000000000e+02,-5.283615219384657502e-01,0.000000000000000000e+00
7.170000000000000000e+02,-5.501013082211894112e-01,0.000000000000000000e+00
7.180000000000000000e+02,-4.528964502884966770e-01,0.000000000000000000e+00
7.190000000000000000e+02,-3.925701813414083086e-01,0.000000000000000000e+00
7.200000000000000000e+02,-2.333640173786047101e-01,0.000000000000000000e+00
7.210000000000000000e+02,-3.315690770509163721e-01,0.000000000000000000e+00
7.220000000000000000e+02,-2.303430311027894195e-01,0.000000000000000000e+00
7.230000000000000000e+02,-9.430136175776183960e-02,0.000000000000000000e+00
7.240000000000000000e+02,-1.151535262728675540e-01,0.000000000000000000e+00
7.250000000000000000e+02,-2.093268890649448710e-01,0.000000000000000000e+00
7.260000000000000000e+02,-7.296560303504015521e-02,0.000000000000000000e+00
7.270000000000000000e+02,6.175467448590379882e-02,0.000000000000000000e+00
7.280000000000000000e+02,-1.412063527394383580e-02,0.000000000000000000e+00
7.290000000000000000e+02,-9.309636413108651060e-03,0.000000000000000000e+00
7.300000000000000000e+02,9.298557962214121231e-02,0.000000000000000000e+00
7.310000000000000000e+02,2.738474078431952716e-02,0.000000000000000000e+00
7.320000000000000000e+02,1.412522321449073970e-01,0.000000000000000000e+00
7.330000000000000000e+02,8.075072819977328897e-02,0.000000000000000000e+00
7.340000000000000000e+02,4.996353780178093285e-01,0.000000000000000000e+00
7.350000000000000000e+02,3.930717583197311238e-01,0.000000000000000000e+00
7.360000000000000000e+02,3.213221272377667082e-01,0.000000000000000000e+00
7.370000000000000000e+02,5.396932573636754188e-02,0.000000000000000000e+00
7.380000000000000000e+02,2.204717665119863557e-01,0.000000000000000000e+00
7.390000000000000000e+02,5.681153239321595078e-02,0.000000000000000000e+00
7.400000000000000000e+02,1.469696440286964723e-01,0.000000000000000000e+00
7.410000000000000000e+02,-1.806460500162835117e-02,0.000000000000000000e+00
7.420000000000000000e+02,2.803628468841823929e-01,0.000000000000000000e+00
7.430000000000000000e+02,1.468751681120788188e-01,0.000000000000000000e+00
7.440000000000000000e+02,3.246108580498732743e-01,0.000000000000000000e+00
7.450000000000000000e+02,1.653332901135190769e-01,0.000000000000000000e+00
7.460000000000000000e+02,2.202934772377758699e-01,0.000000000000000000e+00
7.470000000000000000e+02,-4.867236021851871763e-01,0.000000000000000000e+00
7.480000000000000000e+02,5.063430843259888903e+00,0.000000000000000000e+00
7.490000000000000000e+02,4.634812209673465411e+00,0.000000000000000000e+00
7.500000000000000000e+02,1.124458715138087067e-01,1.000000000000000000e+00
7.510000000000000000e+02,-3.642344086705889272e-01,0.000000000000000000e+00
7.520000000000000000e+02,-9.696602678596404346e-01,0.000000000000000000e+00
7.530000000000000000e+02,-3.799558652251566748e-01,0.000000000000000000e+00
7.540000000000000000e+02,-9.204828272265572764e-01,0.000000000000000000e+00
7.550000000000000000e+02,-3.526275949912913710e-01,0.000000000000000000e+00
7.560000000000000000e+02,-4.849772388372038390e-01,0.000000000000000000e+00
7.570000000000000000e+02,-3.275348783029139454e-01,0.000000000000000000e+00
7.580000000000000000e+02,-1.005885542405874911e-01,0.000000000000000000e+00
7.590000000000000000e+02,-1.669406845601912881e-01,0.000000000000000000e+00
7.600000000000000000e+02,-6.822918496238672414e-02,0.000000000000000000e+00
7.610000000000000000e+02,1.919108299232865841e-02,0.000000000000000000e+00
7.620000000000000000e+02,3.815909148790830319e-01,0.000000000000000000e+00
7.630000000000000000e+02,5.965109843712914639e-01,0.000000000000000000e+00
7.640000000000000000e+02,8.306967758650688483e-01,0.000000000000000000e+00
7.650000000000000000e+02,1.299452428651586056e+00,0.000000000000000000e+00
7.660000000000000000e+02,1.223951126815487678e+00,0.000000000000000000e+00
7.670000000000000000e+02,9.437442471325783178e-01,0.000000000000000000e+00
7.680000000000000000e+02,4.329896906690207659e-01,0.000000000000000000e+00
7.690000000000000000e+02,-2.307946163278151441e-01,0.000000000000000000e+00
7.700000000000000000e+02,-8.954734380118086756e-01,0.000000000000000000e+00
7.710000000000000000e+02,-1.142984931167946527e+00,0.000000000000000000e+00
7.720000000000000000e+02,-1.151321342079908883e+00,0.000000000000000000e+00
7.730000000000000000e+02,-7.694664729158707805e-01,0.000000000000000000e+00
7.740000000000000000e+02,-8.580010015597310247e-01,0.000000000000000000e+00
7.750000000000000000e+02,-7.968655563477533565e-01,0.000000000000000000e+00
7.760000000000000000e+02,-6.583845735696873813e-01,0.000000000000000000e+00
7.770000000000000000e+02,-6.585106883089475449e-01,0.000000000000000000e+00
7.780000000000000000e+02,-6.940548878452267312e-01,0.000000000000000000e+00
7.790000000000000000e+02,-4.746371344424550887e-01,0.000000000000000000e+00
7.800000000000000000e+02,-4.048493633779117751e-01,0.000000000000000000e+00
7.810000000000000000e+02,-4.141036079331837927e-01,0.000000000000000000e+00
7.820000000000000000e+02,-1.662958710328783785e-01,0.000000000000000000e+00
7.830000000000000000e+02,-3.780713759049214584e-01,0.000000000000000000e+00
7.840000000000000000e+02,-2.087523728861429839e-01,0.000000000000000000e+00
7.850000000000000000e+02,-8.204997256905249836e-02,0.000000000000000000e+00
7.860000000000000000e+02,-2.453432482290902605e-01,0.000000000000000000e+00
7.870000000000000000e+02,-1.466314650448174474e-02,0.000000000000000000e+00
7.880000000000000000e+02,-1.890389550139293662e-01,0.000000000000000000e+00
7.890000000000000000e+02,4.983306611948107312e-02,0.000000000000000000e+00
7.900000000000000000e+02,2.072432260718484048e-02,0.000000000000000000e+00
7.910000000000000000e+02,1.487363670137342164e-01,0.000000000000000000e+00
7.920000000000000000e+02,6.372801029769614711e-02,0.000000000000000000e+00
7.930000000000000000e+02,1.322803443165627979e-01,0.000000000000000000e+00
7.940000000000000000e+02,1.479675009901519900e-01,0.000000000000000000e+00
7.950000000000000000e+02,1.883640824155235760e-01,0.000000000000000000e+00
7.960000000000000000e+02,8.552995192173637462e-02,0.000000000000000000e+00
7.970000000000000000e+02,5.654276416934365113e-01,0.000000000000000000e+00
7.980000000000000000e+02,3.230422267661378632e-01,0.000000000000000000e+00
7.990000000000000000e+02,3.700530832724767683e-01,0.000000000000000000e+00
8.000000000000000000e+02,4.093778580986613402e-01,0.000000000000000000e+00
8.010000000000000000e+02,1.716427341222709346e-01,0.000000000000000000e+00
8.020000000000000000e+02,-1.477712320242701716e-01,0.000000000000000000e+00
8.030000000000000000e+02,3.382981865233384289e-01,0.000000000000000000e+00
8.040000000000000000e+02,1.726965659792413510e-01,0.000000000000000000e+00
8.050000000000000000e+02,1.977971230230375632e-01,0.000000000000000000e+00
8.060000000000000000e+02,-6.566010613282455277e-02,0.000000000000000000e+00
8.070000000000000000e+02,1.893180502164328316e-01,0.000000000000000000e+00
8.080000000000000000e+02,-3.747778882927959698e-03,0.000000000000000000e+00
8.090000000000000000e+02,3.514989792851036521e-01,0.000000000000000000e+00
8.100000000000000000e+02,-6.666777277475892660e-01,0.000000000000000000e+00
8.110000000000000000e+02,3.085129957157346059e+00,0.000000000000000000e+00
8.120000000000000000e+02,5.493249366769993536e+00,0.000000000000000000e+00
8.130000000000000000e+02,5.303267752990926676e-01,1.000000000000000000e+00
8.140000000000000000e+02,-3.694421655570591656e-01,0.000000000000000000e+00
8.150000000000000000e+02,-1.283001774546700391e+00,0.000000000000000000e+00
8.160000000000000000e+02,-7.606346751145670604e-01,0.000000000000000000e+00
8.170000000000000000e+02,-1.143721729741478121e+00,0.000000000000000000e+00
8.180000000000000000e+02,-6.864943372067227045e-01,0.000000000000000000e+00
8.190000000000000000e+02,-9.102521966478700488e-01,0.000000000000000000e+00
8.200000000000000000e+02,-5.356622443400504974e-01,0.000000000000000000e+00
8.210000000000000000e+02,-6.775434796593076126e-01,0.000000000000000000e+00
8.220000000000000000e+02,-3.511175853633684563e-01,0.000000000000000000e+00
8.230000000000000000e+02,-4.925696332306883085e-01,0.000000000000000000e+00
8.240000000000000000e+02,-4.470008732083306513e-01,0.000000000000000000e+00
8.250000000000000000e+02,-1.729571344099836427e-01,0.000000000000000000e+00
8.260000000000000000e+02,2.761818329584377341e-01,0.000000000000000000e+00
8.270000000000000000e+02,4.058728327678044479e-01,0.000000000000000000e+00
8.280000000000000000e+02,6.683824933287429992e-01,0.000000000000000000e+00
8.290000000000000000e+02,1.025952716380601037e+00,0.000000000000000000e+00
8.300000000000000000e+02,1.022375913739061115e+00,0.000000000000000000e+00
8.310000000000000000e+02,2.942528996149790244e-01,0.000000000000000000e+00
8.320000000000000000e+02,-8.385690675020873730e-02,0.000000000000000000e+00
8.330000000000000000e+02,-7.597951232514389419e-01,0.000000000000000000e+00
8.340000000000000000e+02,-1.020732217453571122e+00,0.000000000000000000e+00
8.350000000000000000e+02,-8.590832345662746672e-01,0.000000000000000000e+00
8.360000000000000000e+02,-7.537827931925854541e-01,0.000000000000000000e+00
8.370000000000000000e+02,-9.827307782046933449e-01,0.000000000000000000e+00
8.380000000000000000e+02,-7.253270696147068319e-01,0.000000000000000000e+00
8.390000000000000000e+02,-6.215126420231777971e-01,0.000000000000000000e+00
8.400000000000000000e+02,-7.453354831771660249e-01,0.000000000000000000e+00
8.410000000000000000e+02,-5.544797878900838972e-01,0.000000000000000000e+00
8.420000000000000000e+02,-3.507286197795041471e-01,0.000000000000000000e+00
8.430000000000000000e+02,-5.516590165570038895e-01,0.000000000000000000e+00
8.440000000000000000e+02,-3.907489331867121107e-01,0.000000000000000000e+00
8.450000000000000000e+02,-2.690922020690970085e-01,0.000000000000000000e+00
8.460000000000000000e+02,-2.366588567751790328e-01,0.000000000000000000e+00
8.470000000000000000e+02,-3.965788388977264378e-01,0.000000000000000000e+00
8.480000000000000000e+02,-1.055386947088226696e-01,0.000000000000000000e+00
8.490000000000000000e+02,-1.514259320402741027e-01,0.000000000000000000e+00
8.500000000000000000e+02,-7.348495847963376626e-02,0.000000000000000000e+00
8.510000000000000000e+02,1.629208232494822883e-01,0.000000000000000000e+00
8.520000000000000000e+02,-2.499720014836605275e-01,0.000000000000000000e+00
8.530000000000000000e+02,-2.112757611913887446e-02,0.000000000000000000e+00
8.540000000000000000e+02,3.948156473679984707e-02,0.000000000000000000e+00
8.550000000000000000e+02,-1.836956852641266347e-01,0.000000000000000000e+00
8.560000000000000000e+02,4.463095781792300598e-01,0.000000000000000000e+00
8.570000000000000000e+02,1.789356424160865322e-01,0.000000000000000000e+00
8.580000000000000000e+02,5.027109031185373472e-02,0.000000000000000000e+00
8.590000000000000000e+02,2.561635068485223488e-01,0.000000000000000000e+00
8.600000000000000000e+02,2.673170174558898715e-01,0.000000000000000000e+00
8.610000000000000000e+02,2.021937957490437757e-03,0.000000000000000000e+00
8.620000000000000000e+02,8.660467867121073304e-01,0.000000000000000000e+00
8.630000000000000000e+02,2.949519994409957047e-01,0.000000000000000000e+00
8.640000000000000000e+02,5.514496312650811749e-01,0.000000000000000000e+00
8.650000000000000000e+02,1.757645622472644720e-01,0.000000000000000000e+00
8.660000000000000000e+02,6.181240937551277237e-02,0.000000000000000000e+00
8.670000000000000000e+02,1.006907200723654444e-01,0.000000000000000000e+00
8.680000000000000000e+02,3.110244306508496148e-01,0.000000000000000000e+00
8.690000000000000000e+02,-1.623226384414202528e-01,0.000000000000000000e+00
8.700000000000000000e+02,3.013259177986887805e-01,0.000000000000000000e+00
8.710000000000000000e+02,1.932860409178518146e-01,0.000000000000000000e+00
8.720000000000000000e+02,2.054979752684127914e-01,0.000000000000000000e+00
8.730000000000000000e+02,-1.012283076743304144e-01,0.000000000000000000e+00
8.740000000000000000e+02,1.963619969901231610e-01,0.000000000000000000e+00
8.750000000000000000e+02,-1.463085167292056399e-01,0.000000000000000000e+00
8.760000000000000000e+02,5.013117152471061821e+00,0.000000000000000000e+00
8.770000000000000000e+02,4.177859743365051060e+00,1.000000000000000000e+00
8.780000000000000000e+02,2.417949314677467210e-01,0.000000000000000000e+00
8.790000000000000000e+02,-6.301175458240457772e-01,0.000000000000000000e+00
8.800000000000000000e+02,-1.051910605443429958e+00,0.000000000000000000e+00
8.810000000000000000e+02,-7.227103462985219329e-01,0.000000000000000000e+00
8.820000000000000000e+02,-1.279122133244438908e+00,0.000000000000000000e+00
8.830000000000000000e+02,-6.694576562576126655e-01,0.000000000000000000e+00
8.840000000000000000e+02,-7.172010452737073161e-01,0.000000000000000000e+00
8.850000000000000000e+02,-6.916484903975728127e-01,0.000000000000000000e+00
8.860000000000000000e+02,-6.467467320621381743e-01,0.000000000000000000e+00
8.870000000000000000e+02,-3.345154094333978589e-01,0.000000000000000000e+00
8.880000000000000000e+02,-5.128062639696731040e-01,0.000000000000000000e+00
8.890000000000000000e+02,-1.964348755073341835e-01,0.000000000000000000e+00
8.900000000000000000e+02,-1.985244364282895968e-01,0.000000000000000000e+00
8.910000000000000000e+02,2.526800302297762535e-01,0.000000000000000000e+00
8.920000000000000000e+02,3.755711554597531698e-01,0.000000000000000000e+00
8.930000000000000000e+02,7.847538587542615129e-01,0.000000000000000000e+00
8.940000000000000000e+02,8.821651326474080346e-01,0.000000000000000000e+00
8.950000000000000000e+02,6.904408552436617219e-01,0.000000000000000000e+00
8.960000000000000000e+02,1.109425053294915142e-01,0.000000000000000000e+00
8.970000000000000000e+02,-4.012531143859208727e-01,0.000000000000000000e+00
8.980000000000000000e+02,-9.852470509138162580e-01,0.000000000000000000e+00
8.990000000000000000e+02,-1.031564330545913455e+00,0.000000000000000000e+00
9.000000000000000000e+02,-1.126913163244662508e+00,0.000000000000000000e+00
9.010000000000000000e+02,-9.367940113521904255e-01,0.000000000000000000e+00
9.020000000000000000e+02,-9.575226926048406861e-01,0.000000000000000000e+00
9.030000000000000000e+02,-8.570664110199986974e-01,0.000000000000000000e+00
9.040000000000000000e+02,-8.775868517738255603e-01,0.000000000000000000e+00
9.050000000000000000e+02,-9.383935632857642872e-01,0.000000000000000000e+00
9.060000000000000000e+02,-6.521844380992402046e-01,0.000000000000000000e+00
9.070000000000000000e+02,-5.903543233151081759e-01,0.000000000000000000e+00
9.080000000000000000e+02,-6.060740938445422499e-01,0.000000000000000000e+00
9.090000000000000000e+02,-5.075887563055302421e-01,0.000000000000000000e+00
9.100000000000000000e+02,-3.049010855825108335e-01,0.000000000000000000e+00
9.110000000000000000e+02,-5.607627541489443868e-01,0.000000000000000000e+00
9.120000000000000000e+02,-3.367959649799915911e-01,0.000000000000000000e+00
9.130000000000000000e+02,-1.412907882269881232e-01,0.000000000000000000e+00
9.140000000000000000e+02,-3.377503938286912644e-01,0.000000000000000000e+00
9.150000000000000000e+02,-2.415146647800105739e-01,0.000000000000000000e+00
9.160000000000000000e+02,2.088154257235421141e-01,0.000000000000000000e+00
9.170000000000000000e+02,-1.535171659054257731e-01,0.000000000000000000e+00
9.180000000000000000e+02,-3.717793833327692754e-02,0.000000000000000000e+00
9.190000000000000000e+02,1.984154617716570035e-01,0.000000000000000000e+00
9.200000000000000000e+02,7.826396385213542362e-02,0.000000000000000000e+00
9.210000000000000000e+02,2.704115009844170192e-01,0.000000000000000000e+00
9.220000000000000000e+02,3.562262622767956577e-01,0.000000000000000000e+00
9.230000000000000000e+02,6.426466964034666107e-02,0.000000000000000000e+00
9.240000000000000000e+02,7.114006550113898264e-01,0.000000000000000000e+00
9.250000000000000000e+02,3.990394587140146943e-01,0.000000000000000000e+00
9.260000000000000000e+02,4.909275970182121474e-01,0.000000000000000000e+00
9.270000000000000000e+02,8.550716192335491295e-01,0.000000000000000000e+00
9.280000000000000000e+02,8.340849385151646311e-01,0.000000000000000000e+00
9.290000000000000000e+02,7.372298410637810884e-01,0.000000000000000000e+00
9.300000000000000000e+02,9.834805056605616658e-01,0.000000000000000000e+00
9.310000000000000000e+02,4.453951236106558631e-01,0.000000000000000000e+00
9.320000000000000000e+02,5.636921121688452940e-01,0.000000000000000000e+00
9.330000000000000000e+02,7.913106083376661992e-01,0.000000000000000000e+00
9.340000000000000000e+02,5.534449723306180680e-01,0.000000000000000000e+00
9.350000000000000000e+02,6.637865337705739499e-01,0.000000000000000000e+00
9.360000000000000000e+02,5.765059712499359668e-01,0.000000000000000000e+00
9.370000000000000000e+02,6.263193610211359452e-01,0.000000000000000000e+00
9.380000000000000000e+02,8.482309199817841261e-01,0.000000000000000000e+00
9.390000000000000000e+02,7.677979295009899063e-01,0.000000000000000000e+00
9.400000000000000000e+02,2.237267135600446571e-02,0.000000000000000000e+00
9.410000000000000000e+02,1.873915316065430936e+00,0.000000000000000000e+00
9.420000000000000000e+02,6.593898093547450934e+00,0.000000000000000000e+00
9.430000000000000000e+02,2.730840967512316642e+00,1.000000000000000000e+00
9.440000000000000000e+02,2.218979647607648986e-01,0.000000000000000000e+00
9.450000000000000000e+02,-5.375423874163850479e-01,0.000000000000000000e+00
9.460000000000000000e+02,-4.457384573927642424e-01,0.000000000000000000e+00
9.470000000000000000e+02,-9.131218104515607115e-01,0.000000000000000000e+00
9.480000000000000000e+02,-4.677486530682386512e-01,0.000000000000000000e+00
9.490000000000000000e+02,-5.348449671037308617e-01,0.000000000000000000e+00
9.500000000000000000e+02,-4.411254211812621895e-01,0.000000000000000000e+00
9.510000000000000000e+02,-8.644708716232146761e-02,0.000000000000000000e+00
9.520000000000000000e+02,-4.309302858285845028e-01,0.000000000000000000e+00
9.530000000000000000e+02,-2.852198407137473413e-01,0.000000000000000000e+00
9.540000000000000000e+02,2.558343010315500266e-02,0.000000000000000000e+00
9.550000000000000000e+02,-1.998547794409788816e-02,0.000000000000000000e+00
9.560000000000000000e+02,8.095620363057609570e-02,0.000000000000000000e+00
9.570000000000000000e+02,4.810022636977422383e-01,0.000000000000000000e+00
9.580000000000000000e+02,6.840055910628088931e-01,0.000000000000000000e+00
9.590000000000000000e+02,7.316086783948783090e-01,0.000000000000000000e+00
9.600000000000000000e+02,9.923511108854015106e-01,0.000000000000000000e+00
9.610000000000000000e+02,7.555854002349072784e-01,0.000000000000000000e+00
9.620000000000000000e+02,-2.969287350002299264e-01,0.000000000000000000e+00
9.630000000000000000e+02,-8.306686079035994208e-01,0.000000000000000000e+00
9.640000000000000000e+02,-1.049213256538086281e+00,0.000000000000000000e+00
9.650000000000000000e+02,-1.366130128383192144e+00,0.000000000000000000e+00
9.660000000000000000e+02,-9.967117655194893677e-01,0.000000000000000000e+00
9.670000000000000000e+02,-1.488161908527138699e+00,0.000000000000000000e+00
9.680000000000000000e+02,-1.153945144683597990e+00,0.000000000000000000e+00
9.690000000000000000e+02,-9.552925212536995669e-01,0.000000000000000000e+00
9.700000000000000000e+02,-1.279750217616545838e+00,0.000000000000000000e+00
9.710000000000000000e+02,-7.587700247464641556e-01,0.000000000000000000e+00
9.720000000000000000e+02,-6.858665262808658625e-01,0.000000000000000000e+00
9.730000000000000000e+02,-9.301316041006911783e-01,0.000000000000000000e+00
9.740000000000000000e+02,-6.994523563121175513e-01,0.000000000000000000e+00
9.750000000000000000e+02,-7.877582620814850278e-01,0.000000000000000000e+00
9.760000000000000000e+02,-7.154145277098663547e-01,0.000000000000000000e+00
9.770000000000000000e+02,-7.695795741777596843e-01,0.000000000000000000e+00
9.780000000000000000e+02,-6.307382146416496971e-01,0.000000000000000000e+00
9.790000000000000000e+02,-4.852081268634896305e-01,0.000000000000000000e+00
9.800000000000000000e+02,-7.568967454115509419e-01,0.000000000000000000e+00
9.810000000000000000e+02,-4.302008909919389223e-01,0.000000000000000000e+00
9.820000000000000000e+02,-5.511934210729394490e-01,0.000000000000000000e+00
9.830000000000000000e+02,-3.474514203658821132e-01,0.000000000000000000e+00
9.840000000000000000e+02,-4.145306290969688612e-01,0.000000000000000000e+00
9.850000000000000000e+02,-4.606408766306901992e-01,0.000000000000000000e+00
9.860000000000000000e+02,-4.996138974481800776e-01,0.000000000000000000e+00
9.870000000000000000e+02,-2.749910275018145334e-01,0.000000000000000000e+00
9.880000000000000000e+02,-5.753066227064758120e-01,0.000000000000000000e+00
9.890000000000000000e+02,-1.817219039751084286e-01,0.000000000000000000e+00
9.900000000000000000e+02,-2.762033353395313973e-01,0.000000000000000000e+00
9.910000000000000000e+02,-2.702957118937143743e-01,0.000000000000000000e+00
9.920000000000000000e+02,-1.506856091523656460e-01,0.000000000000000000e+00
9.930000000000000000e+02,-4.049068078949522032e-02,0.000000000000000000e+00
9.940000000000000000e+02,1.669805268819632427e-01,0.000000000000000000e+00
9.950000000000000000e+02,3.391054729001106993e-02,0.000000000000000000e+00
9.960000000000000000e+02,-5.798613985590746894e-02,0.000000000000000000e+00
9.970000000000000000e+02,-2.055029563636315282e-01,0.000000000000000000e+00
9.980000000000000000e+02,-3.957214970148808519e-01,0.000000000000000000e+00
9.990000000000000000e+02,-3.968694302799242180e-01,0.000000000000000000e+00
1.000000000000000000e+03,3.616567929597506309e-02,0.000000000000000000e+00
1.001000000000000000e+03,-1.541479442238590514e-01,0.000000000000000000e+00
1.002000000000000000e+03,-5.522788190937896191e-01,0.000000000000000000e+00
1.003000000000000000e+03,1.600862121032079477e-01,0.000000000000000000e+00
1.004000000000000000e+03,-2.895376492927180245e-01,0.000000000000000000e+00
1.005000000000000000e+03,1.227018657740501367e-01,0.000000000000000000e+00
1.006000000000000000e+03,-6.569730641745187283e-01,0.000000000000000000e+00
1.007000000000000000e+03,1.593927465514575204e+00,0.000000000000000000e+00
1.008000000000000000e+03,6.230361456586204660e+00,0.000000000000000000e+00
1.009000000000000000e+03,1.703025835583576120e+00,1.000000000000000000e+00
1.010000000000000000e+03,-4.118164254597816432e-01,0.000000000000000000e+00
1.011000000000000000e+03,-1.076144002906469499e+00,0.000000000000000000e+00
1.012000000000000000e+03,-1.072081291917970525e+00,0.000000000000000000e+00
1.013000000000000000e+03,-1.154320791867525564e+00,0.000000000000000000e+00
1.014000000000000000e+03,-7.479057615257245217e-01,0.000000000000000000e+00
1.015000000000000000e+03,-8.646810819184547192e-01,0.000000000000000000e+00
1.016000000000000000e+03,-7.076456048165807866e-01,0.000000000000000000e+00
1.017000000000000000e+03,-6.651458232033130580e-01,0.000000000000000000e+00
1.018000000000000000e+03,-3.128924718912027281e-01,0.000000000000000000e+00
1.019000000000000000e+03,-4.230642068459820049e-01,0.000000000000000000e+00
1.020000000000000000e+03,1.423877513894962754e-01,0.000000000000000000e+00
1.021000000000000000e+03,-2.727972026394029359e-02,0.000000000000000000e+00
1.022000000000000000e+03,3.801134632359089993e-01,0.000000000000000000e+00
1.023000000000000000e+03,5.155535384408777011e-01,0.000000000000000000e+00
1.024000000000000000e+03,1.076429029850544561e+00,0.000000000000000000e+00
1.025000000000000000e+03,1.335665192527548895e+00,0.000000000000000000e+00
1.026000000000000000e+03,1.458899894036610911e+00,0.000000000000000000e+00
1.027000000000000000e+03,7.343784639525513525e-01,0.000000000000000000e+00
1.028000000000000000e+03,1.843773847941058419e-01,0.000000000000000000e+00
1.029000000000000000e+03,-5.197006476557004540e-01,0.000000000000000000e+00
1.030000000000000000e+03,-7.213303163863994394e-01,0.000000000000000000e+00
1.031000000000000000e+03,-7.050349929148471695e-01,0.000000000000000000e+00
1.032000000000000000e+03,-6.934914337247956029e-01,0.000000000000000000e+00
1.033000000000000000e+03,-6.195655162904699642e-01,0.000000000000000000e+00
1.034000000000000000e+03,-6.984698177287343990e-01,0.000000000000000000e+00
1.035000000000000000e+03,-4.459790830880716039e-01,0.000000000000000000e+00
1.036000000000000000e+03,-3.118527502066171797e-01,0.000000000000000000e+00
1.037000000000000000e+03,-2.870968756897082086e-01,0.000000000000000000e+00
1.038000000000000000e+03,-2.339958438051991663e-01,0.000000000000000000e+00
1.039000000000000000e+03,-1.766464340745543815e-01,0.000000000000000000e+00
1.040000000000000000e+03,-1.994898741913850027e-01,0.000000000000000000e+00
1.041000000000000000e+03,9.447634398829807267e-02,0.000000000000000000e+00
1.042000000000000000e+03,-1.006481811077733352e-01,0.000000000000000000e+00
1.043000000000000000e+03,1.090503633141270273e-01,0.000000000000000000e+00
1.044000000000000000e+03,6.097841295406170037e-02,0.000000000000000000e+00
1.045000000000000000e+03,2.064064757888242618e-02,0.000000000000000000e+00
1.046000000000000000e+03,1.821870322059172542e-01,0.000000000000000000e+00
1.047000000000000000e+03,2.118693186774476822e-01,0.000000000000000000e+00
1.048000000000000000e+03,2.494340037680853051e-01,0.000000000000000000e+00
1.049000000000000000e+03,2.799537473150847666e-01,0.000000000000000000e+00
1.050000000000000000e+03,2.291068377723712579e-01,0.000000000000000000e+00
1.051000000000000000e+03,3.828229067781231398e-01,0.000000000000000000e+00
1.052000000000000000e+03,3.728501981234927931e-01,0.000000000000000000e+00
1.053000000000000000e+03,3.263435872920663616e-01,0.000000000000000000e+00
1.054000000000000000e+03,3.808825765820763598e-01,0.000000000000000000e+00
1.055000000000000000e+03,4.019699754305241512e-01,0.000000000000000000e+00
1.056000000000000000e+03,5.908333744330301895e-01,0.000000000000000000e+00
1.057000000000000000e+03,4.028698139228722441e-01,0.000000000000000000e+00
1.058000000000000000e+03,6.739318287634211702e-01,0.000000000000000000e+00
1.059000000000000000e+03,8.002167585299388985e-01,0.000000000000000000e+00
1.060000000000000000e+03,6.629100787523883875e-01,0.000000000000000000e+00
1.061000000000000000e+03,4.178357738567470836e-01,0.000000000000000000e+00
1.062000000000000000e+03,4.306202799165106954e-01,0.000000000000000000e+00
1.063000000000000000e+03,1.594476837360185029e-01,0.000000000000000000e+00
1.064000000000000000e+03,4.077736277593199121e-01,0.000000000000000000e+00
1.065000000000000000e+03,9.779931018295176526e-02,0.000000000000000000e+00
1.066000000000000000e+03,5.178918652520736465e-01,0.000000000000000000e+00
1.067000000000000000e+03,-1.576582684150690944e-02,0.000000000000000000e+00
1.068000000000000000e+03,3.138955173805501042e-01,0.000000000000000000e+00
1.069000000000000000e+03,-1.973547144548241841e-03,0.000000000000000000e+00
1.070000000000000000e+03,3.078841420926721750e-01,0.000000000000000000e+00
1.071000000000000000e+03,-8.892132088523060363e-01,0.000000000000000000e+00
1.072000000000000000e+03,4.126028691804168425e+00,0.000000000000000000e+00
1.073000000000000000e+03,4.885172558393195530e+00,0.000000000000000000e+00
1.074000000000000000e+03,2.588391839592971144e-01,1.000000000000000000e+00
1.075000000000000000e+03,-2.469498164225648884e-01,0.000000000000000000e+00
1.076000000000000000e+03,-9.326098417292055798e-01,0.000000000000000000e+00
1.077000000000000000e+03,-7.913666193982727970e-01,0.000000000000000000e+00
1.078000000000000000e+03,-9.114441136211534067e-01,0.000000000000000000e+00
1.079000000000000000e+03,-5.580497076334671736e-01,0.000000000000000000e+00
1.080000000000000000e+03,-6.195052694086833345e-01,0.000000000000000000e+00
1.081000000000000000e+03,-4.564634705609930121e-01,0.000000000000000000e+00
1.082000000000000000e+03,-5.072294827329518752e-01,0.000000000000000000e+00
1.083000000000000000e+03,-3.570767881220097140e-01,0.000000000000000000e+00
1.084000000000000000e+03,-1.793497398700688583e-01,0.000000000000000000e+00
1.085000000000000000e+03,-1.341566336734173748e-01,0.000000000000000000e+00
1.086000000000000000e+03,1.736391021987011563e-01,0.000000000000000000e+00
1.087000000000000000e+03,2.075245535677036901e-01,0.000000000000000000e+00
1.088000000000000000e+03,5.361879849073553084e-01,0.000000000000000000e+00
1.089000000000000000e+03,8.094037112432014291e-01,0.000000000000000000e+00
1.090000000000000000e+03,1.157142406225378783e+00,0.000000000000000000e+00
1.091000000000000000e+03,6.889978248887260737e-01,0.000000000000000000e+00
1.092000000000000000e+03,1.724151166922393563e-01,0.000000000000000000e+00
1.093000000000000000e+03,-2.705920552707327120e-01,0.000000000000000000e+00
1.094000000000000000e+03,-9.549416581583101138e-01,0.000000000000000000e+00
1.095000000000000000e+03,-9.978472747464535164e-01,0.000000000000000000e+00
1.096000000000000000e+03,-1.101495607095867246e+00,0.000000000000000000e+00
1.097000000000000000e+03,-1.177853773825267458e+00,0.000000000000000000e+00
1.098000000000000000e+03,-8.167904875871441206e-01,0.000000000000000000e+00
1.099000000000000000e+03,-9.015037098593531306e-01,0.000000000000000000e+00
1.100000000000000000e+03,-6.860632459431555974e-01,0.000000000000000000e+00
1.101000000000000000e+03,-5.351665730266973453e-01,0.000000000000000000e+00
1.102000000000000000e+03,-7.535566930962452892e-01,0.000000000000000000e+00
1.103000000000000000e+03,-4.849015950449250267e-01,0.000000000000000000e+00
1.104000000000000000e+03,-6.705848511745307050e-01,0.000000000000000000e+00
1.105000000000000000e+03,-3.314346304784013819e-01,0.000000000000000000e+00
1.106000000000000000e+03,-4.197688279110394771e-01,0.000000000000000000e+00
1.107000000000000000e+03,-2.487267457952669347e-01,0.000000000000000000e+00
1.108000000000000000e+03,-2.780869392950079955e-01,0.000000000000000000e+00
1.109000000000000000e+03,-3.064102097405128622e-01,0.000000000000000000e+00
1.110000000000000000e+03,-2.345015895298338815e-01,0.000000000000000000e+00
1.111000000000000000e+03,-1.067258875652747491e-01,0.000000000000000000e+00
1.112000000000000000e+03,-2.560625336586498380e-01,0.000000000000000000e+00
1.113000000000000000e+03,-9.302409411129027028e-02,0.000000000000000000e+00
1.114000000000000000e+03,1.473319408097005234e-01,0.000000000000000000e+00
1.115000000000000000e+03,-1.725594717106764819e-01,0.000000000000000000e+00
1.116000000000000000e+03,1.742256395093976784e-01,0.000000000000000000e+00
1.117000000000000000e+03,-9.602737690712938312e-02,0.000000000000000000e+00
1.118000000000000000e+03,7.343491179314505513e-02,0.000000000000000000e+00
1.119000000000000000e+03,5.537542473472600174e-02,0.000000000000000000e+00
1.120000000000000000e+03,7.196328831785374358e-02,0.000000000000000000e+00
1.121000000000000000e+03,-8.778604233502056847e-03,0.000000000000000000e+00
1.122000000000000000e+03,2.778282933783142727e-01,0.000000000000000000e+00
1.123000000000000000e+03,2.337722099951286825e-01,0.000000000000000000e+00
1.124000000000000000e+03,4.685614044302732761e-01,0.000000000000000000e+00
1.125000000000000000e+03,3.000498621494546714e-01,0.000000000000000000e+00
1.126000000000000000e+03,1.793425076370079030e-01,0.000000000000000000e+00
1.127000000000000000e+03,1.869221302088125702e-01,0.000000000000000000e+00
1.128000000000000000e+03,1.423699300813723589e-01,0.000000000000000000e+00
1.129000000000000000e+03,-5.375362938303546168e-02,0.000000000000000000e+00
1.130000000000000000e+03,1.419666237681591614e-01,0.000000000000000000e+00
1.131000000000000000e+03,-2.016786141848238012e-01,0.000000000000000000e+00
1.132000000000000000e+03,-5.778215473648206507e-02,0.000000000000000000e+00
1.133000000000000000e+03,1.679047005483978450e-01,0.000000000000000000e+00
1.134000000000000000e+03,1.654897139017867114e-01,0.000000000000000000e+00
1.135000000000000000e+03,-1.313507109286429497e-01,0.000000000000000000e+00
1.136000000000000000e+03,3.424651321865891385e-01,0.000000000000000000e+00
1.137000000000000000e+03,-6.163737449887547459e-01,0.000000000000000000e+00
1.138000000000000000e+03,4.580163462919652595e+00,0.000000000000000000e+00
1.139000000000000000e+03,4.624499872818454094e+00,0.000000000000000000e+00
1.140000000000000000e+03,1.049490510989362635e-01,1.000000000000000000e+00
1.141000000000000000e+03,-3.220512324768139423e-01,0.000000000000000000e+00
1.142000000000000000e+03,-1.322518307947248006e+00,0.000000000000000000e+00
1.143000000000000000e+03,-9.465485404832355565e-01,0.000000000000000000e+00
1.144000000000000000e+03,-9.495917638751082412e-01,0.000000000000000000e+00
1.145000000000000000e+03,-8.540700888516089551e-01,0.000000000000000000e+00
1.146000000000000000e+03,-9.211301041452814031e-01,0.000000000000000000e+00
1.147000000000000000e+03,-7.104362845234526436e-01,0.000000000000000000e+00
1.148000000000000000e+03,-7.426381165754802893e-01,0.000000000000000000e+00
1.149000000000000000e+03,-3.844870651462761191e-01,0.000000000000000000e+00
1.150000000000000000e+03,-4.378084315709155905e-01,0.000000000000000000e+00
1.151000000000000000e+03,-2.760955772327569613e-01,0.000000000000000000e+00
1.152000000000000000e+03,-2.225756260419284593e-01,0.000000000000000000e+00
1.153000000000000000e+03,2.745028244596772193e-01,0.000000000000000000e+00
1.154000000000000000e+03,5.020539279170446179e-01,0.000000000000000000e+00
1.155000000000000000e+03,9.266920448709531355e-01,0.000000000000000000e+00
1.156000000000000000e+03,1.033203851648994087e+00,0.000000000000000000e+00
1.157000000000000000e+03,9.481886381719384360e-01,0.000000000000000000e+00
1.158000000000000000e+03,9.503457824004017673e-02,0.000000000000000000e+00
1.159000000000000000e+03,-2.627127389192915330e-01,0.000000000000000000e+00
1.160000000000000000e+03,-6.713293342744073300e-01,0.000000000000000000e+00
1.161000000000000000e+03,-9.546241883346806567e-01,0.000000000000000000e+00
1.162000000000000000e+03,-7.994165962002922621e-01,0.000000000000000000e+00
1.163000000000000000e+03,-8.713264885033855656e-01,0.000000000000000000e+00
1.164000000000000000e+03,-9.262448165357737295e-01,0.000000000000000000e+00
1.165000000000000000e+03,-6.339914515556464014e-01,0.000000000000000000e+00
1.166000000000000000e+03,-6.558175317012653327e-01,0.000000000000000000e+00
1.167000000000000000e+03,-8.695600764602915422e-01,0.000000000000000000e+00
1.168000000000000000e+03,-4.653897464298152875e-01,0.000000000000000000e+00
1.169000000000000000e+03,-5.928387827334122839e-01,0.000000000000000000e+00
1.170000000000000000e+03,-3.880289743103462752e-01,0.000000000000000000e+00
1.171000000000000000e+03,-3.214075435702511419e-01,0.000000000000000000e+00
1.172000000000000000e+03,-4.691939220646909603e-01,0.000000000000000000e+00
1.173000000000000000e+03,-2.273190517413788969e-01,0.000000000000000000e+00
1.174000000000000000e+03,-7.807299321130820036e-02,0.000000000000000000e+00
1.175000000000000000e+03,-2.991195141848730921e-01,0.000000000000000000e+00
1.176000000000000000e+03,4.382004571877981536e-02,0.000000000000000000e+00
1.177000000000000000e+03,-1.607295938216165773e-02,0.000000000000000000e+00
1.178000000000000000e+03,-3.053009593382244660e-02,0.000000000000000000e+00
1.179000000000000000e+03,-2.593672035937516843e-03,0.000000000000000000e+00
1.180000000000000000e+03,-1.085732051183222434e-02,0.000000000000000000e+00
1.181000000000000000e+03,2.653599354319685633e-01,0.000000000000000000e+00
1.182000000000000000e+03,6.274621843026957635e-02,0.000000000000000000e+00
1.183000000000000000e+03,2.678062924354481233e-01,0.000000000000000000e+00
1.184000000000000000e+03,2.257185781334784813e-01,0.000000000000000000e+00
1.185000000000000000e+03,-1.177625083224309891e-03,0.000000000000000000e+00
1.186000000000000000e+03,3.136979048301987150e-01,0.000000000000000000e+00
1.187000000000000000e+03,3.679618762990219394e-01,0.000000000000000000e+00
1.188000000000000000e+03,2.009368112541793927e-01,0.000000000000000000e+00
1.189000000000000000e+03,5.612487100886500713e-01,0.000000000000000000e+00
1.190000000000000000e+03,8.128446654514913661e-01,0.000000000000000000e+00
1.191000000000000000e+03,3.106874121554607515e-01,0.000000000000000000e+00
1.192000000000000000e+03,5.403252005156756743e-01,0.000000000000000000e+00
1.193000000000000000e+03,2.329837096892735659e-01,0.000000000000000000e+00
1.194000000000000000e+03,1.091968181722385578e-01,0.000000000000000000e+00
1.195000000000000000e+03,3.087049035585430201e-01,0.000000000000000000e+00
1.196000000000000000e+03,7.615820601421406655e-02,0.000000000000000000e+00
1.197000000000000000e+03,1.338948678191228814e-01,0.000000000000000000e+00
1.198000000000000000e+03,1.260874153527582475e-01,0.000000000000000000e+00
1.199000000000000000e+03,2.187629309220048279e-01,0.000000000000000000e+00
1.200000000000000000e+03,1.920049046505971357e-01,0.000000000000000000e+00
1.201000000000000000e+03,1.271601935149761498e-01,0.000000000000000000e+00
1.202000000000000000e+03,-2.323650620205364170e-01,0.000000000000000000e+00
1.203000000000000000e+03,6.022034313424917684e-01,0.000000000000000000e+00
1.204000000000000000e+03,6.024765415941145896e+00,0.000000000000000000e+00
1.205000000000000000e+03,2.893146326134200752e+00,1.000000000000000000e+00
1.206000000000000000e+03,-5.884999251035095968e-02,0.000000000000000000e+00
1.207000000000000000e+03,-8.678351078332751101e-01,0.000000000000000000e+00
1.208000000000000000e+03,-1.140929679686581988e+00,0.000000000000000000e+00
1.209000000000000000e+03,-7.541226285267089713e-01,0.000000000000000000e+00
1.210000000000000000e+03,-9.845702603026417199e-01,0.000000000000000000e+00
1.211000000000000000e+03,-6.627958273994736249e-01,0.000000000000000000e+00
1.212000000000000000e+03,-8.207210229227167586e-01,0.000000000000000000e+00
1.213000000000000000e+03,-5.988345486367410153e-01,0.000000000000000000e+00
1.214000000000000000e+03,-4.061392150416033298e-01,0.000000000000000000e+00
1.215000000000000000e+03,-3.055057158875646994e-01,0.000000000000000000e+00
1.216000000000000000e+03,-3.432909323772030397e-01,0.000000000000000000e+00
1.217000000000000000e+03,2.483852534632108658e-02,0.000000000000000000e+00
1.218000000000000000e+03,-4.658697315305138087e-02,0.000000000000000000e+00
1.219000000000000000e+03,2.987308762746660462e-01,0.000000000000000000e+00
1.220000000000000000e+03,9.025481341440542149e-01,0.000000000000000000e+00
1.221000000000000000e+03,8.896013817827735926e-01,0.000000000000000000e+00
1.222000000000000000e+03,1.034756628054923855e+00,0.000000000000000000e+00
1.223000000000000000e+03,7.305739128206356625e-01,0.000000000000000000e+00
1.224000000000000000e+03,1.199709946258374071e-01,0.000000000000000000e+00
1.225000000000000000e+03,-6.385018357332670202e-01,0.000000000000000000e+00
1.226000000000000000e+03,-6.852465471895341498e-01,0.000000000000000000e+00
1.227000000000000000e+03,-8.166825442170649874e-01,0.000000000000000000e+00
1.228000000000000000e+03,-1.336720319342572072e+00,0.000000000000000000e+00
1.229000000000000000e+03,-7.293346008824985738e-01,0.000000000000000000e+00
1.230000000000000000e+03,-7.266683814154593080e-01,0.000000000000000000e+00
1.231000000000000000e+03,-9.265613147187072851e-01,0.000000000000000000e+00
1.232000000000000000e+03,-3.683595907510053280e-01,0.000000000000000000e+00
1.233000000000000000e+03,-8.004338582286166792e-01,0.000000000000000000e+00
1.234000000000000000e+03,-7.098086213030264657e-01,0.000000000000000000e+00
1.235000000000000000e+03,-2.050049498969363782e-01,0.000000000000000000e+00
1.236000000000000000e+03,-5.042984592628956264e-01,0.000000000000000000e+00
1.237000000000000000e+03,-4.120238203854312276e-01,0.000000000000000000e+00
1.238000000000000000e+03,-1.449930092892524613e-01,0.000000000000000000e+00
1.239000000000000000e+03,-4.500768231934220154e-01,0.000000000000000000e+00
1.240000000000000000e+03,-7.066055396416447143e-02,0.000000000000000000e+00
1.241000000000000000e+03,-3.044480728957130733e-01,0.000000000000000000e+00
1.242000000000000000e+03,2.248595685994626836e-02,0.000000000000000000e+00
1.243000000000000000e+03,4.850439662150804465e-02,0.000000000000000000e+00
1.244000000000000000e+03,1.467094329751982007e-02,0.000000000000000000e+00
1.245000000000000000e+03,-1.503744173953784902e-01,0.000000000000000000e+00
1.246000000000000000e+03,-4.060165325190852673e-03,0.000000000000000000e+00
1.247000000000000000e+03,3.489328207057509207e-02,0.000000000000000000e+00
1.248000000000000000e+03,5.352377842688513937e-02,0.000000000000000000e+00
1.249000000000000000e+03,6.142156668682532267e-02,0.000000000000000000e+00
1.250000000000000000e+03,8.984552323151827335e-02,0.000000000000000000e+00
1.251000000000000000e+03,1.309345010657512857e-04,0.000000000000000000e+00
1.252000000000000000e+03,2.568838584849001960e-01,0.000000000000000000e+00
1.253000000000000000e+03,1.565418731287891718e-01,0.000000000000000000e+00
1.254000000000000000e+03,3.962649083494879654e-01,0.000000000000000000e+00
1.255000000000000000e+03,3.338614616725251172e-01,0.000000000000000000e+00
1.256000000000000000e+03,6.912528576352802157e-01,0.000000000000000000e+00
1.257000000000000000e+03,2.400530246598494566e-01,0.000000000000000000e+00
1.258000000000000000e+03,-3.046721282982449777e-02,0.000000000000000000e+00
1.259000000000000000e+03,1.488740477349433100e-01,0.000000000000000000e+00
1.260000000000000000e+03,1.767470641954571875e-01,0.000000000000000000e+00
1.261000000000000000e+03,7.350311611802617939e-02,0.000000000000000000e+00
1.262000000000000000e+03,1.672194415440702298e-01,0.000000000000000000e+00
1.263000000000000000e+03,-6.993935058186465104e-02,0.000000000000000000e+00
1.264000000000000000e+03,1.034375978399210833e-01,0.000000000000000000e+00
1.265000000000000000e+03,-8.153199026336058197e-02,0.000000000000000000e+00
1.266000000000000000e+03,3.403415169521586403e-01,0.000000000000000000e+00
1.267000000000000000e+03,-8.504623443579110154e-01,0.000000000000000000e+00
1.268000000000000000e+03,2.788276955122280132e+00,0.000000000000000000e+00
1.269000000000000000e+03,5.963352427076230811e+00,0.000000000000000000e+00
1.270000000000000000e+03,6.509306116045769919e-01,1.000000000000000000e+00
1.271000000000000000e+03,-3.958547285464217858e-01,0.000000000000000000e+00
1.272000000000000000e+03,-1.001802802474917709e+00,0.000000000000000000e+00
1.273000000000000000e+03,-7.074259341585327210e-01,0.000000000000000000e+00
1.274000000000000000e+03,-1.097553863800334373e+00,0.000000000000000000e+00
1.275000000000000000e+03,-6.149891687982333988e-01,0.000000000000000000e+00
1.276000000000000000e+03,-5.585294587657064769e-01,0.000000000000000000e+00
1.277000000000000000e+03,-6.388999268916485397e-01,0.000000000000000000e+00
1.278000000000000000e+03,-5.845836725376453158e-01,0.000000000000000000e+00
1.279000000000000000e+03,-2.508091007987416909e-01,0.000000000000000000e+00
1.280000000000000000e+03,-3.811636177991763463e-01,0.000000000000000000e+00
1.281000000000000000e+03,-6.021820762058152643e-02,0.000000000000000000e+00
1.282000000000000000e+03,1.076714884783589177e-01,0.000000000000000000e+00
1.283000000000000000e+03,5.427687130355880046e-02,0.000000000000000000e+00
1.284000000000000000e+03,6.527597374487069670e-01,0.000000000000000000e+00
1.285000000000000000e+03,9.800498451235774011e-01,0.000000000000000000e+00
1.286000000000000000e+03,1.162293711545773212e+00,0.000000000000000000e+00
1.287000000000000000e+03,9.750705212433542490e-01,0.000000000000000000e+00
1.288000000000000000e+03,4.634752764756431276e-01,0.000000000000000000e+00
1.289000000000000000e+03,-3.683552630907524494e-01,0.000000000000000000e+00
1.290000000000000000e+03,-1.053622529241980299e+00,0.000000000000000000e+00
1.291000000000000000e+03,-1.106215163744860064e+00,0.000000000000000000e+00
1.292000000000000000e+03,-1.260671233491768906e+00,0.000000000000000000e+00
1.293000000000000000e+03,-1.340660792815909774e+00,0.000000000000000000e+00
1.294000000000000000e+03,-1.078125057157981681e+00,0.000000000000000000e+00
1.295000000000000000e+03,-1.131810956695383785e+00,0.000000000000000000e+00
1.296000000000000000e+03,-7.848084306880881433e-01,0.000000000000000000e+00
1.297000000000000000e+03,-8.068810014934357788e-01,0.000000000000000000e+00
1.298000000000000000e+03,-7.928872281405110467e-01,0.000000000000000000e+00
1.299000000000000000e+03,-6.618529494307152650e-01,0.000000000000000000e+00
1.300000000000000000e+03,-5.441337413474836016e-01,0.000000000000000000e+00
1.301000000000000000e+03,-5.162663325283544102e-01,0.000000000000000000e+00
1.302000000000000000e+03,-4.234469856986483594e-01,0.000000000000000000e+00
1.303000000000000000e+03,-3.394085574861269161e-01,0.000000000000000000e+00
1.304000000000000000e+03,-4.193731522805041467e-01,0.000000000000000000e+00
1.305000000000000000e+03,-2.224580283983332296e-01,0.000000000000000000e+00
1.306000000000000000e+03,-1.311362945574979788e-01,0.000000000000000000e+00
1.307000000000000000e+03,-1.232948106786602577e-01,0.000000000000000000e+00
1.308000000000000000e+03,1.192375891013830631e-02,0.000000000000000000e+00
1.309000000000000000e+03,-6.455049925895453219e-03,0.000000000000000000e+00
1.310000000000000000e+03,-1.690932055112284726e-02,0.000000000000000000e+00
1.311000000000000000e+03,1.446812155588081128e-01,0.000000000000000000e+00
1.312000000000000000e+03,2.486235955147199084e-01,0.000000000000000000e+00
1.313000000000000000e+03,1.376161528830099623e-01,0.000000000000000000e+00
1.314000000000000000e+03,2.726415860726939533e-01,0.000000000000000000e+00
1.315000000000000000e+03,2.841275085275462020e-01,0.000000000000000000e+00
1.316000000000000000e+03,2.356771627048518669e-01,0.000000000000000000e+00
1.317000000000000000e+03,4.976759425801753900e-01,0.000000000000000000e+00
1.318000000000000000e+03,6.097301307102642731e-01,0.000000000000000000e+00
1.319000000000000000e+03,6.039982618673227499e-01,0.000000000000000000e+00
1.320000000000000000e+03,5.053319757813883317e-01,0.000000000000000000e+00
1.321000000000000000e+03,5.968784257711747809e-01,0.000000000000000000e+00
1.322000000000000000e+03,2.610268309419375710e-01,0.000000000000000000e+00
1.323000000000000000e+03,2.511787557818433991e-01,0.000000000000000000e+00
1.324000000000000000e+03,3.065595378148400219e-01,0.000000000000000000e+00
1.325000000000000000e+03,3.735018614943233506e-01,0.000000000000000000e+00
1.326000000000000000e+03,4.122542654271720841e-01,0.000000000000000000e+00
1.327000000000000000e+03,1.869079732965379659e-01,0.000000000000000000e+00
1.328000000000000000e+03,4.663217184261345127e-01,0.000000000000000000e+00
1.329000000000000000e+03,1.539191505270900706e-01,0.000000000000000000e+00
1.330000000000000000e+03,2.135085275436288468e-02,0.000000000000000000e+00
1.331000000000000000e+03,-1.299998844510208140e-01,0.000000000000000000e+00
1.332000000000000000e+03,5.195011989041232958e+00,0.000000000000000000e+00
1.333000000000000000e+03,4.074288453485532813e+00,1.000000000000000000e+00
1.334000000000000000e+03,8.979024032428666036e-02,0.000000000000000000e+00
1.335000000000000000e+03,-2.002429588395622517e-01,0.000000000000000000e+00
1.336000000000000000e+03,-1.086641496576732813e+00,0.000000000000000000e+00
1.337000000000000000e+03,-6.815843412903019871e-01,0.000000000000000000e+00
1.338000000000000000e+03,-4.820521220618207425e-01,0.000000000000000000e+00
1.339000000000000000e+03,-9.803567838161940662e-01,0.000000000000000000e+00
1.340000000000000000e+03,-5.480263429692449062e-01,0.000000000000000000e+00
1.341000000000000000e+03,-2.785507037906373995e-01,0.000000000000000000e+00
1.342000000000000000e+03,-6.000706011695010611e-01,0.000000000000000000e+00
1.343000000000000000e+03,-1.825731368030204804e-01,0.000000000000000000e+00
1.344000000000000000e+03,-1.331765494030479613e-01,0.000000000000000000e+00
1.345000000000000000e+03,-2.783987726738725299e-01,0.000000000000000000e+00
1.346000000000000000e+03,9.984731612068878381e-02,0.000000000000000000e+00
1.347000000000000000e+03,5.737608887481711051e-01,0.000000000000000000e+00
1.348000000000000000e+03,5.327877722825775653e-01,0.000000000000000000e+00
1.349000000000000000e+03,8.992986917763942101e-01,0.000000000000000000e+00
1.350000000000000000e+03,9.814702036889710879e-01,0.000000000000000000e+00
1.351000000000000000e+03,1.135448348883844272e+00,0.000000000000000000e+00
1.352000000000000000e+03,1.136991944901646623e-01,0.000000000000000000e+00
1.353000000000000000e+03,-1.927405773422763147e-01,0.000000000000000000e+00
1.354000000000000000e+03,-6.028518439373277138e-01,0.000000000000000000e+00
1.355000000000000000e+03,-8.461439400370465158e-01,0.000000000000000000e+00
1.356000000000000000e+03,-8.718449025443986145e-01,0.000000000000000000e+00
1.357000000000000000e+03,-9.184464334370978644e-01,0.000000000000000000e+00
1.358000000000000000e+03,-1.022592763304198238e+00,0.000000000000000000e+00
1.359000000000000000e+03,-7.969163097625806547e-01,0.000000000000000000e+00
1.360000000000000000e+03,-7.239341703983016574e-01,0.000000000000000000e+00
1.361000000000000000e+03,-6.794955361967113250e-01,0.000000000000000000e+00
1.362000000000000000e+03,-8.343788831672463990e-01,0.000000000000000000e+00
1.363000000000000000e+03,-5.092710652618289702e-01,0.000000000000000000e+00
1.364000000000000000e+03,-5.571466250946740528e-01,0.000000000000000000e+00
1.365000000000000000e+03,-4.631096154467818637e-01,0.000000000000000000e+00
1.366000000000000000e+03,-3.599706792948308420e-01,0.000000000000000000e+00
1.367000000000000000e+03,-5.007354173638189909e-01,0.000000000000000000e+00
1.368000000000000000e+03,-1.358863841908953818e-01,0.000000000000000000e+00
1.369000000000000000e+03,-5.588153509746761616e-01,0.000000000000000000e+00
1.370000000000000000e+03,-1.797720531481422079e-01,0.000000000000000000e+00
1.371000000000000000e+03,-3.480898011675664372e-01,0.000000000000000000e+00
1.372000000000000000e+03,-2.022171159078615388e-01,0.000000000000000000e+00
1.373000000000000000e+03,-2.434667183369118304e-01,0.000000000000000000e+00
1.374000000000000000e+03,-2.041310606357078505e-01,0.000000000000000000e+00
1.375000000000000000e+03,-7.746779481069747397e-02,0.000000000000000000e+00
1.376000000000000000e+03,-1.192470235506340182e-01,0.000000000000000000e+00
1.377000000000000000e+03,8.908494574123644594e-02,0.000000000000000000e+00
1.378000000000000000e+03,-1.447304834252756932e-02,0.000000000000000000e+00
1.379000000000000000e+03,-4.741059934030693312e-02,0.000000000000000000e+00
1.380000000000000000e+03,2.248982406454645006e-02,0.000000000000000000e+00
1.381000000000000000e+03,5.947126955328655568e-02,0.000000000000000000e+00
1.382000000000000000e+03,3.819343150449203139e-01,0.000000000000000000e+00
1.383000000000000000e+03,3.339429197828164830e-01,0.000000000000000000e+00
1.384000000000000000e+03,4.469636912510742688e-01,0.000000000000000000e+00
1.385000000000000000e+03,1.284612494717031761e-01,0.000000000000000000e+00
1.386000000000000000e+03,7.405990627283551286e-02,0.000000000000000000e+00
1.387000000000000000e+03,-4.662390927668569329e-02,0.000000000000000000e+00
1.388000000000000000e+03,-3.885049048460955529e-02,0.000000000000000000e+00
1.389000000000000000e+03,-8.448306267562734340e-02,0.000000000000000000e+00
1.390000000000000000e+03,1.043792843125296022e-01,0.000000000000000000e+00
1.391000000000000000e+03,6.136727957572404163e-02,0.000000000000000000e+00
1.392000000000000000e+03,-9.124071956330717659e-02,0.000000000000000000e+00
1.393000000000000000e+03,9.045912953969430237e-02,0.000000000000000000e+00
1.394000000000000000e+03,2.791256968412009210e-01,0.000000000000000000e+00
1.395000000000000000e+03,-7.530854000045394958e-01,0.000000000000000000e+00
1.396000000000000000e+03,1.567290729356830781e+00,0.000000000000000000e+00
1.397000000000000000e+03,6.035820902790694831e+00,0.000000000000000000e+00
1.398000000000000000e+03,1.791412118699782008e+00,1.000000000000000000e+00
1.399000000000000000e+03,-3.144748105227091611e-02,0.000000000000000000e+00
1.400000000000000000e+03,-9.122686263529703465e-01,0.000000000000000000e+00
1.401000000000000000e+03,-1.140177832053401952e+00,0.000000000000000000e+00
1.402000000000000000e+03,-7.542227920881806602e-01,0.000000000000000000e+00
1.403000000000000000e+03,-8.568564936152192058e-01,0.000000000000000000e+00
1.404000000000000000e+03,-7.925369224623505238e-01,0.000000000000000000e+00
1.405000000000000000e+03,-5.627205322934204501e-01,0.000000000000000000e+00
1.406000000000000000e+03,-7.579475506727634260e-01,0.000000000000000000e+00
1.407000000000000000e+03,-4.298735912936171299e-01,0.000000000000000000e+00
1.408000000000000000e+03,-2.952320972123462228e-01,0.000000000000000000e+00
1.409000000000000000e+03,-2.617706909438418106e-01,0.000000000000000000e+00
1.410000000000000000e+03,-2.147763070573646682e-01,0.000000000000000000e+00
1.411000000000000000e+03,2.325389441149824377e-01,0.000000000000000000e+00
1.412000000000000000e+03,3.058774785826481879e-01,0.000000000000000000e+00
1.413000000000000000e+03,9.632437933365316507e-01,0.000000000000000000e+00
1.414000000000000000e+03,1.045674850487811947e+00,0.000000000000000000e+00
1.415000000000000000e+03,8.938377800497619985e-01,0.000000000000000000e+00
1.416000000000000000e+03,6.838904611084782870e-01,0.000000000000000000e+00
1.417000000000000000e+03,1.290953800559379860e-01,0.000000000000000000e+00
1.418000000000000000e+03,-4.737972952362634604e-01,0.000000000000000000e+00
1.419000000000000000e+03,-6.440297664304425185e-01,0.000000000000000000e+00
1.420000000000000000e+03,-6.748022581677008969e-01,0.000000000000000000e+00
1.421000000000000000e+03,-9.558477560304213805e-01,0.000000000000000000e+00
1.422000000000000000e+03,-8.197597673367996718e-01,0.000000000000000000e+00
1.423000000000000000e+03,-5.509838311230442764e-01,0.000000000000000000e+00
1.424000000000000000e+03,-6.386914697897703164e-01,0.000000000000000000e+00
1.425000000000000000e+03,-5.493306659143987192e-01,0.000000000000000000e+00
1.426000000000000000e+03,-3.553097049221070058e-01,0.000000000000000000e+00
1.427000000000000000e+03,-4.567206777114449223e-01,0.000000000000000000e+00
1.428000000000000000e+03,-2.615746728096710605e-01,0.000000000000000000e+00
1.429000000000000000e+03,-3.268221422169557688e-01,0.000000000000000000e+00
1.430000000000000000e+03,-3.169070515325483894e-01,0.000000000000000000e+00
1.431000000000000000e+03,-2.705243671761012325e-02,0.000000000000000000e+00
1.432000000000000000e+03,-1.204312563577104311e-01,0.000000000000000000e+00
1.433000000000000000e+03,-9.736290091444251005e-02,0.000000000000000000e+00
1.434000000000000000e+03,-1.653655014939263979e-01,0.000000000000000000e+00
1.435000000000000000e+03,-9.227137640526009155e-02,0.000000000000000000e+00
1.436000000000000000e+03,-6.620343628885906780e-03,0.000000000000000000e+00
1.437000000000000000e+03,5.220430331540458491e-02,0.000000000000000000e+00
1.438000000000000000e+03,9.338927583854877978e-02,0.000000000000000000e+00
1.439000000000000000e+03,8.926004825564130829e-02,0.000000000000000000e+00
1.440000000000000000e+03,1.850299123562310910e-01,0.000000000000000000e+00
1.441000000000000000e+03,2.109853190851540897e-02,0.000000000000000000e+00
1.442000000000000000e+03,1.061788294343242872e-01,0.000000000000000000e+00
1.443000000000000000e+03,5.162778502862046537e-01,0.000000000000000000e+00
1.444000000000000000e+03,-1.067676506935535952e-02,0.000000000000000000e+00
1.445000000000000000e+03,2.758016681146839288e-01,0.000000000000000000e+00
1.446000000000000000e+03,3.724204615426701670e-01,0.000000000000000000e+00
1.447000000000000000e+03,5.233490656886472525e-01,0.000000000000000000e+00
1.448000000000000000e+03,4.334679311897823850e-01,0.000000000000000000e+00
1.449000000000000000e+03,5.380076732169524201e-01,0.000000000000000000e+00
1.450000000000000000e+03,1.632298552805401884e-02,0.000000000000000000e+00
1.451000000000000000e+03,2.867165679860568805e-01,0.000000000000000000e+00
1.452000000000000000e+03,1.124052927819198799e-01,0.000000000000000000e+00
1.453000000000000000e+03,-3.129243077169888143e-02,0.000000000000000000e+00
1.454000000000000000e+03,1.587091432405055708e-02,0.000000000000000000e+00
1.455000000000000000e+03,4.151310370227097035e-01,0.000000000000000000e+00
1.456000000000000000e+03,-1.088851662309749807e-01,0.000000000000000000e+00
1.457000000000000000e+03,9.378712682801944311e-02,0.000000000000000000e+00
1.458000000000000000e+03,1.199576634694068666e-01,0.000000000000000000e+00
1.459000000000000000e+03,1.041269226861454428e-01,0.000000000000000000e+00
1.460000000000000000e+03,-8.012936695578543045e-01,0.000000000000000000e+00
1.461000000000000000e+03,4.317288907750897131e+00,0.000000000000000000e+00
1.462000000000000000e+03,4.786407526761792930e+00,0.000000000000000000e+00
1.463000000000000000e+03,4.924231201308966188e-01,1.000000000000000000e+00
1.464000000000000000e+03,-4.018006647471046855e-01,0.000000000000000000e+00
1.465000000000000000e+03,-1.294025921180277150e+00,0.000000000000000000e+00
1.466000000000000000e+03,-8.140721847013721035e-01,0.000000000000000000e+00
1.467000000000000000e+03,-8.928824034712891100e-01,0.000000000000000000e+00
1.468000000000000000e+03,-7.887725435579636679e-01,0.000000000000000000e+00
1.469000000000000000e+03,-7.744479583417067659e-01,0.000000000000000000e+00
1.470000000000000000e+03,-5.286788423677547533e-01,0.000000000000000000e+00
1.471000000000000000e+03,-7.158309557217181762e-01,0.000000000000000000e+00
1.472000000000000000e+03,-8.918668211540287105e-02,0.000000000000000000e+00
1.473000000000000000e+03,-4.361685599050151296e-01,0.000000000000000000e+00
1.474000000000000000e+03,-1.149663707211893704e-01,0.000000000000000000e+00
1.475000000000000000e+03,5.198925590690881698e-02,0.000000000000000000e+00
1.476000000000000000e+03,1.082607467591151229e-01,0.000000000000000000e+00
1.477000000000000000e+03,2.331885361380591493e-01,0.000000000000000000e+00
1.478000000000000000e+03,1.010471853328234859e+00,0.000000000000000000e+00
1.479000000000000000e+03,8.528153527327050343e-01,0.000000000000000000e+00
1.480000000000000000e+03,9.285663540047744968e-01,0.000000000000000000e+00
1.481000000000000000e+03,3.888899393387963976e-01,0.000000000000000000e+00
1.482000000000000000e+03,-4.587109094906776097e-01,0.000000000000000000e+00
1.483000000000000000e+03,-9.544309012096861000e-01,0.000000000000000000e+00
1.484000000000000000e+03,-1.055394215082101850e+00,0.000000000000000000e+00
1.485000000000000000e+03,-1.094320538637333140e+00,0.000000000000000000e+00
1.486000000000000000e+03,-6.910636900150854967e-01,0.000000000000000000e+00
1.487000000000000000e+03,-9.640817528961524996e-01,0.000000000000000000e+00
1.488000000000000000e+03,-8.546582757622972482e-01,0.000000000000000000e+00
1.489000000000000000e+03,-6.996051885451706198e-01,0.000000000000000000e+00
1.490000000000000000e+03,-7.720932434074107009e-01,0.000000000000000000e+00
1.491000000000000000e+03,-5.341733856880029885e-01,0.000000000000000000e+00
1.492000000000000000e+03,-2.787344913788966094e-01,0.000000000000000000e+00
1.493000000000000000e+03,-3.846025004223017074e-01,0.000000000000000000e+00
1.494000000000000000e+03,-3.196421190096764287e-01,0.000000000000000000e+00
1.495000000000000000e+03,-2.705858153281616718e-01,0.000000000000000000e+00
1.496000000000000000e+03,-1.283848419627091897e-01,0.000000000000000000e+00
1.497000000000000000e+03,-1.596320185521265533e-01,0.000000000000000000e+00
1.498000000000000000e+03,-5.404840284870430361e-02,0.000000000000000000e+00
1.499000000000000000e+03,-1.466004551960883029e-01,0.000000000000000000e+00
1.500000000000000000e+03,1.564802872035672143e-01,0.000000000000000000e+00
1.501000000000000000e+03,-2.215768453529350368e-01,0.000000000000000000e+00
1.502000000000000000e+03,3.910640060681085800e-02,0.000000000000000000e+00
1.503000000000000000e+03,8.417513354419065008e-02,0.000000000000000000e+00
1.504000000000000000e+03,1.894207703764516915e-01,0.000000000000000000e+00
1.505000000000000000e+03,2.609478124191565440e-01,0.000000000000000000e+00
1.506000000000000000e+03,1.347526565844927027e-01,0.000000000000000000e+00
1.507000000000000000e+03,2.174356149871828348e-01,0.000000000000000000e+00
1.508000000000000000e+03,1.284141756116575772e-01,0.000000000000000000e+00
1.509000000000000000e+03,2.620008390538502430e-01,0.000000000000000000e+00
1.510000000000000000e+03,3.610451149692831541e-01,0.000000000000000000e+00
1.511000000000000000e+03,4.699550978343984831e-01,0.000000000000000000e+00
1.512000000000000000e+03,5.760971957062281934e-01,0.000000000000000000e+00
1.513000000000000000e+03,5.520733004427015311e-01,0.000000000000000000e+00
1.514000000000000000e+03,2.927950535292440093e-01,0.000000000000000000e+00
1.515000000000000000e+03,1.621107219619278006e-01,0.000000000000000000e+00
1.516000000000000000e+03,3.034001407970446373e-01,0.000000000000000000e+00
1.517000000000000000e+03,6.958416352561799800e-02,0.000000000000000000e+00
1.518000000000000000e+03,1.305336952519858817e-01,0.000000000000000000e+00
1.519000000000000000e+03,4.148414846255775446e-02,0.000000000000000000e+00
1.520000000000000000e+03,1.981506155262631463e-01,0.000000000000000000e+00
1.521000000000000000e+03,1.363305399670971738e-02,0.000000000000000000e+00
1.522000000000000000e+03,3.554989345671720202e-01,0.000000000000000000e+00
1.523000000000000000e+03,-1.104512450523496975e-01,0.000000000000000000e+00
1.524000000000000000e+03,-1.034575529423851087e-01,0.000000000000000000e+00
1.525000000000000000e+03,9.087375509481214475e-02,0.000000000000000000e+00
1.526000000000000000e+03,5.758216683065637831e+00,0.000000000000000000e+00
1.527000000000000000e+03,3.198535844410863138e+00,1.000000000000000000e+00
1.528000000000000000e+03,-1.595777440376677514e-01,0.000000000000000000e+00
1.529000000000000000e+03,-5.830604535536019206e-01,0.000000000000000000e+00
1.530000000000000000e+03,-1.301074290842624270e+00,0.000000000000000000e+00
1.531000000000000000e+03,-1.048739565070158752e+00,0.000000000000000000e+00
1.532000000000000000e+03,-6.921082764981592028e-01,0.000000000000000000e+00
1.533000000000000000e+03,-1.064549880939817283e+00,0.000000000000000000e+00
1.534000000000000000e+03,-7.135005549021246063e-01,0.000000000000000000e+00
1.535000000000000000e+03,-4.560278361945064862e-01,0.000000000000000000e+00
1.536000000000000000e+03,-7.768955034966938955e-01,0.000000000000000000e+00
1.537000000000000000e+03,-3.816258184130709719e-01,0.000000000000000000e+00
1.538000000000000000e+03,-1.819852973821413644e-01,0.000000000000000000e+00
1.539000000000000000e+03,-4.206472032294907848e-01,0.000000000000000000e+00
1.540000000000000000e+03,-5.183497455759521200e-02,0.000000000000000000e+00
1.541000000000000000e+03,4.092515057317958616e-01,0.000000000000000000e+00
1.542000000000000000e+03,4.154828704643556136e-01,0.000000000000000000e+00
1.543000000000000000e+03,1.134576159039991428e+00,0.000000000000000000e+00
1.544000000000000000e+03,8.523067766048206817e-01,0.000000000000000000e+00
1.545000000000000000e+03,7.693515235435276489e-01,0.000000000000000000e+00
1.546000000000000000e+03,1.028782705404242548e-01,0.000000000000000000e+00
1.547000000000000000e+03,-4.817793428854277304e-01,0.000000000000000000e+00
1.548000000000000000e+03,-7.523770940737127821e-01,0.000000000000000000e+00
1.549000000000000000e+03,-1.231282876587677100e+00,0.000000000000000000e+00
1.550000000000000000e+03,-9.109761043514856826e-01,0.000000000000000000e+00
1.551000000000000000e+03,-1.065151238008711365e+00,0.000000000000000000e+00
1.552000000000000000e+03,-8.864930345539351331e-01,0.000000000000000000e+00
1.553000000000000000e+03,-6.596133403845977350e-01,0.000000000000000000e+00
1.554000000000000000e+03,-9.015433946992678083e-01,0.000000000000000000e+00
1.555000000000000000e+03,-6.231349523451781280e-01,0.000000000000000000e+00
1.556000000000000000e+03,-6.806919046932473627e-01,0.000000000000000000e+00
1.557000000000000000e+03,-6.888991775553950925e-01,0.000000000000000000e+00
1.558000000000000000e+03,-3.918562450197411451e-01,0.000000000000000000e+00
1.559000000000000000e+03,-5.079933183385209050e-01,0.000000000000000000e+00
1.560000000000000000e+03,-2.783320769080601664e-01,0.000000000000000000e+00
1.561000000000000000e+03,-3.174582996387099731e-01,0.000000000000000000e+00
1.562000000000000000e+03,-2.814775107658295528e-01,0.000000000000000000e+00
1.563000000000000000e+03,-4.397955231398876785e-01,0.000000000000000000e+00
1.564000000000000000e+03,-1.429655048028871146e-02,0.000000000000000000e+00
1.565000000000000000e+03,-2.707469071631578572e-01,0.000000000000000000e+00
1.566000000000000000e+03,-1.001275676586900060e-01,0.000000000000000000e+00
1.567000000000000000e+03,1.944722069463849720e-02,0.000000000000000000e+00
1.568000000000000000e+03,-9.028642437381673158e-02,0.000000000000000000e+00
1.569000000000000000e+03,3.957918187198265075e-02,0.000000000000000000e+00
1.570000000000000000e+03,-1.289097043272810217e-01,0.000000000000000000e+00
1.571000000000000000e+03,2.376973089347412804e-01,0.000000000000000000e+00
1.572000000000000000e+03,-3.966824893188714007e-02,0.000000000000000000e+00
1.573000000000000000e+03,3.645973741886043840e-01,0.000000000000000000e+00
1.574000000000000000e+03,2.748587602766113247e-01,0.000000000000000000e+00
1.575000000000000000e+03,2.453566680849325332e-01,0.000000000000000000e+00
1.576000000000000000e+03,7.369200502561560340e-01,0.000000000000000000e+00
1.577000000000000000e+03,3.338274024329569434e-01,0.000000000000000000e+00
1.578000000000000000e+03,7.288988753433514045e-01,0.000000000000000000e+00
1.579000000000000000e+03,2.124929907909078042e-01,0.000000000000000000e+00
1.580000000000000000e+03,2.210338829244439252e-01,0.000000000000000000e+00
1.581000000000000000e+03,2.904676287528213940e-01,0.000000000000000000e+00
1.582000000000000000e+03,8.039920589072961643e-02,0.000000000000000000e+00
1.583000000000000000e+03,4.718034172278569582e-01,0.000000000000000000e+00
1.584000000000000000e+03,2.991062905658140036e-01,0.000000000000000000e+00
1.585000000000000000e+03,2.495662215737666501e-01,0.000000000000000000e+00
1.586000000000000000e+03,4.731503711260094946e-01,0.000000000000000000e+00
