timestamp,ecg_measurement,qrs_detected
0.000000000000000000e+00,-4.968329649764566813e-01,0.000000000000000000e+00
1.000000000000000000e+00,-4.109017417732696020e-01,0.000000000000000000e+00
2.000000000000000000e+00,-1.615263371677327642e-01,0.000000000000000000e+00
3.000000000000000000e+00,3.895893382945350703e-02,0.000000000000000000e+00
4.000000000000000000e+00,2.684344633413894288e-01,0.000000000000000000e+00
5.000000000000000000e+00,5.581772473387576206e-01,0.000000000000000000e+00
6.000000000000000000e+00,9.331830665436456895e-01,0.000000000000000000e+00
7.000000000000000000e+00,1.004887230606249737e+00,0.000000000000000000e+00
8.000000000000000000e+00,9.608974304145265766e-01,0.000000000000000000e+00
9.000000000000000000e+00,1.114940229435971708e-01,0.000000000000000000e+00
1.000000000000000000e+01,-6.193698533349325519e-01,1.000000000000000000e+00
1.100000000000000000e+01,-1.139060693237527788e+00,0.000000000000000000e+00
1.200000000000000000e+01,-1.044640069020360773e+00,0.000000000000000000e+00
1.300000000000000000e+01,-1.540748103494086418e+00,0.000000000000000000e+00
1.400000000000000000e+01,-1.053188097590307182e+00,0.000000000000000000e+00
1.500000000000000000e+01,-1.166192080584736113e+00,0.000000000000000000e+00
1.600000000000000000e+01,-8.134741584873385056e-01,0.000000000000000000e+00
1.700000000000000000e+01,-8.760629933961611160e-01,0.000000000000000000e+00
1.800000000000000000e+01,-5.406100536431110992e-01,0.000000000000000000e+00
1.900000000000000000e+01,-7.393804445720053575e-01,0.000000000000000000e+00
2.000000000000000000e+01,-5.781428675602002798e-01,0.000000000000000000e+00
2.100000000000000000e+01,-7.145669141061207208e-01,0.000000000000000000e+00
2.200000000000000000e+01,-3.828926404234248015e-01,0.000000000000000000e+00
2.300000000000000000e+01,-4.579811624661768721e-01,0.000000000000000000e+00
2.400000000000000000e+01,-2.791640070151056308e-01,0.000000000000000000e+00
2.500000000000000000e+01,-3.928074481950246666e-01,0.000000000000000000e+00
2.600000000000000000e+01,-3.463153180030004163e-01,0.000000000000000000e+00
2.700000000000000000e+01,-2.282877208541289060e-01,0.000000000000000000e+00
2.800000000000000000e+01,-1.311628943616450771e-01,0.000000000000000000e+00
2.900000000000000000e+01,-7.103005187742037103e-03,0.000000000000000000e+00
3.000000000000000000e+01,3.754648584669367101e-02,0.000000000000000000e+00
3.100000000000000000e+01,1.358079372081836267e-01,0.000000000000000000e+00
3.200000000000000000e+01,1.582731115497528485e-01,0.000000000000000000e+00
3.300000000000000000e+01,1.758372508477747120e-02,0.000000000000000000e+00
3.400000000000000000e+01,3.010373114926396254e-01,0.000000000000000000e+00
3.500000000000000000e+01,2.696553359036416020e-02,0.000000000000000000e+00
3.600000000000000000e+01,4.187710554751175041e-01,0.000000000000000000e+00
3.700000000000000000e+01,4.462769102467574189e-01,0.000000000000000000e+00
3.800000000000000000e+01,4.259340577394556959e-01,0.000000000000000000e+00
3.900000000000000000e+01,6.105020533421848805e-01,0.000000000000000000e+00
4.000000000000000000e+01,6.162391270627779472e-01,0.000000000000000000e+00
4.100000000000000000e+01,5.112878022366897923e-01,0.000000000000000000e+00
4.200000000000000000e+01,5.738773525895091154e-01,0.000000000000000000e+00
4.300000000000000000e+01,1.843196801749288072e-01,0.000000000000000000e+00
4.400000000000000000e+01,3.398121698873060592e-01,0.000000000000000000e+00
4.500000000000000000e+01,2.366636086572389552e-01,0.000000000000000000e+00
4.600000000000000000e+01,2.798681039952399807e-01,0.000000000000000000e+00
4.700000000000000000e+01,3.936452461770877931e-01,0.000000000000000000e+00
4.800000000000000000e+01,3.833807247282753905e-01,0.000000000000000000e+00
4.900000000000000000e+01,3.135669491201284464e-01,0.000000000000000000e+00
5.000000000000000000e+01,2.440501540158209748e-01,0.000000000000000000e+00
5.100000000000000000e+01,3.690797124346963942e-01,0.000000000000000000e+00
5.200000000000000000e+01,-5.210480749139272394e-01,0.000000000000000000e+00
5.300000000000000000e+01,1.548318086875705824e+00,0.000000000000000000e+00
5.400000000000000000e+01,6.282374309687159375e+00,0.000000000000000000e+00
5.500000000000000000e+01,1.568687935020261603e+00,1.000000000000000000e+00
5.600000000000000000e+01,-2.947332412313999894e-01,0.000000000000000000e+00
5.700000000000000000e+01,-8.718131145942413784e-01,0.000000000000000000e+00
5.800000000000000000e+01,-7.579087707365778082e-01,0.000000000000000000e+00
5.900000000000000000e+01,-7.665067821767731493e-01,0.000000000000000000e+00
6.000000000000000000e+01,-7.789059907517015269e-01,0.000000000000000000e+00
6.100000000000000000e+01,-7.361274042853863664e-01,0.000000000000000000e+00
6.200000000000000000e+01,-3.188738100111917495e-01,0.000000000000000000e+00
6.300000000000000000e+01,-6.263587770619366557e-01,0.000000000000000000e+00
6.400000000000000000e+01,-3.563948786245835776e-01,0.000000000000000000e+00
6.500000000000000000e+01,-2.331064808666470922e-01,0.000000000000000000e+00
6.600000000000000000e+01,4.904730046256797898e-02,0.000000000000000000e+00
6.700000000000000000e+01,-7.446993945261594361e-02,0.000000000000000000e+00
6.800000000000000000e+01,4.570568914736461985e-01,0.000000000000000000e+00
6.900000000000000000e+01,5.681442853115746816e-01,0.000000000000000000e+00
7.000000000000000000e+01,9.466513463021741792e-01,0.000000000000000000e+00
7.100000000000000000e+01,1.288072673889791853e+00,0.000000000000000000e+00
7.200000000000000000e+01,1.126403340936947162e+00,0.000000000000000000e+00
7.300000000000000000e+01,5.214555906506435079e-01,0.000000000000000000e+00
7.400000000000000000e+01,-4.599133819861198069e-01,0.000000000000000000e+00
7.500000000000000000e+01,-8.002101564755397245e-01,0.000000000000000000e+00
7.600000000000000000e+01,-1.325819213895755411e+00,0.000000000000000000e+00
7.700000000000000000e+01,-1.329748333857655229e+00,0.000000000000000000e+00
7.800000000000000000e+01,-1.168245607377373041e+00,0.000000000000000000e+00
7.900000000000000000e+01,-1.267851766708726569e+00,0.000000000000000000e+00
8.000000000000000000e+01,-9.368988386627995490e-01,0.000000000000000000e+00
8.100000000000000000e+01,-7.951336324527820132e-01,0.000000000000000000e+00
8.200000000000000000e+01,-1.032165612790359788e+00,0.000000000000000000e+00
8.300000000000000000e+01,-7.105158586168057733e-01,0.000000000000000000e+00
8.400000000000000000e+01,-4.156954381651897235e-01,0.000000000000000000e+00
8.500000000000000000e+01,-5.149525749336003599e-01,0.000000000000000000e+00
8.600000000000000000e+01,-5.021485624902954914e-01,0.000000000000000000e+00
8.700000000000000000e+01,-5.113702538249257357e-01,0.000000000000000000e+00
8.800000000000000000e+01,-1.288330569264730108e-01,0.000000000000000000e+00
8.900000000000000000e+01,-4.757674643325539576e-01,0.000000000000000000e+00
9.000000000000000000e+01,-3.503429555379471427e-01,0.000000000000000000e+00
9.100000000000000000e+01,-1.479875993217397712e-01,0.000000000000000000e+00
9.200000000000000000e+01,-2.775668691735479476e-01,0.000000000000000000e+00
9.300000000000000000e+01,2.585880640815434520e-02,0.000000000000000000e+00
9.400000000000000000e+01,5.693862152830901635e-02,0.000000000000000000e+00
9.500000000000000000e+01,-2.042551987486138643e-01,0.000000000000000000e+00
9.600000000000000000e+01,1.190532697102012101e-02,0.000000000000000000e+00
9.700000000000000000e+01,2.069117581280900120e-01,0.000000000000000000e+00
9.800000000000000000e+01,9.543730751239809518e-02,0.000000000000000000e+00
9.900000000000000000e+01,1.150105416193904738e-02,0.000000000000000000e+00
1.000000000000000000e+02,1.478322809022198925e-01,0.000000000000000000e+00
1.010000000000000000e+02,2.311527194132714791e-01,0.000000000000000000e+00
1.020000000000000000e+02,2.752671063221721615e-01,0.000000000000000000e+00
1.030000000000000000e+02,7.444350488595263826e-01,0.000000000000000000e+00
1.040000000000000000e+02,1.988975819180584803e-01,0.000000000000000000e+00
1.050000000000000000e+02,3.769771846459450959e-01,0.000000000000000000e+00
1.060000000000000000e+02,2.790263542498505056e-01,0.000000000000000000e+00
1.070000000000000000e+02,3.016943451732868528e-02,0.000000000000000000e+00
1.080000000000000000e+02,1.982622412972154247e-01,0.000000000000000000e+00
1.090000000000000000e+02,1.018896490395077153e-01,0.000000000000000000e+00
1.100000000000000000e+02,-8.495491949421120695e-03,0.000000000000000000e+00
1.110000000000000000e+02,1.460893020127032038e-01,0.000000000000000000e+00
1.120000000000000000e+02,1.726818671628239377e-01,0.000000000000000000e+00
1.130000000000000000e+02,3.351823141332568867e-01,0.000000000000000000e+00
1.140000000000000000e+02,2.673526737891717131e-01,0.000000000000000000e+00
1.150000000000000000e+02,7.445528473126854230e-02,0.000000000000000000e+00
1.160000000000000000e+02,-1.423768714242343303e-01,0.000000000000000000e+00
1.170000000000000000e+02,5.216879480210747211e+00,0.000000000000000000e+00
1.180000000000000000e+02,3.741404036836446068e+00,1.000000000000000000e+00
1.190000000000000000e+02,-1.846042576917055200e-01,0.000000000000000000e+00
1.200000000000000000e+02,-4.113300935000564484e-01,0.000000000000000000e+00
1.210000000000000000e+02,-9.346868334442602899e-01,0.000000000000000000e+00
1.220000000000000000e+02,-7.074136333056902926e-01,0.000000000000000000e+00
1.230000000000000000e+02,-7.759839971009667714e-01,0.000000000000000000e+00
1.240000000000000000e+02,-5.520632450344147291e-01,0.000000000000000000e+00
1.250000000000000000e+02,-6.639118073565528633e-01,0.000000000000000000e+00
1.260000000000000000e+02,-4.202958198543322310e-01,0.000000000000000000e+00
1.270000000000000000e+02,-4.994178421097004716e-01,0.000000000000000000e+00
1.280000000000000000e+02,-2.254873913330291690e-01,0.000000000000000000e+00
1.290000000000000000e+02,-3.441716155953422063e-01,0.000000000000000000e+00
1.300000000000000000e+02,-1.663197550543132550e-02,0.000000000000000000e+00
1.310000000000000000e+02,1.997671946187046590e-02,0.000000000000000000e+00
1.320000000000000000e+02,3.440007352371540761e-01,0.000000000000000000e+00
1.330000000000000000e+02,6.167454144758174328e-01,0.000000000000000000e+00
1.340000000000000000e+02,9.595072606858112696e-01,0.000000000000000000e+00
1.350000000000000000e+02,9.746694753123514854e-01,0.000000000000000000e+00
1.360000000000000000e+02,7.211870120038357257e-01,0.000000000000000000e+00
1.370000000000000000e+02,-7.382524210525302777e-02,0.000000000000000000e+00
1.380000000000000000e+02,-7.156244907476628780e-01,0.000000000000000000e+00
1.390000000000000000e+02,-1.022787676584318683e+00,0.000000000000000000e+00
1.400000000000000000e+02,-8.002826538003080525e-01,0.000000000000000000e+00
1.410000000000000000e+02,-1.045851881744658485e+00,0.000000000000000000e+00
1.420000000000000000e+02,-9.476531317704726121e-01,0.000000000000000000e+00
1.430000000000000000e+02,-8.722429278492852545e-01,0.000000000000000000e+00
1.440000000000000000e+02,-7.810592788751283821e-01,0.000000000000000000e+00
1.450000000000000000e+02,-6.696067032009774822e-01,0.000000000000000000e+00
1.460000000000000000e+02,-4.431028721921283497e-01,0.000000000000000000e+00
1.470000000000000000e+02,-6.504552577926840939e-01,0.000000000000000000e+00
1.480000000000000000e+02,-3.952815464768989484e-01,0.000000000000000000e+00
1.490000000000000000e+02,-4.111740570355179036e-01,0.000000000000000000e+00
1.500000000000000000e+02,-1.489956378997049080e-01,0.000000000000000000e+00
1.510000000000000000e+02,-3.694215078562591570e-01,0.000000000000000000e+00
1.520000000000000000e+02,-3.339772733275422900e-02,0.000000000000000000e+00
1.530000000000000000e+02,-1.479004024516576143e-01,0.000000000000000000e+00
1.540000000000000000e+02,4.620537659833100219e-02,0.000000000000000000e+00
1.550000000000000000e+02,-9.998946585044633795e-02,0.000000000000000000e+00
1.560000000000000000e+02,-8.139317264068257618e-02,0.000000000000000000e+00
1.570000000000000000e+02,7.541437111759345668e-02,0.000000000000000000e+00
1.580000000000000000e+02,1.378204061294145133e-01,0.000000000000000000e+00
1.590000000000000000e+02,3.252243291933416547e-01,0.000000000000000000e+00
1.600000000000000000e+02,1.728918479716244627e-01,0.000000000000000000e+00
1.610000000000000000e+02,3.118711270666313373e-01,0.000000000000000000e+00
1.620000000000000000e+02,1.648321335486459815e-01,0.000000000000000000e+00
1.630000000000000000e+02,1.503329215438503619e-01,0.000000000000000000e+00
1.640000000000000000e+02,3.975477461181541328e-01,0.000000000000000000e+00
1.650000000000000000e+02,3.815907895218346169e-01,0.000000000000000000e+00
1.660000000000000000e+02,2.978240471481633511e-01,0.000000000000000000e+00
1.670000000000000000e+02,3.258085695438699969e-01,0.000000000000000000e+00
1.680000000000000000e+02,7.035249178797255976e-01,0.000000000000000000e+00
1.690000000000000000e+02,3.667007498294743151e-01,0.000000000000000000e+00
1.700000000000000000e+02,7.318964589475872584e-01,0.000000000000000000e+00
1.710000000000000000e+02,2.667090966702151400e-01,0.000000000000000000e+00
1.720000000000000000e+02,2.026361031034810412e-01,0.000000000000000000e+00
1.730000000000000000e+02,1.801415167803185058e-01,0.000000000000000000e+00
1.740000000000000000e+02,1.908421851070327968e-01,0.000000000000000000e+00
1.750000000000000000e+02,1.544142370086421245e-01,0.000000000000000000e+00
1.760000000000000000e+02,2.284815919696848441e-01,0.000000000000000000e+00
1.770000000000000000e+02,1.588292426989728057e-01,0.000000000000000000e+00
1.780000000000000000e+02,4.886553213877605217e-01,0.000000000000000000e+00
1.790000000000000000e+02,8.245429176920643366e-02,0.000000000000000000e+00
1.800000000000000000e+02,1.156575380242201162e-01,0.000000000000000000e+00
1.810000000000000000e+02,-2.981734127979349808e-02,0.000000000000000000e+00
1.820000000000000000e+02,5.097256782412428855e+00,0.000000000000000000e+00
1.830000000000000000e+02,3.645469025458917045e+00,1.000000000000000000e+00
1.840000000000000000e+02,3.772165607239673646e-01,0.000000000000000000e+00
1.850000000000000000e+02,-5.928972779175576413e-01,0.000000000000000000e+00
1.860000000000000000e+02,-1.233538730448910936e+00,0.000000000000000000e+00
1.870000000000000000e+02,-7.761602967203469206e-01,0.000000000000000000e+00
1.880000000000000000e+02,-1.060123821544195266e+00,0.000000000000000000e+00
1.890000000000000000e+02,-7.378073966072881129e-01,0.000000000000000000e+00
1.900000000000000000e+02,-6.900944916702120846e-01,0.000000000000000000e+00
1.910000000000000000e+02,-5.848617584058009022e-01,0.000000000000000000e+00
1.920000000000000000e+02,-6.478906043833840833e-01,0.000000000000000000e+00
1.930000000000000000e+02,-5.113625432445506602e-01,0.000000000000000000e+00
1.940000000000000000e+02,-3.883710386774067991e-01,0.000000000000000000e+00
1.950000000000000000e+02,-2.232028772611040768e-01,0.000000000000000000e+00
1.960000000000000000e+02,-1.968313213594301281e-01,0.000000000000000000e+00
1.970000000000000000e+02,2.132942974206202269e-01,0.000000000000000000e+00
1.980000000000000000e+02,3.665864208962616999e-01,0.000000000000000000e+00
1.990000000000000000e+02,7.646279161532749669e-01,0.000000000000000000e+00
2.000000000000000000e+02,9.060565242552213183e-01,0.000000000000000000e+00
2.010000000000000000e+02,5.800806974202101784e-01,0.000000000000000000e+00
2.020000000000000000e+02,1.001157947551252134e-02,0.000000000000000000e+00
2.030000000000000000e+02,-6.134272230869701747e-01,0.000000000000000000e+00
2.040000000000000000e+02,-1.048211268212348779e+00,0.000000000000000000e+00
2.050000000000000000e+02,-1.001563489324912348e+00,0.000000000000000000e+00
2.060000000000000000e+02,-9.529713615510078117e-01,0.000000000000000000e+00
2.070000000000000000e+02,-9.687262658132845816e-01,0.000000000000000000e+00
2.080000000000000000e+02,-9.584247401056745774e-01,0.000000000000000000e+00
2.090000000000000000e+02,-8.356988769484857693e-01,0.000000000000000000e+00
2.100000000000000000e+02,-6.602260747531776275e-01,0.000000000000000000e+00
2.110000000000000000e+02,-7.587286031587365809e-01,0.000000000000000000e+00
2.120000000000000000e+02,-4.816713764553114951e-01,0.000000000000000000e+00
2.130000000000000000e+02,-5.703239650857314658e-01,0.000000000000000000e+00
2.140000000000000000e+02,-4.489215326050665089e-01,0.000000000000000000e+00
2.150000000000000000e+02,-3.391368172781582535e-01,0.000000000000000000e+00
2.160000000000000000e+02,-2.015126320139782601e-01,0.000000000000000000e+00
2.170000000000000000e+02,-1.977146477810637348e-01,0.000000000000000000e+00
2.180000000000000000e+02,-7.758595612318867907e-02,0.000000000000000000e+00
2.190000000000000000e+02,-3.056758489905649356e-01,0.000000000000000000e+00
2.200000000000000000e+02,-1.196011405306742770e-01,0.000000000000000000e+00
2.210000000000000000e+02,1.673166253627711778e-02,0.000000000000000000e+00
2.220000000000000000e+02,3.148975932387265957e-03,0.000000000000000000e+00
2.230000000000000000e+02,-4.440724307196917270e-02,0.000000000000000000e+00
2.240000000000000000e+02,2.012945340230971047e-01,0.000000000000000000e+00
2.250000000000000000e+02,1.715630095545847555e-01,0.000000000000000000e+00
2.260000000000000000e+02,-4.132419834040950563e-02,0.000000000000000000e+00
2.270000000000000000e+02,2.942983061062507955e-01,0.000000000000000000e+00
2.280000000000000000e+02,1.639934045487286274e-01,0.000000000000000000e+00
2.290000000000000000e+02,1.523560565707857417e-01,0.000000000000000000e+00
2.300000000000000000e+02,1.978737451408126014e-01,0.000000000000000000e+00
2.310000000000000000e+02,2.053681411242757604e-01,0.000000000000000000e+00
2.320000000000000000e+02,3.130078935032439280e-01,0.000000000000000000e+00
2.330000000000000000e+02,5.183884232636633005e-01,0.000000000000000000e+00
2.340000000000000000e+02,7.374724362866363903e-01,0.000000000000000000e+00
2.350000000000000000e+02,3.600868192650552579e-01,0.000000000000000000e+00
2.360000000000000000e+02,1.677545601193600189e-01,0.000000000000000000e+00
2.370000000000000000e+02,1.410923713021401682e-01,0.000000000000000000e+00
2.380000000000000000e+02,2.541193421455868739e-02,0.000000000000000000e+00
2.390000000000000000e+02,6.676388623335624550e-02,0.000000000000000000e+00
2.400000000000000000e+02,1.198331286313745608e-01,0.000000000000000000e+00
2.410000000000000000e+02,1.257527070080479981e-01,0.000000000000000000e+00
2.420000000000000000e+02,-2.915384173906531221e-02,0.000000000000000000e+00
2.430000000000000000e+02,1.721194211891748926e-01,0.000000000000000000e+00
2.440000000000000000e+02,1.998410277771873189e-01,0.000000000000000000e+00
2.450000000000000000e+02,-2.111240294292867359e-01,0.000000000000000000e+00
2.460000000000000000e+02,3.770019427733698469e-01,0.000000000000000000e+00
2.470000000000000000e+02,6.005621294277304401e+00,0.000000000000000000e+00
2.480000000000000000e+02,3.115012699000176521e+00,1.000000000000000000e+00
2.490000000000000000e+02,-4.389942481418366294e-01,0.000000000000000000e+00
2.500000000000000000e+02,-7.837362610727691692e-01,0.000000000000000000e+00
2.510000000000000000e+02,-1.212605786367928262e+00,0.000000000000000000e+00
2.520000000000000000e+02,-9.053486226296656447e-01,0.000000000000000000e+00
2.530000000000000000e+02,-9.040954526829039217e-01,0.000000000000000000e+00
2.540000000000000000e+02,-6.775800335465899105e-01,0.000000000000000000e+00
2.550000000000000000e+02,-8.294798414396790109e-01,0.000000000000000000e+00
2.560000000000000000e+02,-6.967994132868500223e-01,0.000000000000000000e+00
2.570000000000000000e+02,-6.733630902467049317e-01,0.000000000000000000e+00
2.580000000000000000e+02,-2.773568965159596278e-01,0.000000000000000000e+00
2.590000000000000000e+02,-4.509077085217585434e-01,0.000000000000000000e+00
2.600000000000000000e+02,-1.146529599305724650e-01,0.000000000000000000e+00
2.610000000000000000e+02,1.280941870510279336e-02,0.000000000000000000e+00
2.620000000000000000e+02,4.801786477359023531e-01,0.000000000000000000e+00
2.630000000000000000e+02,7.023027792507273714e-01,0.000000000000000000e+00
2.640000000000000000e+02,1.081563565810882643e+00,0.000000000000000000e+00
2.650000000000000000e+02,1.065802238474282460e+00,0.000000000000000000e+00
2.660000000000000000e+02,7.345011901769975537e-01,0.000000000000000000e+00
2.670000000000000000e+02,-2.731886086164621585e-01,0.000000000000000000e+00
2.680000000000000000e+02,-6.656317652753144243e-01,0.000000000000000000e+00
2.690000000000000000e+02,-1.166221950516730166e+00,0.000000000000000000e+00
2.700000000000000000e+02,-1.221796111748956859e+00,0.000000000000000000e+00
2.710000000000000000e+02,-1.146141587095989900e+00,0.000000000000000000e+00
2.720000000000000000e+02,-9.006429379837941340e-01,0.000000000000000000e+00
2.730000000000000000e+02,-1.053378274916443758e+00,0.000000000000000000e+00
2.740000000000000000e+02,-9.525882890621363286e-01,0.000000000000000000e+00
2.750000000000000000e+02,-7.491622930436175887e-01,0.000000000000000000e+00
2.760000000000000000e+02,-7.550053690510142301e-01,0.000000000000000000e+00
2.770000000000000000e+02,-8.134151475869269010e-01,0.000000000000000000e+00
2.780000000000000000e+02,-3.909066942507891107e-01,0.000000000000000000e+00
2.790000000000000000e+02,-6.901330547635980972e-01,0.000000000000000000e+00
2.800000000000000000e+02,-3.554014591457084205e-01,0.000000000000000000e+00
2.810000000000000000e+02,-3.273955629873875339e-01,0.000000000000000000e+00
2.820000000000000000e+02,-3.266133875430717315e-01,0.000000000000000000e+00
2.830000000000000000e+02,-2.978790982719978775e-01,0.000000000000000000e+00
2.840000000000000000e+02,-1.388507712146713202e-01,0.000000000000000000e+00
2.850000000000000000e+02,-2.124757745565221956e-01,0.000000000000000000e+00
2.860000000000000000e+02,-2.340663290361176263e-01,0.000000000000000000e+00
2.870000000000000000e+02,-7.982374868993193096e-02,0.000000000000000000e+00
2.880000000000000000e+02,-1.145845173205107259e-01,0.000000000000000000e+00
2.890000000000000000e+02,-9.707304846042344448e-02,0.000000000000000000e+00
2.900000000000000000e+02,2.764538237830915235e-01,0.000000000000000000e+00
2.910000000000000000e+02,-4.238203216209512902e-02,0.000000000000000000e+00
2.920000000000000000e+02,3.511977227215994368e-01,0.000000000000000000e+00
2.930000000000000000e+02,-1.980334613884825179e-02,0.000000000000000000e+00
2.940000000000000000e+02,1.512132604078282316e-01,0.000000000000000000e+00
2.950000000000000000e+02,1.901819091846279342e-01,0.000000000000000000e+00
2.960000000000000000e+02,5.705942272357129585e-01,0.000000000000000000e+00
2.970000000000000000e+02,3.881469053427327731e-01,0.000000000000000000e+00
2.980000000000000000e+02,4.020825655955855282e-01,0.000000000000000000e+00
2.990000000000000000e+02,2.327624152571111105e-01,0.000000000000000000e+00
3.000000000000000000e+02,2.210483328977249917e-01,0.000000000000000000e+00
3.010000000000000000e+02,1.399089537237580005e-01,0.000000000000000000e+00
3.020000000000000000e+02,1.980107024068830657e-01,0.000000000000000000e+00
3.030000000000000000e+02,5.168870046623892656e-02,0.000000000000000000e+00
3.040000000000000000e+02,3.593143224179645157e-01,0.000000000000000000e+00
3.050000000000000000e+02,4.769204626624194004e-02,0.000000000000000000e+00
3.060000000000000000e+02,2.450508370727958740e-01,0.000000000000000000e+00
3.070000000000000000e+02,-1.840768796806793381e-02,0.000000000000000000e+00
3.080000000000000000e+02,5.820879522909382375e-01,0.000000000000000000e+00
3.090000000000000000e+02,-6.449041375069536342e-01,0.000000000000000000e+00
3.100000000000000000e+02,3.385415861922008052e+00,0.000000000000000000e+00
3.110000000000000000e+02,5.647479303321781607e+00,0.000000000000000000e+00
3.120000000000000000e+02,2.929226162783309384e-01,1.000000000000000000e+00
3.130000000000000000e+02,-4.504340034455065478e-01,0.000000000000000000e+00
3.140000000000000000e+02,-7.279635665950114909e-01,0.000000000000000000e+00
3.150000000000000000e+02,-8.352471662238039052e-01,0.000000000000000000e+00
3.160000000000000000e+02,-6.985204943960940938e-01,0.000000000000000000e+00
3.170000000000000000e+02,-5.178798788090618332e-01,0.000000000000000000e+00
3.180000000000000000e+02,-6.790264223484093753e-01,0.000000000000000000e+00
3.190000000000000000e+02,-1.945584242964778499e-01,0.000000000000000000e+00
3.200000000000000000e+02,-4.943500478877002613e-01,0.000000000000000000e+00
3.210000000000000000e+02,-1.487835653325709495e-01,0.000000000000000000e+00
3.220000000000000000e+02,-2.083660643591830619e-01,0.000000000000000000e+00
3.230000000000000000e+02,2.078248324854926540e-02,0.000000000000000000e+00
3.240000000000000000e+02,1.005672137197409638e-01,0.000000000000000000e+00
3.250000000000000000e+02,2.345159112814620417e-01,0.000000000000000000e+00
3.260000000000000000e+02,6.248042212992088729e-01,0.000000000000000000e+00
3.270000000000000000e+02,1.260284284119624010e+00,0.000000000000000000e+00
3.280000000000000000e+02,1.147834655413972893e+00,0.000000000000000000e+00
3.290000000000000000e+02,1.092014042635193194e+00,0.000000000000000000e+00
3.300000000000000000e+02,4.882279649932826926e-01,0.000000000000000000e+00
3.310000000000000000e+02,-3.222312169314684449e-01,0.000000000000000000e+00
3.320000000000000000e+02,-6.868250337692632934e-01,0.000000000000000000e+00
3.330000000000000000e+02,-8.823021372336695700e-01,0.000000000000000000e+00
3.340000000000000000e+02,-1.019069476924898909e+00,0.000000000000000000e+00
3.350000000000000000e+02,-8.565338015970547225e-01,0.000000000000000000e+00
3.360000000000000000e+02,-6.498296203193466569e-01,0.000000000000000000e+00
3.370000000000000000e+02,-6.324853759913224849e-01,0.000000000000000000e+00
3.380000000000000000e+02,-4.966897114329003049e-01,0.000000000000000000e+00
3.390000000000000000e+02,-5.179506620520483162e-01,0.000000000000000000e+00
3.400000000000000000e+02,-3.859014344863018198e-01,0.000000000000000000e+00
3.410000000000000000e+02,-4.397068099000713270e-01,0.000000000000000000e+00
3.420000000000000000e+02,-2.851656941078855589e-01,0.000000000000000000e+00
3.430000000000000000e+02,-2.839467483521631030e-01,0.000000000000000000e+00
3.440000000000000000e+02,-3.163181068157516207e-01,0.000000000000000000e+00
3.450000000000000000e+02,-3.326066244799488758e-02,0.000000000000000000e+00
3.460000000000000000e+02,-1.240266293504191653e-01,0.000000000000000000e+00
3.470000000000000000e+02,-2.042146089637670581e-01,0.000000000000000000e+00
3.480000000000000000e+02,3.484796259676987973e-02,0.000000000000000000e+00
3.490000000000000000e+02,-5.084289112368634012e-02,0.000000000000000000e+00
3.500000000000000000e+02,3.618692080665345673e-02,0.000000000000000000e+00
3.510000000000000000e+02,-7.374841127010010877e-02,0.000000000000000000e+00
3.520000000000000000e+02,1.418989390880132373e-01,0.000000000000000000e+00
3.530000000000000000e+02,-1.568908956382451467e-02,0.000000000000000000e+00
3.540000000000000000e+02,1.072689496297107858e-01,0.000000000000000000e+00
3.550000000000000000e+02,1.765323885579192231e-01,0.000000000000000000e+00
3.560000000000000000e+02,8.219631810299268815e-02,0.000000000000000000e+00
3.570000000000000000e+02,2.823363792776183434e-01,0.000000000000000000e+00
3.580000000000000000e+02,2.062242805478172181e-01,0.000000000000000000e+00
3.590000000000000000e+02,2.314837789832312753e-01,0.000000000000000000e+00
3.600000000000000000e+02,2.212881841770020785e-01,0.000000000000000000e+00
3.610000000000000000e+02,5.358199273563808429e-01,0.000000000000000000e+00
3.620000000000000000e+02,4.711182831962517636e-01,0.000000000000000000e+00
3.630000000000000000e+02,3.862135842368888961e-01,0.000000000000000000e+00
3.640000000000000000e+02,5.847631107066991740e-01,0.000000000000000000e+00
3.650000000000000000e+02,2.687774478731791428e-01,0.000000000000000000e+00
3.660000000000000000e+02,3.466672555272780620e-01,0.000000000000000000e+00
3.670000000000000000e+02,1.082557294391152669e-01,0.000000000000000000e+00
3.680000000000000000e+02,2.941912390125544507e-01,0.000000000000000000e+00
3.690000000000000000e+02,-2.057462546676021992e-02,0.000000000000000000e+00
3.700000000000000000e+02,2.142020802718081485e-01,0.000000000000000000e+00
3.710000000000000000e+02,-3.558333564372449798e-02,0.000000000000000000e+00
3.720000000000000000e+02,2.320165647833467015e-01,0.000000000000000000e+00
3.730000000000000000e+02,1.662900731938148635e-01,0.000000000000000000e+00
3.740000000000000000e+02,2.972748286362715264e-01,0.000000000000000000e+00
3.750000000000000000e+02,-4.588559936149609331e-01,0.000000000000000000e+00
3.760000000000000000e+02,4.901830998224014024e+00,0.000000000000000000e+00
3.770000000000000000e+02,4.048056233458770414e+00,0.000000000000000000e+00
3.780000000000000000e+02,8.445441145146853623e-02,1.000000000000000000e+00
3.790000000000000000e+02,-6.491472296950168142e-01,0.000000000000000000e+00
3.800000000000000000e+02,-1.074989727616177726e+00,0.000000000000000000e+00
3.810000000000000000e+02,-8.011167637351771509e-01,0.000000000000000000e+00
3.820000000000000000e+02,-1.082956716717810020e+00,0.000000000000000000e+00
3.830000000000000000e+02,-6.970830206734439649e-01,0.000000000000000000e+00
3.840000000000000000e+02,-8.609339564512947796e-01,0.000000000000000000e+00
3.850000000000000000e+02,-6.062934545147329324e-01,0.000000000000000000e+00
3.860000000000000000e+02,-6.451740911446189886e-01,0.000000000000000000e+00
3.870000000000000000e+02,-4.569920805202923875e-01,0.000000000000000000e+00
3.880000000000000000e+02,-6.344044293963055914e-01,0.000000000000000000e+00
3.890000000000000000e+02,-2.019144184527759400e-01,0.000000000000000000e+00
3.900000000000000000e+02,-1.574608058800776311e-01,0.000000000000000000e+00
3.910000000000000000e+02,1.563395260605631998e-01,0.000000000000000000e+00
3.920000000000000000e+02,3.962091824996953338e-01,0.000000000000000000e+00
3.930000000000000000e+02,8.819378813685767593e-01,0.000000000000000000e+00
3.940000000000000000e+02,7.488870286299299517e-01,0.000000000000000000e+00
3.950000000000000000e+02,7.716155063776758416e-01,0.000000000000000000e+00
3.960000000000000000e+02,-9.276606942218466184e-03,0.000000000000000000e+00
3.970000000000000000e+02,-4.698031245315782423e-01,0.000000000000000000e+00
3.980000000000000000e+02,-8.064975543940436919e-01,0.000000000000000000e+00
3.990000000000000000e+02,-1.284291945711881544e+00,0.000000000000000000e+00
4.000000000000000000e+02,-1.196727327764132376e+00,0.000000000000000000e+00
4.010000000000000000e+02,-8.066769604253354320e-01,0.000000000000000000e+00
4.020000000000000000e+02,-8.876537216081950010e-01,0.000000000000000000e+00
4.030000000000000000e+02,-8.508709453037468506e-01,0.000000000000000000e+00
4.040000000000000000e+02,-6.863341900318259414e-01,0.000000000000000000e+00
4.050000000000000000e+02,-7.901140381660650691e-01,0.000000000000000000e+00
4.060000000000000000e+02,-5.940130355824603248e-01,0.000000000000000000e+00
4.070000000000000000e+02,-4.897381843167349369e-01,0.000000000000000000e+00
4.080000000000000000e+02,-5.436868975890210010e-01,0.000000000000000000e+00
4.090000000000000000e+02,-4.097199474258372276e-01,0.000000000000000000e+00
4.100000000000000000e+02,-4.136939615263237613e-01,0.000000000000000000e+00
4.110000000000000000e+02,-3.628815602776335747e-01,0.000000000000000000e+00
4.120000000000000000e+02,-1.433987045258547366e-01,0.000000000000000000e+00
4.130000000000000000e+02,-6.371253042525409915e-02,0.000000000000000000e+00
4.140000000000000000e+02,-1.202076510439415297e-01,0.000000000000000000e+00
4.150000000000000000e+02,-4.648487052441183792e-02,0.000000000000000000e+00
4.160000000000000000e+02,-1.891037167874621769e-02,0.000000000000000000e+00
4.170000000000000000e+02,-1.643808380069912423e-01,0.000000000000000000e+00
4.180000000000000000e+02,6.711303095049475642e-02,0.000000000000000000e+00
4.190000000000000000e+02,-1.293821309023718003e-01,0.000000000000000000e+00
4.200000000000000000e+02,1.768126193059434415e-01,0.000000000000000000e+00
4.210000000000000000e+02,1.539030539110275986e-01,0.000000000000000000e+00
4.220000000000000000e+02,1.661217026555134590e-01,0.000000000000000000e+00
4.230000000000000000e+02,2.049340009841131016e-01,0.000000000000000000e+00
4.240000000000000000e+02,1.557792067177761197e-01,0.000000000000000000e+00
4.250000000000000000e+02,1.249144036328672241e-01,0.000000000000000000e+00
4.260000000000000000e+02,2.949960537613864897e-01,0.000000000000000000e+00
4.270000000000000000e+02,2.418504885880354283e-01,0.000000000000000000e+00
4.280000000000000000e+02,5.472195074938034365e-01,0.000000000000000000e+00
4.290000000000000000e+02,5.437827109908793810e-01,0.000000000000000000e+00
4.300000000000000000e+02,4.249468749974463777e-01,0.000000000000000000e+00
4.310000000000000000e+02,7.203330219141461377e-02,0.000000000000000000e+00
4.320000000000000000e+02,1.704634049216204039e-01,0.000000000000000000e+00
4.330000000000000000e+02,1.429044082474601740e-01,0.000000000000000000e+00
4.340000000000000000e+02,-1.285463467671241720e-02,0.000000000000000000e+00
4.350000000000000000e+02,1.071459381279042666e-01,0.000000000000000000e+00
4.360000000000000000e+02,-5.838450381997151162e-02,0.000000000000000000e+00
4.370000000000000000e+02,1.630074934198890227e-02,0.000000000000000000e+00
4.380000000000000000e+02,1.584351408799844485e-01,0.000000000000000000e+00
4.390000000000000000e+02,8.552918351270179242e-02,0.000000000000000000e+00
4.400000000000000000e+02,3.179568495610793355e-01,0.000000000000000000e+00
4.410000000000000000e+02,-9.365413742022129506e-01,0.000000000000000000e+00
4.420000000000000000e+02,4.115405698260870437e+00,0.000000000000000000e+00
4.430000000000000000e+02,4.963503828165034548e+00,0.000000000000000000e+00
4.440000000000000000e+02,1.789664362000209785e-01,1.000000000000000000e+00
4.450000000000000000e+02,-2.078528378927317344e-01,0.000000000000000000e+00
4.460000000000000000e+02,-1.361661402779142493e+00,0.000000000000000000e+00
4.470000000000000000e+02,-8.757312959914440587e-01,0.000000000000000000e+00
4.480000000000000000e+02,-1.122591577159538945e+00,0.000000000000000000e+00
4.490000000000000000e+02,-7.277767323638172359e-01,0.000000000000000000e+00
4.500000000000000000e+02,-8.809363981284566991e-01,0.000000000000000000e+00
4.510000000000000000e+02,-5.794089363457877173e-01,0.000000000000000000e+00
4.520000000000000000e+02,-5.977748030410313662e-01,0.000000000000000000e+00
4.530000000000000000e+02,-5.342124491660880103e-01,0.000000000000000000e+00
4.540000000000000000e+02,-2.793680701176812775e-01,0.000000000000000000e+00
4.550000000000000000e+02,-1.771708265201550059e-01,0.000000000000000000e+00
4.560000000000000000e+02,-1.332359936227199282e-01,0.000000000000000000e+00
4.570000000000000000e+02,4.384519441398718187e-01,0.000000000000000000e+00
4.580000000000000000e+02,5.023101549453241610e-01,0.000000000000000000e+00
4.590000000000000000e+02,8.953343764782668579e-01,0.000000000000000000e+00
4.600000000000000000e+02,1.254526410791551472e+00,0.000000000000000000e+00
4.610000000000000000e+02,9.744542500479682623e-01,0.000000000000000000e+00
4.620000000000000000e+02,4.602123506249736762e-01,0.000000000000000000e+00
4.630000000000000000e+02,-4.062021884127356985e-01,0.000000000000000000e+00
4.640000000000000000e+02,-7.782662667296482706e-01,0.000000000000000000e+00
4.650000000000000000e+02,-8.990594936883825605e-01,0.000000000000000000e+00
4.660000000000000000e+02,-1.018842146948165883e+00,0.000000000000000000e+00
4.670000000000000000e+02,-6.447529506218787620e-01,0.000000000000000000e+00
4.680000000000000000e+02,-7.760879171943343424e-01,0.000000000000000000e+00
4.690000000000000000e+02,-6.569746061436275708e-01,0.000000000000000000e+00
4.700000000000000000e+02,-6.576941874682095124e-01,0.000000000000000000e+00
4.710000000000000000e+02,-6.258256929710851457e-01,0.000000000000000000e+00
4.720000000000000000e+02,-5.899025132391314541e-01,0.000000000000000000e+00
4.730000000000000000e+02,-3.671965534503135453e-01,0.000000000000000000e+00
4.740000000000000000e+02,-3.008294527323110423e-01,0.000000000000000000e+00
4.750000000000000000e+02,-2.772097910824022349e-01,0.000000000000000000e+00
4.760000000000000000e+02,-2.955273647918785218e-01,0.000000000000000000e+00
4.770000000000000000e+02,-1.297005919158381315e-01,0.000000000000000000e+00
4.780000000000000000e+02,-1.279219053459517141e-01,0.000000000000000000e+00
4.790000000000000000e+02,1.100401934712878643e-01,0.000000000000000000e+00
4.800000000000000000e+02,-1.446463653420364537e-01,0.000000000000000000e+00
4.810000000000000000e+02,4.727762254332019964e-02,0.000000000000000000e+00
4.820000000000000000e+02,1.760863206668127068e-02,0.000000000000000000e+00
4.830000000000000000e+02,1.275650099075699706e-01,0.000000000000000000e+00
4.840000000000000000e+02,1.889863572049325369e-01,0.000000000000000000e+00
4.850000000000000000e+02,1.628335464072586392e-01,0.000000000000000000e+00
4.860000000000000000e+02,1.383680162354689880e-01,0.000000000000000000e+00
4.870000000000000000e+02,3.444489526307424332e-01,0.000000000000000000e+00
4.880000000000000000e+02,2.028306998110036008e-01,0.000000000000000000e+00
4.890000000000000000e+02,3.989160327018374530e-01,0.000000000000000000e+00
4.900000000000000000e+02,3.685329177722229121e-01,0.000000000000000000e+00
4.910000000000000000e+02,1.693051976063029707e-01,0.000000000000000000e+00
4.920000000000000000e+02,4.448638427497573766e-01,0.000000000000000000e+00
4.930000000000000000e+02,2.235454528811222363e-01,0.000000000000000000e+00
4.940000000000000000e+02,4.540395267519297673e-01,0.000000000000000000e+00
4.950000000000000000e+02,6.491807613521614062e-01,0.000000000000000000e+00
4.960000000000000000e+02,5.196809510552631295e-01,0.000000000000000000e+00
4.970000000000000000e+02,2.994392846585200441e-01,0.000000000000000000e+00
4.980000000000000000e+02,7.810239598227104729e-02,0.000000000000000000e+00
4.990000000000000000e+02,1.694162514245456386e-01,0.000000000000000000e+00
5.000000000000000000e+02,-1.521826496273562257e-01,0.000000000000000000e+00
5.010000000000000000e+02,-6.853694843659341625e-03,0.000000000000000000e+00
5.020000000000000000e+02,-4.289847090469707525e-02,0.000000000000000000e+00
5.030000000000000000e+02,-4.884379448949657809e-02,0.000000000000000000e+00
5.040000000000000000e+02,-6.033219727539943476e-03,0.000000000000000000e+00
5.050000000000000000e+02,2.327434324453202252e-02,0.000000000000000000e+00
5.060000000000000000e+02,5.642306346010846768e-02,0.000000000000000000e+00
5.070000000000000000e+02,-2.508147928607166732e-01,0.000000000000000000e+00
5.080000000000000000e+02,1.657915872423447179e-01,0.000000000000000000e+00
5.090000000000000000e+02,5.800905227101098127e+00,0.000000000000000000e+00
5.100000000000000000e+02,2.992432017578322334e+00,1.000000000000000000e+00
5.110000000000000000e+02,-2.846735493475542889e-01,0.000000000000000000e+00
5.120000000000000000e+02,-9.351306902595405424e-01,0.000000000000000000e+00
5.130000000000000000e+02,-1.116087619623563398e+00,0.000000000000000000e+00
5.140000000000000000e+02,-8.921566440053537717e-01,0.000000000000000000e+00
5.150000000000000000e+02,-1.180711007634461573e+00,0.000000000000000000e+00
5.160000000000000000e+02,-6.955829417079980592e-01,0.000000000000000000e+00
5.170000000000000000e+02,-8.948486187793632807e-01,0.000000000000000000e+00
5.180000000000000000e+02,-7.275650852148959347e-01,0.000000000000000000e+00
5.190000000000000000e+02,-5.264654958377483762e-01,0.000000000000000000e+00
5.200000000000000000e+02,-4.442252470210341087e-01,0.000000000000000000e+00
5.210000000000000000e+02,-3.561158526993538076e-01,0.000000000000000000e+00
5.220000000000000000e+02,-6.425119192329901974e-02,0.000000000000000000e+00
5.230000000000000000e+02,-2.981956229074568532e-02,0.000000000000000000e+00
5.240000000000000000e+02,3.567892186808004351e-01,0.000000000000000000e+00
5.250000000000000000e+02,6.941732034300167609e-01,0.000000000000000000e+00
5.260000000000000000e+02,1.136675387593156783e+00,0.000000000000000000e+00
5.270000000000000000e+02,1.009155001051388556e+00,0.000000000000000000e+00
5.280000000000000000e+02,9.393076189563638323e-01,0.000000000000000000e+00
5.290000000000000000e+02,-1.193787185242146942e-01,0.000000000000000000e+00
5.300000000000000000e+02,-6.002379531728266882e-01,0.000000000000000000e+00
5.310000000000000000e+02,-9.969857811344111642e-01,0.000000000000000000e+00
5.320000000000000000e+02,-1.028790128796412962e+00,0.000000000000000000e+00
5.330000000000000000e+02,-9.979207588967451414e-01,0.000000000000000000e+00
5.340000000000000000e+02,-9.899120939027055144e-01,0.000000000000000000e+00
5.350000000000000000e+02,-9.506155565902767446e-01,0.000000000000000000e+00
5.360000000000000000e+02,-8.291525407367479339e-01,0.000000000000000000e+00
5.370000000000000000e+02,-8.547577400594795760e-01,0.000000000000000000e+00
5.380000000000000000e+02,-6.134628859717217164e-01,0.000000000000000000e+00
5.390000000000000000e+02,-5.883395975213671081e-01,0.000000000000000000e+00
5.400000000000000000e+02,-5.723693135814172939e-01,0.000000000000000000e+00
5.410000000000000000e+02,-4.267961203764256140e-01,0.000000000000000000e+00
5.420000000000000000e+02,-2.858512030740424370e-01,0.000000000000000000e+00
5.430000000000000000e+02,-3.708166809848849610e-01,0.000000000000000000e+00
5.440000000000000000e+02,-3.142253552736580247e-01,0.000000000000000000e+00
5.450000000000000000e+02,8.700615809944063639e-02,0.000000000000000000e+00
5.460000000000000000e+02,-2.786710160152410798e-01,0.000000000000000000e+00
5.470000000000000000e+02,-8.280449153105885751e-02,0.000000000000000000e+00
5.480000000000000000e+02,-6.534073257572549365e-02,0.000000000000000000e+00
5.490000000000000000e+02,6.981655672383996203e-02,0.000000000000000000e+00
5.500000000000000000e+02,-1.030935962319190664e-02,0.000000000000000000e+00
5.510000000000000000e+02,2.403607751879510424e-01,0.000000000000000000e+00
5.520000000000000000e+02,1.029125975975665186e-01,0.000000000000000000e+00
5.530000000000000000e+02,1.923319205808417531e-01,0.000000000000000000e+00
5.540000000000000000e+02,2.206676599286581386e-01,0.000000000000000000e+00
5.550000000000000000e+02,3.990163508146680749e-01,0.000000000000000000e+00
5.560000000000000000e+02,1.903629004404477076e-01,0.000000000000000000e+00
5.570000000000000000e+02,3.271857346457916482e-01,0.000000000000000000e+00
5.580000000000000000e+02,2.016342683507237887e-01,0.000000000000000000e+00
5.590000000000000000e+02,3.780650589295939668e-01,0.000000000000000000e+00
5.600000000000000000e+02,2.907751015859592059e-01,0.000000000000000000e+00
5.610000000000000000e+02,4.853727713603435689e-01,0.000000000000000000e+00
5.620000000000000000e+02,8.570725965139683877e-01,0.000000000000000000e+00
5.630000000000000000e+02,5.294962174632421581e-01,0.000000000000000000e+00
5.640000000000000000e+02,4.878807394956262145e-01,0.000000000000000000e+00
5.650000000000000000e+02,2.525224235136045228e-02,0.000000000000000000e+00
5.660000000000000000e+02,1.592865581429650512e-01,0.000000000000000000e+00
5.670000000000000000e+02,7.711292603936577283e-02,0.000000000000000000e+00
5.680000000000000000e+02,2.412788470594761370e-01,0.000000000000000000e+00
5.690000000000000000e+02,6.673486485722172727e-03,0.000000000000000000e+00
5.700000000000000000e+02,2.305273911454918112e-01,0.000000000000000000e+00
5.710000000000000000e+02,1.457605521336249876e-01,0.000000000000000000e+00
5.720000000000000000e+02,1.344598535392991234e-01,0.000000000000000000e+00
5.730000000000000000e+02,1.144445458786191444e-01,0.000000000000000000e+00
5.740000000000000000e+02,-3.714142727146112904e-02,0.000000000000000000e+00
5.750000000000000000e+02,-7.309119741244752416e-03,0.000000000000000000e+00
5.760000000000000000e+02,6.043604758398238630e+00,0.000000000000000000e+00
5.770000000000000000e+02,3.664413351603655222e+00,1.000000000000000000e+00
5.780000000000000000e+02,-3.623060451080799549e-01,0.000000000000000000e+00
5.790000000000000000e+02,-7.719124287596976774e-01,0.000000000000000000e+00
5.800000000000000000e+02,-1.176582135493652315e+00,0.000000000000000000e+00
5.810000000000000000e+02,-7.112249880809763392e-01,0.000000000000000000e+00
5.820000000000000000e+02,-9.836989020343939183e-01,0.000000000000000000e+00
5.830000000000000000e+02,-6.824628206359626414e-01,0.000000000000000000e+00
5.840000000000000000e+02,-8.511723061799540968e-01,0.000000000000000000e+00
5.850000000000000000e+02,-6.685927435669974939e-01,0.000000000000000000e+00
5.860000000000000000e+02,-6.450491932480868496e-01,0.000000000000000000e+00
5.870000000000000000e+02,-4.078092423785501519e-01,0.000000000000000000e+00
5.880000000000000000e+02,-4.188978989843476497e-01,0.000000000000000000e+00
5.890000000000000000e+02,-1.009204865178310040e-01,0.000000000000000000e+00
5.900000000000000000e+02,-9.408500212580987732e-03,0.000000000000000000e+00
5.910000000000000000e+02,5.469185878170144122e-01,0.000000000000000000e+00
5.920000000000000000e+02,7.779939845540008170e-01,0.000000000000000000e+00
5.930000000000000000e+02,9.118106776870770203e-01,0.000000000000000000e+00
5.940000000000000000e+02,1.246955156510867191e+00,0.000000000000000000e+00
5.950000000000000000e+02,8.208524360794547947e-01,0.000000000000000000e+00
5.960000000000000000e+02,-6.600963659337104328e-02,0.000000000000000000e+00
5.970000000000000000e+02,-6.577986387505976307e-01,0.000000000000000000e+00
5.980000000000000000e+02,-1.061572178779281783e+00,0.000000000000000000e+00
5.990000000000000000e+02,-1.064279520321057104e+00,0.000000000000000000e+00
6.000000000000000000e+02,-1.218505956688830327e+00,0.000000000000000000e+00
6.010000000000000000e+02,-1.067244875598032383e+00,0.000000000000000000e+00
6.020000000000000000e+02,-9.795932924875311310e-01,0.000000000000000000e+00
6.030000000000000000e+02,-9.345756127006094038e-01,0.000000000000000000e+00
6.040000000000000000e+02,-9.816557023552902050e-01,0.000000000000000000e+00
6.050000000000000000e+02,-6.410856399677864470e-01,0.000000000000000000e+00
6.060000000000000000e+02,-8.919726496063835608e-01,0.000000000000000000e+00
6.070000000000000000e+02,-7.028795587930598554e-01,0.000000000000000000e+00
6.080000000000000000e+02,-4.763933159608689794e-01,0.000000000000000000e+00
6.090000000000000000e+02,-5.265906264586648344e-01,0.000000000000000000e+00
6.100000000000000000e+02,-4.412650163461343533e-01,0.000000000000000000e+00
6.110000000000000000e+02,-2.312329308730355359e-01,0.000000000000000000e+00
6.120000000000000000e+02,-3.868000549495189677e-01,0.000000000000000000e+00
6.130000000000000000e+02,-3.264879005903951192e-01,0.000000000000000000e+00
6.140000000000000000e+02,-2.740299477017371643e-01,0.000000000000000000e+00
6.150000000000000000e+02,-1.105955468045503598e-01,0.000000000000000000e+00
6.160000000000000000e+02,-4.955237668939611179e-02,0.000000000000000000e+00
6.170000000000000000e+02,8.454827151687835385e-02,0.000000000000000000e+00
6.180000000000000000e+02,1.823847061571745934e-02,0.000000000000000000e+00
6.190000000000000000e+02,1.308908375868728657e-01,0.000000000000000000e+00
6.200000000000000000e+02,5.440221811449063444e-02,0.000000000000000000e+00
6.210000000000000000e+02,1.982647601494184619e-01,0.000000000000000000e+00
6.220000000000000000e+02,2.685478979303270730e-01,0.000000000000000000e+00
6.230000000000000000e+02,1.531635930516834776e-01,0.000000000000000000e+00
6.240000000000000000e+02,1.500204613582787894e-01,0.000000000000000000e+00
6.250000000000000000e+02,3.406015682114753029e-01,0.000000000000000000e+00
6.260000000000000000e+02,3.811505655444296092e-01,0.000000000000000000e+00
6.270000000000000000e+02,6.287290250623771559e-01,0.000000000000000000e+00
6.280000000000000000e+02,7.114849145161513677e-01,0.000000000000000000e+00
6.290000000000000000e+02,3.124385250232457056e-01,0.000000000000000000e+00
6.300000000000000000e+02,2.849183299457985208e-01,0.000000000000000000e+00
6.310000000000000000e+02,2.335067764496190634e-01,0.000000000000000000e+00
6.320000000000000000e+02,4.991624378901445003e-02,0.000000000000000000e+00
6.330000000000000000e+02,2.554426533134614985e-01,0.000000000000000000e+00
6.340000000000000000e+02,2.350258704361385953e-01,0.000000000000000000e+00
6.350000000000000000e+02,2.527381263906751663e-01,0.000000000000000000e+00
6.360000000000000000e+02,2.950291854691192706e-01,0.000000000000000000e+00
6.370000000000000000e+02,4.171482624402246819e-01,0.000000000000000000e+00
6.380000000000000000e+02,7.813605221359240516e-02,0.000000000000000000e+00
6.390000000000000000e+02,3.302443734456408930e-01,0.000000000000000000e+00
6.400000000000000000e+02,-5.157305643058053279e-01,0.000000000000000000e+00
6.410000000000000000e+02,5.246358687059475834e+00,0.000000000000000000e+00
6.420000000000000000e+02,4.028273246186260259e+00,1.000000000000000000e+00
6.430000000000000000e+02,-3.952544024320546190e-01,0.000000000000000000e+00
6.440000000000000000e+02,-4.188611449740708426e-01,0.000000000000000000e+00
6.450000000000000000e+02,-9.595979754318270105e-01,0.000000000000000000e+00
6.460000000000000000e+02,-5.924958081230031759e-01,0.000000000000000000e+00
6.470000000000000000e+02,-8.577083536803025154e-01,0.000000000000000000e+00
6.480000000000000000e+02,-4.752614157112246551e-01,0.000000000000000000e+00
6.490000000000000000e+02,-6.032170307282831434e-01,0.000000000000000000e+00
6.500000000000000000e+02,-4.829727729667389613e-01,0.000000000000000000e+00
6.510000000000000000e+02,-2.900710728950645634e-01,0.000000000000000000e+00
6.520000000000000000e+02,-3.899651321267573745e-01,0.000000000000000000e+00
6.530000000000000000e+02,-4.269043693351805974e-02,0.000000000000000000e+00
6.540000000000000000e+02,-7.985765271311277835e-02,0.000000000000000000e+00
6.550000000000000000e+02,6.502224650882788837e-02,0.000000000000000000e+00
6.560000000000000000e+02,5.475403703557325530e-01,0.000000000000000000e+00
6.570000000000000000e+02,8.033066399575540251e-01,0.000000000000000000e+00
6.580000000000000000e+02,1.013206470807305415e+00,0.000000000000000000e+00
6.590000000000000000e+02,1.150106785693058242e+00,0.000000000000000000e+00
6.600000000000000000e+02,7.953762654318695668e-01,0.000000000000000000e+00
6.610000000000000000e+02,-1.209408789514074406e-01,0.000000000000000000e+00
6.620000000000000000e+02,-5.325281439108577874e-01,0.000000000000000000e+00
6.630000000000000000e+02,-1.369276640436529968e+00,0.000000000000000000e+00
6.640000000000000000e+02,-1.214458285196603926e+00,0.000000000000000000e+00
6.650000000000000000e+02,-1.347650627651902910e+00,0.000000000000000000e+00
6.660000000000000000e+02,-1.288786677655979318e+00,0.000000000000000000e+00
6.670000000000000000e+02,-8.994501920609695444e-01,0.000000000000000000e+00
6.680000000000000000e+02,-1.271802628410109159e+00,0.000000000000000000e+00
6.690000000000000000e+02,-7.731435673730610025e-01,0.000000000000000000e+00
6.700000000000000000e+02,-7.727545059583877940e-01,0.000000000000000000e+00
6.710000000000000000e+02,-7.188596028618342570e-01,0.000000000000000000e+00
6.720000000000000000e+02,-6.878783417391304278e-01,0.000000000000000000e+00
6.730000000000000000e+02,-5.637332870746736280e-01,0.000000000000000000e+00
6.740000000000000000e+02,-3.069235718725862871e-01,0.000000000000000000e+00
6.750000000000000000e+02,-3.779931204412073087e-01,0.000000000000000000e+00
6.760000000000000000e+02,-4.756077639280324454e-01,0.000000000000000000e+00
6.770000000000000000e+02,-2.398817998329772772e-01,0.000000000000000000e+00
6.780000000000000000e+02,-1.253839777950903067e-01,0.000000000000000000e+00
6.790000000000000000e+02,-2.254957046644305574e-01,0.000000000000000000e+00
6.800000000000000000e+02,-7.090279021573774043e-02,0.000000000000000000e+00
6.810000000000000000e+02,1.454140759494593031e-02,0.000000000000000000e+00
6.820000000000000000e+02,-1.010226547126253649e-01,0.000000000000000000e+00
6.830000000000000000e+02,2.254662517803088240e-01,0.000000000000000000e+00
6.840000000000000000e+02,3.902559676518083803e-02,0.000000000000000000e+00
6.850000000000000000e+02,2.380575777806099025e-01,0.000000000000000000e+00
6.860000000000000000e+02,1.767827945429402137e-01,0.000000000000000000e+00
6.870000000000000000e+02,1.110989054367978318e-01,0.000000000000000000e+00
6.880000000000000000e+02,2.769154647510922440e-01,0.000000000000000000e+00
6.890000000000000000e+02,2.695586894894939078e-01,0.000000000000000000e+00
6.900000000000000000e+02,2.829864986054416165e-01,0.000000000000000000e+00
6.910000000000000000e+02,4.919405522236506290e-01,0.000000000000000000e+00
6.920000000000000000e+02,5.489013132548392626e-01,0.000000000000000000e+00
6.930000000000000000e+02,7.802074870997388611e-01,0.000000000000000000e+00
6.940000000000000000e+02,4.983214481762232584e-01,0.000000000000000000e+00
6.950000000000000000e+02,7.007042926939630600e-01,0.000000000000000000e+00
6.960000000000000000e+02,3.446034358863013236e-01,0.000000000000000000e+00
6.970000000000000000e+02,2.760351750734862386e-01,0.000000000000000000e+00
6.980000000000000000e+02,3.128272344693942553e-01,0.000000000000000000e+00
6.990000000000000000e+02,3.210430701094198480e-01,0.000000000000000000e+00
7.000000000000000000e+02,3.102575061284148505e-01,0.000000000000000000e+00
7.010000000000000000e+02,3.463683386132641595e-01,0.000000000000000000e+00
7.020000000000000000e+02,3.722854108423840347e-01,0.000000000000000000e+00
7.030000000000000000e+02,4.015354115373400701e-01,0.000000000000000000e+00
7.040000000000000000e+02,1.648356867702320261e-01,0.000000000000000000e+00
7.050000000000000000e+02,3.356187079176940480e-01,0.000000000000000000e+00
7.060000000000000000e+02,-5.934277853409957171e-01,0.000000000000000000e+00
7.070000000000000000e+02,4.590130039851718635e+00,0.000000000000000000e+00
7.080000000000000000e+02,4.881954441520912624e+00,0.000000000000000000e+00
7.090000000000000000e+02,2.386674316765844406e-01,1.000000000000000000e+00
7.100000000000000000e+02,-5.943721207514507388e-02,0.000000000000000000e+00
7.110000000000000000e+02,-1.092656762822949101e+00,0.000000000000000000e+00
7.120000000000000000e+02,-6.134028990747895094e-01,0.000000000000000000e+00
7.130000000000000000e+02,-8.286778602880211508e-01,0.000000000000000000e+00
7.140000000000000000e+02,-7.394173324217300225e-01,0.000000000000000000e+00
7.150000000000000000e+02,-7.739271507853803245e-01,0.000000000000000000e+00
7.160000000000000000e+02,-5.424807563460060100e-01,0.000000000000000000e+00
7.170000000000000000e+02,-4.699537944445704163e-01,0.000000000000000000e+00
7.180000000000000000e+02,-3.687139743638308542e-01,0.000000000000000000e+00
7.190000000000000000e+02,-3.350287193430614985e-01,0.000000000000000000e+00
7.200000000000000000e+02,-8.364131990351317270e-02,0.000000000000000000e+00
7.210000000000000000e+02,-1.319319454735208286e-01,0.000000000000000000e+00
7.220000000000000000e+02,2.097289360924327328e-01,0.000000000000000000e+00
7.230000000000000000e+02,4.306136895744807069e-01,0.000000000000000000e+00
7.240000000000000000e+02,8.173789942004624498e-01,0.000000000000000000e+00
7.250000000000000000e+02,9.229895702391083256e-01,0.000000000000000000e+00
7.260000000000000000e+02,7.969070002492905092e-01,0.000000000000000000e+00
7.270000000000000000e+02,1.267032427810959871e-01,0.000000000000000000e+00
7.280000000000000000e+02,-4.138772662299006200e-01,0.000000000000000000e+00
7.290000000000000000e+02,-8.792612373854864494e-01,0.000000000000000000e+00
7.300000000000000000e+02,-8.780724034207463280e-01,0.000000000000000000e+00
7.310000000000000000e+02,-1.234925506913596038e+00,0.000000000000000000e+00
7.320000000000000000e+02,-1.050434709337576544e+00,0.000000000000000000e+00
7.330000000000000000e+02,-1.060291375510383327e+00,0.000000000000000000e+00
7.340000000000000000e+02,-8.253730428233149174e-01,0.000000000000000000e+00
7.350000000000000000e+02,-8.028317927402985887e-01,0.000000000000000000e+00
7.360000000000000000e+02,-7.334963516024456398e-01,0.000000000000000000e+00
7.370000000000000000e+02,-6.392647602948066110e-01,0.000000000000000000e+00
7.380000000000000000e+02,-5.673013089704386225e-01,0.000000000000000000e+00
7.390000000000000000e+02,-4.803978802329951225e-01,0.000000000000000000e+00
7.400000000000000000e+02,-4.658849958517055634e-01,0.000000000000000000e+00
7.410000000000000000e+02,-5.094759170273002180e-01,0.000000000000000000e+00
7.420000000000000000e+02,-3.702422748394050833e-01,0.000000000000000000e+00
7.430000000000000000e+02,-2.463553683055445531e-01,0.000000000000000000e+00
7.440000000000000000e+02,-2.860065308197808909e-01,0.000000000000000000e+00
7.450000000000000000e+02,-1.710655187619651574e-01,0.000000000000000000e+00
7.460000000000000000e+02,-1.209258384052902119e-01,0.000000000000000000e+00
7.470000000000000000e+02,3.597349379035952310e-02,0.000000000000000000e+00
7.480000000000000000e+02,-7.227410900164178698e-02,0.000000000000000000e+00
7.490000000000000000e+02,3.066734525398721531e-02,0.000000000000000000e+00
7.500000000000000000e+02,2.809364750948346034e-01,0.000000000000000000e+00
7.510000000000000000e+02,-1.921622005286644785e-01,0.000000000000000000e+00
7.520000000000000000e+02,1.789450650447016455e-01,0.000000000000000000e+00
7.530000000000000000e+02,1.762495441757548909e-01,0.000000000000000000e+00
7.540000000000000000e+02,7.632182516028586383e-02,0.000000000000000000e+00
7.550000000000000000e+02,1.500847331385547490e-01,0.000000000000000000e+00
7.560000000000000000e+02,1.018147636703822106e-01,0.000000000000000000e+00
7.570000000000000000e+02,4.165383025388253446e-01,0.000000000000000000e+00
7.580000000000000000e+02,2.660601475596990895e-01,0.000000000000000000e+00
7.590000000000000000e+02,6.042294788765081304e-01,0.000000000000000000e+00
7.600000000000000000e+02,3.294812030170205519e-01,0.000000000000000000e+00
7.610000000000000000e+02,3.780229772814297506e-01,0.000000000000000000e+00
7.620000000000000000e+02,2.744273936055993679e-01,0.000000000000000000e+00
7.630000000000000000e+02,5.680792380279624937e-02,0.000000000000000000e+00
7.640000000000000000e+02,6.070810533195299119e-02,0.000000000000000000e+00
7.650000000000000000e+02,2.436167821634168673e-01,0.000000000000000000e+00
7.660000000000000000e+02,1.777067250358550787e-01,0.000000000000000000e+00
7.670000000000000000e+02,1.167835836239469738e-01,0.000000000000000000e+00
7.680000000000000000e+02,2.151211720649572057e-01,0.000000000000000000e+00
7.690000000000000000e+02,2.410490205450758483e-01,0.000000000000000000e+00
7.700000000000000000e+02,6.155060754151646385e-02,0.000000000000000000e+00
7.710000000000000000e+02,2.571850112615128303e-01,0.000000000000000000e+00
7.720000000000000000e+02,-7.841083603014589176e-01,0.000000000000000000e+00
7.730000000000000000e+02,3.382330057610406726e+00,0.000000000000000000e+00
7.740000000000000000e+02,5.653761327008560045e+00,0.000000000000000000e+00
7.750000000000000000e+02,6.650061123731623169e-01,1.000000000000000000e+00
7.760000000000000000e+02,-1.878898538824352316e-01,0.000000000000000000e+00
7.770000000000000000e+02,-1.138135141538390016e+00,0.000000000000000000e+00
7.780000000000000000e+02,-1.027717584974918053e+00,0.000000000000000000e+00
7.790000000000000000e+02,-1.105438198123441129e+00,0.000000000000000000e+00
7.800000000000000000e+02,-6.342187049510130681e-01,0.000000000000000000e+00
7.810000000000000000e+02,-9.207539548524308337e-01,0.000000000000000000e+00
7.820000000000000000e+02,-7.478554756714732576e-01,0.000000000000000000e+00
7.830000000000000000e+02,-5.340594084981173939e-01,0.000000000000000000e+00
7.840000000000000000e+02,-4.432010291891335108e-01,0.000000000000000000e+00
7.850000000000000000e+02,-5.845196069960962859e-01,0.000000000000000000e+00
7.860000000000000000e+02,6.057167553882880986e-03,0.000000000000000000e+00
7.870000000000000000e+02,-1.295423836422944230e-01,0.000000000000000000e+00
7.880000000000000000e+02,1.312151155081897058e-01,0.000000000000000000e+00
7.890000000000000000e+02,3.612573685240879073e-01,0.000000000000000000e+00
7.900000000000000000e+02,8.486437542336501272e-01,0.000000000000000000e+00
7.910000000000000000e+02,1.096190457064802226e+00,0.000000000000000000e+00
7.920000000000000000e+02,9.090710452507551054e-01,0.000000000000000000e+00
7.930000000000000000e+02,3.073582499706865589e-01,0.000000000000000000e+00
7.940000000000000000e+02,-1.628369398274397417e-01,0.000000000000000000e+00
7.950000000000000000e+02,-8.981654745090885683e-01,0.000000000000000000e+00
7.960000000000000000e+02,-1.000078251023804654e+00,0.000000000000000000e+00
7.970000000000000000e+02,-1.120789632627761545e+00,0.000000000000000000e+00
7.980000000000000000e+02,-1.088126075038844620e+00,0.000000000000000000e+00
7.990000000000000000e+02,-9.124850852366653831e-01,0.000000000000000000e+00
8.000000000000000000e+02,-9.411989131288061028e-01,0.000000000000000000e+00
8.010000000000000000e+02,-9.937902522464818755e-01,0.000000000000000000e+00
8.020000000000000000e+02,-4.696598793523430460e-01,0.000000000000000000e+00
8.030000000000000000e+02,-7.631207233506107634e-01,0.000000000000000000e+00
8.040000000000000000e+02,-4.061865443698389200e-01,0.000000000000000000e+00
8.050000000000000000e+02,-6.134176551579675341e-01,0.000000000000000000e+00
8.060000000000000000e+02,-4.365707793538470827e-01,0.000000000000000000e+00
8.070000000000000000e+02,-4.295886790318395598e-01,0.000000000000000000e+00
8.080000000000000000e+02,-3.107162298555292135e-01,0.000000000000000000e+00
8.090000000000000000e+02,-5.511520471299053980e-01,0.000000000000000000e+00
8.100000000000000000e+02,-1.096207587969273839e-01,0.000000000000000000e+00
8.110000000000000000e+02,-2.064440358483884408e-01,0.000000000000000000e+00
8.120000000000000000e+02,-1.227947795418421195e-01,0.000000000000000000e+00
8.130000000000000000e+02,-3.677603102084342490e-02,0.000000000000000000e+00
8.140000000000000000e+02,6.960508280776090545e-03,0.000000000000000000e+00
8.150000000000000000e+02,9.587110495349203398e-02,0.000000000000000000e+00
8.160000000000000000e+02,8.571539450853704611e-02,0.000000000000000000e+00
8.170000000000000000e+02,1.857420274512192396e-02,0.000000000000000000e+00
8.180000000000000000e+02,7.754499859217847679e-02,0.000000000000000000e+00
8.190000000000000000e+02,1.183692606698101141e-01,0.000000000000000000e+00
8.200000000000000000e+02,1.692506282533713657e-01,0.000000000000000000e+00
8.210000000000000000e+02,3.069833505997463519e-01,0.000000000000000000e+00
8.220000000000000000e+02,3.149071232999742231e-01,0.000000000000000000e+00
8.230000000000000000e+02,2.384556446627291992e-01,0.000000000000000000e+00
8.240000000000000000e+02,4.299748350752868875e-01,0.000000000000000000e+00
8.250000000000000000e+02,5.270848953576844353e-01,0.000000000000000000e+00
8.260000000000000000e+02,4.695068719961657533e-01,0.000000000000000000e+00
8.270000000000000000e+02,3.645829174274701212e-01,0.000000000000000000e+00
8.280000000000000000e+02,4.993606585314639412e-01,0.000000000000000000e+00
8.290000000000000000e+02,1.282561242508716004e-01,0.000000000000000000e+00
8.300000000000000000e+02,7.833327712065914217e-02,0.000000000000000000e+00
8.310000000000000000e+02,1.389301332842804160e-01,0.000000000000000000e+00
8.320000000000000000e+02,7.554843672047005521e-02,0.000000000000000000e+00
8.330000000000000000e+02,2.340172358165985567e-01,0.000000000000000000e+00
8.340000000000000000e+02,1.634873184474176233e-01,0.000000000000000000e+00
8.350000000000000000e+02,-4.820374158287203323e-03,0.000000000000000000e+00
8.360000000000000000e+02,1.823611786348891539e-01,0.000000000000000000e+00
8.370000000000000000e+02,1.429340793015188293e-01,0.000000000000000000e+00
8.380000000000000000e+02,-2.726472331571758723e-01,0.000000000000000000e+00
8.390000000000000000e+02,-7.912511643124521543e-02,0.000000000000000000e+00
8.400000000000000000e+02,5.948215460166230706e+00,0.000000000000000000e+00
8.410000000000000000e+02,3.604397474546219726e+00,1.000000000000000000e+00
8.420000000000000000e+02,-1.299695295415444207e-01,0.000000000000000000e+00
8.430000000000000000e+02,-4.921269045317729907e-01,0.000000000000000000e+00
8.440000000000000000e+02,-1.013250724748041565e+00,0.000000000000000000e+00
8.450000000000000000e+02,-9.357303042260100012e-01,0.000000000000000000e+00
8.460000000000000000e+02,-9.591597468826261741e-01,0.000000000000000000e+00
8.470000000000000000e+02,-6.684217934804831396e-01,0.000000000000000000e+00
8.480000000000000000e+02,-9.223339408656289207e-01,0.000000000000000000e+00
8.490000000000000000e+02,-4.866534882156611785e-01,0.000000000000000000e+00
8.500000000000000000e+02,-4.258892376878675168e-01,0.000000000000000000e+00
8.510000000000000000e+02,-4.517709377641411783e-01,0.000000000000000000e+00
8.520000000000000000e+02,-2.037150003108489926e-01,0.000000000000000000e+00
8.530000000000000000e+02,-9.871220198645939969e-02,0.000000000000000000e+00
8.540000000000000000e+02,2.107205681526671051e-03,0.000000000000000000e+00
8.550000000000000000e+02,2.580449591294783906e-01,0.000000000000000000e+00
8.560000000000000000e+02,5.212267461696767912e-01,0.000000000000000000e+00
8.570000000000000000e+02,1.126485809629960144e+00,0.000000000000000000e+00
8.580000000000000000e+02,9.360085117689289635e-01,0.000000000000000000e+00
8.590000000000000000e+02,7.210218171831322964e-01,0.000000000000000000e+00
8.600000000000000000e+02,6.380786285708220373e-02,0.000000000000000000e+00
8.610000000000000000e+02,-6.082634955998247328e-01,0.000000000000000000e+00
8.620000000000000000e+02,-9.853762994698226363e-01,0.000000000000000000e+00
8.630000000000000000e+02,-1.099296268447974123e+00,0.000000000000000000e+00
8.640000000000000000e+02,-1.203673530018537940e+00,0.000000000000000000e+00
8.650000000000000000e+02,-1.170616742417700085e+00,0.000000000000000000e+00
8.660000000000000000e+02,-8.176574139199270785e-01,0.000000000000000000e+00
8.670000000000000000e+02,-1.098247358946702334e+00,0.000000000000000000e+00
8.680000000000000000e+02,-5.364100475269008017e-01,0.000000000000000000e+00
8.690000000000000000e+02,-5.840968759935996069e-01,0.000000000000000000e+00
8.700000000000000000e+02,-7.838506836567795677e-01,0.000000000000000000e+00
8.710000000000000000e+02,-2.840160814815288481e-01,0.000000000000000000e+00
8.720000000000000000e+02,-4.841026868998759558e-01,0.000000000000000000e+00
8.730000000000000000e+02,-3.677217441467124370e-01,0.000000000000000000e+00
8.740000000000000000e+02,-1.767343038780025133e-01,0.000000000000000000e+00
8.750000000000000000e+02,-3.035142679243326147e-01,0.000000000000000000e+00
8.760000000000000000e+02,-3.394162056407895034e-01,0.000000000000000000e+00
8.770000000000000000e+02,1.564191570394734415e-02,0.000000000000000000e+00
8.780000000000000000e+02,-1.297191802764847413e-01,0.000000000000000000e+00
8.790000000000000000e+02,3.916771259513601028e-02,0.000000000000000000e+00
8.800000000000000000e+02,-3.218097240537181464e-02,0.000000000000000000e+00
8.810000000000000000e+02,2.192804248029553704e-01,0.000000000000000000e+00
8.820000000000000000e+02,1.393195003699240486e-01,0.000000000000000000e+00
8.830000000000000000e+02,7.007624577984898628e-02,0.000000000000000000e+00
8.840000000000000000e+02,2.441754803425732478e-01,0.000000000000000000e+00
8.850000000000000000e+02,1.507969101401685219e-01,0.000000000000000000e+00
8.860000000000000000e+02,2.442571969925077247e-01,0.000000000000000000e+00
8.870000000000000000e+02,3.977533236889402857e-01,0.000000000000000000e+00
8.880000000000000000e+02,2.119271884548391272e-01,0.000000000000000000e+00
8.890000000000000000e+02,3.899934791610569218e-01,0.000000000000000000e+00
8.900000000000000000e+02,4.950422026636197570e-01,0.000000000000000000e+00
8.910000000000000000e+02,4.804647873036911321e-01,0.000000000000000000e+00
8.920000000000000000e+02,5.386088674085834915e-01,0.000000000000000000e+00
8.930000000000000000e+02,4.873971844320998947e-01,0.000000000000000000e+00
8.940000000000000000e+02,6.674177692155570663e-01,0.000000000000000000e+00
8.950000000000000000e+02,3.663030813576316769e-01,0.000000000000000000e+00
8.960000000000000000e+02,2.531522141076190668e-01,0.000000000000000000e+00
8.970000000000000000e+02,3.880217323619962744e-01,0.000000000000000000e+00
8.980000000000000000e+02,1.998118356623135305e-01,0.000000000000000000e+00
8.990000000000000000e+02,3.383186437472588959e-01,0.000000000000000000e+00
9.000000000000000000e+02,1.931582623659760800e-01,0.000000000000000000e+00
9.010000000000000000e+02,2.453708194227317285e-01,0.000000000000000000e+00
9.020000000000000000e+02,2.810673626783358747e-01,0.000000000000000000e+00
9.030000000000000000e+02,1.245848738284777574e-01,0.000000000000000000e+00
9.040000000000000000e+02,3.870168482651236141e-01,0.000000000000000000e+00
9.050000000000000000e+02,-2.728754708891453218e-01,0.000000000000000000e+00
9.060000000000000000e+02,1.182852055932813506e+00,0.000000000000000000e+00
9.070000000000000000e+02,6.989668474433051948e+00,0.000000000000000000e+00
9.080000000000000000e+02,2.467427190644111423e+00,1.000000000000000000e+00
9.090000000000000000e+02,-4.313467772276228795e-01,0.000000000000000000e+00
9.100000000000000000e+02,-9.302583519457134908e-01,0.000000000000000000e+00
9.110000000000000000e+02,-8.955316965484958480e-01,0.000000000000000000e+00
9.120000000000000000e+02,-8.293738775763689342e-01,0.000000000000000000e+00
9.130000000000000000e+02,-8.482248580996487597e-01,0.000000000000000000e+00
9.140000000000000000e+02,-7.541164732388775382e-01,0.000000000000000000e+00
9.150000000000000000e+02,-6.175439645428588697e-01,0.000000000000000000e+00
9.160000000000000000e+02,-6.662406652983852151e-01,0.000000000000000000e+00
9.170000000000000000e+02,-2.223439791179354363e-01,0.000000000000000000e+00
9.180000000000000000e+02,-4.182056891910388985e-01,0.000000000000000000e+00
9.190000000000000000e+02,-3.235156551570388395e-01,0.000000000000000000e+00
9.200000000000000000e+02,-1.127451619619318501e-02,0.000000000000000000e+00
9.210000000000000000e+02,8.248409984754477564e-03,0.000000000000000000e+00
9.220000000000000000e+02,6.103782883567937523e-01,0.000000000000000000e+00
9.230000000000000000e+02,8.556369748020445920e-01,0.000000000000000000e+00
9.240000000000000000e+02,1.266168416056345558e+00,0.000000000000000000e+00
9.250000000000000000e+02,1.094542119823167736e+00,0.000000000000000000e+00
9.260000000000000000e+02,5.006069740343881413e-01,0.000000000000000000e+00
9.270000000000000000e+02,-2.014825848160636812e-01,0.000000000000000000e+00
9.280000000000000000e+02,-9.860187048840581836e-01,0.000000000000000000e+00
9.290000000000000000e+02,-1.342070043433351456e+00,0.000000000000000000e+00
9.300000000000000000e+02,-1.322821292907498281e+00,0.000000000000000000e+00
9.310000000000000000e+02,-1.218069599417789250e+00,0.000000000000000000e+00
9.320000000000000000e+02,-1.352342287484052274e+00,0.000000000000000000e+00
9.330000000000000000e+02,-1.163826246241527418e+00,0.000000000000000000e+00
9.340000000000000000e+02,-9.355327200850047653e-01,0.000000000000000000e+00
9.350000000000000000e+02,-9.223402487305948361e-01,0.000000000000000000e+00
9.360000000000000000e+02,-7.587472110023218974e-01,0.000000000000000000e+00
9.370000000000000000e+02,-6.365172997048241799e-01,0.000000000000000000e+00
9.380000000000000000e+02,-8.151221334593292678e-01,0.000000000000000000e+00
9.390000000000000000e+02,-4.940715073793797152e-01,0.000000000000000000e+00
9.400000000000000000e+02,-6.881907142463830063e-01,0.000000000000000000e+00
9.410000000000000000e+02,-4.259201523650854582e-01,0.000000000000000000e+00
9.420000000000000000e+02,-3.798593774905271170e-01,0.000000000000000000e+00
9.430000000000000000e+02,-4.813467504275277253e-01,0.000000000000000000e+00
9.440000000000000000e+02,-3.516215304959049437e-01,0.000000000000000000e+00
9.450000000000000000e+02,-1.353239722006039647e-01,0.000000000000000000e+00
9.460000000000000000e+02,-3.084458039161314113e-01,0.000000000000000000e+00
9.470000000000000000e+02,-4.432607908606615577e-01,0.000000000000000000e+00
9.480000000000000000e+02,-7.205561095527086846e-02,0.000000000000000000e+00
9.490000000000000000e+02,-1.733213063145002952e-01,0.000000000000000000e+00
9.500000000000000000e+02,4.753920311793031345e-02,0.000000000000000000e+00
9.510000000000000000e+02,-3.123331872726160460e-03,0.000000000000000000e+00
9.520000000000000000e+02,-7.272663306985509279e-02,0.000000000000000000e+00
9.530000000000000000e+02,7.233295337463052643e-02,0.000000000000000000e+00
9.540000000000000000e+02,3.483799412104589960e-02,0.000000000000000000e+00
9.550000000000000000e+02,2.482794889687381656e-01,0.000000000000000000e+00
9.560000000000000000e+02,1.658414882978607174e-01,0.000000000000000000e+00
9.570000000000000000e+02,5.107109528126819731e-01,0.000000000000000000e+00
9.580000000000000000e+02,2.803292783766923035e-01,0.000000000000000000e+00
9.590000000000000000e+02,3.619939906735426538e-01,0.000000000000000000e+00
9.600000000000000000e+02,-1.040855612418751797e-01,0.000000000000000000e+00
9.610000000000000000e+02,3.584133081731407100e-01,0.000000000000000000e+00
9.620000000000000000e+02,2.014488704336949709e-01,0.000000000000000000e+00
9.630000000000000000e+02,1.979383815622177412e-01,0.000000000000000000e+00
9.640000000000000000e+02,5.110554068508084413e-02,0.000000000000000000e+00
9.650000000000000000e+02,7.302959246387531744e-02,0.000000000000000000e+00
9.660000000000000000e+02,1.558036828258257400e-01,0.000000000000000000e+00
9.670000000000000000e+02,7.431206770341070023e-02,0.000000000000000000e+00
9.680000000000000000e+02,4.537641704376128016e-01,0.000000000000000000e+00
9.690000000000000000e+02,1.019530450630631302e-01,0.000000000000000000e+00
9.700000000000000000e+02,3.837476011627698191e-02,0.000000000000000000e+00
9.710000000000000000e+02,5.659182732073136712e+00,0.000000000000000000e+00
9.720000000000000000e+02,3.520868872647498371e+00,1.000000000000000000e+00
9.730000000000000000e+02,-4.037370980025195011e-01,0.000000000000000000e+00
9.740000000000000000e+02,-3.155099358580888413e-01,0.000000000000000000e+00
9.750000000000000000e+02,-8.838415733112048311e-01,0.000000000000000000e+00
9.760000000000000000e+02,-8.079483980979004221e-01,0.000000000000000000e+00
9.770000000000000000e+02,-4.893077595745643493e-01,0.000000000000000000e+00
9.780000000000000000e+02,-5.135545623534594206e-01,0.000000000000000000e+00
9.790000000000000000e+02,-3.278486820824482728e-01,0.000000000000000000e+00
9.800000000000000000e+02,-3.371634958914909719e-01,0.000000000000000000e+00
9.810000000000000000e+02,-1.853854552463415351e-01,0.000000000000000000e+00
9.820000000000000000e+02,-2.141944622104307028e-01,0.000000000000000000e+00
9.830000000000000000e+02,1.160457966442448030e-01,0.000000000000000000e+00
9.840000000000000000e+02,2.641539071747747366e-02,0.000000000000000000e+00
9.850000000000000000e+02,2.854299823797021851e-01,0.000000000000000000e+00
9.860000000000000000e+02,3.065927295017629728e-01,0.000000000000000000e+00
9.870000000000000000e+02,1.020500420178735101e+00,0.000000000000000000e+00
9.880000000000000000e+02,1.197552990348815127e+00,0.000000000000000000e+00
9.890000000000000000e+02,1.264365437630968092e+00,0.000000000000000000e+00
9.900000000000000000e+02,9.619297146289913503e-01,0.000000000000000000e+00
9.910000000000000000e+02,-6.057643194403082576e-02,0.000000000000000000e+00
9.920000000000000000e+02,-7.007265937198167149e-01,0.000000000000000000e+00
9.930000000000000000e+02,-8.900925032390386571e-01,0.000000000000000000e+00
9.940000000000000000e+02,-1.379135547605675916e+00,0.000000000000000000e+00
9.950000000000000000e+02,-1.007889386814417199e+00,0.000000000000000000e+00
9.960000000000000000e+02,-1.031941431361824923e+00,0.000000000000000000e+00
9.970000000000000000e+02,-1.014316911936472110e+00,0.000000000000000000e+00
9.980000000000000000e+02,-6.411477704669537037e-01,0.000000000000000000e+00
9.990000000000000000e+02,-8.885497234794150767e-01,0.000000000000000000e+00
1.000000000000000000e+03,-4.853499339218202979e-01,0.000000000000000000e+00
1.001000000000000000e+03,-5.408538025076290445e-01,0.000000000000000000e+00
1.002000000000000000e+03,-5.786521493934133620e-01,0.000000000000000000e+00
1.003000000000000000e+03,-4.904300645227023248e-01,0.000000000000000000e+00
1.004000000000000000e+03,-3.629452370188511190e-01,0.000000000000000000e+00
1.005000000000000000e+03,-3.605045559856766557e-01,0.000000000000000000e+00
1.006000000000000000e+03,-2.525523156529468349e-01,0.000000000000000000e+00
1.007000000000000000e+03,-2.025353787762818603e-01,0.000000000000000000e+00
1.008000000000000000e+03,-3.486295274654644394e-01,0.000000000000000000e+00
1.009000000000000000e+03,4.334585632160725677e-02,0.000000000000000000e+00
1.010000000000000000e+03,-2.091559922891917667e-01,0.000000000000000000e+00
1.011000000000000000e+03,-1.629182274903233918e-01,0.000000000000000000e+00
1.012000000000000000e+03,-8.305728558946676165e-02,0.000000000000000000e+00
1.013000000000000000e+03,1.190183576858065972e-01,0.000000000000000000e+00
1.014000000000000000e+03,-4.523085981048179105e-02,0.000000000000000000e+00
1.015000000000000000e+03,-2.916288137351830817e-02,0.000000000000000000e+00
1.016000000000000000e+03,1.386492443521365192e-01,0.000000000000000000e+00
1.017000000000000000e+03,6.764975033220740896e-02,0.000000000000000000e+00
1.018000000000000000e+03,7.305480222884483399e-02,0.000000000000000000e+00
1.019000000000000000e+03,3.382049209013646140e-01,0.000000000000000000e+00
1.020000000000000000e+03,8.893793124789804716e-02,0.000000000000000000e+00
1.021000000000000000e+03,3.399343128196064545e-01,0.000000000000000000e+00
1.022000000000000000e+03,4.482259545837835590e-01,0.000000000000000000e+00
1.023000000000000000e+03,3.976228502210296112e-01,0.000000000000000000e+00
1.024000000000000000e+03,2.127493194963266665e-01,0.000000000000000000e+00
1.025000000000000000e+03,3.069687837331949720e-01,0.000000000000000000e+00
1.026000000000000000e+03,4.403148852592438794e-02,0.000000000000000000e+00
1.027000000000000000e+03,1.656101896993987799e-01,0.000000000000000000e+00
1.028000000000000000e+03,3.486692488946989132e-01,0.000000000000000000e+00
1.029000000000000000e+03,9.111197391790726297e-03,0.000000000000000000e+00
1.030000000000000000e+03,4.514415767005222624e-02,0.000000000000000000e+00
1.031000000000000000e+03,4.354003054200706879e-01,0.000000000000000000e+00
1.032000000000000000e+03,3.599587183834429549e-02,0.000000000000000000e+00
1.033000000000000000e+03,5.356616694551877833e-01,0.000000000000000000e+00
1.034000000000000000e+03,-5.297609882472532616e-01,0.000000000000000000e+00
1.035000000000000000e+03,1.690288019726802871e+00,0.000000000000000000e+00
1.036000000000000000e+03,6.148475532502478025e+00,0.000000000000000000e+00
1.037000000000000000e+03,1.495294844518608057e+00,1.000000000000000000e+00
1.038000000000000000e+03,4.641704340240739718e-02,0.000000000000000000e+00
1.039000000000000000e+03,-8.109787888835454650e-01,0.000000000000000000e+00
1.040000000000000000e+03,-8.294560257714685969e-01,0.000000000000000000e+00
1.041000000000000000e+03,-6.422741029172449601e-01,0.000000000000000000e+00
1.042000000000000000e+03,-5.193093845394848307e-01,0.000000000000000000e+00
1.043000000000000000e+03,-6.764867836240544552e-01,0.000000000000000000e+00
1.044000000000000000e+03,-2.002580323405341589e-01,0.000000000000000000e+00
1.045000000000000000e+03,-3.175219974105038534e-01,0.000000000000000000e+00
1.046000000000000000e+03,-1.050308015477308815e-01,0.000000000000000000e+00
1.047000000000000000e+03,-2.354294209258881720e-01,0.000000000000000000e+00
1.048000000000000000e+03,1.051324741119849700e-02,0.000000000000000000e+00
1.049000000000000000e+03,-1.224350248748046349e-01,0.000000000000000000e+00
1.050000000000000000e+03,5.615610332430157614e-01,0.000000000000000000e+00
1.051000000000000000e+03,5.733101386605291561e-01,0.000000000000000000e+00
1.052000000000000000e+03,1.084504610446505257e+00,0.000000000000000000e+00
1.053000000000000000e+03,1.276122150819097856e+00,0.000000000000000000e+00
1.054000000000000000e+03,1.231476630388978810e+00,0.000000000000000000e+00
1.055000000000000000e+03,6.360011385891634061e-01,0.000000000000000000e+00
1.056000000000000000e+03,-4.405128139426838646e-02,0.000000000000000000e+00
1.057000000000000000e+03,-4.933453007244818500e-01,0.000000000000000000e+00
1.058000000000000000e+03,-7.785869211871305762e-01,0.000000000000000000e+00
1.059000000000000000e+03,-8.003315305314958605e-01,0.000000000000000000e+00
1.060000000000000000e+03,-7.673311109045379830e-01,0.000000000000000000e+00
1.061000000000000000e+03,-9.223840229358823972e-01,0.000000000000000000e+00
1.062000000000000000e+03,-5.921042066602674181e-01,0.000000000000000000e+00
1.063000000000000000e+03,-6.976627740536121003e-01,0.000000000000000000e+00
1.064000000000000000e+03,-5.616417018439494591e-01,0.000000000000000000e+00
1.065000000000000000e+03,-5.684576459630119594e-01,0.000000000000000000e+00
1.066000000000000000e+03,-5.377518103443138520e-01,0.000000000000000000e+00
1.067000000000000000e+03,-3.215540824940659737e-01,0.000000000000000000e+00
1.068000000000000000e+03,-6.104072355964196284e-01,0.000000000000000000e+00
1.069000000000000000e+03,-1.701297399806764032e-01,0.000000000000000000e+00
1.070000000000000000e+03,-3.211512003915554248e-01,0.000000000000000000e+00
1.071000000000000000e+03,-2.058675528896508622e-01,0.000000000000000000e+00
1.072000000000000000e+03,-3.354167921297940280e-01,0.000000000000000000e+00
1.073000000000000000e+03,-1.810114291997252101e-01,0.000000000000000000e+00
1.074000000000000000e+03,-2.317486849527468917e-01,0.000000000000000000e+00
1.075000000000000000e+03,-1.645433946576173589e-01,0.000000000000000000e+00
1.076000000000000000e+03,-8.601683323065320574e-02,0.000000000000000000e+00
1.077000000000000000e+03,-5.248915114714858970e-02,0.000000000000000000e+00
1.078000000000000000e+03,1.139404737685455610e-01,0.000000000000000000e+00
1.079000000000000000e+03,-1.088663551722727912e-01,0.000000000000000000e+00
1.080000000000000000e+03,-4.186113839126316682e-02,0.000000000000000000e+00
1.081000000000000000e+03,1.504972768801197680e-01,0.000000000000000000e+00
1.082000000000000000e+03,4.007090741738239537e-02,0.000000000000000000e+00
1.083000000000000000e+03,-4.562677078875736897e-02,0.000000000000000000e+00
1.084000000000000000e+03,9.086431550875975760e-02,0.000000000000000000e+00
1.085000000000000000e+03,4.325865501653002737e-02,0.000000000000000000e+00
1.086000000000000000e+03,2.044473565409578031e-01,0.000000000000000000e+00
1.087000000000000000e+03,5.723125848332040189e-01,0.000000000000000000e+00
1.088000000000000000e+03,8.367697970636779614e-02,0.000000000000000000e+00
1.089000000000000000e+03,3.336168786968458089e-01,0.000000000000000000e+00
1.090000000000000000e+03,-9.359854269303774510e-03,0.000000000000000000e+00
1.091000000000000000e+03,-7.756530229995259318e-02,0.000000000000000000e+00
1.092000000000000000e+03,5.927102785746381653e-04,0.000000000000000000e+00
1.093000000000000000e+03,-7.685269249196793884e-02,0.000000000000000000e+00
1.094000000000000000e+03,-2.396755713139679944e-01,0.000000000000000000e+00
1.095000000000000000e+03,6.090672383975821030e-02,0.000000000000000000e+00
1.096000000000000000e+03,-1.199272744624028803e-01,0.000000000000000000e+00
1.097000000000000000e+03,8.568130384118960441e-02,0.000000000000000000e+00
1.098000000000000000e+03,1.769903099723026466e-02,0.000000000000000000e+00
1.099000000000000000e+03,-2.361392521026010050e-01,0.000000000000000000e+00
1.100000000000000000e+03,-5.113429951985583033e-01,0.000000000000000000e+00
1.101000000000000000e+03,4.886555172363856059e+00,0.000000000000000000e+00
1.102000000000000000e+03,3.570265885784183801e+00,1.000000000000000000e+00
1.103000000000000000e+03,-1.593797879393870354e-01,0.000000000000000000e+00
1.104000000000000000e+03,-6.089892156027949532e-01,0.000000000000000000e+00
1.105000000000000000e+03,-1.389188497290826385e+00,0.000000000000000000e+00
1.106000000000000000e+03,-9.209635409552930918e-01,0.000000000000000000e+00
1.107000000000000000e+03,-1.062082696662147940e+00,0.000000000000000000e+00
1.108000000000000000e+03,-9.799838037351656927e-01,0.000000000000000000e+00
1.109000000000000000e+03,-7.349046725063703711e-01,0.000000000000000000e+00
1.110000000000000000e+03,-9.105884559714322313e-01,0.000000000000000000e+00
1.111000000000000000e+03,-8.076884537488425719e-01,0.000000000000000000e+00
1.112000000000000000e+03,-4.495436152985817224e-01,0.000000000000000000e+00
1.113000000000000000e+03,-6.096949689987901655e-01,0.000000000000000000e+00
1.114000000000000000e+03,-2.206379165579991086e-01,0.000000000000000000e+00
1.115000000000000000e+03,2.314346626269459580e-03,0.000000000000000000e+00
1.116000000000000000e+03,7.213515223338333449e-02,0.000000000000000000e+00
1.117000000000000000e+03,4.240038500840238034e-01,0.000000000000000000e+00
1.118000000000000000e+03,9.943666250132199291e-01,0.000000000000000000e+00
1.119000000000000000e+03,9.079217166389633720e-01,0.000000000000000000e+00
1.120000000000000000e+03,6.275120563493704617e-01,0.000000000000000000e+00
1.121000000000000000e+03,7.484395051015875489e-02,0.000000000000000000e+00
1.122000000000000000e+03,-5.050993792043960706e-01,0.000000000000000000e+00
1.123000000000000000e+03,-9.656315190807611692e-01,0.000000000000000000e+00
1.124000000000000000e+03,-9.863722442267205404e-01,0.000000000000000000e+00
1.125000000000000000e+03,-9.391237100916866032e-01,0.000000000000000000e+00
1.126000000000000000e+03,-9.216993643739216369e-01,0.000000000000000000e+00
1.127000000000000000e+03,-7.560117076928877244e-01,0.000000000000000000e+00
1.128000000000000000e+03,-8.530688172544726999e-01,0.000000000000000000e+00
1.129000000000000000e+03,-5.926559043247979774e-01,0.000000000000000000e+00
1.130000000000000000e+03,-6.213627680161278866e-01,0.000000000000000000e+00
1.131000000000000000e+03,-6.933920324007724068e-01,0.000000000000000000e+00
1.132000000000000000e+03,-4.580360905667404392e-01,0.000000000000000000e+00
1.133000000000000000e+03,-4.203089544397995425e-01,0.000000000000000000e+00
1.134000000000000000e+03,-4.520236672646908982e-01,0.000000000000000000e+00
1.135000000000000000e+03,-1.742569586676446236e-01,0.000000000000000000e+00
1.136000000000000000e+03,-1.858913357977193814e-01,0.000000000000000000e+00
1.137000000000000000e+03,-1.123241905109197969e-01,0.000000000000000000e+00
1.138000000000000000e+03,-1.395670493824080483e-01,0.000000000000000000e+00
1.139000000000000000e+03,-2.000143580578057356e-01,0.000000000000000000e+00
1.140000000000000000e+03,-8.839086072173539532e-02,0.000000000000000000e+00
1.141000000000000000e+03,-2.615419036382456847e-02,0.000000000000000000e+00
1.142000000000000000e+03,3.381720166297041974e-02,0.000000000000000000e+00
1.143000000000000000e+03,1.437077998804463241e-01,0.000000000000000000e+00
1.144000000000000000e+03,1.369507835562823739e-01,0.000000000000000000e+00
1.145000000000000000e+03,1.287241728514441352e-01,0.000000000000000000e+00
1.146000000000000000e+03,3.199067697389917919e-01,0.000000000000000000e+00
1.147000000000000000e+03,2.013184289790158898e-01,0.000000000000000000e+00
1.148000000000000000e+03,3.711114219415403426e-01,0.000000000000000000e+00
1.149000000000000000e+03,1.909040088012972369e-01,0.000000000000000000e+00
1.150000000000000000e+03,1.913383942183177477e-01,0.000000000000000000e+00
1.151000000000000000e+03,3.863750740552819307e-01,0.000000000000000000e+00
1.152000000000000000e+03,5.866778273788695319e-01,0.000000000000000000e+00
1.153000000000000000e+03,6.217795212827863516e-01,0.000000000000000000e+00
1.154000000000000000e+03,6.746671604341616391e-01,0.000000000000000000e+00
1.155000000000000000e+03,5.452143922505318097e-01,0.000000000000000000e+00
1.156000000000000000e+03,3.113196940324178819e-01,0.000000000000000000e+00
1.157000000000000000e+03,1.001408537573151014e-01,0.000000000000000000e+00
1.158000000000000000e+03,8.063206512326702435e-02,0.000000000000000000e+00
1.159000000000000000e+03,2.958002507478906251e-01,0.000000000000000000e+00
1.160000000000000000e+03,1.412309475412751661e-02,0.000000000000000000e+00
1.161000000000000000e+03,3.520678031969914912e-01,0.000000000000000000e+00
1.162000000000000000e+03,2.329951982085845807e-01,0.000000000000000000e+00
1.163000000000000000e+03,2.138403016536077339e-01,0.000000000000000000e+00
1.164000000000000000e+03,2.140758492120774792e-01,0.000000000000000000e+00
1.165000000000000000e+03,9.118086582508978799e-02,0.000000000000000000e+00
1.166000000000000000e+03,-1.612122904278159852e-01,0.000000000000000000e+00
1.167000000000000000e+03,5.750738978389533962e+00,0.000000000000000000e+00
1.168000000000000000e+03,3.904162180110739566e+00,1.000000000000000000e+00
1.169000000000000000e+03,-5.244078177459543522e-02,0.000000000000000000e+00
1.170000000000000000e+03,-5.438851886747306796e-01,0.000000000000000000e+00
1.171000000000000000e+03,-1.014979236138596752e+00,0.000000000000000000e+00
1.172000000000000000e+03,-6.877643481048009155e-01,0.000000000000000000e+00
1.173000000000000000e+03,-1.020122115038905264e+00,0.000000000000000000e+00
1.174000000000000000e+03,-5.476368219013680871e-01,0.000000000000000000e+00
1.175000000000000000e+03,-7.272811089653633543e-01,0.000000000000000000e+00
1.176000000000000000e+03,-5.101840742396560602e-01,0.000000000000000000e+00
1.177000000000000000e+03,-5.266414156946297442e-01,0.000000000000000000e+00
1.178000000000000000e+03,-3.072079986492824433e-01,0.000000000000000000e+00
1.179000000000000000e+03,-2.238961992271539525e-01,0.000000000000000000e+00
1.180000000000000000e+03,1.808755120282906290e-02,0.000000000000000000e+00
1.181000000000000000e+03,1.471385180401363624e-01,0.000000000000000000e+00
1.182000000000000000e+03,4.367513914492788252e-01,0.000000000000000000e+00
1.183000000000000000e+03,7.761615092837891305e-01,0.000000000000000000e+00
1.184000000000000000e+03,1.209087387993519780e+00,0.000000000000000000e+00
1.185000000000000000e+03,1.049846364746653604e+00,0.000000000000000000e+00
1.186000000000000000e+03,1.006399391080027739e+00,0.000000000000000000e+00
1.187000000000000000e+03,1.240219410416997931e-01,0.000000000000000000e+00
1.188000000000000000e+03,-4.453039665853346651e-01,0.000000000000000000e+00
1.189000000000000000e+03,-8.971509476624509594e-01,0.000000000000000000e+00
1.190000000000000000e+03,-7.939465033989279164e-01,0.000000000000000000e+00
1.191000000000000000e+03,-1.139688071232517697e+00,0.000000000000000000e+00
1.192000000000000000e+03,-8.251493385664743219e-01,0.000000000000000000e+00
1.193000000000000000e+03,-8.807823165938654109e-01,0.000000000000000000e+00
1.194000000000000000e+03,-7.144522819445929818e-01,0.000000000000000000e+00
1.195000000000000000e+03,-7.569692181133743647e-01,0.000000000000000000e+00
1.196000000000000000e+03,-5.099951340127915067e-01,0.000000000000000000e+00
1.197000000000000000e+03,-7.981378567448071948e-01,0.000000000000000000e+00
1.198000000000000000e+03,-5.220197765252941879e-01,0.000000000000000000e+00
1.199000000000000000e+03,-4.133251276657994855e-01,0.000000000000000000e+00
1.200000000000000000e+03,-2.555926709266563290e-01,0.000000000000000000e+00
1.201000000000000000e+03,-4.549347498839001469e-01,0.000000000000000000e+00
1.202000000000000000e+03,-1.110091027096339472e-01,0.000000000000000000e+00
1.203000000000000000e+03,-2.619891516484433303e-01,0.000000000000000000e+00
1.204000000000000000e+03,-2.457991272305542763e-01,0.000000000000000000e+00
1.205000000000000000e+03,-1.963605744942276965e-01,0.000000000000000000e+00
1.206000000000000000e+03,-9.896707545694088948e-02,0.000000000000000000e+00
1.207000000000000000e+03,-1.080806051383670918e-01,0.000000000000000000e+00
1.208000000000000000e+03,6.873612592437300384e-02,0.000000000000000000e+00
1.209000000000000000e+03,1.114163522775860893e-01,0.000000000000000000e+00
1.210000000000000000e+03,7.527644418320057762e-02,0.000000000000000000e+00
1.211000000000000000e+03,1.513548768189199312e-01,0.000000000000000000e+00
1.212000000000000000e+03,5.451162372501681258e-02,0.000000000000000000e+00
1.213000000000000000e+03,1.141437409942494124e-01,0.000000000000000000e+00
1.214000000000000000e+03,1.800883623622114016e-01,0.000000000000000000e+00
1.215000000000000000e+03,1.316732782734833240e-01,0.000000000000000000e+00
1.216000000000000000e+03,1.934038199797085411e-01,0.000000000000000000e+00
1.217000000000000000e+03,2.749127782551723520e-01,0.000000000000000000e+00
1.218000000000000000e+03,3.446491874478129769e-01,0.000000000000000000e+00
1.219000000000000000e+03,7.456602376768318718e-01,0.000000000000000000e+00
1.220000000000000000e+03,4.311771259344548413e-01,0.000000000000000000e+00
1.221000000000000000e+03,3.346740081391260113e-01,0.000000000000000000e+00
1.222000000000000000e+03,2.794669693428762369e-01,0.000000000000000000e+00
1.223000000000000000e+03,2.132274730872897768e-03,0.000000000000000000e+00
1.224000000000000000e+03,7.020398480273941019e-03,0.000000000000000000e+00
1.225000000000000000e+03,8.407575346532690508e-02,0.000000000000000000e+00
1.226000000000000000e+03,5.831203657445042238e-02,0.000000000000000000e+00
1.227000000000000000e+03,1.007717447412933703e-01,0.000000000000000000e+00
1.228000000000000000e+03,1.981424020322782031e-01,0.000000000000000000e+00
1.229000000000000000e+03,1.131779439941380111e-01,0.000000000000000000e+00
1.230000000000000000e+03,2.301995240208060955e-01,0.000000000000000000e+00
1.231000000000000000e+03,-2.429747737288823484e-01,0.000000000000000000e+00
1.232000000000000000e+03,-2.163883461852359469e-01,0.000000000000000000e+00
1.233000000000000000e+03,5.806910948870436684e+00,0.000000000000000000e+00
1.234000000000000000e+03,3.743662959633316856e+00,1.000000000000000000e+00
1.235000000000000000e+03,-1.815509511149795419e-01,0.000000000000000000e+00
1.236000000000000000e+03,-5.293559734859090149e-01,0.000000000000000000e+00
1.237000000000000000e+03,-1.354265395683452056e+00,0.000000000000000000e+00
1.238000000000000000e+03,-8.951994050518508050e-01,0.000000000000000000e+00
1.239000000000000000e+03,-1.166203494970087462e+00,0.000000000000000000e+00
1.240000000000000000e+03,-6.112251454124013605e-01,0.000000000000000000e+00
1.241000000000000000e+03,-7.899422692006122793e-01,0.000000000000000000e+00
1.242000000000000000e+03,-5.920752839441048021e-01,0.000000000000000000e+00
1.243000000000000000e+03,-8.604827422461391873e-01,0.000000000000000000e+00
1.244000000000000000e+03,-3.933661144137521326e-01,0.000000000000000000e+00
1.245000000000000000e+03,-3.723890262889262837e-01,0.000000000000000000e+00
1.246000000000000000e+03,-1.003657517594504084e-01,0.000000000000000000e+00
1.247000000000000000e+03,-3.206745382488968704e-02,0.000000000000000000e+00
1.248000000000000000e+03,3.213674257019901170e-01,0.000000000000000000e+00
1.249000000000000000e+03,4.987805504517696109e-01,0.000000000000000000e+00
1.250000000000000000e+03,9.289776677345108480e-01,0.000000000000000000e+00
1.251000000000000000e+03,1.044582917804351752e+00,0.000000000000000000e+00
1.252000000000000000e+03,7.037500642111905735e-01,0.000000000000000000e+00
1.253000000000000000e+03,-6.566998481864660953e-02,0.000000000000000000e+00
1.254000000000000000e+03,-5.933245132133789790e-01,0.000000000000000000e+00
1.255000000000000000e+03,-1.028272449836020286e+00,0.000000000000000000e+00
1.256000000000000000e+03,-9.504027593389551276e-01,0.000000000000000000e+00
1.257000000000000000e+03,-1.174704495284820016e+00,0.000000000000000000e+00
1.258000000000000000e+03,-8.856535477842772952e-01,0.000000000000000000e+00
1.259000000000000000e+03,-9.465770219275352337e-01,0.000000000000000000e+00
1.260000000000000000e+03,-8.457809859841945999e-01,0.000000000000000000e+00
1.261000000000000000e+03,-8.524957236314486542e-01,0.000000000000000000e+00
1.262000000000000000e+03,-5.847695503235921244e-01,0.000000000000000000e+00
1.263000000000000000e+03,-6.842068859105160383e-01,0.000000000000000000e+00
1.264000000000000000e+03,-4.240496962058768471e-01,0.000000000000000000e+00
1.265000000000000000e+03,-4.363003156275868100e-01,0.000000000000000000e+00
1.266000000000000000e+03,-3.963335643673179809e-01,0.000000000000000000e+00
1.267000000000000000e+03,-3.514342945892268144e-01,0.000000000000000000e+00
1.268000000000000000e+03,-1.821511474956804058e-02,0.000000000000000000e+00
1.269000000000000000e+03,-2.104365087181510607e-01,0.000000000000000000e+00
1.270000000000000000e+03,-3.795222372803335742e-01,0.000000000000000000e+00
1.271000000000000000e+03,-2.779848122879969782e-02,0.000000000000000000e+00
1.272000000000000000e+03,-1.847925298912240777e-01,0.000000000000000000e+00
1.273000000000000000e+03,-2.387070136357230445e-03,0.000000000000000000e+00
1.274000000000000000e+03,1.953559363677400962e-01,0.000000000000000000e+00
1.275000000000000000e+03,-4.385151056692511429e-02,0.000000000000000000e+00
1.276000000000000000e+03,2.142261329427513628e-01,0.000000000000000000e+00
1.277000000000000000e+03,8.739631071594212985e-02,0.000000000000000000e+00
1.278000000000000000e+03,2.465410038433706597e-01,0.000000000000000000e+00
1.279000000000000000e+03,2.390369847941080372e-01,0.000000000000000000e+00
1.280000000000000000e+03,6.321331216314465817e-02,0.000000000000000000e+00
1.281000000000000000e+03,4.468217433336563182e-01,0.000000000000000000e+00
1.282000000000000000e+03,4.983647806122405433e-01,0.000000000000000000e+00
1.283000000000000000e+03,3.691721958976356688e-01,0.000000000000000000e+00
1.284000000000000000e+03,5.499217098799299430e-01,0.000000000000000000e+00
1.285000000000000000e+03,1.787797697621956172e-01,0.000000000000000000e+00
1.286000000000000000e+03,1.963587716317621579e-01,0.000000000000000000e+00
1.287000000000000000e+03,8.340253535416210229e-03,0.000000000000000000e+00
1.288000000000000000e+03,1.910720814702803194e-01,0.000000000000000000e+00
1.289000000000000000e+03,-7.943851438464863413e-02,0.000000000000000000e+00
1.290000000000000000e+03,1.191248969182068934e-01,0.000000000000000000e+00
1.291000000000000000e+03,2.013114314080900191e-01,0.000000000000000000e+00
1.292000000000000000e+03,1.587981625642742242e-02,0.000000000000000000e+00
1.293000000000000000e+03,1.979927157178032748e-01,0.000000000000000000e+00
1.294000000000000000e+03,-1.254432175810993588e-01,0.000000000000000000e+00
1.295000000000000000e+03,5.637486887462835883e-01,0.000000000000000000e+00
1.296000000000000000e+03,6.201894465508391185e+00,0.000000000000000000e+00
1.297000000000000000e+03,2.774908440740369020e+00,1.000000000000000000e+00
1.298000000000000000e+03,-2.467735582735857969e-01,0.000000000000000000e+00
1.299000000000000000e+03,-6.764510307143503098e-01,0.000000000000000000e+00
1.300000000000000000e+03,-1.114445268001341249e+00,0.000000000000000000e+00
1.301000000000000000e+03,-9.027884515286682676e-01,0.000000000000000000e+00
1.302000000000000000e+03,-8.707875755940210905e-01,0.000000000000000000e+00
1.303000000000000000e+03,-6.950393689843150646e-01,0.000000000000000000e+00
1.304000000000000000e+03,-6.042635857040390412e-01,0.000000000000000000e+00
1.305000000000000000e+03,-6.260334116747369171e-01,0.000000000000000000e+00
1.306000000000000000e+03,-2.002109810731647344e-01,0.000000000000000000e+00
1.307000000000000000e+03,-5.455254126730674225e-01,0.000000000000000000e+00
1.308000000000000000e+03,-1.106858553761977670e-01,0.000000000000000000e+00
1.309000000000000000e+03,-8.569365292293547320e-02,0.000000000000000000e+00
1.310000000000000000e+03,1.180907371147408430e-01,0.000000000000000000e+00
1.311000000000000000e+03,4.538673567351269589e-01,0.000000000000000000e+00
1.312000000000000000e+03,7.792422497227133871e-01,0.000000000000000000e+00
1.313000000000000000e+03,1.143401784544386235e+00,0.000000000000000000e+00
1.314000000000000000e+03,1.186939142288311544e+00,0.000000000000000000e+00
1.315000000000000000e+03,7.249471187184433063e-01,0.000000000000000000e+00
1.316000000000000000e+03,-7.774500014450656804e-02,0.000000000000000000e+00
1.317000000000000000e+03,-6.529270532955626649e-01,0.000000000000000000e+00
1.318000000000000000e+03,-8.799282117631527234e-01,0.000000000000000000e+00
1.319000000000000000e+03,-1.109509150993081894e+00,0.000000000000000000e+00
1.320000000000000000e+03,-1.048068692503166588e+00,0.000000000000000000e+00
1.321000000000000000e+03,-9.085911895303598884e-01,0.000000000000000000e+00
1.322000000000000000e+03,-7.601890402464096530e-01,0.000000000000000000e+00
1.323000000000000000e+03,-7.645350846389541433e-01,0.000000000000000000e+00
1.324000000000000000e+03,-5.455655413189112179e-01,0.000000000000000000e+00
1.325000000000000000e+03,-4.241971832434588974e-01,0.000000000000000000e+00
1.326000000000000000e+03,-4.750434739637827142e-01,0.000000000000000000e+00
1.327000000000000000e+03,-5.173650003910917894e-01,0.000000000000000000e+00
1.328000000000000000e+03,-2.412954848619760229e-01,0.000000000000000000e+00
1.329000000000000000e+03,-3.401345309658897476e-01,0.000000000000000000e+00
1.330000000000000000e+03,-1.908644295136194824e-01,0.000000000000000000e+00
1.331000000000000000e+03,-1.267150888594555658e-01,0.000000000000000000e+00
1.332000000000000000e+03,-9.049972672124111106e-02,0.000000000000000000e+00
1.333000000000000000e+03,-6.385897108540991574e-02,0.000000000000000000e+00
1.334000000000000000e+03,4.007583795442186403e-02,0.000000000000000000e+00
1.335000000000000000e+03,4.704660902941244088e-02,0.000000000000000000e+00
1.336000000000000000e+03,1.018799338659107101e-01,0.000000000000000000e+00
1.337000000000000000e+03,-8.504953202503165444e-02,0.000000000000000000e+00
1.338000000000000000e+03,1.612484999567975752e-01,0.000000000000000000e+00
1.339000000000000000e+03,1.253293136320883516e-01,0.000000000000000000e+00
1.340000000000000000e+03,1.429863738802431006e-01,0.000000000000000000e+00
1.341000000000000000e+03,3.905402651816993753e-01,0.000000000000000000e+00
1.342000000000000000e+03,2.961565356394904036e-01,0.000000000000000000e+00
1.343000000000000000e+03,3.412088066918402274e-01,0.000000000000000000e+00
1.344000000000000000e+03,6.239869372488539012e-01,0.000000000000000000e+00
1.345000000000000000e+03,4.378349206388548187e-01,0.000000000000000000e+00
1.346000000000000000e+03,5.298113448213800369e-01,0.000000000000000000e+00
1.347000000000000000e+03,1.966076860852904451e-01,0.000000000000000000e+00
1.348000000000000000e+03,1.423979987583690598e-01,0.000000000000000000e+00
1.349000000000000000e+03,6.165967822533971465e-02,0.000000000000000000e+00
1.350000000000000000e+03,2.734848087530350469e-01,0.000000000000000000e+00
1.351000000000000000e+03,1.880702062755335371e-02,0.000000000000000000e+00
1.352000000000000000e+03,2.123151639873509244e-01,0.000000000000000000e+00
1.353000000000000000e+03,7.128014508000432570e-02,0.000000000000000000e+00
1.354000000000000000e+03,1.224426324863110427e-01,0.000000000000000000e+00
1.355000000000000000e+03,1.841179927675223593e-01,0.000000000000000000e+00
1.356000000000000000e+03,-1.057680753321041528e-01,0.000000000000000000e+00
1.357000000000000000e+03,-3.981472112748504211e-01,0.000000000000000000e+00
1.358000000000000000e+03,5.763498455158724276e+00,0.000000000000000000e+00
1.359000000000000000e+03,4.055954680238078147e+00,1.000000000000000000e+00
1.360000000000000000e+03,-2.838489453999269441e-01,0.000000000000000000e+00
1.361000000000000000e+03,-7.385775582828278951e-01,0.000000000000000000e+00
1.362000000000000000e+03,-1.060633173803912532e+00,0.000000000000000000e+00
1.363000000000000000e+03,-1.004321384193260780e+00,0.000000000000000000e+00
1.364000000000000000e+03,-1.112181416801052203e+00,0.000000000000000000e+00
1.365000000000000000e+03,-9.056794224039208530e-01,0.000000000000000000e+00
1.366000000000000000e+03,-1.010515381041609428e+00,0.000000000000000000e+00
1.367000000000000000e+03,-5.538703960145833216e-01,0.000000000000000000e+00
1.368000000000000000e+03,-5.026934537331316788e-01,0.000000000000000000e+00
1.369000000000000000e+03,-4.815984045987591888e-01,0.000000000000000000e+00
1.370000000000000000e+03,-4.012678706379929072e-01,0.000000000000000000e+00
1.371000000000000000e+03,2.125533355631555599e-01,0.000000000000000000e+00
1.372000000000000000e+03,9.296124849549425306e-02,0.000000000000000000e+00
1.373000000000000000e+03,5.085231671253983565e-01,0.000000000000000000e+00
1.374000000000000000e+03,7.070599626812751337e-01,0.000000000000000000e+00
1.375000000000000000e+03,1.314466453083143138e+00,0.000000000000000000e+00
1.376000000000000000e+03,1.177451139507199152e+00,0.000000000000000000e+00
1.377000000000000000e+03,8.315273125871923687e-01,0.000000000000000000e+00
1.378000000000000000e+03,-3.837561933479982645e-02,0.000000000000000000e+00
1.379000000000000000e+03,-8.344840087640102988e-01,0.000000000000000000e+00
1.380000000000000000e+03,-1.227730185376499028e+00,0.000000000000000000e+00
1.381000000000000000e+03,-1.298750923087209408e+00,0.000000000000000000e+00
1.382000000000000000e+03,-1.409467489675376495e+00,0.000000000000000000e+00
1.383000000000000000e+03,-1.095014159554911215e+00,0.000000000000000000e+00
1.384000000000000000e+03,-1.144894984954941686e+00,0.000000000000000000e+00
1.385000000000000000e+03,-1.132636036117431022e+00,0.000000000000000000e+00
1.386000000000000000e+03,-8.614308701323933892e-01,0.000000000000000000e+00
1.387000000000000000e+03,-6.528765073960687282e-01,0.000000000000000000e+00
1.388000000000000000e+03,-6.061322443206287325e-01,0.000000000000000000e+00
1.389000000000000000e+03,-6.163983566737843978e-01,0.000000000000000000e+00
1.390000000000000000e+03,-5.163810732705966799e-01,0.000000000000000000e+00
1.391000000000000000e+03,-3.046645897279626203e-01,0.000000000000000000e+00
1.392000000000000000e+03,-4.856845416791208403e-01,0.000000000000000000e+00
1.393000000000000000e+03,-2.356980074654537738e-01,0.000000000000000000e+00
1.394000000000000000e+03,-1.501619179704010154e-01,0.000000000000000000e+00
1.395000000000000000e+03,-3.810590976027656285e-01,0.000000000000000000e+00
1.396000000000000000e+03,1.111828810361815134e-01,0.000000000000000000e+00
1.397000000000000000e+03,7.888206407632656833e-03,0.000000000000000000e+00
1.398000000000000000e+03,9.815377051143536757e-02,0.000000000000000000e+00
1.399000000000000000e+03,2.970094728812804064e-02,0.000000000000000000e+00
1.400000000000000000e+03,2.130224245017280083e-01,0.000000000000000000e+00
1.401000000000000000e+03,7.428855753182763387e-03,0.000000000000000000e+00
1.402000000000000000e+03,3.142059744785637987e-01,0.000000000000000000e+00
1.403000000000000000e+03,1.870075196615232360e-01,0.000000000000000000e+00
1.404000000000000000e+03,3.744826395596094759e-01,0.000000000000000000e+00
1.405000000000000000e+03,4.796284338949727832e-01,0.000000000000000000e+00
1.406000000000000000e+03,5.985027586485275330e-01,0.000000000000000000e+00
1.407000000000000000e+03,4.468138860366058784e-01,0.000000000000000000e+00
1.408000000000000000e+03,6.087596867472720996e-01,0.000000000000000000e+00
1.409000000000000000e+03,3.239652883196329491e-01,0.000000000000000000e+00
1.410000000000000000e+03,2.110817174250948780e-01,0.000000000000000000e+00
1.411000000000000000e+03,1.203480590622751506e-01,0.000000000000000000e+00
1.412000000000000000e+03,2.690676690619766553e-01,0.000000000000000000e+00
1.413000000000000000e+03,8.206615186762873659e-02,0.000000000000000000e+00
1.414000000000000000e+03,2.383452594803570634e-01,0.000000000000000000e+00
1.415000000000000000e+03,3.116266662940506693e-01,0.000000000000000000e+00
1.416000000000000000e+03,2.240076615731472487e-01,0.000000000000000000e+00
1.417000000000000000e+03,2.270826420753279951e-01,0.000000000000000000e+00
1.418000000000000000e+03,1.362521405310365696e-01,0.000000000000000000e+00
1.419000000000000000e+03,-4.570222810754887011e-01,0.000000000000000000e+00
1.420000000000000000e+03,5.051188911007383098e+00,0.000000000000000000e+00
1.421000000000000000e+03,3.892581880369257785e+00,1.000000000000000000e+00
1.422000000000000000e+03,-5.002697373003415215e-01,0.000000000000000000e+00
1.423000000000000000e+03,-2.806490267006796491e-01,0.000000000000000000e+00
1.424000000000000000e+03,-8.660494150873868646e-01,0.000000000000000000e+00
1.425000000000000000e+03,-6.326459072774037740e-01,0.000000000000000000e+00
1.426000000000000000e+03,-7.552550264843436167e-01,0.000000000000000000e+00
1.427000000000000000e+03,-4.126307475843932204e-01,0.000000000000000000e+00
1.428000000000000000e+03,-6.512236720025565972e-01,0.000000000000000000e+00
1.429000000000000000e+03,-3.052052802750216398e-01,0.000000000000000000e+00
1.430000000000000000e+03,-4.065262892045932719e-01,0.000000000000000000e+00
1.431000000000000000e+03,-3.743350801495368141e-01,0.000000000000000000e+00
1.432000000000000000e+03,-9.456937173258968266e-02,0.000000000000000000e+00
1.433000000000000000e+03,8.040495376591684507e-02,0.000000000000000000e+00
1.434000000000000000e+03,2.783638381393856998e-01,0.000000000000000000e+00
1.435000000000000000e+03,4.543535872078874882e-01,0.000000000000000000e+00
1.436000000000000000e+03,7.692533702250015093e-01,0.000000000000000000e+00
1.437000000000000000e+03,1.188278829660680547e+00,0.000000000000000000e+00
1.438000000000000000e+03,9.321736871387726886e-01,0.000000000000000000e+00
1.439000000000000000e+03,8.478740413230566597e-01,0.000000000000000000e+00
1.440000000000000000e+03,-1.587703306553345239e-02,0.000000000000000000e+00
1.441000000000000000e+03,-7.219833794769737745e-01,0.000000000000000000e+00
1.442000000000000000e+03,-9.360443612907072275e-01,0.000000000000000000e+00
1.443000000000000000e+03,-1.078948588496599914e+00,0.000000000000000000e+00
1.444000000000000000e+03,-1.234308908484401224e+00,0.000000000000000000e+00
1.445000000000000000e+03,-9.955176993395792318e-01,0.000000000000000000e+00
1.446000000000000000e+03,-9.320648695766386993e-01,0.000000000000000000e+00
1.447000000000000000e+03,-8.411009711966493940e-01,0.000000000000000000e+00
1.448000000000000000e+03,-8.187284617258213659e-01,0.000000000000000000e+00
1.449000000000000000e+03,-7.608630409196791566e-01,0.000000000000000000e+00
1.450000000000000000e+03,-5.729592732576846981e-01,0.000000000000000000e+00
1.451000000000000000e+03,-3.736634320077790172e-01,0.000000000000000000e+00
1.452000000000000000e+03,-6.463826778221777314e-01,0.000000000000000000e+00
1.453000000000000000e+03,-2.058386073814045814e-01,0.000000000000000000e+00
1.454000000000000000e+03,-4.642060831892420025e-01,0.000000000000000000e+00
1.455000000000000000e+03,-1.524822973431343154e-01,0.000000000000000000e+00
1.456000000000000000e+03,-2.468132986701933318e-01,0.000000000000000000e+00
1.457000000000000000e+03,-1.892342296950766667e-01,0.000000000000000000e+00
1.458000000000000000e+03,-2.885783461700153762e-01,0.000000000000000000e+00
1.459000000000000000e+03,-5.493160116555347028e-02,0.000000000000000000e+00
1.460000000000000000e+03,-3.693789674499708964e-02,0.000000000000000000e+00
1.461000000000000000e+03,6.705056772971569601e-02,0.000000000000000000e+00
1.462000000000000000e+03,2.510786448019604045e-01,0.000000000000000000e+00
1.463000000000000000e+03,2.047942091061548398e-01,0.000000000000000000e+00
1.464000000000000000e+03,1.790144015314646120e-01,0.000000000000000000e+00
1.465000000000000000e+03,8.701879324636267732e-02,0.000000000000000000e+00
1.466000000000000000e+03,2.896566642812467007e-01,0.000000000000000000e+00
1.467000000000000000e+03,2.187891137320215895e-01,0.000000000000000000e+00
1.468000000000000000e+03,4.520298377228207931e-01,0.000000000000000000e+00
1.469000000000000000e+03,6.294028280919224949e-01,0.000000000000000000e+00
1.470000000000000000e+03,6.037373492518742779e-01,0.000000000000000000e+00
1.471000000000000000e+03,5.351492965156420256e-01,0.000000000000000000e+00
1.472000000000000000e+03,3.299616355537685064e-01,0.000000000000000000e+00
1.473000000000000000e+03,2.101751732670356088e-01,0.000000000000000000e+00
1.474000000000000000e+03,1.331822099535810155e-01,0.000000000000000000e+00
1.475000000000000000e+03,2.215077852661332114e-01,0.000000000000000000e+00
1.476000000000000000e+03,1.695541645497531669e-01,0.000000000000000000e+00
1.477000000000000000e+03,2.940487587631439026e-01,0.000000000000000000e+00
1.478000000000000000e+03,6.831939354301132250e-02,0.000000000000000000e+00
1.479000000000000000e+03,1.844989511538681348e-01,0.000000000000000000e+00
1.480000000000000000e+03,8.351405204094275447e-02,0.000000000000000000e+00
1.481000000000000000e+03,4.544749323067650559e-01,0.000000000000000000e+00
1.482000000000000000e+03,-7.806273746199599017e-01,0.000000000000000000e+00
1.483000000000000000e+03,2.900749531786899649e+00,0.000000000000000000e+00
1.484000000000000000e+03,5.578108865667931404e+00,0.000000000000000000e+00
1.485000000000000000e+03,9.847449964583881998e-01,1.000000000000000000e+00
1.486000000000000000e+03,-9.858696663854678299e-02,0.000000000000000000e+00
1.487000000000000000e+03,-1.100451386176634516e+00,0.000000000000000000e+00
1.488000000000000000e+03,-7.503384428222782399e-01,0.000000000000000000e+00
1.489000000000000000e+03,-1.026942914590109668e+00,0.000000000000000000e+00
1.490000000000000000e+03,-7.707573255548879620e-01,0.000000000000000000e+00
1.491000000000000000e+03,-7.028556452135960031e-01,0.000000000000000000e+00
1.492000000000000000e+03,-8.046360912523944364e-01,0.000000000000000000e+00
1.493000000000000000e+03,-7.530776496463260639e-01,0.000000000000000000e+00
1.494000000000000000e+03,-4.285207947745826029e-01,0.000000000000000000e+00
1.495000000000000000e+03,-5.203815456412510532e-01,0.000000000000000000e+00
1.496000000000000000e+03,-1.649117162996085462e-01,0.000000000000000000e+00
1.497000000000000000e+03,-2.628912718939069304e-01,0.000000000000000000e+00
1.498000000000000000e+03,7.364703759614696366e-02,0.000000000000000000e+00
1.499000000000000000e+03,3.244121569620597723e-01,0.000000000000000000e+00
1.500000000000000000e+03,5.504503668056641708e-01,0.000000000000000000e+00
1.501000000000000000e+03,9.371591528772631463e-01,0.000000000000000000e+00
1.502000000000000000e+03,9.432826299132772707e-01,0.000000000000000000e+00
1.503000000000000000e+03,2.986293566819425149e-01,0.000000000000000000e+00
1.504000000000000000e+03,-4.480535210637151544e-01,0.000000000000000000e+00
1.505000000000000000e+03,-9.913301192091888980e-01,0.000000000000000000e+00
1.506000000000000000e+03,-8.539606261876209192e-01,0.000000000000000000e+00
1.507000000000000000e+03,-1.053474848417014220e+00,0.000000000000000000e+00
1.508000000000000000e+03,-1.032567635342540369e+00,0.000000000000000000e+00
1.509000000000000000e+03,-9.986093669673803408e-01,0.000000000000000000e+00
1.510000000000000000e+03,-9.810978228797300194e-01,0.000000000000000000e+00
1.511000000000000000e+03,-7.697970406754222061e-01,0.000000000000000000e+00
1.512000000000000000e+03,-8.017250045051799168e-01,0.000000000000000000e+00
1.513000000000000000e+03,-7.592554007554898066e-01,0.000000000000000000e+00
1.514000000000000000e+03,-6.174829592595916239e-01,0.000000000000000000e+00
1.515000000000000000e+03,-7.812814391847365814e-01,0.000000000000000000e+00
1.516000000000000000e+03,-3.547385000727401039e-01,0.000000000000000000e+00
1.517000000000000000e+03,-4.628789698468085412e-01,0.000000000000000000e+00
1.518000000000000000e+03,-3.383198709716860875e-01,0.000000000000000000e+00
1.519000000000000000e+03,-3.710012887421147987e-01,0.000000000000000000e+00
1.520000000000000000e+03,-2.462814710442025046e-01,0.000000000000000000e+00
1.521000000000000000e+03,-1.846094544519436831e-01,0.000000000000000000e+00
1.522000000000000000e+03,-1.363028708782008103e-01,0.000000000000000000e+00
1.523000000000000000e+03,-2.888105633665843941e-01,0.000000000000000000e+00
1.524000000000000000e+03,-1.305778558555150681e-01,0.000000000000000000e+00
1.525000000000000000e+03,-2.778856732601438402e-03,0.000000000000000000e+00
1.526000000000000000e+03,8.230965201576591339e-02,0.000000000000000000e+00
1.527000000000000000e+03,1.685940654470206509e-02,0.000000000000000000e+00
1.528000000000000000e+03,7.272981404501309421e-02,0.000000000000000000e+00
1.529000000000000000e+03,1.860920889479719398e-01,0.000000000000000000e+00
1.530000000000000000e+03,2.075389437159499417e-01,0.000000000000000000e+00
1.531000000000000000e+03,3.109670385437366957e-01,0.000000000000000000e+00
1.532000000000000000e+03,2.045597284687408757e-01,0.000000000000000000e+00
1.533000000000000000e+03,3.518726269783079008e-01,0.000000000000000000e+00
1.534000000000000000e+03,4.138607826523103550e-01,0.000000000000000000e+00
1.535000000000000000e+03,7.314888027475506815e-01,0.000000000000000000e+00
1.536000000000000000e+03,5.875296872760210620e-01,0.000000000000000000e+00
1.537000000000000000e+03,2.569854767828966269e-01,0.000000000000000000e+00
1.538000000000000000e+03,1.636926796643204118e-01,0.000000000000000000e+00
1.539000000000000000e+03,3.304008250946532943e-01,0.000000000000000000e+00
1.540000000000000000e+03,1.768151678525602399e-01,0.000000000000000000e+00
1.541000000000000000e+03,4.555090896622618346e-01,0.000000000000000000e+00
1.542000000000000000e+03,2.534117929301460403e-01,0.000000000000000000e+00
1.543000000000000000e+03,3.320555802316741412e-01,0.000000000000000000e+00
1.544000000000000000e+03,2.178104412818304136e-01,0.000000000000000000e+00
1.545000000000000000e+03,4.528017038812342521e-01,0.000000000000000000e+00
1.546000000000000000e+03,-3.529996129877766564e-01,0.000000000000000000e+00
1.547000000000000000e+03,1.708768187191651799e+00,0.000000000000000000e+00
1.548000000000000000e+03,6.679401131755689391e+00,0.000000000000000000e+00
1.549000000000000000e+03,2.206810921914925672e+00,1.000000000000000000e+00
1.550000000000000000e+03,4.206633680810182435e-02,0.000000000000000000e+00
1.551000000000000000e+03,-1.073938850593542549e+00,0.000000000000000000e+00
1.552000000000000000e+03,-8.719876896268363708e-01,0.000000000000000000e+00
1.553000000000000000e+03,-7.195132075779805403e-01,0.000000000000000000e+00
1.554000000000000000e+03,-6.707875759462921250e-01,0.000000000000000000e+00
1.555000000000000000e+03,-6.021719110480613368e-01,0.000000000000000000e+00
1.556000000000000000e+03,-5.506114530730032985e-01,0.000000000000000000e+00
1.557000000000000000e+03,-7.980513959588211303e-01,0.000000000000000000e+00
1.558000000000000000e+03,-2.813998852070151435e-01,0.000000000000000000e+00
1.559000000000000000e+03,-7.316956625385222235e-02,0.000000000000000000e+00
1.560000000000000000e+03,-1.934407784587821311e-01,0.000000000000000000e+00
1.561000000000000000e+03,-3.903759235030043045e-02,0.000000000000000000e+00
1.562000000000000000e+03,2.081800011568143288e-02,0.000000000000000000e+00
1.563000000000000000e+03,3.744633236612593397e-01,0.000000000000000000e+00
1.564000000000000000e+03,9.975373150681950962e-01,0.000000000000000000e+00
1.565000000000000000e+03,1.171957109585647361e+00,0.000000000000000000e+00
1.566000000000000000e+03,1.042255844041889645e+00,0.000000000000000000e+00
1.567000000000000000e+03,7.066370838013354971e-01,0.000000000000000000e+00
1.568000000000000000e+03,-1.182611673872666497e-01,0.000000000000000000e+00
1.569000000000000000e+03,-6.372494698032465932e-01,0.000000000000000000e+00
1.570000000000000000e+03,-9.153799375696493046e-01,0.000000000000000000e+00
1.571000000000000000e+03,-1.088238111852050549e+00,0.000000000000000000e+00
1.572000000000000000e+03,-7.960103523834830552e-01,0.000000000000000000e+00
1.573000000000000000e+03,-9.452578532195203831e-01,0.000000000000000000e+00
1.574000000000000000e+03,-8.729873206950582443e-01,0.000000000000000000e+00
1.575000000000000000e+03,-6.945894597191003550e-01,0.000000000000000000e+00
1.576000000000000000e+03,-6.203332965731899185e-01,0.000000000000000000e+00
1.577000000000000000e+03,-5.363674608432562607e-01,0.000000000000000000e+00
1.578000000000000000e+03,-6.038488352113642321e-01,0.000000000000000000e+00
1.579000000000000000e+03,-4.719561432461403805e-01,0.000000000000000000e+00
1.580000000000000000e+03,-5.529747214181623960e-01,0.000000000000000000e+00
1.581000000000000000e+03,-3.831489521461030057e-01,0.000000000000000000e+00
1.582000000000000000e+03,-3.389494038269479370e-01,0.000000000000000000e+00
1.583000000000000000e+03,-3.670789066363959741e-01,0.000000000000000000e+00
1.584000000000000000e+03,-2.819125075036369443e-01,0.000000000000000000e+00
1.585000000000000000e+03,-8.866405751283724934e-02,0.000000000000000000e+00
1.586000000000000000e+03,-3.269820573282135046e-01,0.000000000000000000e+00
1.587000000000000000e+03,-1.573299522072858433e-02,0.000000000000000000e+00
