timestamp,ecg_measurement,qrs_detected
0.000000000000000000e+00,4.175426298480490850e+00,0.000000000000000000e+00
1.000000000000000000e+00,1.899258721959353746e+00,0.000000000000000000e+00
2.000000000000000000e+00,8.569855587233622674e-02,0.000000000000000000e+00
3.000000000000000000e+00,-1.282403137238768309e+00,0.000000000000000000e+00
4.000000000000000000e+00,-1.490879230795345789e+00,0.000000000000000000e+00
5.000000000000000000e+00,-1.343009270394166510e+00,0.000000000000000000e+00
6.000000000000000000e+00,-1.459169547417684676e+00,0.000000000000000000e+00
7.000000000000000000e+00,-1.246482858802197224e+00,0.000000000000000000e+00
8.000000000000000000e+00,-1.143084281419792125e+00,0.000000000000000000e+00
9.000000000000000000e+00,-1.005580575493042250e+00,0.000000000000000000e+00
1.000000000000000000e+01,-9.374162461554541581e-01,0.000000000000000000e+00
1.100000000000000000e+01,-7.544390125761398780e-01,0.000000000000000000e+00
1.200000000000000000e+01,-6.439641283303918495e-01,0.000000000000000000e+00
1.300000000000000000e+01,-6.115979004730769386e-01,0.000000000000000000e+00
1.400000000000000000e+01,-1.480089034555771288e-01,0.000000000000000000e+00
1.500000000000000000e+01,-2.174961138230639968e-01,0.000000000000000000e+00
1.600000000000000000e+01,3.460318193000086473e-01,0.000000000000000000e+00
1.700000000000000000e+01,4.279191874740627677e-01,0.000000000000000000e+00
1.800000000000000000e+01,8.325742883381490600e-01,0.000000000000000000e+00
1.900000000000000000e+01,8.550148513281033980e-01,0.000000000000000000e+00
2.000000000000000000e+01,8.701179197323900549e-01,0.000000000000000000e+00
2.100000000000000000e+01,1.009773196692318742e-01,0.000000000000000000e+00
2.200000000000000000e+01,3.486512781526845961e-02,1.000000000000000000e+00
2.300000000000000000e+01,-4.282533833467755402e-01,0.000000000000000000e+00
2.400000000000000000e+01,-3.699513383000705979e-01,0.000000000000000000e+00
2.500000000000000000e+01,-1.619470390049589925e-01,0.000000000000000000e+00
2.600000000000000000e+01,-1.640150937425744748e-01,0.000000000000000000e+00
2.700000000000000000e+01,-3.397513330195439107e-01,0.000000000000000000e+00
2.800000000000000000e+01,-2.303168256224690791e-01,0.000000000000000000e+00
2.900000000000000000e+01,6.029317984562660576e-02,0.000000000000000000e+00
3.000000000000000000e+01,-1.602050776668177412e-01,0.000000000000000000e+00
3.100000000000000000e+01,-4.896343765873934634e-02,0.000000000000000000e+00
3.200000000000000000e+01,9.719489525038640942e-02,0.000000000000000000e+00
3.300000000000000000e+01,1.660334735086548275e-01,0.000000000000000000e+00
3.400000000000000000e+01,-1.402059153589563234e-01,0.000000000000000000e+00
3.500000000000000000e+01,2.356367379376344551e-01,0.000000000000000000e+00
3.600000000000000000e+01,1.733450055943208667e-01,0.000000000000000000e+00
3.700000000000000000e+01,1.423025278002374161e-01,0.000000000000000000e+00
3.800000000000000000e+01,-2.764439301180929981e-02,0.000000000000000000e+00
3.900000000000000000e+01,1.745541916030593499e-01,0.000000000000000000e+00
4.000000000000000000e+01,3.703369807915716905e+00,0.000000000000000000e+00
4.100000000000000000e+01,3.917726352163554804e+00,0.000000000000000000e+00
4.200000000000000000e+01,1.742892464956121490e+00,0.000000000000000000e+00
4.300000000000000000e+01,5.215974327706502933e-01,0.000000000000000000e+00
4.400000000000000000e+01,-1.199202487010171403e+00,0.000000000000000000e+00
4.500000000000000000e+01,-1.493991098780099280e+00,0.000000000000000000e+00
4.600000000000000000e+01,-1.032312219505949313e+00,0.000000000000000000e+00
4.700000000000000000e+01,-1.033746102633709585e+00,0.000000000000000000e+00
4.800000000000000000e+01,-1.363455571170246738e+00,0.000000000000000000e+00
4.900000000000000000e+01,-8.707977399941546626e-01,0.000000000000000000e+00
5.000000000000000000e+01,-8.370271137129153827e-01,0.000000000000000000e+00
5.100000000000000000e+01,-7.459727646924995126e-01,0.000000000000000000e+00
5.200000000000000000e+01,-5.490790137190713072e-01,0.000000000000000000e+00
5.300000000000000000e+01,-5.424505087836478667e-01,0.000000000000000000e+00
5.400000000000000000e+01,-3.059542782619232293e-01,0.000000000000000000e+00
5.500000000000000000e+01,1.550397667005733691e-02,0.000000000000000000e+00
5.600000000000000000e+01,-2.085450145655801668e-01,0.000000000000000000e+00
5.700000000000000000e+01,3.386550586358607062e-01,0.000000000000000000e+00
5.800000000000000000e+01,8.575727375642662187e-01,0.000000000000000000e+00
5.900000000000000000e+01,7.736664655061162854e-01,1.000000000000000000e+00
6.000000000000000000e+01,5.269319269923707916e-01,0.000000000000000000e+00
6.100000000000000000e+01,4.131236100040084347e-01,0.000000000000000000e+00
6.200000000000000000e+01,-3.545122303893033511e-02,0.000000000000000000e+00
6.300000000000000000e+01,-4.286901495483779745e-01,0.000000000000000000e+00
6.400000000000000000e+01,-3.439741480692869446e-01,0.000000000000000000e+00
6.500000000000000000e+01,-3.648594871266712114e-01,0.000000000000000000e+00
6.600000000000000000e+01,-4.596713347938374827e-01,0.000000000000000000e+00
6.700000000000000000e+01,-5.476802895502020929e-01,0.000000000000000000e+00
6.800000000000000000e+01,-3.957651755325098941e-01,0.000000000000000000e+00
6.900000000000000000e+01,1.607354833106776626e-01,0.000000000000000000e+00
7.000000000000000000e+01,-5.642971375848349069e-01,0.000000000000000000e+00
7.100000000000000000e+01,-2.696464010024027247e-01,0.000000000000000000e+00
7.200000000000000000e+01,3.803629022966409368e-02,0.000000000000000000e+00
7.300000000000000000e+01,-2.079403905478851844e-01,0.000000000000000000e+00
7.400000000000000000e+01,-6.070189830048964424e-02,0.000000000000000000e+00
7.500000000000000000e+01,2.008674213680119829e-03,0.000000000000000000e+00
7.600000000000000000e+01,-5.254725962381740639e-02,0.000000000000000000e+00
7.700000000000000000e+01,-1.158093670582319296e-01,0.000000000000000000e+00
7.800000000000000000e+01,1.198905662779886361e-01,0.000000000000000000e+00
7.900000000000000000e+01,2.312350708168565416e-01,0.000000000000000000e+00
8.000000000000000000e+01,-1.596302145189300026e-01,0.000000000000000000e+00
8.100000000000000000e+01,3.091256322620563810e-02,0.000000000000000000e+00
8.200000000000000000e+01,-1.336652116818214941e-01,0.000000000000000000e+00
8.300000000000000000e+01,2.797564132441995977e+00,0.000000000000000000e+00
8.400000000000000000e+01,4.066867546866839156e+00,0.000000000000000000e+00
8.500000000000000000e+01,1.989559427635894995e+00,0.000000000000000000e+00
8.600000000000000000e+01,7.042620265249972533e-01,0.000000000000000000e+00
8.700000000000000000e+01,-8.556823443518122296e-01,0.000000000000000000e+00
8.800000000000000000e+01,-1.369048458912089039e+00,0.000000000000000000e+00
8.900000000000000000e+01,-1.233227049360222427e+00,0.000000000000000000e+00
9.000000000000000000e+01,-1.282611359280393160e+00,0.000000000000000000e+00
9.100000000000000000e+01,-1.077711116304587824e+00,0.000000000000000000e+00
9.200000000000000000e+01,-7.962132211971055806e-01,0.000000000000000000e+00
9.300000000000000000e+01,-1.093731045366579835e+00,0.000000000000000000e+00
9.400000000000000000e+01,-6.492541045750457318e-01,0.000000000000000000e+00
9.500000000000000000e+01,-5.542761470880980257e-01,0.000000000000000000e+00
9.600000000000000000e+01,-5.720407858218328201e-01,0.000000000000000000e+00
9.700000000000000000e+01,-5.075747825764612697e-01,0.000000000000000000e+00
9.800000000000000000e+01,-1.091639974426610732e-01,0.000000000000000000e+00
9.900000000000000000e+01,-3.970180878146420400e-02,0.000000000000000000e+00
1.000000000000000000e+02,1.508945035512655568e-02,0.000000000000000000e+00
1.010000000000000000e+02,5.940549078826377061e-01,0.000000000000000000e+00
1.020000000000000000e+02,8.670457539788033463e-01,0.000000000000000000e+00
1.030000000000000000e+02,5.588852541201224655e-01,0.000000000000000000e+00
1.040000000000000000e+02,4.294329798122815123e-01,0.000000000000000000e+00
1.050000000000000000e+02,2.735407715010712004e-01,0.000000000000000000e+00
1.060000000000000000e+02,-4.548513473825249176e-01,0.000000000000000000e+00
1.070000000000000000e+02,-1.183719281111748206e-01,0.000000000000000000e+00
1.080000000000000000e+02,-1.693685408274900606e-01,0.000000000000000000e+00
1.090000000000000000e+02,-3.536124714737041708e-01,0.000000000000000000e+00
1.100000000000000000e+02,-9.474443092106710207e-02,0.000000000000000000e+00
1.110000000000000000e+02,-3.024911399571769688e-01,0.000000000000000000e+00
1.120000000000000000e+02,-8.332444330099728069e-02,0.000000000000000000e+00
1.130000000000000000e+02,-1.800889310883900252e-01,0.000000000000000000e+00
1.140000000000000000e+02,-3.129052182237538476e-02,0.000000000000000000e+00
1.150000000000000000e+02,-1.325153851754637679e-01,0.000000000000000000e+00
1.160000000000000000e+02,-8.753259724503838213e-02,0.000000000000000000e+00
1.170000000000000000e+02,2.837961691451113683e-02,0.000000000000000000e+00
1.180000000000000000e+02,1.320850873597395059e-01,0.000000000000000000e+00
1.190000000000000000e+02,-3.742158416835232593e-02,0.000000000000000000e+00
1.200000000000000000e+02,3.563906715726478797e-02,0.000000000000000000e+00
1.210000000000000000e+02,-1.884601681800290515e-02,0.000000000000000000e+00
1.220000000000000000e+02,1.981204441040224085e-01,0.000000000000000000e+00
1.230000000000000000e+02,-4.781825094189628284e-03,0.000000000000000000e+00
1.240000000000000000e+02,1.970541490669986961e-01,0.000000000000000000e+00
1.250000000000000000e+02,1.346834153162418113e-01,0.000000000000000000e+00
1.260000000000000000e+02,-2.735900004141502990e-03,0.000000000000000000e+00
1.270000000000000000e+02,1.390325536640493465e-01,0.000000000000000000e+00
1.280000000000000000e+02,-3.171734903278986602e-03,0.000000000000000000e+00
1.290000000000000000e+02,2.252215692482605058e-01,0.000000000000000000e+00
1.300000000000000000e+02,1.646493328026484015e-01,0.000000000000000000e+00
1.310000000000000000e+02,2.430060678638767402e-01,0.000000000000000000e+00
1.320000000000000000e+02,2.967675716189940860e-02,0.000000000000000000e+00
1.330000000000000000e+02,1.608180993886191845e-01,0.000000000000000000e+00
1.340000000000000000e+02,1.552571156413731258e-02,0.000000000000000000e+00
1.350000000000000000e+02,2.987095324662784046e-01,0.000000000000000000e+00
1.360000000000000000e+02,-3.770941473113690462e-02,0.000000000000000000e+00
1.370000000000000000e+02,-2.082345756931212183e-02,0.000000000000000000e+00
1.380000000000000000e+02,5.006828092307438194e-01,0.000000000000000000e+00
1.390000000000000000e+02,3.809836133653627499e+00,0.000000000000000000e+00
1.400000000000000000e+02,4.243218372665546134e+00,0.000000000000000000e+00
1.410000000000000000e+02,1.783269691537605617e+00,1.000000000000000000e+00
1.420000000000000000e+02,2.729228292732933103e-01,0.000000000000000000e+00
1.430000000000000000e+02,-1.379139873499385383e+00,0.000000000000000000e+00
1.440000000000000000e+02,-1.515411795150695129e+00,0.000000000000000000e+00
1.450000000000000000e+02,-1.439351027240311831e+00,0.000000000000000000e+00
1.460000000000000000e+02,-1.335768403470950716e+00,0.000000000000000000e+00
1.470000000000000000e+02,-1.153223448092487891e+00,0.000000000000000000e+00
1.480000000000000000e+02,-1.198426169660716134e+00,0.000000000000000000e+00
1.490000000000000000e+02,-1.170963450930981864e+00,0.000000000000000000e+00
1.500000000000000000e+02,-9.057184032361795811e-01,0.000000000000000000e+00
1.510000000000000000e+02,-8.149766446696853350e-01,0.000000000000000000e+00
1.520000000000000000e+02,-8.273739591498634471e-01,0.000000000000000000e+00
1.530000000000000000e+02,-5.969047901362836139e-01,0.000000000000000000e+00
1.540000000000000000e+02,-4.177019592968389539e-01,0.000000000000000000e+00
1.550000000000000000e+02,-1.482909023292059425e-01,0.000000000000000000e+00
1.560000000000000000e+02,4.196260299455795845e-02,0.000000000000000000e+00
1.570000000000000000e+02,3.032711267999739224e-01,0.000000000000000000e+00
1.580000000000000000e+02,6.446628822373997592e-01,0.000000000000000000e+00
1.590000000000000000e+02,7.040380676161094309e-01,0.000000000000000000e+00
1.600000000000000000e+02,5.362964362593757306e-01,0.000000000000000000e+00
1.610000000000000000e+02,-2.369583553100190060e-02,0.000000000000000000e+00
1.620000000000000000e+02,-1.271988637909705344e-01,0.000000000000000000e+00
1.630000000000000000e+02,-4.375573889008413930e-01,0.000000000000000000e+00
1.640000000000000000e+02,-2.331619585907491465e-01,0.000000000000000000e+00
1.650000000000000000e+02,-3.470521358418347524e-01,0.000000000000000000e+00
1.660000000000000000e+02,-1.080506140804407822e-01,0.000000000000000000e+00
1.670000000000000000e+02,-2.546936587218160963e-01,0.000000000000000000e+00
1.680000000000000000e+02,-2.049442859786724802e-01,0.000000000000000000e+00
1.690000000000000000e+02,-1.902637720453561887e-01,0.000000000000000000e+00
1.700000000000000000e+02,-1.072266624904498616e-01,0.000000000000000000e+00
1.710000000000000000e+02,5.334662500308951644e-02,0.000000000000000000e+00
1.720000000000000000e+02,-9.512881930298920652e-02,0.000000000000000000e+00
1.730000000000000000e+02,-6.725266191988665126e-03,0.000000000000000000e+00
1.740000000000000000e+02,-1.150695309783140857e-01,0.000000000000000000e+00
1.750000000000000000e+02,1.315067184720426496e-01,0.000000000000000000e+00
1.760000000000000000e+02,4.384822175283757673e-02,0.000000000000000000e+00
1.770000000000000000e+02,6.702910977913146585e-03,0.000000000000000000e+00
1.780000000000000000e+02,-5.733984971032202865e-02,0.000000000000000000e+00
1.790000000000000000e+02,4.564910975737901389e-02,0.000000000000000000e+00
1.800000000000000000e+02,6.272699184155902663e-02,0.000000000000000000e+00
1.810000000000000000e+02,1.417721116640037748e-01,0.000000000000000000e+00
1.820000000000000000e+02,1.217959219813560395e-01,0.000000000000000000e+00
1.830000000000000000e+02,-1.706473643957134578e-01,0.000000000000000000e+00
1.840000000000000000e+02,7.450798986043530303e-02,0.000000000000000000e+00
1.850000000000000000e+02,3.321390441928969151e-01,0.000000000000000000e+00
1.860000000000000000e+02,9.039117137559443682e-02,0.000000000000000000e+00
1.870000000000000000e+02,1.241743820405797616e-01,0.000000000000000000e+00
1.880000000000000000e+02,1.835483948797465015e-01,0.000000000000000000e+00
1.890000000000000000e+02,4.085053315211741726e-02,0.000000000000000000e+00
1.900000000000000000e+02,7.831504292063304340e-02,0.000000000000000000e+00
1.910000000000000000e+02,2.037406138581466242e-01,0.000000000000000000e+00
1.920000000000000000e+02,6.664283405042759068e-02,0.000000000000000000e+00
1.930000000000000000e+02,2.968765518119427238e-01,0.000000000000000000e+00
1.940000000000000000e+02,1.919629381562712733e-01,0.000000000000000000e+00
1.950000000000000000e+02,7.944265115670859356e-02,0.000000000000000000e+00
1.960000000000000000e+02,6.923624453568721915e-02,0.000000000000000000e+00
1.970000000000000000e+02,3.452079294104682949e-01,0.000000000000000000e+00
1.980000000000000000e+02,1.406590580848530725e-01,0.000000000000000000e+00
1.990000000000000000e+02,3.032181855751669430e-01,0.000000000000000000e+00
2.000000000000000000e+02,1.486612719186820031e-01,0.000000000000000000e+00
2.010000000000000000e+02,1.715745946579181058e-01,0.000000000000000000e+00
2.020000000000000000e+02,-1.390266365401354176e-01,0.000000000000000000e+00
2.030000000000000000e+02,5.600959265396525666e-01,0.000000000000000000e+00
2.040000000000000000e+02,3.915304062882637215e+00,0.000000000000000000e+00
2.050000000000000000e+02,3.156473412795748335e+00,1.000000000000000000e+00
2.060000000000000000e+02,9.930806400522923516e-01,0.000000000000000000e+00
2.070000000000000000e+02,1.150388366449848210e-01,0.000000000000000000e+00
2.080000000000000000e+02,-1.270526127995112331e+00,0.000000000000000000e+00
2.090000000000000000e+02,-1.123787616309492643e+00,0.000000000000000000e+00
2.100000000000000000e+02,-1.395547025857112766e+00,0.000000000000000000e+00
2.110000000000000000e+02,-1.273264735043914353e+00,0.000000000000000000e+00
2.120000000000000000e+02,-9.961597467676128748e-01,0.000000000000000000e+00
2.130000000000000000e+02,-1.006000866072971789e+00,0.000000000000000000e+00
2.140000000000000000e+02,-1.011656570600553806e+00,0.000000000000000000e+00
2.150000000000000000e+02,-7.622752000520135462e-01,0.000000000000000000e+00
2.160000000000000000e+02,-7.958882136327161128e-01,0.000000000000000000e+00
2.170000000000000000e+02,-6.948468556284554953e-01,0.000000000000000000e+00
2.180000000000000000e+02,-5.373701542412314680e-01,0.000000000000000000e+00
2.190000000000000000e+02,-3.368162660226518001e-01,0.000000000000000000e+00
2.200000000000000000e+02,-2.111614025140430562e-01,0.000000000000000000e+00
2.210000000000000000e+02,-5.415213856414458071e-02,0.000000000000000000e+00
2.220000000000000000e+02,4.621654188163754617e-01,0.000000000000000000e+00
2.230000000000000000e+02,5.622067455008965542e-01,0.000000000000000000e+00
2.240000000000000000e+02,5.227963252270474426e-01,0.000000000000000000e+00
2.250000000000000000e+02,4.626301698521554928e-01,0.000000000000000000e+00
2.260000000000000000e+02,-1.156060486383102687e-01,0.000000000000000000e+00
2.270000000000000000e+02,-2.225899110744199438e-01,0.000000000000000000e+00
2.280000000000000000e+02,-3.946264989503217580e-01,0.000000000000000000e+00
2.290000000000000000e+02,-5.810259110616197153e-01,0.000000000000000000e+00
2.300000000000000000e+02,-4.927281407443266370e-01,0.000000000000000000e+00
2.310000000000000000e+02,-3.595182598300472598e-01,0.000000000000000000e+00
2.320000000000000000e+02,-4.008178792872337803e-01,0.000000000000000000e+00
2.330000000000000000e+02,-2.910641088868742288e-01,0.000000000000000000e+00
2.340000000000000000e+02,-1.987471538257329917e-01,0.000000000000000000e+00
2.350000000000000000e+02,-1.554016357408087301e-01,0.000000000000000000e+00
2.360000000000000000e+02,-5.928859768385238288e-02,0.000000000000000000e+00
2.370000000000000000e+02,-1.864284737260628322e-01,0.000000000000000000e+00
2.380000000000000000e+02,-1.234124880296286059e-01,0.000000000000000000e+00
2.390000000000000000e+02,-4.292907956415762533e-02,0.000000000000000000e+00
2.400000000000000000e+02,5.258508496255930725e-02,0.000000000000000000e+00
2.410000000000000000e+02,9.465335203695234012e-02,0.000000000000000000e+00
2.420000000000000000e+02,-7.480819930914991978e-02,0.000000000000000000e+00
2.430000000000000000e+02,4.481160773594548147e-02,0.000000000000000000e+00
2.440000000000000000e+02,1.188567185744583560e-01,0.000000000000000000e+00
2.450000000000000000e+02,-7.798643244342327863e-02,0.000000000000000000e+00
2.460000000000000000e+02,1.164760052578151794e-01,0.000000000000000000e+00
2.470000000000000000e+02,3.169551479245131392e-02,0.000000000000000000e+00
2.480000000000000000e+02,2.397339786864652600e-01,0.000000000000000000e+00
2.490000000000000000e+02,3.157113218363040708e-01,0.000000000000000000e+00
2.500000000000000000e+02,4.548724424122585486e-02,0.000000000000000000e+00
2.510000000000000000e+02,2.523748272202269716e-01,0.000000000000000000e+00
2.520000000000000000e+02,2.116461417825627744e-01,0.000000000000000000e+00
2.530000000000000000e+02,2.624565452367793039e-01,0.000000000000000000e+00
2.540000000000000000e+02,5.639530976284520825e-02,0.000000000000000000e+00
2.550000000000000000e+02,8.477050522985449810e-01,0.000000000000000000e+00
2.560000000000000000e+02,3.984029030432247875e+00,0.000000000000000000e+00
2.570000000000000000e+02,3.534659536040664296e+00,1.000000000000000000e+00
2.580000000000000000e+02,1.583138431893471809e+00,0.000000000000000000e+00
2.590000000000000000e+02,-3.286095003356886285e-02,0.000000000000000000e+00
2.600000000000000000e+02,-1.292747989936080977e+00,0.000000000000000000e+00
2.610000000000000000e+02,-1.223408272100522165e+00,0.000000000000000000e+00
2.620000000000000000e+02,-1.320464304616426610e+00,0.000000000000000000e+00
2.630000000000000000e+02,-8.887881499014196329e-01,0.000000000000000000e+00
2.640000000000000000e+02,-1.147563172642987794e+00,0.000000000000000000e+00
2.650000000000000000e+02,-9.766498621947260483e-01,0.000000000000000000e+00
2.660000000000000000e+02,-6.309740182025140864e-01,0.000000000000000000e+00
2.670000000000000000e+02,-6.806566752853683289e-01,0.000000000000000000e+00
2.680000000000000000e+02,-8.241311205999288791e-01,0.000000000000000000e+00
2.690000000000000000e+02,-3.248040786648027645e-01,0.000000000000000000e+00
2.700000000000000000e+02,-4.160338720541071900e-01,0.000000000000000000e+00
2.710000000000000000e+02,-3.239965826409371141e-01,0.000000000000000000e+00
2.720000000000000000e+02,1.868394220545148143e-01,0.000000000000000000e+00
2.730000000000000000e+02,2.834649803480120411e-01,0.000000000000000000e+00
2.740000000000000000e+02,6.874315004759388170e-01,0.000000000000000000e+00
2.750000000000000000e+02,8.976530689543344987e-01,0.000000000000000000e+00
2.760000000000000000e+02,6.246247768944730439e-01,0.000000000000000000e+00
2.770000000000000000e+02,5.626889339122633782e-01,0.000000000000000000e+00
2.780000000000000000e+02,3.353385469704692895e-02,0.000000000000000000e+00
2.790000000000000000e+02,-1.464401555539145972e-01,0.000000000000000000e+00
2.800000000000000000e+02,-4.102134454478752468e-01,0.000000000000000000e+00
2.810000000000000000e+02,-3.840601408522588689e-01,0.000000000000000000e+00
2.820000000000000000e+02,-4.147133532292356373e-01,0.000000000000000000e+00
2.830000000000000000e+02,-4.300709874335388871e-01,0.000000000000000000e+00
2.840000000000000000e+02,-2.785251278840398248e-01,0.000000000000000000e+00
2.850000000000000000e+02,-5.678336129168105872e-02,0.000000000000000000e+00
2.860000000000000000e+02,-2.050503224209135889e-01,0.000000000000000000e+00
2.870000000000000000e+02,-3.614814974316414298e-01,0.000000000000000000e+00
2.880000000000000000e+02,-2.066654820889273492e-01,0.000000000000000000e+00
2.890000000000000000e+02,-4.333987697618759544e-02,0.000000000000000000e+00
2.900000000000000000e+02,1.504283744496221487e-01,0.000000000000000000e+00
2.910000000000000000e+02,-1.745817583511693749e-01,0.000000000000000000e+00
2.920000000000000000e+02,-9.728411475148382448e-02,0.000000000000000000e+00
2.930000000000000000e+02,8.448552342401230431e-02,0.000000000000000000e+00
2.940000000000000000e+02,-1.714034582013790053e-01,0.000000000000000000e+00
2.950000000000000000e+02,9.415034716204961907e-02,0.000000000000000000e+00
2.960000000000000000e+02,-1.627538820540322950e-01,0.000000000000000000e+00
2.970000000000000000e+02,1.258517494553630933e-01,0.000000000000000000e+00
2.980000000000000000e+02,-8.437528900018946565e-02,0.000000000000000000e+00
2.990000000000000000e+02,2.194361422570169640e-01,0.000000000000000000e+00
3.000000000000000000e+02,-1.272257505509457043e-01,0.000000000000000000e+00
3.010000000000000000e+02,-3.968467111364353678e-02,0.000000000000000000e+00
3.020000000000000000e+02,2.913587140274727094e-01,0.000000000000000000e+00
3.030000000000000000e+02,1.253225825055884757e-01,0.000000000000000000e+00
3.040000000000000000e+02,1.715705514541369936e-01,0.000000000000000000e+00
3.050000000000000000e+02,7.289989645124496376e-02,0.000000000000000000e+00
3.060000000000000000e+02,3.802317625474588292e-02,0.000000000000000000e+00
3.070000000000000000e+02,1.377678847490150793e-01,0.000000000000000000e+00
3.080000000000000000e+02,1.623522398579478609e-01,0.000000000000000000e+00
3.090000000000000000e+02,2.360890468393302688e-01,0.000000000000000000e+00
3.100000000000000000e+02,8.754901556642850913e-02,0.000000000000000000e+00
3.110000000000000000e+02,1.337383982044077491e-01,0.000000000000000000e+00
3.120000000000000000e+02,2.871841066680211330e-01,0.000000000000000000e+00
3.130000000000000000e+02,2.726485171784756578e-01,0.000000000000000000e+00
3.140000000000000000e+02,1.727942999381036904e-01,0.000000000000000000e+00
3.150000000000000000e+02,6.950213243909393601e-02,0.000000000000000000e+00
3.160000000000000000e+02,3.180240273307037846e-01,0.000000000000000000e+00
3.170000000000000000e+02,-9.105358237087167461e-02,0.000000000000000000e+00
3.180000000000000000e+02,3.879903274624383891e-01,0.000000000000000000e+00
3.190000000000000000e+02,-9.673560099338307863e-03,0.000000000000000000e+00
3.200000000000000000e+02,7.995764915696212949e-01,0.000000000000000000e+00
3.210000000000000000e+02,4.460920080384195074e+00,0.000000000000000000e+00
3.220000000000000000e+02,3.234696909375805340e+00,1.000000000000000000e+00
3.230000000000000000e+02,1.340473882063917932e+00,0.000000000000000000e+00
3.240000000000000000e+02,2.487713810357395153e-02,0.000000000000000000e+00
3.250000000000000000e+02,-1.526821134013839121e+00,0.000000000000000000e+00
3.260000000000000000e+02,-1.284186224678794730e+00,0.000000000000000000e+00
3.270000000000000000e+02,-1.509581780054083833e+00,0.000000000000000000e+00
3.280000000000000000e+02,-1.402577408533992598e+00,0.000000000000000000e+00
3.290000000000000000e+02,-8.783813163050218087e-01,0.000000000000000000e+00
3.300000000000000000e+02,-1.019548776946909818e+00,0.000000000000000000e+00
3.310000000000000000e+02,-1.055805218681732827e+00,0.000000000000000000e+00
3.320000000000000000e+02,-9.601764126643357322e-01,0.000000000000000000e+00
3.330000000000000000e+02,-7.886210950091531169e-01,0.000000000000000000e+00
3.340000000000000000e+02,-8.270479415112671484e-01,0.000000000000000000e+00
3.350000000000000000e+02,-5.185182077902288356e-01,0.000000000000000000e+00
3.360000000000000000e+02,-4.520958841506061976e-01,0.000000000000000000e+00
3.370000000000000000e+02,-3.070289352754787537e-01,0.000000000000000000e+00
3.380000000000000000e+02,1.139554599293806786e-01,0.000000000000000000e+00
3.390000000000000000e+02,3.963431336532671767e-01,0.000000000000000000e+00
3.400000000000000000e+02,6.312535543280309858e-01,0.000000000000000000e+00
3.410000000000000000e+02,5.412345077395448456e-01,0.000000000000000000e+00
3.420000000000000000e+02,4.809732176170489759e-01,0.000000000000000000e+00
3.430000000000000000e+02,2.471629414189107921e-01,0.000000000000000000e+00
3.440000000000000000e+02,-3.003002822309551734e-01,0.000000000000000000e+00
3.450000000000000000e+02,-3.291117226104446347e-01,0.000000000000000000e+00
3.460000000000000000e+02,-4.510889967852323990e-01,0.000000000000000000e+00
3.470000000000000000e+02,-4.559131473013864899e-01,0.000000000000000000e+00
3.480000000000000000e+02,-2.676421528892677371e-01,0.000000000000000000e+00
3.490000000000000000e+02,-2.452955715312384322e-01,0.000000000000000000e+00
3.500000000000000000e+02,-3.211028903071479479e-01,0.000000000000000000e+00
3.510000000000000000e+02,-2.995898257721994473e-01,0.000000000000000000e+00
3.520000000000000000e+02,-1.849873956925255636e-01,0.000000000000000000e+00
3.530000000000000000e+02,-1.861288504696784196e-01,0.000000000000000000e+00
3.540000000000000000e+02,5.744549368072385254e-02,0.000000000000000000e+00
3.550000000000000000e+02,-1.370409938846069153e-01,0.000000000000000000e+00
3.560000000000000000e+02,5.991374579279198920e-02,0.000000000000000000e+00
3.570000000000000000e+02,-9.145416019142513231e-02,0.000000000000000000e+00
3.580000000000000000e+02,-5.083798370918404114e-02,0.000000000000000000e+00
3.590000000000000000e+02,1.467633431261158861e-01,0.000000000000000000e+00
3.600000000000000000e+02,-4.731055614145825844e-03,0.000000000000000000e+00
3.610000000000000000e+02,-4.753124346768630021e-02,0.000000000000000000e+00
3.620000000000000000e+02,-5.607605532605686172e-02,0.000000000000000000e+00
3.630000000000000000e+02,-7.082108042255642888e-02,0.000000000000000000e+00
3.640000000000000000e+02,3.436862266767443330e+00,0.000000000000000000e+00
3.650000000000000000e+02,4.677066466875912099e+00,0.000000000000000000e+00
3.660000000000000000e+02,2.106529524487454008e+00,1.000000000000000000e+00
3.670000000000000000e+02,4.937638745649232663e-01,0.000000000000000000e+00
3.680000000000000000e+02,-1.328510551126287798e+00,0.000000000000000000e+00
3.690000000000000000e+02,-1.552836598232020693e+00,0.000000000000000000e+00
3.700000000000000000e+02,-1.432728673747975856e+00,0.000000000000000000e+00
3.710000000000000000e+02,-1.454730447468395083e+00,0.000000000000000000e+00
3.720000000000000000e+02,-1.364828722527965166e+00,0.000000000000000000e+00
3.730000000000000000e+02,-1.057696136544872934e+00,0.000000000000000000e+00
3.740000000000000000e+02,-8.807908107238466844e-01,0.000000000000000000e+00
3.750000000000000000e+02,-9.811002961638541908e-01,0.000000000000000000e+00
3.760000000000000000e+02,-9.468975354470614558e-01,0.000000000000000000e+00
3.770000000000000000e+02,-5.581507664406603064e-01,0.000000000000000000e+00
3.780000000000000000e+02,-6.718917886275255213e-01,0.000000000000000000e+00
3.790000000000000000e+02,-1.582669386933643063e-01,0.000000000000000000e+00
3.800000000000000000e+02,-1.612845169892700437e-01,0.000000000000000000e+00
3.810000000000000000e+02,1.865902529278668232e-01,0.000000000000000000e+00
3.820000000000000000e+02,5.527394610637249572e-01,0.000000000000000000e+00
3.830000000000000000e+02,8.580108498742656797e-01,0.000000000000000000e+00
3.840000000000000000e+02,6.431287227875296386e-01,0.000000000000000000e+00
3.850000000000000000e+02,7.278536902220295035e-01,0.000000000000000000e+00
3.860000000000000000e+02,1.012439559032934089e-01,0.000000000000000000e+00
3.870000000000000000e+02,-4.163628187632300581e-01,0.000000000000000000e+00
3.880000000000000000e+02,-3.765006141792309746e-01,0.000000000000000000e+00
3.890000000000000000e+02,-4.051666790875976809e-01,0.000000000000000000e+00
3.900000000000000000e+02,-1.116625992739601475e-01,0.000000000000000000e+00
3.910000000000000000e+02,-3.409604310763930113e-01,0.000000000000000000e+00
3.920000000000000000e+02,-1.981169949323368096e-01,0.000000000000000000e+00
3.930000000000000000e+02,-1.625886258089302705e-01,0.000000000000000000e+00
3.940000000000000000e+02,-7.981408925051218517e-02,0.000000000000000000e+00
3.950000000000000000e+02,-1.075899072430317599e-01,0.000000000000000000e+00
3.960000000000000000e+02,4.526430735124702988e-03,0.000000000000000000e+00
3.970000000000000000e+02,2.067670008125409818e-03,0.000000000000000000e+00
3.980000000000000000e+02,-3.850499932298412364e-02,0.000000000000000000e+00
3.990000000000000000e+02,2.527259847783792646e-01,0.000000000000000000e+00
4.000000000000000000e+02,-3.761116616695232839e-02,0.000000000000000000e+00
4.010000000000000000e+02,1.683125006319519668e-01,0.000000000000000000e+00
4.020000000000000000e+02,9.345459451230250791e-02,0.000000000000000000e+00
4.030000000000000000e+02,3.013256395105675112e-01,0.000000000000000000e+00
4.040000000000000000e+02,9.889378034300297729e-03,0.000000000000000000e+00
4.050000000000000000e+02,2.857828583286710078e-01,0.000000000000000000e+00
4.060000000000000000e+02,8.176408506530871700e-02,0.000000000000000000e+00
4.070000000000000000e+02,3.340328020664424247e-01,0.000000000000000000e+00
4.080000000000000000e+02,3.135941158232827819e-01,0.000000000000000000e+00
4.090000000000000000e+02,1.664127934926471764e-01,0.000000000000000000e+00
4.100000000000000000e+02,2.582064427914074756e-01,0.000000000000000000e+00
4.110000000000000000e+02,1.694194611246967186e-01,0.000000000000000000e+00
4.120000000000000000e+02,4.391358557691709130e-01,0.000000000000000000e+00
4.130000000000000000e+02,2.522112184585643263e-02,0.000000000000000000e+00
4.140000000000000000e+02,1.761400842655108934e-01,0.000000000000000000e+00
4.150000000000000000e+02,3.914465620684427494e-01,0.000000000000000000e+00
4.160000000000000000e+02,2.723121633191373792e-01,0.000000000000000000e+00
4.170000000000000000e+02,2.415712834030609157e-01,0.000000000000000000e+00
4.180000000000000000e+02,3.172661857511535621e-01,0.000000000000000000e+00
4.190000000000000000e+02,-2.447144859325981470e-01,0.000000000000000000e+00
4.200000000000000000e+02,2.970929780999335357e+00,0.000000000000000000e+00
4.210000000000000000e+02,5.260761367070706740e+00,0.000000000000000000e+00
4.220000000000000000e+02,2.742203523124311371e+00,1.000000000000000000e+00
4.230000000000000000e+02,6.334164622079008211e-01,0.000000000000000000e+00
4.240000000000000000e+02,-1.138858882366106995e+00,0.000000000000000000e+00
4.250000000000000000e+02,-1.286246580251796612e+00,0.000000000000000000e+00
4.260000000000000000e+02,-1.707370310669249713e+00,0.000000000000000000e+00
4.270000000000000000e+02,-1.562016191245847008e+00,0.000000000000000000e+00
4.280000000000000000e+02,-9.794577420023206082e-01,0.000000000000000000e+00
4.290000000000000000e+02,-1.453557459581415356e+00,0.000000000000000000e+00
4.300000000000000000e+02,-1.105995183371448087e+00,0.000000000000000000e+00
4.310000000000000000e+02,-1.013255919238087666e+00,0.000000000000000000e+00
4.320000000000000000e+02,-8.445585865031787209e-01,0.000000000000000000e+00
4.330000000000000000e+02,-8.222682491056624299e-01,0.000000000000000000e+00
4.340000000000000000e+02,-7.876165988142990182e-01,0.000000000000000000e+00
4.350000000000000000e+02,-4.703246578176031867e-01,0.000000000000000000e+00
4.360000000000000000e+02,-4.194828689247078746e-01,0.000000000000000000e+00
4.370000000000000000e+02,-5.479084963815175624e-02,0.000000000000000000e+00
4.380000000000000000e+02,3.270464809319638122e-01,0.000000000000000000e+00
4.390000000000000000e+02,3.299150366697677916e-01,0.000000000000000000e+00
4.400000000000000000e+02,7.605998683576833397e-01,0.000000000000000000e+00
4.410000000000000000e+02,5.262766039210210467e-01,0.000000000000000000e+00
4.420000000000000000e+02,3.405111983840166112e-01,0.000000000000000000e+00
4.430000000000000000e+02,-9.333254187591742690e-02,0.000000000000000000e+00
4.440000000000000000e+02,-1.554762767460544370e-01,0.000000000000000000e+00
4.450000000000000000e+02,-3.548484648896355065e-01,0.000000000000000000e+00
4.460000000000000000e+02,-4.636501201461330490e-01,0.000000000000000000e+00
4.470000000000000000e+02,-2.864935634218471749e-01,0.000000000000000000e+00
4.480000000000000000e+02,-1.129504549496649357e-01,0.000000000000000000e+00
4.490000000000000000e+02,-4.579996831007756009e-01,0.000000000000000000e+00
4.500000000000000000e+02,-2.188739222081855784e-01,0.000000000000000000e+00
4.510000000000000000e+02,-1.049272234633328443e-01,0.000000000000000000e+00
4.520000000000000000e+02,5.981180510097753103e-03,0.000000000000000000e+00
4.530000000000000000e+02,-1.731603009680868499e-01,0.000000000000000000e+00
4.540000000000000000e+02,-3.947266039802533460e-02,0.000000000000000000e+00
4.550000000000000000e+02,-6.837269705287638000e-02,0.000000000000000000e+00
4.560000000000000000e+02,8.608899849275790037e-03,0.000000000000000000e+00
4.570000000000000000e+02,-1.937730353924168106e-02,0.000000000000000000e+00
4.580000000000000000e+02,6.764440773625872427e-02,0.000000000000000000e+00
4.590000000000000000e+02,6.925569885979629414e-02,0.000000000000000000e+00
4.600000000000000000e+02,-1.024532509444441714e-01,0.000000000000000000e+00
4.610000000000000000e+02,1.666229822408853492e-02,0.000000000000000000e+00
4.620000000000000000e+02,-2.399339780290915200e-02,0.000000000000000000e+00
4.630000000000000000e+02,-1.221160968416488968e-01,0.000000000000000000e+00
4.640000000000000000e+02,2.459757543523342638e-01,0.000000000000000000e+00
4.650000000000000000e+02,-8.033478872110862840e-03,0.000000000000000000e+00
4.660000000000000000e+02,1.519904763013191218e-01,0.000000000000000000e+00
4.670000000000000000e+02,-2.280207106577991638e-01,0.000000000000000000e+00
4.680000000000000000e+02,2.879322196048747506e-01,0.000000000000000000e+00
4.690000000000000000e+02,-7.892202014796310949e-02,0.000000000000000000e+00
4.700000000000000000e+02,2.922220809127086816e-01,0.000000000000000000e+00
4.710000000000000000e+02,2.537773245917744960e-02,0.000000000000000000e+00
4.720000000000000000e+02,8.437443376145781215e-02,0.000000000000000000e+00
4.730000000000000000e+02,-4.751973772700086168e-02,0.000000000000000000e+00
4.740000000000000000e+02,6.293018055837834579e-02,0.000000000000000000e+00
4.750000000000000000e+02,5.281806131929536741e-02,0.000000000000000000e+00
4.760000000000000000e+02,3.604534472902011899e+00,0.000000000000000000e+00
4.770000000000000000e+02,4.159157640241002873e+00,0.000000000000000000e+00
4.780000000000000000e+02,1.627549064491455200e+00,1.000000000000000000e+00
4.790000000000000000e+02,2.901207879572210158e-01,0.000000000000000000e+00
4.800000000000000000e+02,-9.368450504924824562e-01,0.000000000000000000e+00
4.810000000000000000e+02,-1.320823674833557337e+00,0.000000000000000000e+00
4.820000000000000000e+02,-1.492183093462409182e+00,0.000000000000000000e+00
4.830000000000000000e+02,-1.154633366482395340e+00,0.000000000000000000e+00
4.840000000000000000e+02,-1.140098785239139323e+00,0.000000000000000000e+00
4.850000000000000000e+02,-9.672959127139002522e-01,0.000000000000000000e+00
4.860000000000000000e+02,-9.292928364521737539e-01,0.000000000000000000e+00
4.870000000000000000e+02,-7.426690576447667613e-01,0.000000000000000000e+00
4.880000000000000000e+02,-6.413718397075320876e-01,0.000000000000000000e+00
4.890000000000000000e+02,-7.017541456254177135e-01,0.000000000000000000e+00
4.900000000000000000e+02,-3.158753566278786895e-01,0.000000000000000000e+00
4.910000000000000000e+02,-4.066008841028990739e-01,0.000000000000000000e+00
4.920000000000000000e+02,1.333524975822134549e-02,0.000000000000000000e+00
4.930000000000000000e+02,2.777663409062440802e-01,0.000000000000000000e+00
4.940000000000000000e+02,5.352353693175022631e-01,0.000000000000000000e+00
4.950000000000000000e+02,7.302626791791502203e-01,0.000000000000000000e+00
4.960000000000000000e+02,8.194084955103878576e-01,0.000000000000000000e+00
4.970000000000000000e+02,4.982170962847793927e-01,0.000000000000000000e+00
4.980000000000000000e+02,1.579728026783829564e-01,0.000000000000000000e+00
4.990000000000000000e+02,-6.200285818443786873e-02,0.000000000000000000e+00
5.000000000000000000e+02,-5.228311726889994793e-01,0.000000000000000000e+00
5.010000000000000000e+02,-2.777332712292221450e-01,0.000000000000000000e+00
5.020000000000000000e+02,-4.981333787118257250e-01,0.000000000000000000e+00
5.030000000000000000e+02,-3.694983932780687153e-01,0.000000000000000000e+00
5.040000000000000000e+02,-5.645409252038997572e-01,0.000000000000000000e+00
5.050000000000000000e+02,-3.402989475329574187e-01,0.000000000000000000e+00
5.060000000000000000e+02,-4.527262974141996743e-01,0.000000000000000000e+00
5.070000000000000000e+02,-2.317194171826520710e-01,0.000000000000000000e+00
5.080000000000000000e+02,-1.902367444065642399e-01,0.000000000000000000e+00
5.090000000000000000e+02,-5.888064651960661644e-02,0.000000000000000000e+00
5.100000000000000000e+02,-6.856993174249219336e-02,0.000000000000000000e+00
5.110000000000000000e+02,-7.368524529889550201e-02,0.000000000000000000e+00
5.120000000000000000e+02,4.798864453088115545e-02,0.000000000000000000e+00
5.130000000000000000e+02,-5.999201201934211553e-03,0.000000000000000000e+00
5.140000000000000000e+02,-1.267220097982127425e-01,0.000000000000000000e+00
5.150000000000000000e+02,1.015286976599172157e-02,0.000000000000000000e+00
5.160000000000000000e+02,1.098378929244807067e-01,0.000000000000000000e+00
5.170000000000000000e+02,-2.273226277305274295e-02,0.000000000000000000e+00
5.180000000000000000e+02,4.471223680432212522e-02,0.000000000000000000e+00
5.190000000000000000e+02,2.029781297836465992e-01,0.000000000000000000e+00
5.200000000000000000e+02,8.797543456013798280e-02,0.000000000000000000e+00
5.210000000000000000e+02,2.117990418825448640e-01,0.000000000000000000e+00
5.220000000000000000e+02,1.305425936934593578e-01,0.000000000000000000e+00
5.230000000000000000e+02,-2.742312765395034727e-02,0.000000000000000000e+00
5.240000000000000000e+02,1.742577620077827849e-01,0.000000000000000000e+00
5.250000000000000000e+02,2.347347188253531558e-01,0.000000000000000000e+00
5.260000000000000000e+02,9.360233901136204293e-02,0.000000000000000000e+00
5.270000000000000000e+02,1.500563159963799187e-01,0.000000000000000000e+00
5.280000000000000000e+02,9.494955160045226439e-02,0.000000000000000000e+00
5.290000000000000000e+02,2.833185863515217950e-01,0.000000000000000000e+00
5.300000000000000000e+02,7.739131150409109261e-02,0.000000000000000000e+00
5.310000000000000000e+02,1.243836638109353521e-01,0.000000000000000000e+00
5.320000000000000000e+02,-6.192795966370793354e-02,0.000000000000000000e+00
5.330000000000000000e+02,1.384634942288375914e+00,0.000000000000000000e+00
5.340000000000000000e+02,4.350968705587187735e+00,0.000000000000000000e+00
5.350000000000000000e+02,3.046809872463510427e+00,1.000000000000000000e+00
5.360000000000000000e+02,1.207575735117926818e+00,0.000000000000000000e+00
5.370000000000000000e+02,-1.241697672517199230e-01,0.000000000000000000e+00
5.380000000000000000e+02,-1.516926264801541135e+00,0.000000000000000000e+00
5.390000000000000000e+02,-1.188760546532370954e+00,0.000000000000000000e+00
5.400000000000000000e+02,-1.306488411769950231e+00,0.000000000000000000e+00
5.410000000000000000e+02,-1.240530158948997430e+00,0.000000000000000000e+00
5.420000000000000000e+02,-1.060778100619139241e+00,0.000000000000000000e+00
5.430000000000000000e+02,-1.025919468062216566e+00,0.000000000000000000e+00
5.440000000000000000e+02,-1.171264927037511061e+00,0.000000000000000000e+00
5.450000000000000000e+02,-7.228668365881322222e-01,0.000000000000000000e+00
5.460000000000000000e+02,-6.263410998189757883e-01,0.000000000000000000e+00
5.470000000000000000e+02,-6.079064389012337477e-01,0.000000000000000000e+00
5.480000000000000000e+02,-4.612499583636230360e-01,0.000000000000000000e+00
5.490000000000000000e+02,-3.929206220865220645e-01,0.000000000000000000e+00
5.500000000000000000e+02,-1.355372487332695830e-01,0.000000000000000000e+00
5.510000000000000000e+02,1.611673594743070204e-01,0.000000000000000000e+00
5.520000000000000000e+02,3.475528474766746978e-01,0.000000000000000000e+00
5.530000000000000000e+02,5.459013011891449274e-01,0.000000000000000000e+00
5.540000000000000000e+02,7.156988439921008194e-01,0.000000000000000000e+00
5.550000000000000000e+02,2.779383333517742027e-01,0.000000000000000000e+00
5.560000000000000000e+02,1.562997142515188398e-01,0.000000000000000000e+00
5.570000000000000000e+02,-1.986304827275140183e-01,0.000000000000000000e+00
5.580000000000000000e+02,-3.165533765593083748e-01,0.000000000000000000e+00
5.590000000000000000e+02,-2.734324166043251014e-01,0.000000000000000000e+00
5.600000000000000000e+02,-4.613388888294962520e-01,0.000000000000000000e+00
5.610000000000000000e+02,-3.501775302004536128e-01,0.000000000000000000e+00
5.620000000000000000e+02,-3.852401157854820624e-01,0.000000000000000000e+00
5.630000000000000000e+02,-2.292632553439979126e-01,0.000000000000000000e+00
5.640000000000000000e+02,-4.541397526765154902e-02,0.000000000000000000e+00
5.650000000000000000e+02,-9.756962774710643826e-02,0.000000000000000000e+00
5.660000000000000000e+02,1.247842043929484751e-01,0.000000000000000000e+00
5.670000000000000000e+02,-4.161863594617266210e-02,0.000000000000000000e+00
5.680000000000000000e+02,6.477425669604193470e-02,0.000000000000000000e+00
5.690000000000000000e+02,-3.604280133606597991e-02,0.000000000000000000e+00
5.700000000000000000e+02,1.139746462206231437e-01,0.000000000000000000e+00
5.710000000000000000e+02,-8.262907108933596756e-02,0.000000000000000000e+00
5.720000000000000000e+02,1.116968109363592199e-01,0.000000000000000000e+00
5.730000000000000000e+02,6.429814962632511306e-04,0.000000000000000000e+00
5.740000000000000000e+02,1.192978531402413278e-01,0.000000000000000000e+00
5.750000000000000000e+02,5.542770137751801968e-02,0.000000000000000000e+00
5.760000000000000000e+02,3.753293498583309962e-01,0.000000000000000000e+00
5.770000000000000000e+02,2.055816719307468343e-01,0.000000000000000000e+00
5.780000000000000000e+02,7.745368641850233771e-02,0.000000000000000000e+00
5.790000000000000000e+02,1.221431675446387061e-01,0.000000000000000000e+00
5.800000000000000000e+02,1.761611548553974893e-01,0.000000000000000000e+00
5.810000000000000000e+02,-1.145516009563661043e-02,0.000000000000000000e+00
5.820000000000000000e+02,7.261722052604498157e-02,0.000000000000000000e+00
5.830000000000000000e+02,5.150938229822756842e-01,0.000000000000000000e+00
5.840000000000000000e+02,3.996247973963278799e+00,0.000000000000000000e+00
5.850000000000000000e+02,4.430664941250617161e+00,0.000000000000000000e+00
5.860000000000000000e+02,1.895337658521091040e+00,1.000000000000000000e+00
5.870000000000000000e+02,1.792276597376017688e-01,0.000000000000000000e+00
5.880000000000000000e+02,-1.405236661673392229e+00,0.000000000000000000e+00
5.890000000000000000e+02,-1.351831451398333828e+00,0.000000000000000000e+00
5.900000000000000000e+02,-1.342053664250886236e+00,0.000000000000000000e+00
5.910000000000000000e+02,-1.274449173547102632e+00,0.000000000000000000e+00
5.920000000000000000e+02,-1.265180790008821443e+00,0.000000000000000000e+00
5.930000000000000000e+02,-1.022045094969998402e+00,0.000000000000000000e+00
5.940000000000000000e+02,-1.013344427070714815e+00,0.000000000000000000e+00
5.950000000000000000e+02,-8.082707451459082426e-01,0.000000000000000000e+00
5.960000000000000000e+02,-7.261187197335295940e-01,0.000000000000000000e+00
5.970000000000000000e+02,-5.809371869825816770e-01,0.000000000000000000e+00
5.980000000000000000e+02,-7.194363334906519469e-01,0.000000000000000000e+00
5.990000000000000000e+02,-1.612199664893288198e-01,0.000000000000000000e+00
6.000000000000000000e+02,-1.142839156899766728e-01,0.000000000000000000e+00
6.010000000000000000e+02,2.155581819894350215e-01,0.000000000000000000e+00
6.020000000000000000e+02,3.973434109155249971e-01,0.000000000000000000e+00
6.030000000000000000e+02,8.111737618165283381e-01,0.000000000000000000e+00
6.040000000000000000e+02,7.522367862229359936e-01,0.000000000000000000e+00
6.050000000000000000e+02,6.497323855966136152e-01,0.000000000000000000e+00
6.060000000000000000e+02,-8.874000316521060694e-02,0.000000000000000000e+00
6.070000000000000000e+02,-2.280408695374915307e-01,0.000000000000000000e+00
6.080000000000000000e+02,-3.494791524906398217e-01,0.000000000000000000e+00
6.090000000000000000e+02,-4.869127122629968718e-01,0.000000000000000000e+00
6.100000000000000000e+02,-1.638884450830729866e-01,0.000000000000000000e+00
6.110000000000000000e+02,-3.766020730925526694e-01,0.000000000000000000e+00
6.120000000000000000e+02,-1.617148263811726272e-01,0.000000000000000000e+00
6.130000000000000000e+02,-1.133442659135416308e-01,0.000000000000000000e+00
6.140000000000000000e+02,-2.695975150694733813e-01,0.000000000000000000e+00
6.150000000000000000e+02,-1.319217266528696642e-01,0.000000000000000000e+00
6.160000000000000000e+02,-2.428804614580785601e-02,0.000000000000000000e+00
6.170000000000000000e+02,-3.799109667911648724e-02,0.000000000000000000e+00
6.180000000000000000e+02,1.044475197552500491e-02,0.000000000000000000e+00
6.190000000000000000e+02,-4.196273702826974067e-02,0.000000000000000000e+00
6.200000000000000000e+02,2.222581574800248927e-01,0.000000000000000000e+00
6.210000000000000000e+02,7.696778601595284262e-04,0.000000000000000000e+00
6.220000000000000000e+02,1.732341419473769906e-01,0.000000000000000000e+00
6.230000000000000000e+02,-3.409483323461797166e-01,0.000000000000000000e+00
6.240000000000000000e+02,1.795417738337921065e+00,0.000000000000000000e+00
6.250000000000000000e+02,4.873454701773539455e+00,0.000000000000000000e+00
6.260000000000000000e+02,3.016303117409461887e+00,1.000000000000000000e+00
6.270000000000000000e+02,1.259485872136489215e+00,0.000000000000000000e+00
6.280000000000000000e+02,-6.046194610535023939e-01,0.000000000000000000e+00
6.290000000000000000e+02,-1.500657583337014378e+00,0.000000000000000000e+00
6.300000000000000000e+02,-1.515617676097389621e+00,0.000000000000000000e+00
6.310000000000000000e+02,-1.496433865017007259e+00,0.000000000000000000e+00
6.320000000000000000e+02,-1.076923789307514756e+00,0.000000000000000000e+00
6.330000000000000000e+02,-1.315045388888196554e+00,0.000000000000000000e+00
6.340000000000000000e+02,-9.192937200766129191e-01,0.000000000000000000e+00
6.350000000000000000e+02,-1.039449114689305009e+00,0.000000000000000000e+00
6.360000000000000000e+02,-8.143886897977810069e-01,0.000000000000000000e+00
6.370000000000000000e+02,-8.054896898898067370e-01,0.000000000000000000e+00
6.380000000000000000e+02,-3.559977736206773047e-01,0.000000000000000000e+00
6.390000000000000000e+02,-5.493478467492169948e-01,0.000000000000000000e+00
6.400000000000000000e+02,-1.520696430163498147e-01,0.000000000000000000e+00
6.410000000000000000e+02,3.762132119657723983e-02,0.000000000000000000e+00
6.420000000000000000e+02,8.951952581453885560e-02,0.000000000000000000e+00
6.430000000000000000e+02,9.803271812606472180e-01,0.000000000000000000e+00
6.440000000000000000e+02,3.807627848434494422e-01,0.000000000000000000e+00
6.450000000000000000e+02,8.969951117867701329e-02,0.000000000000000000e+00
6.460000000000000000e+02,2.597102604303873075e-01,0.000000000000000000e+00
6.470000000000000000e+02,-4.035216792425114218e-01,0.000000000000000000e+00
6.480000000000000000e+02,-4.070748397066732971e-01,0.000000000000000000e+00
6.490000000000000000e+02,-4.811110503980032260e-01,0.000000000000000000e+00
6.500000000000000000e+02,-5.601999978665944679e-01,0.000000000000000000e+00
6.510000000000000000e+02,-2.226510335529188755e-01,0.000000000000000000e+00
6.520000000000000000e+02,-2.526132776232348220e-01,0.000000000000000000e+00
6.530000000000000000e+02,-3.061746339092432101e-01,0.000000000000000000e+00
6.540000000000000000e+02,3.546514463534914535e-02,0.000000000000000000e+00
6.550000000000000000e+02,2.010897840035448525e-01,0.000000000000000000e+00
6.560000000000000000e+02,-7.251440075261328388e-02,0.000000000000000000e+00
6.570000000000000000e+02,-7.882987563203021353e-02,0.000000000000000000e+00
6.580000000000000000e+02,-5.926178269461455927e-02,0.000000000000000000e+00
6.590000000000000000e+02,3.892859592491459964e-01,0.000000000000000000e+00
6.600000000000000000e+02,1.579429443326337001e-01,0.000000000000000000e+00
6.610000000000000000e+02,2.231067271171079669e-01,0.000000000000000000e+00
6.620000000000000000e+02,-1.195058848921994460e-01,0.000000000000000000e+00
6.630000000000000000e+02,3.447904842368182399e-01,0.000000000000000000e+00
6.640000000000000000e+02,7.080076178921741736e-02,0.000000000000000000e+00
6.650000000000000000e+02,3.203758831459876388e-01,0.000000000000000000e+00
6.660000000000000000e+02,1.089732792838821046e-01,0.000000000000000000e+00
6.670000000000000000e+02,3.275523957128902985e-01,0.000000000000000000e+00
6.680000000000000000e+02,2.757620411030585750e-01,0.000000000000000000e+00
6.690000000000000000e+02,3.365551588462633581e-01,0.000000000000000000e+00
6.700000000000000000e+02,2.061455027949609109e-01,0.000000000000000000e+00
6.710000000000000000e+02,2.379913654084976904e-01,0.000000000000000000e+00
6.720000000000000000e+02,2.584434351858316825e-01,0.000000000000000000e+00
6.730000000000000000e+02,1.574330321208455286e-01,0.000000000000000000e+00
6.740000000000000000e+02,1.847053209374341642e-01,0.000000000000000000e+00
6.750000000000000000e+02,1.916838279618992003e-01,0.000000000000000000e+00
6.760000000000000000e+02,3.811382728541319875e-01,0.000000000000000000e+00
6.770000000000000000e+02,3.153086431868946937e-02,0.000000000000000000e+00
6.780000000000000000e+02,5.441521423472658325e-01,0.000000000000000000e+00
6.790000000000000000e+02,4.011933648427110199e+00,0.000000000000000000e+00
6.800000000000000000e+02,4.566900079619453656e+00,0.000000000000000000e+00
6.810000000000000000e+02,1.665040196824055574e+00,1.000000000000000000e+00
6.820000000000000000e+02,4.687061776444528260e-01,0.000000000000000000e+00
6.830000000000000000e+02,-1.466272675988786300e+00,0.000000000000000000e+00
6.840000000000000000e+02,-1.461385270464153452e+00,0.000000000000000000e+00
6.850000000000000000e+02,-1.369205439827426485e+00,0.000000000000000000e+00
6.860000000000000000e+02,-1.439817665078197084e+00,0.000000000000000000e+00
6.870000000000000000e+02,-1.237772445291072776e+00,0.000000000000000000e+00
6.880000000000000000e+02,-1.039154050011430019e+00,0.000000000000000000e+00
6.890000000000000000e+02,-9.794788683621538095e-01,0.000000000000000000e+00
6.900000000000000000e+02,-9.410582768999403713e-01,0.000000000000000000e+00
6.910000000000000000e+02,-7.474490044467533290e-01,0.000000000000000000e+00
6.920000000000000000e+02,-7.514800590397623381e-01,0.000000000000000000e+00
6.930000000000000000e+02,-6.198382807226878732e-01,0.000000000000000000e+00
6.940000000000000000e+02,-4.077970247020895611e-01,0.000000000000000000e+00
6.950000000000000000e+02,-1.308436934648969374e-01,0.000000000000000000e+00
6.960000000000000000e+02,-2.510144064222489743e-02,0.000000000000000000e+00
6.970000000000000000e+02,5.121850990397103232e-01,0.000000000000000000e+00
6.980000000000000000e+02,4.671491483978552628e-01,0.000000000000000000e+00
6.990000000000000000e+02,6.440437591569030396e-01,0.000000000000000000e+00
7.000000000000000000e+02,3.649959932937770768e-01,0.000000000000000000e+00
7.010000000000000000e+02,1.700829991527555984e-01,0.000000000000000000e+00
7.020000000000000000e+02,-2.677097937958260454e-01,0.000000000000000000e+00
7.030000000000000000e+02,-3.398125661897851146e-01,0.000000000000000000e+00
7.040000000000000000e+02,-3.114382355725107132e-01,0.000000000000000000e+00
7.050000000000000000e+02,-4.471017368038471274e-01,0.000000000000000000e+00
7.060000000000000000e+02,-3.374663864872515240e-01,0.000000000000000000e+00
7.070000000000000000e+02,-5.192572392202743359e-01,0.000000000000000000e+00
7.080000000000000000e+02,-4.227377009740384550e-01,0.000000000000000000e+00
7.090000000000000000e+02,-1.309145355869618943e-01,0.000000000000000000e+00
7.100000000000000000e+02,-2.721208752573306411e-01,0.000000000000000000e+00
7.110000000000000000e+02,-1.695265037031961630e-01,0.000000000000000000e+00
7.120000000000000000e+02,-1.240818463405815170e-01,0.000000000000000000e+00
7.130000000000000000e+02,3.798293083091911632e-02,0.000000000000000000e+00
7.140000000000000000e+02,-1.821604486109302257e-01,0.000000000000000000e+00
7.150000000000000000e+02,-8.961506441053199157e-02,0.000000000000000000e+00
7.160000000000000000e+02,9.366706453001610866e-02,0.000000000000000000e+00
7.170000000000000000e+02,-9.629150543219359981e-02,0.000000000000000000e+00
7.180000000000000000e+02,-6.237209402924831503e-02,0.000000000000000000e+00
7.190000000000000000e+02,-2.058059166795163653e-01,0.000000000000000000e+00
7.200000000000000000e+02,1.905059619934748871e-01,0.000000000000000000e+00
7.210000000000000000e+02,1.268175651246170321e-01,0.000000000000000000e+00
7.220000000000000000e+02,3.509237163354276406e-02,0.000000000000000000e+00
7.230000000000000000e+02,-2.912918117618075453e-03,0.000000000000000000e+00
7.240000000000000000e+02,3.126863147343504901e-01,0.000000000000000000e+00
7.250000000000000000e+02,-7.015885461703466608e-02,0.000000000000000000e+00
7.260000000000000000e+02,7.224500985450626502e-03,0.000000000000000000e+00
7.270000000000000000e+02,-1.232362012730695922e-03,0.000000000000000000e+00
7.280000000000000000e+02,-1.207619296753854703e-02,0.000000000000000000e+00
7.290000000000000000e+02,3.291678148902480228e+00,0.000000000000000000e+00
7.300000000000000000e+02,3.799860052268525745e+00,0.000000000000000000e+00
7.310000000000000000e+02,1.577145704977104268e+00,1.000000000000000000e+00
7.320000000000000000e+02,3.878753274079820845e-01,0.000000000000000000e+00
7.330000000000000000e+02,-9.398009848499999652e-01,0.000000000000000000e+00
7.340000000000000000e+02,-1.342080686349134799e+00,0.000000000000000000e+00
7.350000000000000000e+02,-1.116164838932336423e+00,0.000000000000000000e+00
7.360000000000000000e+02,-1.066710376347261180e+00,0.000000000000000000e+00
7.370000000000000000e+02,-9.147527451160398781e-01,0.000000000000000000e+00
7.380000000000000000e+02,-9.523189715644352349e-01,0.000000000000000000e+00
7.390000000000000000e+02,-9.535040767223911251e-01,0.000000000000000000e+00
7.400000000000000000e+02,-6.961460624827714438e-01,0.000000000000000000e+00
7.410000000000000000e+02,-6.424806143504365741e-01,0.000000000000000000e+00
7.420000000000000000e+02,-5.528704394703609637e-01,0.000000000000000000e+00
7.430000000000000000e+02,-3.231009071755535089e-01,0.000000000000000000e+00
7.440000000000000000e+02,-3.508266336763632975e-01,0.000000000000000000e+00
7.450000000000000000e+02,-1.781407298244504778e-01,0.000000000000000000e+00
7.460000000000000000e+02,3.486811569432023972e-01,0.000000000000000000e+00
7.470000000000000000e+02,6.209014221915702958e-01,0.000000000000000000e+00
7.480000000000000000e+02,6.176917039291262013e-01,0.000000000000000000e+00
7.490000000000000000e+02,8.121176995870555970e-01,0.000000000000000000e+00
7.500000000000000000e+02,2.392889781392840698e-01,0.000000000000000000e+00
7.510000000000000000e+02,1.333697457876049652e-01,0.000000000000000000e+00
7.520000000000000000e+02,-3.627709988615754333e-01,0.000000000000000000e+00
7.530000000000000000e+02,-4.665447452456545907e-01,0.000000000000000000e+00
7.540000000000000000e+02,-2.924414764644011622e-01,0.000000000000000000e+00
7.550000000000000000e+02,-3.740323273153587924e-01,0.000000000000000000e+00
7.560000000000000000e+02,-2.206272098124469616e-01,0.000000000000000000e+00
7.570000000000000000e+02,-3.169326671390459427e-01,0.000000000000000000e+00
7.580000000000000000e+02,-3.024186769648117834e-01,0.000000000000000000e+00
7.590000000000000000e+02,-1.224782167683344386e-01,0.000000000000000000e+00
7.600000000000000000e+02,-2.191670216324757559e-01,0.000000000000000000e+00
7.610000000000000000e+02,-1.484217814947452196e-01,0.000000000000000000e+00
7.620000000000000000e+02,1.811230913185279956e-01,0.000000000000000000e+00
7.630000000000000000e+02,-3.398103605939505056e-02,0.000000000000000000e+00
7.640000000000000000e+02,2.829167268169388572e-02,0.000000000000000000e+00
7.650000000000000000e+02,-4.753778144998563326e-02,0.000000000000000000e+00
7.660000000000000000e+02,3.024794766524813716e-01,0.000000000000000000e+00
7.670000000000000000e+02,6.623843840839922781e-02,0.000000000000000000e+00
7.680000000000000000e+02,3.982826677853909536e-02,0.000000000000000000e+00
7.690000000000000000e+02,3.209440791232649054e-02,0.000000000000000000e+00
7.700000000000000000e+02,2.248984496112443054e-01,0.000000000000000000e+00
7.710000000000000000e+02,2.512713582104038612e-01,0.000000000000000000e+00
7.720000000000000000e+02,2.072410628318216430e-01,0.000000000000000000e+00
7.730000000000000000e+02,1.360560831548784377e-01,0.000000000000000000e+00
7.740000000000000000e+02,5.229691489574143232e-02,0.000000000000000000e+00
7.750000000000000000e+02,3.012913354724859882e-01,0.000000000000000000e+00
7.760000000000000000e+02,1.993303851684329608e-01,0.000000000000000000e+00
7.770000000000000000e+02,1.389150560634940801e-01,0.000000000000000000e+00
7.780000000000000000e+02,1.470189843005672292e-01,0.000000000000000000e+00
7.790000000000000000e+02,6.369151460813606003e-02,0.000000000000000000e+00
7.800000000000000000e+02,6.151623525985682184e-01,0.000000000000000000e+00
7.810000000000000000e+02,3.942707832466521012e+00,0.000000000000000000e+00
7.820000000000000000e+02,3.761750119971813522e+00,1.000000000000000000e+00
7.830000000000000000e+02,1.545010728764548480e+00,0.000000000000000000e+00
7.840000000000000000e+02,2.077495692723676235e-01,0.000000000000000000e+00
7.850000000000000000e+02,-1.254973710575466139e+00,0.000000000000000000e+00
7.860000000000000000e+02,-1.384118326228704898e+00,0.000000000000000000e+00
7.870000000000000000e+02,-1.321761802683551590e+00,0.000000000000000000e+00
7.880000000000000000e+02,-1.113923635967680070e+00,0.000000000000000000e+00
7.890000000000000000e+02,-1.125335624022117065e+00,0.000000000000000000e+00
7.900000000000000000e+02,-8.554486663218073828e-01,0.000000000000000000e+00
7.910000000000000000e+02,-8.695167737352056392e-01,0.000000000000000000e+00
7.920000000000000000e+02,-7.365453084833586406e-01,0.000000000000000000e+00
7.930000000000000000e+02,-7.773913147452705674e-01,0.000000000000000000e+00
7.940000000000000000e+02,-6.382947061274469869e-01,0.000000000000000000e+00
7.950000000000000000e+02,-4.606657385276040073e-01,0.000000000000000000e+00
7.960000000000000000e+02,-4.406241507259550105e-01,0.000000000000000000e+00
7.970000000000000000e+02,-1.006620130688098275e-01,0.000000000000000000e+00
7.980000000000000000e+02,1.533398655990592663e-01,0.000000000000000000e+00
7.990000000000000000e+02,6.466053484612298563e-01,0.000000000000000000e+00
8.000000000000000000e+02,2.892167760979782454e-01,0.000000000000000000e+00
8.010000000000000000e+02,7.285153926022718274e-01,0.000000000000000000e+00
8.020000000000000000e+02,5.870938154168240386e-01,0.000000000000000000e+00
8.030000000000000000e+02,-5.477165003022538975e-02,0.000000000000000000e+00
8.040000000000000000e+02,-3.108528742285532886e-01,0.000000000000000000e+00
8.050000000000000000e+02,-6.720834699971743875e-01,0.000000000000000000e+00
8.060000000000000000e+02,2.770503427082117096e-02,0.000000000000000000e+00
8.070000000000000000e+02,-3.958482440125774549e-01,0.000000000000000000e+00
8.080000000000000000e+02,-4.408179707544304105e-01,0.000000000000000000e+00
8.090000000000000000e+02,-4.500989997743801707e-01,0.000000000000000000e+00
8.100000000000000000e+02,-3.606860469582150452e-01,0.000000000000000000e+00
8.110000000000000000e+02,-9.280654024234179233e-02,0.000000000000000000e+00
8.120000000000000000e+02,-2.814586509579455331e-01,0.000000000000000000e+00
8.130000000000000000e+02,2.353239853807735649e-02,0.000000000000000000e+00
8.140000000000000000e+02,-1.786315540702190507e-01,0.000000000000000000e+00
8.150000000000000000e+02,7.772169898586495096e-02,0.000000000000000000e+00
8.160000000000000000e+02,-2.776384041997412844e-01,0.000000000000000000e+00
8.170000000000000000e+02,9.556532329398661737e-05,0.000000000000000000e+00
8.180000000000000000e+02,2.476224512276481993e-01,0.000000000000000000e+00
8.190000000000000000e+02,-1.470930993020753280e-02,0.000000000000000000e+00
8.200000000000000000e+02,-6.556841409558433753e-02,0.000000000000000000e+00
8.210000000000000000e+02,-7.057959269543105651e-02,0.000000000000000000e+00
8.220000000000000000e+02,-1.473875394899869587e-02,0.000000000000000000e+00
8.230000000000000000e+02,1.188178918768069692e-01,0.000000000000000000e+00
8.240000000000000000e+02,-9.403792505263587273e-03,0.000000000000000000e+00
8.250000000000000000e+02,1.752300841638037010e-01,0.000000000000000000e+00
8.260000000000000000e+02,-1.931721181640177684e-02,0.000000000000000000e+00
8.270000000000000000e+02,1.164667928380864192e-01,0.000000000000000000e+00
8.280000000000000000e+02,3.269994705262762591e-01,0.000000000000000000e+00
8.290000000000000000e+02,7.488938183618482070e-02,0.000000000000000000e+00
8.300000000000000000e+02,-1.920213603273045744e-01,0.000000000000000000e+00
8.310000000000000000e+02,1.262208212175888855e+00,0.000000000000000000e+00
8.320000000000000000e+02,4.665383341283535046e+00,0.000000000000000000e+00
8.330000000000000000e+02,3.169412389901723248e+00,1.000000000000000000e+00
8.340000000000000000e+02,1.395488003259154786e+00,0.000000000000000000e+00
8.350000000000000000e+02,-3.252817831215615296e-01,0.000000000000000000e+00
8.360000000000000000e+02,-1.314407054536230302e+00,0.000000000000000000e+00
8.370000000000000000e+02,-1.377112507081767134e+00,0.000000000000000000e+00
8.380000000000000000e+02,-1.445811982664244821e+00,0.000000000000000000e+00
8.390000000000000000e+02,-1.248507663453332306e+00,0.000000000000000000e+00
8.400000000000000000e+02,-1.301949054807336692e+00,0.000000000000000000e+00
8.410000000000000000e+02,-9.723099790414999610e-01,0.000000000000000000e+00
8.420000000000000000e+02,-9.040721418412814847e-01,0.000000000000000000e+00
8.430000000000000000e+02,-9.426667761680271873e-01,0.000000000000000000e+00
8.440000000000000000e+02,-6.406560772294480621e-01,0.000000000000000000e+00
8.450000000000000000e+02,-5.750783841385229689e-01,0.000000000000000000e+00
8.460000000000000000e+02,-4.543513760085960418e-01,0.000000000000000000e+00
8.470000000000000000e+02,-3.316025937832039472e-01,0.000000000000000000e+00
8.480000000000000000e+02,1.516724114507677634e-01,0.000000000000000000e+00
8.490000000000000000e+02,1.808339632671283892e-01,0.000000000000000000e+00
8.500000000000000000e+02,5.742432304230582485e-01,0.000000000000000000e+00
8.510000000000000000e+02,7.948863493668923974e-01,0.000000000000000000e+00
8.520000000000000000e+02,5.719570180530364478e-01,0.000000000000000000e+00
8.530000000000000000e+02,4.001688705702844961e-01,0.000000000000000000e+00
8.540000000000000000e+02,8.664988013278479562e-02,0.000000000000000000e+00
8.550000000000000000e+02,-1.553826347997207258e-01,0.000000000000000000e+00
8.560000000000000000e+02,-1.591131240887542764e-01,0.000000000000000000e+00
8.570000000000000000e+02,-2.479595539483774314e-01,0.000000000000000000e+00
8.580000000000000000e+02,-1.462534320286057454e-01,0.000000000000000000e+00
8.590000000000000000e+02,-1.675598374179299022e-01,0.000000000000000000e+00
8.600000000000000000e+02,-2.499156214179295565e-01,0.000000000000000000e+00
8.610000000000000000e+02,-3.804789073662693394e-02,0.000000000000000000e+00
8.620000000000000000e+02,-1.558189429040610641e-01,0.000000000000000000e+00
8.630000000000000000e+02,2.353755671732905147e-02,0.000000000000000000e+00
8.640000000000000000e+02,-5.521493254750166335e-02,0.000000000000000000e+00
8.650000000000000000e+02,-3.174978420936621498e-02,0.000000000000000000e+00
8.660000000000000000e+02,2.941804755114749148e-01,0.000000000000000000e+00
8.670000000000000000e+02,1.004840008638742815e-01,0.000000000000000000e+00
8.680000000000000000e+02,5.108428739169639660e-02,0.000000000000000000e+00
8.690000000000000000e+02,-1.201990547132639753e-01,0.000000000000000000e+00
8.700000000000000000e+02,2.999680394450157106e-01,0.000000000000000000e+00
8.710000000000000000e+02,1.424423435978347530e-01,0.000000000000000000e+00
8.720000000000000000e+02,1.269344889526757558e-01,0.000000000000000000e+00
8.730000000000000000e+02,-8.847803502533321818e-02,0.000000000000000000e+00
8.740000000000000000e+02,5.054168747566294417e-01,0.000000000000000000e+00
8.750000000000000000e+02,3.280585010468634044e-02,0.000000000000000000e+00
8.760000000000000000e+02,5.947485778583102567e-01,0.000000000000000000e+00
8.770000000000000000e+02,4.093541608777992558e+00,0.000000000000000000e+00
8.780000000000000000e+02,4.387855854109597331e+00,0.000000000000000000e+00
8.790000000000000000e+02,1.716292248005510501e+00,1.000000000000000000e+00
8.800000000000000000e+02,6.994059887825400390e-02,0.000000000000000000e+00
8.810000000000000000e+02,-1.534296710188972179e+00,0.000000000000000000e+00
8.820000000000000000e+02,-1.279900522069448154e+00,0.000000000000000000e+00
8.830000000000000000e+02,-1.296838218857589320e+00,0.000000000000000000e+00
8.840000000000000000e+02,-1.233494798723078212e+00,0.000000000000000000e+00
8.850000000000000000e+02,-1.416541279078430193e+00,0.000000000000000000e+00
8.860000000000000000e+02,-8.665809393016199458e-01,0.000000000000000000e+00
8.870000000000000000e+02,-9.721852970131021898e-01,0.000000000000000000e+00
8.880000000000000000e+02,-8.779447856175315312e-01,0.000000000000000000e+00
8.890000000000000000e+02,-8.031815841192777583e-01,0.000000000000000000e+00
8.900000000000000000e+02,-8.106158434117399780e-01,0.000000000000000000e+00
8.910000000000000000e+02,-5.063461836425358076e-01,0.000000000000000000e+00
8.920000000000000000e+02,-3.524451620490079429e-01,0.000000000000000000e+00
8.930000000000000000e+02,-1.208327201068281065e-01,0.000000000000000000e+00
8.940000000000000000e+02,2.750591285125995600e-01,0.000000000000000000e+00
8.950000000000000000e+02,3.857870128494474415e-01,0.000000000000000000e+00
8.960000000000000000e+02,6.522798165827321526e-01,0.000000000000000000e+00
8.970000000000000000e+02,6.189118178074286547e-01,0.000000000000000000e+00
8.980000000000000000e+02,4.479563290797339281e-01,0.000000000000000000e+00
8.990000000000000000e+02,-1.205533480706970778e-01,0.000000000000000000e+00
9.000000000000000000e+02,-2.266070416227244366e-01,0.000000000000000000e+00
9.010000000000000000e+02,-3.462274095542878793e-01,0.000000000000000000e+00
9.020000000000000000e+02,-3.629164477328246097e-01,0.000000000000000000e+00
9.030000000000000000e+02,-2.577331553038875178e-01,0.000000000000000000e+00
9.040000000000000000e+02,-4.690203440555605618e-02,0.000000000000000000e+00
9.050000000000000000e+02,-2.776118295106682621e-01,0.000000000000000000e+00
9.060000000000000000e+02,-2.771009174838739431e-01,0.000000000000000000e+00
9.070000000000000000e+02,-6.494644702879259768e-02,0.000000000000000000e+00
9.080000000000000000e+02,7.406371555269000706e-02,0.000000000000000000e+00
9.090000000000000000e+02,-2.737452353006974981e-01,0.000000000000000000e+00
9.100000000000000000e+02,-1.208812196517484727e-01,0.000000000000000000e+00
9.110000000000000000e+02,6.369942483196019967e-02,0.000000000000000000e+00
9.120000000000000000e+02,3.008697255568974493e-01,0.000000000000000000e+00
9.130000000000000000e+02,-1.966277891996469074e-01,0.000000000000000000e+00
9.140000000000000000e+02,-1.001667312647360752e-01,0.000000000000000000e+00
9.150000000000000000e+02,2.025031158433994727e-01,0.000000000000000000e+00
9.160000000000000000e+02,-5.875178363111535629e-02,0.000000000000000000e+00
9.170000000000000000e+02,5.022123893323703070e-02,0.000000000000000000e+00
9.180000000000000000e+02,2.982661536358090504e-01,0.000000000000000000e+00
9.190000000000000000e+02,1.297411652496966439e-01,0.000000000000000000e+00
9.200000000000000000e+02,-1.272708196674467440e-01,0.000000000000000000e+00
9.210000000000000000e+02,4.627138213697627039e-02,0.000000000000000000e+00
9.220000000000000000e+02,2.467151261241139260e+00,0.000000000000000000e+00
9.230000000000000000e+02,4.405974466907347953e+00,0.000000000000000000e+00
9.240000000000000000e+02,2.267393478472663482e+00,1.000000000000000000e+00
9.250000000000000000e+02,5.262053743722204802e-01,0.000000000000000000e+00
9.260000000000000000e+02,-7.673311489901488702e-01,0.000000000000000000e+00
9.270000000000000000e+02,-1.374939454260058147e+00,0.000000000000000000e+00
9.280000000000000000e+02,-1.274372480987739475e+00,0.000000000000000000e+00
9.290000000000000000e+02,-1.356473478004101452e+00,0.000000000000000000e+00
9.300000000000000000e+02,-1.193080786280192873e+00,0.000000000000000000e+00
9.310000000000000000e+02,-1.060875557304883809e+00,0.000000000000000000e+00
9.320000000000000000e+02,-7.963443962005576360e-01,0.000000000000000000e+00
9.330000000000000000e+02,-9.351952602085197297e-01,0.000000000000000000e+00
9.340000000000000000e+02,-8.092010982861984614e-01,0.000000000000000000e+00
9.350000000000000000e+02,-6.256830785470283152e-01,0.000000000000000000e+00
9.360000000000000000e+02,-4.880147946682029114e-01,0.000000000000000000e+00
9.370000000000000000e+02,-1.914695437461777228e-01,0.000000000000000000e+00
9.380000000000000000e+02,-1.094409338145225785e-01,0.000000000000000000e+00
9.390000000000000000e+02,1.895754752425207745e-01,0.000000000000000000e+00
9.400000000000000000e+02,5.039136966988564392e-01,0.000000000000000000e+00
9.410000000000000000e+02,4.958424747948302902e-01,0.000000000000000000e+00
9.420000000000000000e+02,1.008500284881556519e+00,0.000000000000000000e+00
9.430000000000000000e+02,-4.450181497151272508e-02,0.000000000000000000e+00
9.440000000000000000e+02,1.728353254758797572e-03,0.000000000000000000e+00
9.450000000000000000e+02,-3.017969373822117496e-01,0.000000000000000000e+00
9.460000000000000000e+02,-3.090896084093290863e-01,0.000000000000000000e+00
9.470000000000000000e+02,-2.593909868626633752e-01,0.000000000000000000e+00
9.480000000000000000e+02,-7.941861965377567945e-01,0.000000000000000000e+00
9.490000000000000000e+02,-3.354341140660481169e-01,0.000000000000000000e+00
9.500000000000000000e+02,-3.970330175224577873e-01,0.000000000000000000e+00
9.510000000000000000e+02,-3.217331164689832268e-01,0.000000000000000000e+00
9.520000000000000000e+02,-2.778791509729903186e-01,0.000000000000000000e+00
9.530000000000000000e+02,-4.171381578771055088e-02,0.000000000000000000e+00
9.540000000000000000e+02,-3.084775941560572998e-01,0.000000000000000000e+00
9.550000000000000000e+02,6.844252532266878464e-02,0.000000000000000000e+00
9.560000000000000000e+02,2.561397656095732445e-01,0.000000000000000000e+00
9.570000000000000000e+02,1.971677697803232709e-02,0.000000000000000000e+00
9.580000000000000000e+02,9.312690874453143086e-02,0.000000000000000000e+00
9.590000000000000000e+02,1.719760804173154911e-01,0.000000000000000000e+00
9.600000000000000000e+02,4.477482826640296620e-01,0.000000000000000000e+00
9.610000000000000000e+02,9.115097874569828840e-02,0.000000000000000000e+00
9.620000000000000000e+02,9.726347824114360552e-02,0.000000000000000000e+00
9.630000000000000000e+02,1.986354454614868426e-01,0.000000000000000000e+00
9.640000000000000000e+02,2.633045130121682287e-01,0.000000000000000000e+00
9.650000000000000000e+02,5.057054649514430844e-01,0.000000000000000000e+00
9.660000000000000000e+02,2.468009323299875379e-01,0.000000000000000000e+00
9.670000000000000000e+02,1.116143314706999068e-01,0.000000000000000000e+00
9.680000000000000000e+02,3.096576493055478996e-01,0.000000000000000000e+00
9.690000000000000000e+02,5.922942931304012171e-02,0.000000000000000000e+00
9.700000000000000000e+02,4.919770862451311455e-01,0.000000000000000000e+00
9.710000000000000000e+02,2.921522028915332081e-01,0.000000000000000000e+00
9.720000000000000000e+02,9.338179539671515039e-02,0.000000000000000000e+00
9.730000000000000000e+02,1.486072972143988140e-02,0.000000000000000000e+00
9.740000000000000000e+02,1.864795836886335101e+00,0.000000000000000000e+00
9.750000000000000000e+02,4.180123220144461804e+00,0.000000000000000000e+00
9.760000000000000000e+02,2.429246386351354037e+00,1.000000000000000000e+00
9.770000000000000000e+02,1.167919249075412891e+00,0.000000000000000000e+00
9.780000000000000000e+02,-4.278023580547212767e-01,0.000000000000000000e+00
9.790000000000000000e+02,-1.294200920541995758e+00,0.000000000000000000e+00
9.800000000000000000e+02,-1.204912062415368412e+00,0.000000000000000000e+00
9.810000000000000000e+02,-1.053475751975673003e+00,0.000000000000000000e+00
9.820000000000000000e+02,-1.155232723795621919e+00,0.000000000000000000e+00
9.830000000000000000e+02,-1.076944905437638544e+00,0.000000000000000000e+00
9.840000000000000000e+02,-6.800002360900612164e-01,0.000000000000000000e+00
9.850000000000000000e+02,-6.293783509848001056e-01,0.000000000000000000e+00
9.860000000000000000e+02,-1.024344888560739797e+00,0.000000000000000000e+00
9.870000000000000000e+02,-4.562455756327042367e-01,0.000000000000000000e+00
9.880000000000000000e+02,-6.619364388367535712e-01,0.000000000000000000e+00
9.890000000000000000e+02,-4.832357293701169398e-01,0.000000000000000000e+00
9.900000000000000000e+02,-2.368448284585392971e-01,0.000000000000000000e+00
9.910000000000000000e+02,-6.101457271625076312e-02,0.000000000000000000e+00
9.920000000000000000e+02,1.696722496132938851e-01,0.000000000000000000e+00
9.930000000000000000e+02,6.180677698142534870e-01,0.000000000000000000e+00
9.940000000000000000e+02,7.050703178663573212e-01,0.000000000000000000e+00
9.950000000000000000e+02,3.605520737319753977e-01,0.000000000000000000e+00
9.960000000000000000e+02,2.055678863361399822e-01,0.000000000000000000e+00
9.970000000000000000e+02,-2.902793873005883318e-01,0.000000000000000000e+00
9.980000000000000000e+02,-2.993386739096169369e-01,0.000000000000000000e+00
9.990000000000000000e+02,-5.133558263004665001e-01,0.000000000000000000e+00
1.000000000000000000e+03,-5.501045414107093023e-01,0.000000000000000000e+00
1.001000000000000000e+03,-3.525898995014206672e-01,0.000000000000000000e+00
1.002000000000000000e+03,-3.256197033769245852e-01,0.000000000000000000e+00
1.003000000000000000e+03,-4.078675935999314106e-01,0.000000000000000000e+00
1.004000000000000000e+03,-1.637641913875880484e-01,0.000000000000000000e+00
1.005000000000000000e+03,-2.683412273616923027e-01,0.000000000000000000e+00
1.006000000000000000e+03,-2.588464447948959912e-01,0.000000000000000000e+00
1.007000000000000000e+03,-6.642559737396708935e-03,0.000000000000000000e+00
1.008000000000000000e+03,-1.310851896549168338e-01,0.000000000000000000e+00
1.009000000000000000e+03,-1.845362984685920693e-01,0.000000000000000000e+00
1.010000000000000000e+03,5.712603667817899022e-02,0.000000000000000000e+00
1.011000000000000000e+03,-1.753754538395578197e-02,0.000000000000000000e+00
1.012000000000000000e+03,-2.319998245261419567e-01,0.000000000000000000e+00
1.013000000000000000e+03,-1.086552678154751733e-01,0.000000000000000000e+00
1.014000000000000000e+03,1.259089494815175403e-01,0.000000000000000000e+00
1.015000000000000000e+03,2.567231386454366798e-02,0.000000000000000000e+00
1.016000000000000000e+03,-1.788267460733687919e-01,0.000000000000000000e+00
1.017000000000000000e+03,-6.411940938392506062e-02,0.000000000000000000e+00
1.018000000000000000e+03,1.366919788492018117e-01,0.000000000000000000e+00
1.019000000000000000e+03,1.607080042224118543e-01,0.000000000000000000e+00
1.020000000000000000e+03,-8.336920609039794039e-02,0.000000000000000000e+00
1.021000000000000000e+03,-3.719295262556537168e-02,0.000000000000000000e+00
1.022000000000000000e+03,2.887821398836843967e-01,0.000000000000000000e+00
1.023000000000000000e+03,1.664348510144532667e-01,0.000000000000000000e+00
1.024000000000000000e+03,-1.782770259613199737e-01,0.000000000000000000e+00
1.025000000000000000e+03,2.451620314818898083e-01,0.000000000000000000e+00
1.026000000000000000e+03,9.226576454442966119e-03,0.000000000000000000e+00
1.027000000000000000e+03,1.473353401172888821e-01,0.000000000000000000e+00
1.028000000000000000e+03,1.521146222838186401e-01,0.000000000000000000e+00
1.029000000000000000e+03,9.488564740138247244e-03,0.000000000000000000e+00
1.030000000000000000e+03,5.078948160199709960e-01,0.000000000000000000e+00
1.031000000000000000e+03,4.041886266105114700e+00,0.000000000000000000e+00
1.032000000000000000e+03,3.839014305597217014e+00,1.000000000000000000e+00
1.033000000000000000e+03,1.745879078747446078e+00,0.000000000000000000e+00
1.034000000000000000e+03,1.633988713585362851e-01,0.000000000000000000e+00
1.035000000000000000e+03,-1.466003555753203180e+00,0.000000000000000000e+00
1.036000000000000000e+03,-1.301319642181705927e+00,0.000000000000000000e+00
1.037000000000000000e+03,-1.367441418647476148e+00,0.000000000000000000e+00
1.038000000000000000e+03,-1.246817240362476431e+00,0.000000000000000000e+00
1.039000000000000000e+03,-1.182674672583228892e+00,0.000000000000000000e+00
1.040000000000000000e+03,-1.050014291114245824e+00,0.000000000000000000e+00
1.041000000000000000e+03,-9.776629115201851405e-01,0.000000000000000000e+00
1.042000000000000000e+03,-7.463053322342049212e-01,0.000000000000000000e+00
1.043000000000000000e+03,-7.055059391050847450e-01,0.000000000000000000e+00
1.044000000000000000e+03,-5.893321806264467666e-01,0.000000000000000000e+00
1.045000000000000000e+03,-5.050510435330017867e-01,0.000000000000000000e+00
1.046000000000000000e+03,-3.020301782380518940e-01,0.000000000000000000e+00
1.047000000000000000e+03,-6.914844325914844270e-02,0.000000000000000000e+00
1.048000000000000000e+03,9.187019609626033423e-02,0.000000000000000000e+00
1.049000000000000000e+03,4.684265160053831534e-01,0.000000000000000000e+00
1.050000000000000000e+03,6.344235234679210800e-01,0.000000000000000000e+00
1.051000000000000000e+03,6.600045890709891339e-01,0.000000000000000000e+00
1.052000000000000000e+03,5.225011038895824855e-01,0.000000000000000000e+00
1.053000000000000000e+03,4.771628416295308622e-02,0.000000000000000000e+00
1.054000000000000000e+03,-8.615581014380394032e-02,0.000000000000000000e+00
1.055000000000000000e+03,-1.877209021063537819e-01,0.000000000000000000e+00
1.056000000000000000e+03,-2.014569819429438691e-01,0.000000000000000000e+00
1.057000000000000000e+03,-2.435383418803048206e-01,0.000000000000000000e+00
1.058000000000000000e+03,-2.001192796587970280e-01,0.000000000000000000e+00
1.059000000000000000e+03,-2.217217238379837474e-01,0.000000000000000000e+00
1.060000000000000000e+03,-1.764386283447764436e-01,0.000000000000000000e+00
1.061000000000000000e+03,-1.056911795939650123e-01,0.000000000000000000e+00
1.062000000000000000e+03,-5.087659770754738436e-02,0.000000000000000000e+00
1.063000000000000000e+03,-1.083238520693840246e-01,0.000000000000000000e+00
1.064000000000000000e+03,7.779961696247028602e-02,0.000000000000000000e+00
1.065000000000000000e+03,5.211507724379575018e-02,0.000000000000000000e+00
1.066000000000000000e+03,5.723400681501236015e-02,0.000000000000000000e+00
1.067000000000000000e+03,1.120851815768070248e-01,0.000000000000000000e+00
1.068000000000000000e+03,3.226778565616322259e-01,0.000000000000000000e+00
1.069000000000000000e+03,-6.023425210506104521e-02,0.000000000000000000e+00
1.070000000000000000e+03,6.025631068429865983e-02,0.000000000000000000e+00
1.071000000000000000e+03,1.479451766206810459e-01,0.000000000000000000e+00
1.072000000000000000e+03,1.308128374170307827e-02,0.000000000000000000e+00
1.073000000000000000e+03,3.244310373421500915e-02,0.000000000000000000e+00
1.074000000000000000e+03,1.269852564207420431e-01,0.000000000000000000e+00
1.075000000000000000e+03,1.919741560253412360e-01,0.000000000000000000e+00
1.076000000000000000e+03,1.556085169301882065e-01,0.000000000000000000e+00
1.077000000000000000e+03,-3.970474657588290296e-02,0.000000000000000000e+00
1.078000000000000000e+03,3.628621192588092348e-01,0.000000000000000000e+00
1.079000000000000000e+03,3.970069022515670953e-02,0.000000000000000000e+00
1.080000000000000000e+03,1.036885450042346890e-01,0.000000000000000000e+00
1.081000000000000000e+03,3.304738307299845412e-01,0.000000000000000000e+00
1.082000000000000000e+03,2.221822365264086718e-01,0.000000000000000000e+00
1.083000000000000000e+03,-1.523374963908927515e-01,0.000000000000000000e+00
1.084000000000000000e+03,3.417507238626209531e-01,0.000000000000000000e+00
1.085000000000000000e+03,3.475953833351285160e-01,0.000000000000000000e+00
1.086000000000000000e+03,6.596053130959027636e-03,0.000000000000000000e+00
1.087000000000000000e+03,9.603421834692062176e-02,0.000000000000000000e+00
1.088000000000000000e+03,3.224470052984764745e-01,0.000000000000000000e+00
1.089000000000000000e+03,3.700603636888904341e-02,0.000000000000000000e+00
1.090000000000000000e+03,-6.556946104467027692e-02,0.000000000000000000e+00
1.091000000000000000e+03,1.242234699390808578e-01,0.000000000000000000e+00
1.092000000000000000e+03,1.637822720627742923e-01,0.000000000000000000e+00
1.093000000000000000e+03,1.934657857183190999e-01,0.000000000000000000e+00
1.094000000000000000e+03,-3.186374524626500032e-02,0.000000000000000000e+00
1.095000000000000000e+03,-2.955466416712039246e-01,0.000000000000000000e+00
1.096000000000000000e+03,2.451452872910204750e+00,0.000000000000000000e+00
1.097000000000000000e+03,4.716734278028009264e+00,0.000000000000000000e+00
1.098000000000000000e+03,2.522830042357476099e+00,1.000000000000000000e+00
1.099000000000000000e+03,7.652217745328588894e-01,0.000000000000000000e+00
1.100000000000000000e+03,-1.006875021856093122e+00,0.000000000000000000e+00
1.101000000000000000e+03,-1.481342624967268762e+00,0.000000000000000000e+00
1.102000000000000000e+03,-1.545639614618927071e+00,0.000000000000000000e+00
1.103000000000000000e+03,-1.381487208666004829e+00,0.000000000000000000e+00
1.104000000000000000e+03,-1.493739526887899682e+00,0.000000000000000000e+00
1.105000000000000000e+03,-1.146824424693381417e+00,0.000000000000000000e+00
1.106000000000000000e+03,-1.092487606324523242e+00,0.000000000000000000e+00
1.107000000000000000e+03,-1.073549537993440106e+00,0.000000000000000000e+00
1.108000000000000000e+03,-1.031430721949783580e+00,0.000000000000000000e+00
1.109000000000000000e+03,-9.787678321725210573e-01,0.000000000000000000e+00
1.110000000000000000e+03,-6.904931270458001258e-01,0.000000000000000000e+00
1.111000000000000000e+03,-5.393521629561257580e-01,0.000000000000000000e+00
1.112000000000000000e+03,-5.493039226610969550e-01,0.000000000000000000e+00
1.113000000000000000e+03,-9.050646156934277764e-02,0.000000000000000000e+00
1.114000000000000000e+03,3.018504751785431317e-01,0.000000000000000000e+00
1.115000000000000000e+03,3.586834525935028717e-01,0.000000000000000000e+00
1.116000000000000000e+03,4.609038068157834123e-01,0.000000000000000000e+00
1.117000000000000000e+03,4.173756041539831152e-01,0.000000000000000000e+00
1.118000000000000000e+03,1.353680158906423736e-01,0.000000000000000000e+00
1.119000000000000000e+03,-1.070315387093609127e-01,0.000000000000000000e+00
1.120000000000000000e+03,-9.332131371602528369e-02,0.000000000000000000e+00
1.121000000000000000e+03,-4.100730021160839955e-01,0.000000000000000000e+00
1.122000000000000000e+03,-4.360624549423239293e-01,0.000000000000000000e+00
1.123000000000000000e+03,-1.495067334863232622e-01,0.000000000000000000e+00
1.124000000000000000e+03,-4.224930398006588317e-01,0.000000000000000000e+00
1.125000000000000000e+03,-2.721136867100149015e-01,0.000000000000000000e+00
1.126000000000000000e+03,-4.568854370387870345e-02,0.000000000000000000e+00
1.127000000000000000e+03,-2.405018607153155408e-01,0.000000000000000000e+00
1.128000000000000000e+03,-1.780485833846760513e-01,0.000000000000000000e+00
1.129000000000000000e+03,-1.065493915199211689e-01,0.000000000000000000e+00
1.130000000000000000e+03,2.049796090375423652e-01,0.000000000000000000e+00
1.131000000000000000e+03,-2.214722060040215379e-01,0.000000000000000000e+00
1.132000000000000000e+03,-2.581319807528371230e-02,0.000000000000000000e+00
1.133000000000000000e+03,4.011226422658037416e-01,0.000000000000000000e+00
1.134000000000000000e+03,4.090715192701932512e-02,0.000000000000000000e+00
1.135000000000000000e+03,-9.759275856220402112e-02,0.000000000000000000e+00
1.136000000000000000e+03,1.480792002840251587e-01,0.000000000000000000e+00
1.137000000000000000e+03,1.316734360320116759e-01,0.000000000000000000e+00
1.138000000000000000e+03,3.712063056063490823e-02,0.000000000000000000e+00
1.139000000000000000e+03,1.769866758826828812e-01,0.000000000000000000e+00
1.140000000000000000e+03,-3.217688621943941285e-02,0.000000000000000000e+00
1.141000000000000000e+03,1.200021345575380399e-01,0.000000000000000000e+00
1.142000000000000000e+03,1.868309265190837565e-01,0.000000000000000000e+00
1.143000000000000000e+03,8.383464192047057617e-02,0.000000000000000000e+00
1.144000000000000000e+03,1.525954314850059002e-01,0.000000000000000000e+00
1.145000000000000000e+03,1.788316795947712812e-02,0.000000000000000000e+00
1.146000000000000000e+03,1.834196455313734375e-02,0.000000000000000000e+00
1.147000000000000000e+03,5.764989587350818345e-01,0.000000000000000000e+00
1.148000000000000000e+03,4.252431965535950376e+00,0.000000000000000000e+00
1.149000000000000000e+03,3.683696325110175529e+00,1.000000000000000000e+00
1.150000000000000000e+03,1.646572196185064119e+00,0.000000000000000000e+00
1.151000000000000000e+03,1.206017389415670188e-01,0.000000000000000000e+00
1.152000000000000000e+03,-1.258444143848666208e+00,0.000000000000000000e+00
1.153000000000000000e+03,-1.365162668593948858e+00,0.000000000000000000e+00
1.154000000000000000e+03,-1.478350897208472237e+00,0.000000000000000000e+00
1.155000000000000000e+03,-1.032072461306728028e+00,0.000000000000000000e+00
1.156000000000000000e+03,-1.150538719724510939e+00,0.000000000000000000e+00
1.157000000000000000e+03,-9.561358497956090607e-01,0.000000000000000000e+00
1.158000000000000000e+03,-8.270694453602978058e-01,0.000000000000000000e+00
1.159000000000000000e+03,-8.541627922516423777e-01,0.000000000000000000e+00
1.160000000000000000e+03,-7.541682581304562927e-01,0.000000000000000000e+00
1.161000000000000000e+03,-5.657671890059311481e-01,0.000000000000000000e+00
1.162000000000000000e+03,-5.807549050376226152e-01,0.000000000000000000e+00
1.163000000000000000e+03,-2.858586310435703437e-01,0.000000000000000000e+00
1.164000000000000000e+03,1.098701200818947843e-01,0.000000000000000000e+00
1.165000000000000000e+03,2.465754242408582098e-01,0.000000000000000000e+00
1.166000000000000000e+03,7.168334392188200344e-01,0.000000000000000000e+00
1.167000000000000000e+03,6.942831494496598532e-01,0.000000000000000000e+00
1.168000000000000000e+03,7.930145913154748039e-01,0.000000000000000000e+00
1.169000000000000000e+03,3.931543544353268693e-01,0.000000000000000000e+00
1.170000000000000000e+03,2.994727672026467960e-02,0.000000000000000000e+00
1.171000000000000000e+03,-3.353326198619960841e-01,0.000000000000000000e+00
1.172000000000000000e+03,-3.368928363971848139e-01,0.000000000000000000e+00
1.173000000000000000e+03,-4.318558579722411306e-01,0.000000000000000000e+00
1.174000000000000000e+03,-2.859131720224601381e-01,0.000000000000000000e+00
1.175000000000000000e+03,-2.012867007411967557e-01,0.000000000000000000e+00
1.176000000000000000e+03,-3.908422731982497123e-01,0.000000000000000000e+00
1.177000000000000000e+03,-3.694034952598290733e-01,0.000000000000000000e+00
1.178000000000000000e+03,-2.015519076004691212e-01,0.000000000000000000e+00
1.179000000000000000e+03,5.796066403829564298e-03,0.000000000000000000e+00
1.180000000000000000e+03,-2.497977865688696675e-01,0.000000000000000000e+00
1.181000000000000000e+03,-8.394559919659780323e-02,0.000000000000000000e+00
1.182000000000000000e+03,-5.172719752191438577e-03,0.000000000000000000e+00
1.183000000000000000e+03,-1.135808931703047031e-01,0.000000000000000000e+00
1.184000000000000000e+03,1.245926794095617574e-01,0.000000000000000000e+00
1.185000000000000000e+03,9.552803822354746788e-02,0.000000000000000000e+00
1.186000000000000000e+03,-1.485360004146239477e-01,0.000000000000000000e+00
1.187000000000000000e+03,7.947747677058761284e-02,0.000000000000000000e+00
1.188000000000000000e+03,3.392477573009872738e-01,0.000000000000000000e+00
1.189000000000000000e+03,3.274613123810335576e-04,0.000000000000000000e+00
1.190000000000000000e+03,8.822816658980925375e-02,0.000000000000000000e+00
1.191000000000000000e+03,1.797007065257043290e-01,0.000000000000000000e+00
1.192000000000000000e+03,2.239334824131205756e-02,0.000000000000000000e+00
1.193000000000000000e+03,-1.317383567399428301e-01,0.000000000000000000e+00
1.194000000000000000e+03,2.050408138013687598e+00,0.000000000000000000e+00
1.195000000000000000e+03,4.401872407910498275e+00,0.000000000000000000e+00
1.196000000000000000e+03,2.440569997783315070e+00,1.000000000000000000e+00
1.197000000000000000e+03,7.233705333027022899e-01,0.000000000000000000e+00
1.198000000000000000e+03,-4.256756154236016609e-01,0.000000000000000000e+00
1.199000000000000000e+03,-1.254818294471437889e+00,0.000000000000000000e+00
1.200000000000000000e+03,-1.228605786249234999e+00,0.000000000000000000e+00
1.201000000000000000e+03,-1.060027720978707011e+00,0.000000000000000000e+00
1.202000000000000000e+03,-1.040429808198092720e+00,0.000000000000000000e+00
1.203000000000000000e+03,-1.012452721369447195e+00,0.000000000000000000e+00
1.204000000000000000e+03,-7.784074075928760772e-01,0.000000000000000000e+00
1.205000000000000000e+03,-7.045804244559359386e-01,0.000000000000000000e+00
1.206000000000000000e+03,-7.482610374136186016e-01,0.000000000000000000e+00
1.207000000000000000e+03,-6.105952754094966517e-01,0.000000000000000000e+00
1.208000000000000000e+03,-3.745056587050754615e-01,0.000000000000000000e+00
1.209000000000000000e+03,-3.167972807186235085e-01,0.000000000000000000e+00
1.210000000000000000e+03,-2.958151870363704972e-01,0.000000000000000000e+00
1.211000000000000000e+03,2.002346181013746895e-01,0.000000000000000000e+00
1.212000000000000000e+03,6.437334941367808261e-01,0.000000000000000000e+00
1.213000000000000000e+03,6.226064985081869452e-01,0.000000000000000000e+00
1.214000000000000000e+03,7.365062326195669362e-01,0.000000000000000000e+00
1.215000000000000000e+03,5.438432625478210047e-01,0.000000000000000000e+00
1.216000000000000000e+03,1.240488811745110720e-01,0.000000000000000000e+00
1.217000000000000000e+03,-2.508096855670174929e-01,0.000000000000000000e+00
1.218000000000000000e+03,-2.959133235924490957e-01,0.000000000000000000e+00
1.219000000000000000e+03,-4.828031619602138891e-01,0.000000000000000000e+00
1.220000000000000000e+03,-4.005343133416451873e-01,0.000000000000000000e+00
1.221000000000000000e+03,-1.728798698401202705e-01,0.000000000000000000e+00
1.222000000000000000e+03,-3.800866471963931792e-01,0.000000000000000000e+00
1.223000000000000000e+03,-1.048696903877282538e-01,0.000000000000000000e+00
1.224000000000000000e+03,-2.670288725932737917e-01,0.000000000000000000e+00
1.225000000000000000e+03,-9.497923810697421476e-02,0.000000000000000000e+00
1.226000000000000000e+03,-1.630446741952559231e-01,0.000000000000000000e+00
1.227000000000000000e+03,-3.595723282689726463e-02,0.000000000000000000e+00
1.228000000000000000e+03,1.552917873379203728e-01,0.000000000000000000e+00
1.229000000000000000e+03,-2.025070727576949170e-01,0.000000000000000000e+00
1.230000000000000000e+03,1.711170935837887930e-01,0.000000000000000000e+00
1.231000000000000000e+03,1.227346484363916329e-01,0.000000000000000000e+00
1.232000000000000000e+03,-2.513789771866311445e-02,0.000000000000000000e+00
1.233000000000000000e+03,2.351376611066950326e-02,0.000000000000000000e+00
1.234000000000000000e+03,-4.865763049686013669e-02,0.000000000000000000e+00
1.235000000000000000e+03,3.269759351489959776e-01,0.000000000000000000e+00
1.236000000000000000e+03,1.977296709331489988e-02,0.000000000000000000e+00
1.237000000000000000e+03,-1.773293287282037001e-01,0.000000000000000000e+00
1.238000000000000000e+03,1.176055214335911536e-01,0.000000000000000000e+00
1.239000000000000000e+03,1.401014046598733909e-01,0.000000000000000000e+00
1.240000000000000000e+03,3.156180296012064956e-01,0.000000000000000000e+00
1.241000000000000000e+03,4.024934096216156720e-02,0.000000000000000000e+00
1.242000000000000000e+03,4.830219616121757265e-02,0.000000000000000000e+00
1.243000000000000000e+03,3.066149527189505064e-01,0.000000000000000000e+00
1.244000000000000000e+03,1.772989486506454382e-01,0.000000000000000000e+00
1.245000000000000000e+03,2.493766337971911051e-01,0.000000000000000000e+00
1.246000000000000000e+03,1.695359835123811942e-01,0.000000000000000000e+00
1.247000000000000000e+03,-2.068525259088195567e-02,0.000000000000000000e+00
1.248000000000000000e+03,2.932464019910249187e-01,0.000000000000000000e+00
1.249000000000000000e+03,3.159898845049188831e-01,0.000000000000000000e+00
1.250000000000000000e+03,-2.154042831546758990e-02,0.000000000000000000e+00
1.251000000000000000e+03,5.050174254937617874e-02,0.000000000000000000e+00
1.252000000000000000e+03,4.936129230659530576e-02,0.000000000000000000e+00
1.253000000000000000e+03,1.875690807329895016e-01,0.000000000000000000e+00
1.254000000000000000e+03,-4.012506255430717955e-02,0.000000000000000000e+00
1.255000000000000000e+03,3.683202951156394067e-01,0.000000000000000000e+00
1.256000000000000000e+03,-3.948122167164402341e-01,0.000000000000000000e+00
1.257000000000000000e+03,2.098137138284987824e+00,0.000000000000000000e+00
1.258000000000000000e+03,4.622521657051490429e+00,0.000000000000000000e+00
1.259000000000000000e+03,2.896289497673844249e+00,1.000000000000000000e+00
1.260000000000000000e+03,8.543851897112860749e-01,0.000000000000000000e+00
1.261000000000000000e+03,-8.007639070437124751e-01,0.000000000000000000e+00
1.262000000000000000e+03,-1.426653283048579635e+00,0.000000000000000000e+00
1.263000000000000000e+03,-1.474345596810401338e+00,0.000000000000000000e+00
1.264000000000000000e+03,-1.390389129732529705e+00,0.000000000000000000e+00
1.265000000000000000e+03,-1.304978808699139403e+00,0.000000000000000000e+00
1.266000000000000000e+03,-1.266667417514116600e+00,0.000000000000000000e+00
1.267000000000000000e+03,-1.010939216376573579e+00,0.000000000000000000e+00
1.268000000000000000e+03,-9.397275350406689709e-01,0.000000000000000000e+00
1.269000000000000000e+03,-9.996909225734109672e-01,0.000000000000000000e+00
1.270000000000000000e+03,-6.894638979422462732e-01,0.000000000000000000e+00
1.271000000000000000e+03,-5.677987215058268866e-01,0.000000000000000000e+00
1.272000000000000000e+03,-5.075304165872555062e-01,0.000000000000000000e+00
1.273000000000000000e+03,-4.418597837841821696e-01,0.000000000000000000e+00
1.274000000000000000e+03,-2.377088371625422220e-02,0.000000000000000000e+00
1.275000000000000000e+03,1.625952315369574852e-01,0.000000000000000000e+00
1.276000000000000000e+03,3.949933579495564229e-01,0.000000000000000000e+00
1.277000000000000000e+03,6.341206122448289628e-01,0.000000000000000000e+00
1.278000000000000000e+03,6.737251244127706595e-01,0.000000000000000000e+00
1.279000000000000000e+03,2.311003950805412266e-01,0.000000000000000000e+00
1.280000000000000000e+03,8.100798588867565153e-02,0.000000000000000000e+00
1.281000000000000000e+03,-9.245048964607446851e-02,0.000000000000000000e+00
1.282000000000000000e+03,-3.922277467915302740e-01,0.000000000000000000e+00
1.283000000000000000e+03,-2.463183278933064602e-01,0.000000000000000000e+00
1.284000000000000000e+03,-1.454604448171607500e-01,0.000000000000000000e+00
1.285000000000000000e+03,-4.069753496753412692e-01,0.000000000000000000e+00
1.286000000000000000e+03,-2.366744294745290189e-01,0.000000000000000000e+00
1.287000000000000000e+03,-1.195718692709348691e-01,0.000000000000000000e+00
1.288000000000000000e+03,3.056652010047041304e-03,0.000000000000000000e+00
1.289000000000000000e+03,-1.584766946157274148e-01,0.000000000000000000e+00
1.290000000000000000e+03,6.791625151058174048e-02,0.000000000000000000e+00
1.291000000000000000e+03,2.169188257802915909e-01,0.000000000000000000e+00
1.292000000000000000e+03,-1.010529563184835444e-01,0.000000000000000000e+00
1.293000000000000000e+03,-3.559791765386425832e-01,0.000000000000000000e+00
1.294000000000000000e+03,1.829277659479247309e-01,0.000000000000000000e+00
1.295000000000000000e+03,4.196803473703825810e-02,0.000000000000000000e+00
1.296000000000000000e+03,-1.301453063292287715e-01,0.000000000000000000e+00
1.297000000000000000e+03,-7.173863352222180356e-02,0.000000000000000000e+00
1.298000000000000000e+03,1.313235180692520765e-01,0.000000000000000000e+00
1.299000000000000000e+03,1.364113061514970748e-01,0.000000000000000000e+00
1.300000000000000000e+03,-5.401001922056895832e-02,0.000000000000000000e+00
1.301000000000000000e+03,-1.027128902966416291e-01,0.000000000000000000e+00
1.302000000000000000e+03,2.692329048628566146e-01,0.000000000000000000e+00
1.303000000000000000e+03,-1.721451205963528130e-01,0.000000000000000000e+00
1.304000000000000000e+03,-1.148899087259885321e-01,0.000000000000000000e+00
1.305000000000000000e+03,3.668236463209107456e-01,0.000000000000000000e+00
1.306000000000000000e+03,6.084926453196070478e-02,0.000000000000000000e+00
1.307000000000000000e+03,-2.093477374893773502e-02,0.000000000000000000e+00
1.308000000000000000e+03,-7.326380546836308398e-03,0.000000000000000000e+00
1.309000000000000000e+03,1.499809323072845424e-01,0.000000000000000000e+00
1.310000000000000000e+03,2.652195564320083410e-01,0.000000000000000000e+00
1.311000000000000000e+03,-2.155052979152366488e-02,0.000000000000000000e+00
1.312000000000000000e+03,1.752707186721000621e-01,0.000000000000000000e+00
1.313000000000000000e+03,7.337265960647809671e-02,0.000000000000000000e+00
1.314000000000000000e+03,-2.568976946406735795e-01,0.000000000000000000e+00
1.315000000000000000e+03,1.232386435634369892e+00,0.000000000000000000e+00
1.316000000000000000e+03,4.673467632314725506e+00,0.000000000000000000e+00
1.317000000000000000e+03,3.574575822152632032e+00,1.000000000000000000e+00
1.318000000000000000e+03,1.155693259544922302e+00,0.000000000000000000e+00
1.319000000000000000e+03,-2.911406196755511600e-01,0.000000000000000000e+00
1.320000000000000000e+03,-1.524721656629658861e+00,0.000000000000000000e+00
1.321000000000000000e+03,-1.565190809726637156e+00,0.000000000000000000e+00
1.322000000000000000e+03,-1.519327816046755597e+00,0.000000000000000000e+00
1.323000000000000000e+03,-1.327549478119384618e+00,0.000000000000000000e+00
1.324000000000000000e+03,-1.327042140477321164e+00,0.000000000000000000e+00
1.325000000000000000e+03,-1.154859748669579966e+00,0.000000000000000000e+00
1.326000000000000000e+03,-1.104086046500506901e+00,0.000000000000000000e+00
1.327000000000000000e+03,-9.378096424750120841e-01,0.000000000000000000e+00
1.328000000000000000e+03,-8.203860790014543269e-01,0.000000000000000000e+00
1.329000000000000000e+03,-7.006462172555422141e-01,0.000000000000000000e+00
1.330000000000000000e+03,-5.108325148933430260e-01,0.000000000000000000e+00
1.331000000000000000e+03,-4.790278092181622371e-01,0.000000000000000000e+00
1.332000000000000000e+03,-1.516749843301062883e-01,0.000000000000000000e+00
1.333000000000000000e+03,3.826841908168365780e-02,0.000000000000000000e+00
1.334000000000000000e+03,5.579695887209951133e-01,0.000000000000000000e+00
1.335000000000000000e+03,7.035952216995137176e-01,0.000000000000000000e+00
1.336000000000000000e+03,5.722938421943957188e-01,0.000000000000000000e+00
1.337000000000000000e+03,5.111255818040350007e-01,0.000000000000000000e+00
1.338000000000000000e+03,-7.277714305470316114e-02,0.000000000000000000e+00
1.339000000000000000e+03,-2.507094643855053984e-01,0.000000000000000000e+00
1.340000000000000000e+03,-4.662761763997068654e-01,0.000000000000000000e+00
1.341000000000000000e+03,-3.499646652099884236e-01,0.000000000000000000e+00
1.342000000000000000e+03,-3.712002392591612909e-01,0.000000000000000000e+00
1.343000000000000000e+03,-3.069039263039712861e-01,0.000000000000000000e+00
1.344000000000000000e+03,-1.143807896704662624e-01,0.000000000000000000e+00
1.345000000000000000e+03,-2.373417986821490799e-01,0.000000000000000000e+00
1.346000000000000000e+03,-3.176610470194313751e-01,0.000000000000000000e+00
1.347000000000000000e+03,-2.191825354607047915e-02,0.000000000000000000e+00
1.348000000000000000e+03,-7.691862945054043750e-04,0.000000000000000000e+00
1.349000000000000000e+03,-1.396655222265953400e-01,0.000000000000000000e+00
1.350000000000000000e+03,1.379795861499913123e-01,0.000000000000000000e+00
1.351000000000000000e+03,1.921020339494996509e-01,0.000000000000000000e+00
1.352000000000000000e+03,-4.920140709410221469e-02,0.000000000000000000e+00
1.353000000000000000e+03,-2.042678645239064117e-02,0.000000000000000000e+00
1.354000000000000000e+03,2.656976075655580471e-01,0.000000000000000000e+00
1.355000000000000000e+03,3.734574653535668309e-01,0.000000000000000000e+00
1.356000000000000000e+03,-9.904464289887605910e-02,0.000000000000000000e+00
1.357000000000000000e+03,8.655431134377639113e-02,0.000000000000000000e+00
1.358000000000000000e+03,3.239209288654779639e-01,0.000000000000000000e+00
1.359000000000000000e+03,3.350419376929293369e-01,0.000000000000000000e+00
1.360000000000000000e+03,-3.998366374376752241e-01,0.000000000000000000e+00
1.361000000000000000e+03,2.132094363077018162e+00,0.000000000000000000e+00
1.362000000000000000e+03,4.467256145213085006e+00,0.000000000000000000e+00
1.363000000000000000e+03,2.441213360510128272e+00,1.000000000000000000e+00
1.364000000000000000e+03,9.640688256603942019e-01,0.000000000000000000e+00
1.365000000000000000e+03,-4.054917347587598253e-01,0.000000000000000000e+00
1.366000000000000000e+03,-1.371818657189005419e+00,0.000000000000000000e+00
1.367000000000000000e+03,-1.149153739994128953e+00,0.000000000000000000e+00
1.368000000000000000e+03,-1.108494044852261773e+00,0.000000000000000000e+00
1.369000000000000000e+03,-1.037695255848788412e+00,0.000000000000000000e+00
1.370000000000000000e+03,-9.656213350253594063e-01,0.000000000000000000e+00
1.371000000000000000e+03,-8.804656043373046970e-01,0.000000000000000000e+00
1.372000000000000000e+03,-7.396061924038804802e-01,0.000000000000000000e+00
1.373000000000000000e+03,-5.560118801182112325e-01,0.000000000000000000e+00
1.374000000000000000e+03,-3.808914307365523499e-01,0.000000000000000000e+00
1.375000000000000000e+03,-5.343808347391056923e-01,0.000000000000000000e+00
1.376000000000000000e+03,-2.837301140872532379e-01,0.000000000000000000e+00
1.377000000000000000e+03,-6.807399029526083056e-02,0.000000000000000000e+00
1.378000000000000000e+03,1.705059658078607043e-01,0.000000000000000000e+00
1.379000000000000000e+03,5.196282717636305781e-01,0.000000000000000000e+00
1.380000000000000000e+03,8.251987637536760678e-01,0.000000000000000000e+00
1.381000000000000000e+03,9.905708503259951225e-01,0.000000000000000000e+00
1.382000000000000000e+03,4.965903868903432383e-01,0.000000000000000000e+00
1.383000000000000000e+03,1.856591720820559843e-01,0.000000000000000000e+00
1.384000000000000000e+03,-2.603923035047580048e-01,0.000000000000000000e+00
1.385000000000000000e+03,-4.662305834721322539e-01,0.000000000000000000e+00
1.386000000000000000e+03,-5.118787331895527926e-01,0.000000000000000000e+00
1.387000000000000000e+03,-3.847001628366901183e-01,0.000000000000000000e+00
1.388000000000000000e+03,-4.617705054332090775e-01,0.000000000000000000e+00
1.389000000000000000e+03,-3.547974136133854040e-01,0.000000000000000000e+00
1.390000000000000000e+03,-4.010831530230288267e-01,0.000000000000000000e+00
1.391000000000000000e+03,-2.521625831100162696e-01,0.000000000000000000e+00
1.392000000000000000e+03,-1.191225520159950452e-01,0.000000000000000000e+00
1.393000000000000000e+03,-6.994188402820973594e-02,0.000000000000000000e+00
1.394000000000000000e+03,-1.541675287043104969e-01,0.000000000000000000e+00
1.395000000000000000e+03,-2.108814837966238032e-01,0.000000000000000000e+00
1.396000000000000000e+03,-3.604723689767012906e-02,0.000000000000000000e+00
1.397000000000000000e+03,-8.515399853481858683e-02,0.000000000000000000e+00
1.398000000000000000e+03,1.562127034678092441e-01,0.000000000000000000e+00
1.399000000000000000e+03,-1.273930111354862060e-01,0.000000000000000000e+00
1.400000000000000000e+03,8.722785402370428209e-02,0.000000000000000000e+00
1.401000000000000000e+03,5.639364886160968399e-02,0.000000000000000000e+00
1.402000000000000000e+03,6.408366452517968992e-02,0.000000000000000000e+00
1.403000000000000000e+03,7.421922510062151090e-02,0.000000000000000000e+00
1.404000000000000000e+03,4.190548682394837354e-01,0.000000000000000000e+00
1.405000000000000000e+03,-1.552994624976044846e-01,0.000000000000000000e+00
1.406000000000000000e+03,4.880591139987543181e-02,0.000000000000000000e+00
1.407000000000000000e+03,1.428621388830663141e-01,0.000000000000000000e+00
1.408000000000000000e+03,6.235934755004854391e-02,0.000000000000000000e+00
1.409000000000000000e+03,2.912931574666397516e-01,0.000000000000000000e+00
1.410000000000000000e+03,-3.751223301338540289e-02,0.000000000000000000e+00
1.411000000000000000e+03,3.448176490396597793e-01,0.000000000000000000e+00
1.412000000000000000e+03,3.016496057228836847e-01,0.000000000000000000e+00
1.413000000000000000e+03,2.409626829864211228e-01,0.000000000000000000e+00
1.414000000000000000e+03,-8.069954084492164193e-04,0.000000000000000000e+00
1.415000000000000000e+03,1.777192695596176708e-01,0.000000000000000000e+00
1.416000000000000000e+03,1.302096184647175414e-01,0.000000000000000000e+00
1.417000000000000000e+03,3.864132998126341145e-01,0.000000000000000000e+00
1.418000000000000000e+03,1.223830729205053758e-01,0.000000000000000000e+00
1.419000000000000000e+03,3.533462174056741789e-01,0.000000000000000000e+00
1.420000000000000000e+03,1.317033313485465595e-01,0.000000000000000000e+00
1.421000000000000000e+03,1.152595182549560338e-01,0.000000000000000000e+00
1.422000000000000000e+03,3.327438735969360795e-01,0.000000000000000000e+00
1.423000000000000000e+03,2.062746970580685291e-02,0.000000000000000000e+00
1.424000000000000000e+03,2.073239424676990017e-01,0.000000000000000000e+00
1.425000000000000000e+03,1.429654097033190852e-01,0.000000000000000000e+00
1.426000000000000000e+03,8.300097528376483569e-02,0.000000000000000000e+00
1.427000000000000000e+03,2.325599092789192857e-01,0.000000000000000000e+00
1.428000000000000000e+03,1.371614665753704831e-01,0.000000000000000000e+00
1.429000000000000000e+03,-7.947131490236393481e-02,0.000000000000000000e+00
1.430000000000000000e+03,4.123475864191411544e-01,0.000000000000000000e+00
1.431000000000000000e+03,-1.374933713396587487e-01,0.000000000000000000e+00
1.432000000000000000e+03,1.971385440921505638e-01,0.000000000000000000e+00
1.433000000000000000e+03,-8.284682164725165176e-04,0.000000000000000000e+00
1.434000000000000000e+03,-1.532910400378446891e-01,0.000000000000000000e+00
1.435000000000000000e+03,3.916746364826502735e-01,0.000000000000000000e+00
1.436000000000000000e+03,-2.367354659634451353e-01,0.000000000000000000e+00
1.437000000000000000e+03,1.964215685294753988e-01,0.000000000000000000e+00
1.438000000000000000e+03,1.418605398272824447e-01,0.000000000000000000e+00
1.439000000000000000e+03,-1.026011714203968889e-01,0.000000000000000000e+00
1.440000000000000000e+03,-4.727799089152797535e-02,0.000000000000000000e+00
1.441000000000000000e+03,-6.529022799880221384e-02,0.000000000000000000e+00
1.442000000000000000e+03,-3.527930528492739248e-01,0.000000000000000000e+00
1.443000000000000000e+03,2.344610375521078538e+00,0.000000000000000000e+00
1.444000000000000000e+03,4.281771379513811482e+00,0.000000000000000000e+00
1.445000000000000000e+03,2.233284570899454202e+00,1.000000000000000000e+00
1.446000000000000000e+03,5.500831243871592280e-01,0.000000000000000000e+00
1.447000000000000000e+03,-7.648175673947830155e-01,0.000000000000000000e+00
1.448000000000000000e+03,-1.621609901286565680e+00,0.000000000000000000e+00
1.449000000000000000e+03,-1.598349041981540930e+00,0.000000000000000000e+00
1.450000000000000000e+03,-1.471634975372597243e+00,0.000000000000000000e+00
1.451000000000000000e+03,-1.489978602114136352e+00,0.000000000000000000e+00
1.452000000000000000e+03,-1.335504917375728962e+00,0.000000000000000000e+00
1.453000000000000000e+03,-1.246361738531840402e+00,0.000000000000000000e+00
1.454000000000000000e+03,-1.120823490751571727e+00,0.000000000000000000e+00
1.455000000000000000e+03,-9.798639722583083467e-01,0.000000000000000000e+00
1.456000000000000000e+03,-8.940733591635521282e-01,0.000000000000000000e+00
1.457000000000000000e+03,-6.154325762961854185e-01,0.000000000000000000e+00
1.458000000000000000e+03,-7.765714806449534047e-01,0.000000000000000000e+00
1.459000000000000000e+03,-4.150567029511042505e-01,0.000000000000000000e+00
1.460000000000000000e+03,-3.519554238675092206e-01,0.000000000000000000e+00
1.461000000000000000e+03,1.823328161096159639e-01,0.000000000000000000e+00
1.462000000000000000e+03,1.793536204797668843e-01,0.000000000000000000e+00
1.463000000000000000e+03,4.419668118639861198e-01,0.000000000000000000e+00
1.464000000000000000e+03,6.130194506185098202e-01,0.000000000000000000e+00
1.465000000000000000e+03,2.527108491045871319e-01,0.000000000000000000e+00
1.466000000000000000e+03,2.244352232290465488e-02,0.000000000000000000e+00
1.467000000000000000e+03,-3.392525446956107804e-01,0.000000000000000000e+00
1.468000000000000000e+03,-5.058004728212318613e-01,0.000000000000000000e+00
1.469000000000000000e+03,-3.419739233309603277e-01,0.000000000000000000e+00
1.470000000000000000e+03,-2.790388398252131585e-01,0.000000000000000000e+00
1.471000000000000000e+03,-3.681168899014500284e-01,0.000000000000000000e+00
1.472000000000000000e+03,-1.057739592765491177e-01,0.000000000000000000e+00
1.473000000000000000e+03,-2.929023123031314624e-01,0.000000000000000000e+00
1.474000000000000000e+03,-6.169162703095698586e-03,0.000000000000000000e+00
1.475000000000000000e+03,-6.938187421536069766e-02,0.000000000000000000e+00
1.476000000000000000e+03,5.261709158773105605e-03,0.000000000000000000e+00
1.477000000000000000e+03,-1.696274477531684866e-01,0.000000000000000000e+00
1.478000000000000000e+03,4.118294026263753099e-02,0.000000000000000000e+00
1.479000000000000000e+03,2.927847827790601154e-01,0.000000000000000000e+00
1.480000000000000000e+03,-1.965391852095681735e-01,0.000000000000000000e+00
1.481000000000000000e+03,1.385854780519033269e-01,0.000000000000000000e+00
1.482000000000000000e+03,2.449325905108786228e-01,0.000000000000000000e+00
1.483000000000000000e+03,-3.945521800091787712e-02,0.000000000000000000e+00
1.484000000000000000e+03,-6.292045274511674779e-02,0.000000000000000000e+00
1.485000000000000000e+03,2.869201742606412031e-01,0.000000000000000000e+00
1.486000000000000000e+03,3.802925577228175036e-02,0.000000000000000000e+00
1.487000000000000000e+03,1.677641739598642878e-01,0.000000000000000000e+00
1.488000000000000000e+03,-9.740659355591453628e-02,0.000000000000000000e+00
1.489000000000000000e+03,1.518729355012784221e-01,0.000000000000000000e+00
1.490000000000000000e+03,4.809276221825020126e-01,0.000000000000000000e+00
1.491000000000000000e+03,-1.660440039019005498e-01,0.000000000000000000e+00
1.492000000000000000e+03,2.394492051599747817e-01,0.000000000000000000e+00
1.493000000000000000e+03,2.562314849729538935e-01,0.000000000000000000e+00
1.494000000000000000e+03,2.208642897726709742e-01,0.000000000000000000e+00
1.495000000000000000e+03,1.660242348145632707e-01,0.000000000000000000e+00
1.496000000000000000e+03,1.897712562485345811e-01,0.000000000000000000e+00
1.497000000000000000e+03,1.149716010342609895e-01,0.000000000000000000e+00
1.498000000000000000e+03,-9.806065935647510778e-02,0.000000000000000000e+00
1.499000000000000000e+03,2.470060555466004448e+00,0.000000000000000000e+00
1.500000000000000000e+03,4.896334519689294673e+00,0.000000000000000000e+00
1.501000000000000000e+03,2.770097553252328648e+00,1.000000000000000000e+00
1.502000000000000000e+03,6.038049985008454579e-01,0.000000000000000000e+00
1.503000000000000000e+03,-6.140112113729784271e-01,0.000000000000000000e+00
1.504000000000000000e+03,-1.703253639854081847e+00,0.000000000000000000e+00
1.505000000000000000e+03,-1.460797130114769971e+00,0.000000000000000000e+00
1.506000000000000000e+03,-1.258743762750447193e+00,0.000000000000000000e+00
1.507000000000000000e+03,-1.044988882098332406e+00,0.000000000000000000e+00
1.508000000000000000e+03,-1.490593147167743160e+00,0.000000000000000000e+00
1.509000000000000000e+03,-1.068669859319035798e+00,0.000000000000000000e+00
1.510000000000000000e+03,-6.739400985192405269e-01,0.000000000000000000e+00
1.511000000000000000e+03,-8.752180033393471836e-01,0.000000000000000000e+00
1.512000000000000000e+03,-9.038211524468440228e-01,0.000000000000000000e+00
1.513000000000000000e+03,-6.560192617001764370e-01,0.000000000000000000e+00
1.514000000000000000e+03,-3.364948235051166137e-01,0.000000000000000000e+00
1.515000000000000000e+03,-2.726140881937542115e-01,0.000000000000000000e+00
1.516000000000000000e+03,-1.046390108932318801e-03,0.000000000000000000e+00
1.517000000000000000e+03,5.057006688368030911e-01,0.000000000000000000e+00
1.518000000000000000e+03,6.566064494991945555e-01,0.000000000000000000e+00
1.519000000000000000e+03,5.743382265049468138e-01,0.000000000000000000e+00
1.520000000000000000e+03,9.497589941116154622e-01,0.000000000000000000e+00
1.521000000000000000e+03,4.368163774587951464e-01,0.000000000000000000e+00
1.522000000000000000e+03,2.336911304372614462e-02,0.000000000000000000e+00
1.523000000000000000e+03,-4.376800136349713322e-01,0.000000000000000000e+00
1.524000000000000000e+03,-3.245614326524872140e-01,0.000000000000000000e+00
1.525000000000000000e+03,-1.793492973691068193e-01,0.000000000000000000e+00
1.526000000000000000e+03,-1.350395319077719036e-01,0.000000000000000000e+00
1.527000000000000000e+03,-4.459539005820498669e-01,0.000000000000000000e+00
1.528000000000000000e+03,-2.937863046066486739e-01,0.000000000000000000e+00
1.529000000000000000e+03,-4.509115384565863527e-02,0.000000000000000000e+00
1.530000000000000000e+03,-1.805327868089186966e-02,0.000000000000000000e+00
1.531000000000000000e+03,-2.029669169645759441e-01,0.000000000000000000e+00
1.532000000000000000e+03,1.862160444925919367e-01,0.000000000000000000e+00
1.533000000000000000e+03,1.590180739785319319e-01,0.000000000000000000e+00
1.534000000000000000e+03,-8.809826737925874340e-02,0.000000000000000000e+00
1.535000000000000000e+03,-6.799671843541495175e-02,0.000000000000000000e+00
1.536000000000000000e+03,3.292628537936427846e-01,0.000000000000000000e+00
1.537000000000000000e+03,2.715894859321041910e-01,0.000000000000000000e+00
1.538000000000000000e+03,-1.400322253763196800e-01,0.000000000000000000e+00
1.539000000000000000e+03,1.158074518871488601e-01,0.000000000000000000e+00
1.540000000000000000e+03,2.792788039769255048e-01,0.000000000000000000e+00
1.541000000000000000e+03,7.192814761361208953e-02,0.000000000000000000e+00
1.542000000000000000e+03,1.652505256881249551e-01,0.000000000000000000e+00
1.543000000000000000e+03,1.879024240788496614e-01,0.000000000000000000e+00
1.544000000000000000e+03,1.557431702410403129e-01,0.000000000000000000e+00
1.545000000000000000e+03,8.887818646875374207e-02,0.000000000000000000e+00
1.546000000000000000e+03,-1.249067310508447243e-01,0.000000000000000000e+00
1.547000000000000000e+03,6.988441838380786697e-01,0.000000000000000000e+00
1.548000000000000000e+03,4.255172348744507005e+00,0.000000000000000000e+00
1.549000000000000000e+03,4.003082208524770813e+00,1.000000000000000000e+00
1.550000000000000000e+03,1.794045118399929750e+00,0.000000000000000000e+00
1.551000000000000000e+03,1.577246918793379915e-01,0.000000000000000000e+00
1.552000000000000000e+03,-1.502553349980972675e+00,0.000000000000000000e+00
1.553000000000000000e+03,-1.291364381464077615e+00,0.000000000000000000e+00
1.554000000000000000e+03,-1.347348107978370013e+00,0.000000000000000000e+00
1.555000000000000000e+03,-1.275905983590510884e+00,0.000000000000000000e+00
1.556000000000000000e+03,-1.373725447270663258e+00,0.000000000000000000e+00
1.557000000000000000e+03,-8.922928337221756045e-01,0.000000000000000000e+00
1.558000000000000000e+03,-9.828390905819911483e-01,0.000000000000000000e+00
1.559000000000000000e+03,-1.129417205810384406e+00,0.000000000000000000e+00
1.560000000000000000e+03,-8.250993983862590087e-01,0.000000000000000000e+00
1.561000000000000000e+03,-6.018984602782245785e-01,0.000000000000000000e+00
1.562000000000000000e+03,-5.433657717802137244e-01,0.000000000000000000e+00
1.563000000000000000e+03,-5.464332321718852192e-01,0.000000000000000000e+00
1.564000000000000000e+03,4.180753282642681729e-02,0.000000000000000000e+00
1.565000000000000000e+03,1.187522160264840448e-01,0.000000000000000000e+00
1.566000000000000000e+03,4.210483440131875810e-01,0.000000000000000000e+00
1.567000000000000000e+03,6.963448501595216333e-01,0.000000000000000000e+00
1.568000000000000000e+03,6.638412139500033948e-01,0.000000000000000000e+00
1.569000000000000000e+03,6.409124621703898850e-01,0.000000000000000000e+00
1.570000000000000000e+03,-2.463873313299966561e-01,0.000000000000000000e+00
1.571000000000000000e+03,-3.529032352226682545e-01,0.000000000000000000e+00
1.572000000000000000e+03,-1.036126148666122182e-01,0.000000000000000000e+00
1.573000000000000000e+03,-3.980590000238014570e-01,0.000000000000000000e+00
1.574000000000000000e+03,-5.912888707700417745e-01,0.000000000000000000e+00
1.575000000000000000e+03,-2.182428694771323119e-01,0.000000000000000000e+00
1.576000000000000000e+03,-1.512375701214441204e-01,0.000000000000000000e+00
1.577000000000000000e+03,-4.271913341066909675e-01,0.000000000000000000e+00
1.578000000000000000e+03,-3.417126156143124871e-01,0.000000000000000000e+00
1.579000000000000000e+03,-2.678747554149828181e-02,0.000000000000000000e+00
1.580000000000000000e+03,-1.806171044777823420e-01,0.000000000000000000e+00
1.581000000000000000e+03,-9.408396104339974975e-02,0.000000000000000000e+00
1.582000000000000000e+03,2.579592817222429169e-01,0.000000000000000000e+00
1.583000000000000000e+03,-3.647098977204812215e-02,0.000000000000000000e+00
1.584000000000000000e+03,-7.426211768519566658e-02,0.000000000000000000e+00
1.585000000000000000e+03,2.314302881624179936e-02,0.000000000000000000e+00
1.586000000000000000e+03,-2.812431947353086215e-01,0.000000000000000000e+00
