timestamp,ecg_measurement,qrs_detected
0.000000000000000000e+00,-8.670390501402686079e-01,0.000000000000000000e+00
1.000000000000000000e+00,-1.546387049589629692e+00,0.000000000000000000e+00
2.000000000000000000e+00,-5.776011252258196338e-01,0.000000000000000000e+00
3.000000000000000000e+00,-1.200445142410862420e+00,0.000000000000000000e+00
4.000000000000000000e+00,-7.698189576660944278e-01,0.000000000000000000e+00
5.000000000000000000e+00,-8.263387023808613785e-01,0.000000000000000000e+00
6.000000000000000000e+00,-7.967247692039143292e-01,0.000000000000000000e+00
7.000000000000000000e+00,-7.991204911630946928e-01,0.000000000000000000e+00
8.000000000000000000e+00,-9.257204378125546418e-01,0.000000000000000000e+00
9.000000000000000000e+00,-6.383217742218786350e-01,0.000000000000000000e+00
1.000000000000000000e+01,-1.808382047030410722e-01,0.000000000000000000e+00
1.100000000000000000e+01,-3.085076373093939006e-01,0.000000000000000000e+00
1.200000000000000000e+01,-7.302234451385875014e-01,0.000000000000000000e+00
1.300000000000000000e+01,-5.321452611116946896e-01,0.000000000000000000e+00
1.400000000000000000e+01,-3.830635268138853911e-01,0.000000000000000000e+00
1.500000000000000000e+01,-5.788404862388892846e-01,0.000000000000000000e+00
1.600000000000000000e+01,-5.257380475129295183e-01,0.000000000000000000e+00
1.700000000000000000e+01,1.272701208907564274e-01,0.000000000000000000e+00
1.800000000000000000e+01,-2.585512301740837127e-01,0.000000000000000000e+00
1.900000000000000000e+01,-2.563459358553797640e-02,0.000000000000000000e+00
2.000000000000000000e+01,1.699865084002624982e-01,0.000000000000000000e+00
2.100000000000000000e+01,-2.825462860888341976e-01,0.000000000000000000e+00
2.200000000000000000e+01,1.771021514278010855e-01,0.000000000000000000e+00
2.300000000000000000e+01,-5.213526282323507344e-01,0.000000000000000000e+00
2.400000000000000000e+01,1.925440832512300970e-01,0.000000000000000000e+00
2.500000000000000000e+01,-3.193417856859014359e-01,0.000000000000000000e+00
2.600000000000000000e+01,-7.170553152539528297e-01,0.000000000000000000e+00
2.700000000000000000e+01,-1.316791032598545685e+00,0.000000000000000000e+00
2.800000000000000000e+01,-1.353703951377988712e+00,0.000000000000000000e+00
2.900000000000000000e+01,-2.224825795071624146e+00,0.000000000000000000e+00
3.000000000000000000e+01,-1.432917722847409037e+00,0.000000000000000000e+00
3.100000000000000000e+01,1.590794404312271482e+00,0.000000000000000000e+00
3.200000000000000000e+01,1.252051308661053186e+00,1.000000000000000000e+00
3.300000000000000000e+01,1.318083215764509042e+00,0.000000000000000000e+00
3.400000000000000000e+01,1.274723089976388835e+00,0.000000000000000000e+00
3.500000000000000000e+01,6.783956396534204236e-01,0.000000000000000000e+00
3.600000000000000000e+01,1.333388029543054909e+00,0.000000000000000000e+00
3.700000000000000000e+01,6.981638613756914191e-01,0.000000000000000000e+00
3.800000000000000000e+01,9.809997230263889367e-01,0.000000000000000000e+00
3.900000000000000000e+01,4.984873211617065758e-01,0.000000000000000000e+00
4.000000000000000000e+01,7.620841416599862805e-01,0.000000000000000000e+00
4.100000000000000000e+01,9.882295080749505800e-01,0.000000000000000000e+00
4.200000000000000000e+01,8.934150017182831416e-01,0.000000000000000000e+00
4.300000000000000000e+01,1.114728879884460788e+00,0.000000000000000000e+00
4.400000000000000000e+01,1.577393209875706859e+00,0.000000000000000000e+00
4.500000000000000000e+01,1.179679969126452566e+00,0.000000000000000000e+00
4.600000000000000000e+01,5.600388440807505530e-01,0.000000000000000000e+00
4.700000000000000000e+01,6.167472615368811001e-02,0.000000000000000000e+00
4.800000000000000000e+01,1.235099299079307593e-02,0.000000000000000000e+00
4.900000000000000000e+01,-6.538629752875316781e-01,0.000000000000000000e+00
5.000000000000000000e+01,-7.903814441282561720e-01,0.000000000000000000e+00
5.100000000000000000e+01,-1.004787122964685420e+00,0.000000000000000000e+00
5.200000000000000000e+01,-9.899707126697009363e-01,0.000000000000000000e+00
5.300000000000000000e+01,-9.746175176379939797e-01,0.000000000000000000e+00
5.400000000000000000e+01,-9.516379800922972754e-01,0.000000000000000000e+00
5.500000000000000000e+01,-8.875809426451739537e-01,0.000000000000000000e+00
5.600000000000000000e+01,-6.550941861856414139e-01,0.000000000000000000e+00
5.700000000000000000e+01,-4.624624933062505550e-01,0.000000000000000000e+00
5.800000000000000000e+01,-8.716397559142295970e-01,0.000000000000000000e+00
5.900000000000000000e+01,-1.872595740272415821e-01,0.000000000000000000e+00
6.000000000000000000e+01,-4.185815594849928156e-01,0.000000000000000000e+00
6.100000000000000000e+01,-3.368371257475303859e-01,0.000000000000000000e+00
6.200000000000000000e+01,-1.759463152154252530e-01,0.000000000000000000e+00
6.300000000000000000e+01,-2.801892762962982508e-01,0.000000000000000000e+00
6.400000000000000000e+01,-3.131766369974129938e-01,0.000000000000000000e+00
6.500000000000000000e+01,-3.402660781881471364e-01,0.000000000000000000e+00
6.600000000000000000e+01,-1.339391219417243595e-01,0.000000000000000000e+00
6.700000000000000000e+01,-6.550712824542600510e-01,0.000000000000000000e+00
6.800000000000000000e+01,2.441857973048725261e-01,0.000000000000000000e+00
6.900000000000000000e+01,-9.218492486571502886e-02,0.000000000000000000e+00
7.000000000000000000e+01,3.956332210783047310e-01,0.000000000000000000e+00
7.100000000000000000e+01,-2.281073477397206339e-01,0.000000000000000000e+00
7.200000000000000000e+01,-5.987765015622026343e-02,0.000000000000000000e+00
7.300000000000000000e+01,1.871126358991591909e-01,0.000000000000000000e+00
7.400000000000000000e+01,-7.053407726774952105e-03,0.000000000000000000e+00
7.500000000000000000e+01,3.610556063066457932e-01,0.000000000000000000e+00
7.600000000000000000e+01,-3.825403625425943810e-01,0.000000000000000000e+00
7.700000000000000000e+01,-1.266387781057319417e+00,0.000000000000000000e+00
7.800000000000000000e+01,-1.786515158686020843e+00,0.000000000000000000e+00
7.900000000000000000e+01,-2.347037073516678785e+00,0.000000000000000000e+00
8.000000000000000000e+01,-2.561977038203860690e+00,0.000000000000000000e+00
8.100000000000000000e+01,-1.359028098763482406e+00,0.000000000000000000e+00
8.200000000000000000e+01,1.304329053120898863e+00,1.000000000000000000e+00
8.300000000000000000e+01,2.266143225238729020e+00,0.000000000000000000e+00
8.400000000000000000e+01,1.392167631402111860e+00,0.000000000000000000e+00
8.500000000000000000e+01,2.345337323192182577e+00,0.000000000000000000e+00
8.600000000000000000e+01,1.387659987194753031e+00,0.000000000000000000e+00
8.700000000000000000e+01,1.406524112198287879e+00,0.000000000000000000e+00
8.800000000000000000e+01,9.258591357761695173e-01,0.000000000000000000e+00
8.900000000000000000e+01,1.231174505915543671e+00,0.000000000000000000e+00
9.000000000000000000e+01,1.896720610266625640e+00,0.000000000000000000e+00
9.100000000000000000e+01,1.343601223948750478e+00,0.000000000000000000e+00
9.200000000000000000e+01,1.357468030963866701e+00,0.000000000000000000e+00
9.300000000000000000e+01,1.145958800083562767e+00,0.000000000000000000e+00
9.400000000000000000e+01,1.738191799087594580e+00,0.000000000000000000e+00
9.500000000000000000e+01,1.359717849806155288e+00,0.000000000000000000e+00
9.600000000000000000e+01,1.328272794367272969e+00,0.000000000000000000e+00
9.700000000000000000e+01,1.192297683884004478e+00,0.000000000000000000e+00
9.800000000000000000e+01,6.340027828214231942e-01,0.000000000000000000e+00
9.900000000000000000e+01,-3.515787844628379122e-02,0.000000000000000000e+00
1.000000000000000000e+02,-7.045051756704189261e-01,0.000000000000000000e+00
1.010000000000000000e+02,-4.685460262253781094e-01,0.000000000000000000e+00
1.020000000000000000e+02,-8.227964548246511356e-01,0.000000000000000000e+00
1.030000000000000000e+02,-6.267088514085875639e-01,0.000000000000000000e+00
1.040000000000000000e+02,-6.913134426085619788e-01,0.000000000000000000e+00
1.050000000000000000e+02,-8.631618995069769706e-01,0.000000000000000000e+00
1.060000000000000000e+02,-8.203647255113941661e-01,0.000000000000000000e+00
1.070000000000000000e+02,-6.680725714468785936e-01,0.000000000000000000e+00
1.080000000000000000e+02,-6.052832309206372940e-01,0.000000000000000000e+00
1.090000000000000000e+02,-8.885978937822966994e-01,0.000000000000000000e+00
1.100000000000000000e+02,7.663710504930999583e-03,0.000000000000000000e+00
1.110000000000000000e+02,-4.890112940341236336e-01,0.000000000000000000e+00
1.120000000000000000e+02,-1.336643571532096786e-01,0.000000000000000000e+00
1.130000000000000000e+02,-9.057500962158022695e-01,0.000000000000000000e+00
1.140000000000000000e+02,-7.858488379390362599e-01,0.000000000000000000e+00
1.150000000000000000e+02,-5.365848048496774103e-01,0.000000000000000000e+00
1.160000000000000000e+02,-6.043009887805542713e-01,0.000000000000000000e+00
1.170000000000000000e+02,-5.194282657131265024e-01,0.000000000000000000e+00
1.180000000000000000e+02,-1.155382397307615772e-01,0.000000000000000000e+00
1.190000000000000000e+02,-4.193200291063778895e-01,0.000000000000000000e+00
1.200000000000000000e+02,-5.497068360423623679e-01,0.000000000000000000e+00
1.210000000000000000e+02,-7.625025875746523074e-02,0.000000000000000000e+00
1.220000000000000000e+02,-1.548527822550769539e-01,0.000000000000000000e+00
1.230000000000000000e+02,-3.149024244704373143e-01,0.000000000000000000e+00
1.240000000000000000e+02,-3.351819194680492608e-01,0.000000000000000000e+00
1.250000000000000000e+02,-4.382126018175223070e-01,0.000000000000000000e+00
1.260000000000000000e+02,2.449001777199280028e-01,0.000000000000000000e+00
1.270000000000000000e+02,-1.320100257408313993e-01,0.000000000000000000e+00
1.280000000000000000e+02,-9.039270655526586706e-01,0.000000000000000000e+00
1.290000000000000000e+02,-1.914536601482454525e+00,0.000000000000000000e+00
1.300000000000000000e+02,-1.168765141199103796e+00,0.000000000000000000e+00
1.310000000000000000e+02,-2.165539380860467933e+00,0.000000000000000000e+00
1.320000000000000000e+02,-1.059701536137474642e+00,0.000000000000000000e+00
1.330000000000000000e+02,1.212032667765083893e+00,0.000000000000000000e+00
1.340000000000000000e+02,1.101096475777753936e+00,1.000000000000000000e+00
1.350000000000000000e+02,1.045683616131697580e+00,0.000000000000000000e+00
1.360000000000000000e+02,7.964345199020556043e-01,0.000000000000000000e+00
1.370000000000000000e+02,1.123854693217153367e+00,0.000000000000000000e+00
1.380000000000000000e+02,7.411562620525350420e-01,0.000000000000000000e+00
1.390000000000000000e+02,6.339434345522592107e-01,0.000000000000000000e+00
1.400000000000000000e+02,6.152155357102722100e-01,0.000000000000000000e+00
1.410000000000000000e+02,8.854946764794785485e-01,0.000000000000000000e+00
1.420000000000000000e+02,7.000166972939521060e-01,0.000000000000000000e+00
1.430000000000000000e+02,8.599510236829395193e-01,0.000000000000000000e+00
1.440000000000000000e+02,9.175274347392964325e-01,0.000000000000000000e+00
1.450000000000000000e+02,8.635109066446231552e-01,0.000000000000000000e+00
1.460000000000000000e+02,9.684391263204582545e-01,0.000000000000000000e+00
1.470000000000000000e+02,7.000440271762097266e-01,0.000000000000000000e+00
1.480000000000000000e+02,1.311716819168515569e+00,0.000000000000000000e+00
1.490000000000000000e+02,-1.317336430324650247e-02,0.000000000000000000e+00
1.500000000000000000e+02,1.933716647173420455e-01,0.000000000000000000e+00
1.510000000000000000e+02,-6.009942479368830526e-01,0.000000000000000000e+00
1.520000000000000000e+02,-2.481128970679933599e-01,0.000000000000000000e+00
1.530000000000000000e+02,-2.600326883255522081e-01,0.000000000000000000e+00
1.540000000000000000e+02,-4.911308956333549913e-01,0.000000000000000000e+00
1.550000000000000000e+02,-5.679955205576238120e-01,0.000000000000000000e+00
1.560000000000000000e+02,-2.377148763073443916e-01,0.000000000000000000e+00
1.570000000000000000e+02,-8.417378822686508721e-01,0.000000000000000000e+00
1.580000000000000000e+02,-5.890916112894706291e-02,0.000000000000000000e+00
1.590000000000000000e+02,-4.343731797546477869e-01,0.000000000000000000e+00
1.600000000000000000e+02,2.286211780031791319e-01,0.000000000000000000e+00
1.610000000000000000e+02,-1.495588023426533408e-01,0.000000000000000000e+00
1.620000000000000000e+02,1.494084898277888984e-01,0.000000000000000000e+00
1.630000000000000000e+02,-1.443542405076243262e-01,0.000000000000000000e+00
1.640000000000000000e+02,2.463756656775845100e-02,0.000000000000000000e+00
1.650000000000000000e+02,-1.004885625690743051e-01,0.000000000000000000e+00
1.660000000000000000e+02,6.141694900577832766e-02,0.000000000000000000e+00
1.670000000000000000e+02,1.323107440596240358e-01,0.000000000000000000e+00
1.680000000000000000e+02,4.287104356031271046e-01,0.000000000000000000e+00
1.690000000000000000e+02,1.785287716262501656e-01,0.000000000000000000e+00
1.700000000000000000e+02,6.135956873660300959e-01,0.000000000000000000e+00
1.710000000000000000e+02,1.392576379255912600e-01,0.000000000000000000e+00
1.720000000000000000e+02,-1.363235217417565759e-01,0.000000000000000000e+00
1.730000000000000000e+02,-1.109689705393603898e-01,0.000000000000000000e+00
1.740000000000000000e+02,-2.417957592324836147e-01,0.000000000000000000e+00
1.750000000000000000e+02,-2.751346163072799222e-01,0.000000000000000000e+00
1.760000000000000000e+02,3.802841276508113766e-01,0.000000000000000000e+00
1.770000000000000000e+02,-1.878010421562227236e-02,0.000000000000000000e+00
1.780000000000000000e+02,1.403832757432151856e-01,0.000000000000000000e+00
1.790000000000000000e+02,-7.486118562837872359e-01,0.000000000000000000e+00
1.800000000000000000e+02,-1.317031135050990232e+00,0.000000000000000000e+00
1.810000000000000000e+02,-1.300498190392066711e+00,0.000000000000000000e+00
1.820000000000000000e+02,-1.461602768646023121e+00,0.000000000000000000e+00
1.830000000000000000e+02,-1.280312550393968518e+00,0.000000000000000000e+00
1.840000000000000000e+02,9.960406032964557177e-01,0.000000000000000000e+00
1.850000000000000000e+02,1.330622202183262548e+00,1.000000000000000000e+00
1.860000000000000000e+02,6.573847463061064378e-01,0.000000000000000000e+00
1.870000000000000000e+02,6.504606417538176810e-01,0.000000000000000000e+00
1.880000000000000000e+02,6.129512839586418460e-01,0.000000000000000000e+00
1.890000000000000000e+02,5.340558773593185871e-01,0.000000000000000000e+00
1.900000000000000000e+02,1.017788755003891654e-01,0.000000000000000000e+00
1.910000000000000000e+02,3.693465238457366295e-01,0.000000000000000000e+00
1.920000000000000000e+02,5.474925961660482843e-01,0.000000000000000000e+00
1.930000000000000000e+02,4.731421975742124419e-01,0.000000000000000000e+00
1.940000000000000000e+02,7.133927032592404238e-01,0.000000000000000000e+00
1.950000000000000000e+02,7.209149266850209958e-01,0.000000000000000000e+00
1.960000000000000000e+02,6.426359508177773572e-01,0.000000000000000000e+00
1.970000000000000000e+02,4.904839109577232015e-01,0.000000000000000000e+00
1.980000000000000000e+02,4.492082971424340432e-01,0.000000000000000000e+00
1.990000000000000000e+02,6.662084332279013532e-01,0.000000000000000000e+00
2.000000000000000000e+02,7.999147009057026858e-02,0.000000000000000000e+00
2.010000000000000000e+02,3.059024845257475866e-01,0.000000000000000000e+00
2.020000000000000000e+02,-1.312802710054148114e-01,0.000000000000000000e+00
2.030000000000000000e+02,-7.229505315970898849e-01,0.000000000000000000e+00
2.040000000000000000e+02,-1.084321531603600786e+00,0.000000000000000000e+00
2.050000000000000000e+02,-1.392293568812170923e+00,0.000000000000000000e+00
2.060000000000000000e+02,-8.160232383321003313e-01,0.000000000000000000e+00
2.070000000000000000e+02,-9.988698728403877514e-01,0.000000000000000000e+00
2.080000000000000000e+02,-7.554503697925710748e-01,0.000000000000000000e+00
2.090000000000000000e+02,-3.906920972414644755e-01,0.000000000000000000e+00
2.100000000000000000e+02,-4.513145802966924691e-01,0.000000000000000000e+00
2.110000000000000000e+02,-1.677820529059768084e-01,0.000000000000000000e+00
2.120000000000000000e+02,-3.407958067033096117e-01,0.000000000000000000e+00
2.130000000000000000e+02,-9.973374818621147941e-01,0.000000000000000000e+00
2.140000000000000000e+02,-3.849314299955875485e-01,0.000000000000000000e+00
2.150000000000000000e+02,-2.546103469817054266e-01,0.000000000000000000e+00
2.160000000000000000e+02,-2.586150416969236754e-01,0.000000000000000000e+00
2.170000000000000000e+02,-8.026427148342060724e-02,0.000000000000000000e+00
2.180000000000000000e+02,-2.546037755504660938e-01,0.000000000000000000e+00
2.190000000000000000e+02,1.111463229889334825e-01,0.000000000000000000e+00
2.200000000000000000e+02,7.740641253298727320e-02,0.000000000000000000e+00
2.210000000000000000e+02,-4.947566179129399278e-02,0.000000000000000000e+00
2.220000000000000000e+02,-4.169093228503366055e-01,0.000000000000000000e+00
2.230000000000000000e+02,-7.006700955849043400e-02,0.000000000000000000e+00
2.240000000000000000e+02,1.607342076495342845e-02,0.000000000000000000e+00
2.250000000000000000e+02,1.955969765105689262e-01,0.000000000000000000e+00
2.260000000000000000e+02,1.918418345978335215e-01,0.000000000000000000e+00
2.270000000000000000e+02,-2.341947757717527390e-01,0.000000000000000000e+00
2.280000000000000000e+02,3.170428266745798362e-01,0.000000000000000000e+00
2.290000000000000000e+02,2.368322268507445927e-01,0.000000000000000000e+00
2.300000000000000000e+02,-5.723340288050511315e-01,0.000000000000000000e+00
2.310000000000000000e+02,-1.230112043745963168e+00,0.000000000000000000e+00
2.320000000000000000e+02,-1.247496740318517761e+00,0.000000000000000000e+00
2.330000000000000000e+02,-1.777739972703234361e+00,0.000000000000000000e+00
2.340000000000000000e+02,-8.962978555964518090e-01,0.000000000000000000e+00
2.350000000000000000e+02,1.296712812111249447e+00,1.000000000000000000e+00
2.360000000000000000e+02,1.695322137290911080e+00,0.000000000000000000e+00
2.370000000000000000e+02,1.196589089330079902e+00,0.000000000000000000e+00
2.380000000000000000e+02,9.628952902488006060e-01,0.000000000000000000e+00
2.390000000000000000e+02,8.331576082872740319e-01,0.000000000000000000e+00
2.400000000000000000e+02,8.552888488248746590e-01,0.000000000000000000e+00
2.410000000000000000e+02,7.016799310310340987e-01,0.000000000000000000e+00
2.420000000000000000e+02,7.994460946626394948e-01,0.000000000000000000e+00
2.430000000000000000e+02,4.138745952090698843e-01,0.000000000000000000e+00
2.440000000000000000e+02,1.168291261039583917e+00,0.000000000000000000e+00
2.450000000000000000e+02,1.281963207662286219e+00,0.000000000000000000e+00
2.460000000000000000e+02,1.125963683552904104e+00,0.000000000000000000e+00
2.470000000000000000e+02,1.411073194478505322e+00,0.000000000000000000e+00
2.480000000000000000e+02,8.434109122750452769e-01,0.000000000000000000e+00
2.490000000000000000e+02,8.851471632146868940e-01,0.000000000000000000e+00
2.500000000000000000e+02,4.951749601168417558e-01,0.000000000000000000e+00
2.510000000000000000e+02,4.039907652560700835e-01,0.000000000000000000e+00
2.520000000000000000e+02,-2.006759033159291883e-01,0.000000000000000000e+00
2.530000000000000000e+02,-2.371115964875910587e-01,0.000000000000000000e+00
2.540000000000000000e+02,5.126154658884519988e-02,0.000000000000000000e+00
2.550000000000000000e+02,-1.030805753395781066e+00,0.000000000000000000e+00
2.560000000000000000e+02,-9.643172122297609672e-01,0.000000000000000000e+00
2.570000000000000000e+02,-7.983116831181956696e-01,0.000000000000000000e+00
2.580000000000000000e+02,-9.290570992036553122e-01,0.000000000000000000e+00
2.590000000000000000e+02,-6.580813884418604820e-01,0.000000000000000000e+00
2.600000000000000000e+02,-8.562573113961504667e-01,0.000000000000000000e+00
2.610000000000000000e+02,-2.268901023853364951e-01,0.000000000000000000e+00
2.620000000000000000e+02,4.300273925831944732e-02,0.000000000000000000e+00
2.630000000000000000e+02,-3.145578353827054308e-01,0.000000000000000000e+00
2.640000000000000000e+02,-4.547120319286726553e-01,0.000000000000000000e+00
2.650000000000000000e+02,-6.205093766689941948e-01,0.000000000000000000e+00
2.660000000000000000e+02,-3.204219030114309197e-01,0.000000000000000000e+00
2.670000000000000000e+02,-6.628278256073719676e-01,0.000000000000000000e+00
2.680000000000000000e+02,-2.755239466939321535e-01,0.000000000000000000e+00
2.690000000000000000e+02,-4.080748536822805805e-01,0.000000000000000000e+00
2.700000000000000000e+02,5.333075619122491784e-02,0.000000000000000000e+00
2.710000000000000000e+02,-2.443809566321281379e-01,0.000000000000000000e+00
2.720000000000000000e+02,-3.560966506367010398e-01,0.000000000000000000e+00
2.730000000000000000e+02,3.662014546746396315e-02,0.000000000000000000e+00
2.740000000000000000e+02,-4.259487735247519113e-01,0.000000000000000000e+00
2.750000000000000000e+02,-3.200029060718578844e-02,0.000000000000000000e+00
2.760000000000000000e+02,8.136767070651626521e-02,0.000000000000000000e+00
2.770000000000000000e+02,-1.025961916170265165e-01,0.000000000000000000e+00
2.780000000000000000e+02,-2.982255618427134478e-02,0.000000000000000000e+00
2.790000000000000000e+02,1.730130005197086374e-01,0.000000000000000000e+00
2.800000000000000000e+02,-3.155373575733955854e-02,0.000000000000000000e+00
2.810000000000000000e+02,-2.767168133199878199e-01,0.000000000000000000e+00
2.820000000000000000e+02,-1.599472895515402060e+00,0.000000000000000000e+00
2.830000000000000000e+02,-1.290027323982407603e+00,0.000000000000000000e+00
2.840000000000000000e+02,-1.867847008221992899e+00,0.000000000000000000e+00
2.850000000000000000e+02,-1.185998178785009793e+00,0.000000000000000000e+00
2.860000000000000000e+02,1.185137078761056229e+00,0.000000000000000000e+00
2.870000000000000000e+02,1.871479337436252832e+00,1.000000000000000000e+00
2.880000000000000000e+02,1.779706469063728091e+00,0.000000000000000000e+00
2.890000000000000000e+02,7.056920342292053450e-01,0.000000000000000000e+00
2.900000000000000000e+02,5.369120390869389636e-01,0.000000000000000000e+00
2.910000000000000000e+02,9.781871115116954618e-01,0.000000000000000000e+00
2.920000000000000000e+02,1.069703736848508502e+00,0.000000000000000000e+00
2.930000000000000000e+02,7.472599692473332889e-01,0.000000000000000000e+00
2.940000000000000000e+02,9.566693351880417584e-01,0.000000000000000000e+00
2.950000000000000000e+02,1.267705038708655918e+00,0.000000000000000000e+00
2.960000000000000000e+02,1.383351827408756396e+00,0.000000000000000000e+00
2.970000000000000000e+02,8.920569460763934089e-01,0.000000000000000000e+00
2.980000000000000000e+02,8.226540785708552628e-01,0.000000000000000000e+00
2.990000000000000000e+02,1.221358088308152512e+00,0.000000000000000000e+00
3.000000000000000000e+02,5.022038179952512671e-01,0.000000000000000000e+00
3.010000000000000000e+02,8.529359345623738209e-01,0.000000000000000000e+00
3.020000000000000000e+02,8.025952578227328882e-01,0.000000000000000000e+00
3.030000000000000000e+02,5.031895277137003047e-02,0.000000000000000000e+00
3.040000000000000000e+02,-3.150132521055327151e-01,0.000000000000000000e+00
3.050000000000000000e+02,-9.872438193042859522e-01,0.000000000000000000e+00
3.060000000000000000e+02,-1.228993541085106500e+00,0.000000000000000000e+00
3.070000000000000000e+02,-4.223258261023550286e-01,0.000000000000000000e+00
3.080000000000000000e+02,-1.194379280584028535e+00,0.000000000000000000e+00
3.090000000000000000e+02,-1.132442727491432599e+00,0.000000000000000000e+00
3.100000000000000000e+02,-9.139734901475096152e-01,0.000000000000000000e+00
3.110000000000000000e+02,-7.726116304836219140e-01,0.000000000000000000e+00
3.120000000000000000e+02,-5.685978870218949544e-01,0.000000000000000000e+00
3.130000000000000000e+02,-5.568159151771384652e-01,0.000000000000000000e+00
3.140000000000000000e+02,-8.382920234755757427e-01,0.000000000000000000e+00
3.150000000000000000e+02,-4.145149832103762200e-01,0.000000000000000000e+00
3.160000000000000000e+02,-9.826999382639819425e-01,0.000000000000000000e+00
3.170000000000000000e+02,-5.980665379020252415e-01,0.000000000000000000e+00
3.180000000000000000e+02,-2.145932565368616207e-01,0.000000000000000000e+00
3.190000000000000000e+02,-1.481495664019338299e-01,0.000000000000000000e+00
3.200000000000000000e+02,-6.127690790759161565e-01,0.000000000000000000e+00
3.210000000000000000e+02,-3.073847825904891251e-01,0.000000000000000000e+00
3.220000000000000000e+02,6.325252631510099033e-02,0.000000000000000000e+00
3.230000000000000000e+02,-2.915775958796353873e-01,0.000000000000000000e+00
3.240000000000000000e+02,-8.343161634252778125e-01,0.000000000000000000e+00
3.250000000000000000e+02,-3.175584765325221714e-01,0.000000000000000000e+00
3.260000000000000000e+02,-3.570722432069395325e-01,0.000000000000000000e+00
3.270000000000000000e+02,-8.056871111782877570e-02,0.000000000000000000e+00
3.280000000000000000e+02,-4.284894811354300614e-02,0.000000000000000000e+00
3.290000000000000000e+02,5.829278076985826285e-02,0.000000000000000000e+00
3.300000000000000000e+02,4.816928985260648388e-01,0.000000000000000000e+00
3.310000000000000000e+02,-1.513627268402854831e-01,0.000000000000000000e+00
3.320000000000000000e+02,-8.486933287563204198e-01,0.000000000000000000e+00
3.330000000000000000e+02,-1.320231255435576623e+00,0.000000000000000000e+00
3.340000000000000000e+02,-1.591422182250578521e+00,0.000000000000000000e+00
3.350000000000000000e+02,-1.416920639274971361e+00,0.000000000000000000e+00
3.360000000000000000e+02,-1.716450807616884289e+00,0.000000000000000000e+00
3.370000000000000000e+02,1.284950700285184100e+00,1.000000000000000000e+00
3.380000000000000000e+02,1.692537147013359000e+00,0.000000000000000000e+00
3.390000000000000000e+02,1.255001524757300535e+00,0.000000000000000000e+00
3.400000000000000000e+02,9.290916703488640849e-01,0.000000000000000000e+00
3.410000000000000000e+02,1.052904035013400463e+00,0.000000000000000000e+00
3.420000000000000000e+02,1.487288334269687429e+00,0.000000000000000000e+00
3.430000000000000000e+02,9.612650488606359067e-01,0.000000000000000000e+00
3.440000000000000000e+02,8.342332205294826775e-01,0.000000000000000000e+00
3.450000000000000000e+02,9.484287673241700301e-01,0.000000000000000000e+00
3.460000000000000000e+02,9.997457329566619144e-01,0.000000000000000000e+00
3.470000000000000000e+02,1.204050513008013246e+00,0.000000000000000000e+00
3.480000000000000000e+02,1.094730165802812349e+00,0.000000000000000000e+00
3.490000000000000000e+02,1.233464332327990798e+00,0.000000000000000000e+00
3.500000000000000000e+02,1.350799998392459900e+00,0.000000000000000000e+00
3.510000000000000000e+02,1.034813412506204733e+00,0.000000000000000000e+00
3.520000000000000000e+02,8.324440005495673534e-01,0.000000000000000000e+00
3.530000000000000000e+02,9.534167427606232703e-01,0.000000000000000000e+00
3.540000000000000000e+02,4.595238711772099416e-01,0.000000000000000000e+00
3.550000000000000000e+02,-5.487372649740638458e-02,0.000000000000000000e+00
3.560000000000000000e+02,-7.665224778922619109e-01,0.000000000000000000e+00
3.570000000000000000e+02,-8.553053088430412343e-01,0.000000000000000000e+00
3.580000000000000000e+02,-5.623698852061783660e-01,0.000000000000000000e+00
3.590000000000000000e+02,-9.502681448097505257e-01,0.000000000000000000e+00
3.600000000000000000e+02,-4.424195193098195977e-01,0.000000000000000000e+00
3.610000000000000000e+02,-4.901511342988976727e-01,0.000000000000000000e+00
3.620000000000000000e+02,-6.829409069732422788e-01,0.000000000000000000e+00
3.630000000000000000e+02,-6.258109916097640557e-01,0.000000000000000000e+00
3.640000000000000000e+02,-4.807152729453174067e-01,0.000000000000000000e+00
3.650000000000000000e+02,-9.254837515191269848e-01,0.000000000000000000e+00
3.660000000000000000e+02,-4.694071587697309367e-01,0.000000000000000000e+00
3.670000000000000000e+02,-4.469095798894889837e-01,0.000000000000000000e+00
3.680000000000000000e+02,-1.459771754949025779e-01,0.000000000000000000e+00
3.690000000000000000e+02,5.082816375299717415e-02,0.000000000000000000e+00
3.700000000000000000e+02,2.327711025193297256e-01,0.000000000000000000e+00
3.710000000000000000e+02,-2.501669580413155569e-01,0.000000000000000000e+00
3.720000000000000000e+02,6.375189845093456875e-02,0.000000000000000000e+00
3.730000000000000000e+02,-5.158662584523977523e-01,0.000000000000000000e+00
3.740000000000000000e+02,-5.375960276473201738e-01,0.000000000000000000e+00
3.750000000000000000e+02,-6.742378403036436429e-02,0.000000000000000000e+00
3.760000000000000000e+02,-1.008460958807164409e-01,0.000000000000000000e+00
3.770000000000000000e+02,-1.792026533339036512e-02,0.000000000000000000e+00
3.780000000000000000e+02,-2.297936894595553892e-01,0.000000000000000000e+00
3.790000000000000000e+02,6.867193673327007253e-02,0.000000000000000000e+00
3.800000000000000000e+02,5.564086054857114716e-01,0.000000000000000000e+00
3.810000000000000000e+02,2.003229223868742415e-01,0.000000000000000000e+00
3.820000000000000000e+02,-1.143982229560066288e-01,0.000000000000000000e+00
3.830000000000000000e+02,-1.483269795919893053e+00,0.000000000000000000e+00
3.840000000000000000e+02,-1.611635732614891126e+00,0.000000000000000000e+00
3.850000000000000000e+02,-1.557639094431284121e+00,0.000000000000000000e+00
3.860000000000000000e+02,-2.524456272174000038e+00,0.000000000000000000e+00
3.870000000000000000e+02,-1.871469675152170220e+00,0.000000000000000000e+00
3.880000000000000000e+02,5.995054676826939710e-01,0.000000000000000000e+00
3.890000000000000000e+02,1.520712011816297782e+00,1.000000000000000000e+00
3.900000000000000000e+02,1.234669619695487830e+00,0.000000000000000000e+00
3.910000000000000000e+02,8.320320834197777460e-01,0.000000000000000000e+00
3.920000000000000000e+02,9.850574605888663404e-01,0.000000000000000000e+00
3.930000000000000000e+02,8.273405062643053309e-01,0.000000000000000000e+00
3.940000000000000000e+02,7.179880582569070357e-01,0.000000000000000000e+00
3.950000000000000000e+02,9.449866724918303262e-01,0.000000000000000000e+00
3.960000000000000000e+02,1.633148357776052162e+00,0.000000000000000000e+00
3.970000000000000000e+02,1.048770617393998128e+00,0.000000000000000000e+00
3.980000000000000000e+02,7.776341448603474316e-01,0.000000000000000000e+00
3.990000000000000000e+02,1.167120292427660466e+00,0.000000000000000000e+00
4.000000000000000000e+02,1.032796506121239410e+00,0.000000000000000000e+00
4.010000000000000000e+02,1.300922048959986421e+00,0.000000000000000000e+00
4.020000000000000000e+02,1.231385004539093719e+00,0.000000000000000000e+00
4.030000000000000000e+02,1.103287657583311709e+00,0.000000000000000000e+00
4.040000000000000000e+02,8.302065856003587596e-01,0.000000000000000000e+00
4.050000000000000000e+02,-1.193705784448696877e-01,0.000000000000000000e+00
4.060000000000000000e+02,-2.117491060188398111e-01,0.000000000000000000e+00
4.070000000000000000e+02,-1.273611989144111556e+00,0.000000000000000000e+00
4.080000000000000000e+02,-6.628461807898043956e-01,0.000000000000000000e+00
4.090000000000000000e+02,-1.015965605036868613e+00,0.000000000000000000e+00
4.100000000000000000e+02,-8.294657897051334050e-01,0.000000000000000000e+00
4.110000000000000000e+02,-7.982021819255353812e-01,0.000000000000000000e+00
4.120000000000000000e+02,-7.618727981515628356e-01,0.000000000000000000e+00
4.130000000000000000e+02,-5.970558742626105309e-01,0.000000000000000000e+00
4.140000000000000000e+02,-5.536740695508058918e-01,0.000000000000000000e+00
4.150000000000000000e+02,-7.582494329873168404e-01,0.000000000000000000e+00
4.160000000000000000e+02,-5.868045322862699420e-01,0.000000000000000000e+00
4.170000000000000000e+02,-6.667264274647860534e-01,0.000000000000000000e+00
4.180000000000000000e+02,-1.891745455156671751e-01,0.000000000000000000e+00
4.190000000000000000e+02,-1.152087427024249822e-01,0.000000000000000000e+00
4.200000000000000000e+02,-6.319397845205941555e-02,0.000000000000000000e+00
4.210000000000000000e+02,-1.482628602310532839e-01,0.000000000000000000e+00
4.220000000000000000e+02,-1.856735448481164619e-01,0.000000000000000000e+00
4.230000000000000000e+02,-5.731163976925996995e-01,0.000000000000000000e+00
4.240000000000000000e+02,-4.329050491914281373e-01,0.000000000000000000e+00
4.250000000000000000e+02,-3.602933287905443760e-01,0.000000000000000000e+00
4.260000000000000000e+02,-3.604775763262478283e-01,0.000000000000000000e+00
4.270000000000000000e+02,-5.780167642338576717e-02,0.000000000000000000e+00
4.280000000000000000e+02,-1.198338359835311451e-01,0.000000000000000000e+00
4.290000000000000000e+02,2.794976968414257870e-02,0.000000000000000000e+00
4.300000000000000000e+02,2.866605393714516947e-01,0.000000000000000000e+00
4.310000000000000000e+02,7.737853851174947631e-03,0.000000000000000000e+00
4.320000000000000000e+02,-4.744002897181151535e-01,0.000000000000000000e+00
4.330000000000000000e+02,-3.561093292302231483e-01,0.000000000000000000e+00
4.340000000000000000e+02,-1.097699142075794443e+00,0.000000000000000000e+00
4.350000000000000000e+02,-1.642858330458609739e+00,0.000000000000000000e+00
4.360000000000000000e+02,-2.021741135599967265e+00,0.000000000000000000e+00
4.370000000000000000e+02,-2.555221245591318802e+00,0.000000000000000000e+00
4.380000000000000000e+02,-2.219819412184008467e+00,0.000000000000000000e+00
4.390000000000000000e+02,3.162941847391430028e-01,0.000000000000000000e+00
4.400000000000000000e+02,2.027372023158373171e+00,1.000000000000000000e+00
4.410000000000000000e+02,1.643167080639558852e+00,0.000000000000000000e+00
4.420000000000000000e+02,2.025620229661117211e+00,0.000000000000000000e+00
4.430000000000000000e+02,1.677963771230757350e+00,0.000000000000000000e+00
4.440000000000000000e+02,1.608967288035070942e+00,0.000000000000000000e+00
4.450000000000000000e+02,1.389579007162147217e+00,0.000000000000000000e+00
4.460000000000000000e+02,1.550309835588333129e+00,0.000000000000000000e+00
4.470000000000000000e+02,1.617217024315724672e+00,0.000000000000000000e+00
4.480000000000000000e+02,1.063380263458447939e+00,0.000000000000000000e+00
4.490000000000000000e+02,9.713926640439473070e-01,0.000000000000000000e+00
4.500000000000000000e+02,1.365169597023516257e+00,0.000000000000000000e+00
4.510000000000000000e+02,1.478060353672162375e+00,0.000000000000000000e+00
4.520000000000000000e+02,1.083189389279564097e+00,0.000000000000000000e+00
4.530000000000000000e+02,1.286420116809843250e+00,0.000000000000000000e+00
4.540000000000000000e+02,1.402724121585695816e+00,0.000000000000000000e+00
4.550000000000000000e+02,5.613661998995288505e-01,0.000000000000000000e+00
4.560000000000000000e+02,8.080065300600332290e-02,0.000000000000000000e+00
4.570000000000000000e+02,-3.057082495367833830e-01,0.000000000000000000e+00
4.580000000000000000e+02,-1.650931275605782345e+00,0.000000000000000000e+00
4.590000000000000000e+02,-8.459115965962410444e-01,0.000000000000000000e+00
4.600000000000000000e+02,-7.276617426350170392e-01,0.000000000000000000e+00
4.610000000000000000e+02,-6.796679630313542386e-01,0.000000000000000000e+00
4.620000000000000000e+02,-8.127358533854380784e-01,0.000000000000000000e+00
4.630000000000000000e+02,-6.248196942673104326e-01,0.000000000000000000e+00
4.640000000000000000e+02,-1.006830784877025042e+00,0.000000000000000000e+00
4.650000000000000000e+02,-4.765555392096142984e-01,0.000000000000000000e+00
4.660000000000000000e+02,-8.891885597054945967e-01,0.000000000000000000e+00
4.670000000000000000e+02,-3.356756642352084485e-01,0.000000000000000000e+00
4.680000000000000000e+02,-6.299112373014441602e-01,0.000000000000000000e+00
4.690000000000000000e+02,-6.011885438846417129e-01,0.000000000000000000e+00
4.700000000000000000e+02,2.325676122702809434e-01,0.000000000000000000e+00
4.710000000000000000e+02,-1.432181873666867056e-01,0.000000000000000000e+00
4.720000000000000000e+02,-8.319714685252255215e-01,0.000000000000000000e+00
4.730000000000000000e+02,-3.055969005984782716e-01,0.000000000000000000e+00
4.740000000000000000e+02,-1.769436127438792639e-01,0.000000000000000000e+00
4.750000000000000000e+02,-4.674954421077392452e-01,0.000000000000000000e+00
4.760000000000000000e+02,-3.553998293267077724e-01,0.000000000000000000e+00
4.770000000000000000e+02,-2.785798186568439472e-01,0.000000000000000000e+00
4.780000000000000000e+02,-2.983064950348708264e-02,0.000000000000000000e+00
4.790000000000000000e+02,-2.301475184460035628e-01,0.000000000000000000e+00
4.800000000000000000e+02,-5.072229070004699580e-02,0.000000000000000000e+00
4.810000000000000000e+02,5.577217112831625578e-02,0.000000000000000000e+00
4.820000000000000000e+02,-3.791473225614868103e-01,0.000000000000000000e+00
4.830000000000000000e+02,-2.014089212766487225e-01,0.000000000000000000e+00
4.840000000000000000e+02,-3.349008673043877837e-01,0.000000000000000000e+00
4.850000000000000000e+02,-7.504302326009817392e-01,0.000000000000000000e+00
4.860000000000000000e+02,-2.182613919498962218e+00,0.000000000000000000e+00
4.870000000000000000e+02,-2.200706425532656052e+00,0.000000000000000000e+00
4.880000000000000000e+02,-2.375621172555977267e+00,0.000000000000000000e+00
4.890000000000000000e+02,-1.603337061074894265e+00,0.000000000000000000e+00
4.900000000000000000e+02,3.872116932597807759e-01,0.000000000000000000e+00
4.910000000000000000e+02,1.606482763869812924e+00,1.000000000000000000e+00
4.920000000000000000e+02,1.473390333529442930e+00,0.000000000000000000e+00
4.930000000000000000e+02,1.825694068946347226e+00,0.000000000000000000e+00
4.940000000000000000e+02,9.984539352161252435e-01,0.000000000000000000e+00
4.950000000000000000e+02,1.529166138036317513e+00,0.000000000000000000e+00
4.960000000000000000e+02,1.248946936616236680e+00,0.000000000000000000e+00
4.970000000000000000e+02,1.302523942475595664e+00,0.000000000000000000e+00
4.980000000000000000e+02,1.595588391478433010e+00,0.000000000000000000e+00
4.990000000000000000e+02,1.219581387029381903e+00,0.000000000000000000e+00
5.000000000000000000e+02,1.090308782622084305e+00,0.000000000000000000e+00
5.010000000000000000e+02,1.451804896617101326e+00,0.000000000000000000e+00
5.020000000000000000e+02,8.653977454748617015e-01,0.000000000000000000e+00
5.030000000000000000e+02,1.398479043355054463e+00,0.000000000000000000e+00
5.040000000000000000e+02,1.050543393044388818e+00,0.000000000000000000e+00
5.050000000000000000e+02,7.226856208205598708e-01,0.000000000000000000e+00
5.060000000000000000e+02,7.624735179722906819e-01,0.000000000000000000e+00
5.070000000000000000e+02,2.039487208966062337e-01,0.000000000000000000e+00
5.080000000000000000e+02,-4.035148367908626410e-01,0.000000000000000000e+00
5.090000000000000000e+02,-7.961322252575143699e-01,0.000000000000000000e+00
5.100000000000000000e+02,-9.288386671992336918e-01,0.000000000000000000e+00
5.110000000000000000e+02,-9.353006577298832447e-01,0.000000000000000000e+00
5.120000000000000000e+02,-1.154761812347939287e+00,0.000000000000000000e+00
5.130000000000000000e+02,-7.986525630305870704e-01,0.000000000000000000e+00
5.140000000000000000e+02,-8.747432344263675885e-01,0.000000000000000000e+00
5.150000000000000000e+02,-4.655888677661415009e-01,0.000000000000000000e+00
5.160000000000000000e+02,-8.308921930330255279e-01,0.000000000000000000e+00
5.170000000000000000e+02,-6.279307338776534131e-01,0.000000000000000000e+00
5.180000000000000000e+02,-3.370300097939346595e-01,0.000000000000000000e+00
5.190000000000000000e+02,-6.559540468201023877e-01,0.000000000000000000e+00
5.200000000000000000e+02,-3.057164536389539999e-01,0.000000000000000000e+00
5.210000000000000000e+02,-7.540722274092918065e-01,0.000000000000000000e+00
5.220000000000000000e+02,-2.620244583115243775e-01,0.000000000000000000e+00
5.230000000000000000e+02,2.632179565005025867e-02,0.000000000000000000e+00
5.240000000000000000e+02,-8.021801962409980113e-01,0.000000000000000000e+00
5.250000000000000000e+02,-5.115505841006190435e-01,0.000000000000000000e+00
5.260000000000000000e+02,-7.305945759643822646e-01,0.000000000000000000e+00
5.270000000000000000e+02,-2.244631937739056601e-02,0.000000000000000000e+00
5.280000000000000000e+02,-4.868477618237412319e-01,0.000000000000000000e+00
5.290000000000000000e+02,-3.837097288146869289e-02,0.000000000000000000e+00
5.300000000000000000e+02,2.651514120807949570e-01,0.000000000000000000e+00
5.310000000000000000e+02,-1.036540408187959089e-01,0.000000000000000000e+00
5.320000000000000000e+02,2.409500608945130962e-01,0.000000000000000000e+00
5.330000000000000000e+02,-1.290539625187931139e-01,0.000000000000000000e+00
5.340000000000000000e+02,-3.772084823524218811e-01,0.000000000000000000e+00
5.350000000000000000e+02,-1.257364622283467792e-01,0.000000000000000000e+00
5.360000000000000000e+02,-7.353602657585566194e-01,0.000000000000000000e+00
5.370000000000000000e+02,-1.396556642568757445e+00,0.000000000000000000e+00
5.380000000000000000e+02,-1.498397186461462693e+00,0.000000000000000000e+00
5.390000000000000000e+02,-1.500929421389246121e+00,0.000000000000000000e+00
5.400000000000000000e+02,-1.651825007153803870e+00,0.000000000000000000e+00
5.410000000000000000e+02,4.378173290669726825e-01,0.000000000000000000e+00
5.420000000000000000e+02,2.222922413047752510e+00,1.000000000000000000e+00
5.430000000000000000e+02,1.306643680469922186e+00,0.000000000000000000e+00
5.440000000000000000e+02,1.589880362999865460e+00,0.000000000000000000e+00
5.450000000000000000e+02,1.678906458143381464e+00,0.000000000000000000e+00
5.460000000000000000e+02,1.464798601090339769e+00,0.000000000000000000e+00
5.470000000000000000e+02,1.731707625843605047e+00,0.000000000000000000e+00
5.480000000000000000e+02,1.343954412815893340e+00,0.000000000000000000e+00
5.490000000000000000e+02,1.900809936924146015e+00,0.000000000000000000e+00
5.500000000000000000e+02,1.212019206125923843e+00,0.000000000000000000e+00
5.510000000000000000e+02,8.513856867330472644e-01,0.000000000000000000e+00
5.520000000000000000e+02,9.470762424941177038e-01,0.000000000000000000e+00
5.530000000000000000e+02,1.474965731892210696e+00,0.000000000000000000e+00
5.540000000000000000e+02,1.049225338965675158e+00,0.000000000000000000e+00
5.550000000000000000e+02,9.945966068273499605e-01,0.000000000000000000e+00
5.560000000000000000e+02,1.603480341799277564e+00,0.000000000000000000e+00
5.570000000000000000e+02,8.258985675118514225e-01,0.000000000000000000e+00
5.580000000000000000e+02,8.429771755175351211e-02,0.000000000000000000e+00
5.590000000000000000e+02,-3.691832906136154335e-01,0.000000000000000000e+00
5.600000000000000000e+02,-5.803323693994342225e-01,0.000000000000000000e+00
5.610000000000000000e+02,-8.187761902068063646e-01,0.000000000000000000e+00
5.620000000000000000e+02,-8.692730201723393169e-01,0.000000000000000000e+00
5.630000000000000000e+02,-7.337259963018808451e-01,0.000000000000000000e+00
5.640000000000000000e+02,-1.058638034675812856e+00,0.000000000000000000e+00
5.650000000000000000e+02,-3.004848494480895638e-01,0.000000000000000000e+00
5.660000000000000000e+02,-7.998749295744790322e-01,0.000000000000000000e+00
5.670000000000000000e+02,-7.917219534748946019e-01,0.000000000000000000e+00
5.680000000000000000e+02,-9.658374034311738576e-01,0.000000000000000000e+00
5.690000000000000000e+02,-7.845847409176471832e-01,0.000000000000000000e+00
5.700000000000000000e+02,-7.184480830498469750e-01,0.000000000000000000e+00
5.710000000000000000e+02,-2.995906789916639168e-01,0.000000000000000000e+00
5.720000000000000000e+02,-6.152966898505025650e-01,0.000000000000000000e+00
5.730000000000000000e+02,-3.688494617327416902e-01,0.000000000000000000e+00
5.740000000000000000e+02,-6.109126149473732836e-02,0.000000000000000000e+00
5.750000000000000000e+02,-8.127379662798563942e-01,0.000000000000000000e+00
5.760000000000000000e+02,-7.220761063596234930e-01,0.000000000000000000e+00
5.770000000000000000e+02,-3.128018584959286197e-01,0.000000000000000000e+00
5.780000000000000000e+02,-5.474102729703789194e-01,0.000000000000000000e+00
5.790000000000000000e+02,-3.438175972034598904e-01,0.000000000000000000e+00
5.800000000000000000e+02,1.157390703496183060e-01,0.000000000000000000e+00
5.810000000000000000e+02,-2.593498355610099337e-01,0.000000000000000000e+00
5.820000000000000000e+02,-1.951448468788708757e-01,0.000000000000000000e+00
5.830000000000000000e+02,-1.672650511435159748e-01,0.000000000000000000e+00
5.840000000000000000e+02,-4.760458778662021162e-01,0.000000000000000000e+00
5.850000000000000000e+02,-2.762523524154489318e-01,0.000000000000000000e+00
5.860000000000000000e+02,1.177711033699155585e-01,0.000000000000000000e+00
5.870000000000000000e+02,-9.727098301347275600e-01,0.000000000000000000e+00
5.880000000000000000e+02,-1.127456883569960988e+00,0.000000000000000000e+00
5.890000000000000000e+02,-1.382625839697954495e+00,0.000000000000000000e+00
5.900000000000000000e+02,-1.576193884405664658e+00,0.000000000000000000e+00
5.910000000000000000e+02,-1.960660096420844045e+00,0.000000000000000000e+00
5.920000000000000000e+02,2.020444872327833152e-01,0.000000000000000000e+00
5.930000000000000000e+02,1.809839566913133968e+00,1.000000000000000000e+00
5.940000000000000000e+02,1.140688695520522877e+00,0.000000000000000000e+00
5.950000000000000000e+02,9.688028411712755750e-01,0.000000000000000000e+00
5.960000000000000000e+02,7.963787491333249591e-01,0.000000000000000000e+00
5.970000000000000000e+02,1.453896464451822190e+00,0.000000000000000000e+00
5.980000000000000000e+02,8.103616539431568455e-01,0.000000000000000000e+00
5.990000000000000000e+02,1.452133119022062546e+00,0.000000000000000000e+00
6.000000000000000000e+02,6.583837031837953546e-01,0.000000000000000000e+00
6.010000000000000000e+02,8.688577279665314901e-01,0.000000000000000000e+00
6.020000000000000000e+02,1.091763912569513328e+00,0.000000000000000000e+00
6.030000000000000000e+02,1.010398766350448785e+00,0.000000000000000000e+00
6.040000000000000000e+02,1.410361130286556630e+00,0.000000000000000000e+00
6.050000000000000000e+02,1.360417382613259285e+00,0.000000000000000000e+00
6.060000000000000000e+02,8.697144982200440966e-01,0.000000000000000000e+00
6.070000000000000000e+02,1.266675797639815748e+00,0.000000000000000000e+00
6.080000000000000000e+02,8.349984391107129200e-01,0.000000000000000000e+00
6.090000000000000000e+02,2.341962980207558387e-01,0.000000000000000000e+00
6.100000000000000000e+02,-4.523193899890106673e-01,0.000000000000000000e+00
6.110000000000000000e+02,-6.231779005767663637e-01,0.000000000000000000e+00
6.120000000000000000e+02,-6.058736417843063604e-01,0.000000000000000000e+00
6.130000000000000000e+02,-8.096486574119909907e-01,0.000000000000000000e+00
6.140000000000000000e+02,-5.380229317947041734e-01,0.000000000000000000e+00
6.150000000000000000e+02,-1.890111527145410530e-01,0.000000000000000000e+00
6.160000000000000000e+02,-5.043326719098851774e-01,0.000000000000000000e+00
6.170000000000000000e+02,-7.265869583161334022e-01,0.000000000000000000e+00
6.180000000000000000e+02,-7.802076336743331009e-01,0.000000000000000000e+00
6.190000000000000000e+02,-8.809296740144986204e-01,0.000000000000000000e+00
6.200000000000000000e+02,-8.764961851770778356e-01,0.000000000000000000e+00
6.210000000000000000e+02,-2.328606044871894265e-01,0.000000000000000000e+00
6.220000000000000000e+02,-5.442314231475318120e-01,0.000000000000000000e+00
6.230000000000000000e+02,-1.518171028698421243e-01,0.000000000000000000e+00
6.240000000000000000e+02,-6.210191425227360451e-01,0.000000000000000000e+00
6.250000000000000000e+02,-8.371242492146463432e-02,0.000000000000000000e+00
6.260000000000000000e+02,-5.400599442560232166e-01,0.000000000000000000e+00
6.270000000000000000e+02,-6.003590707420594086e-01,0.000000000000000000e+00
6.280000000000000000e+02,-2.254686697515443650e-01,0.000000000000000000e+00
6.290000000000000000e+02,-4.273348835958817316e-01,0.000000000000000000e+00
6.300000000000000000e+02,-4.320145948768648325e-01,0.000000000000000000e+00
6.310000000000000000e+02,1.333208176646497600e-01,0.000000000000000000e+00
6.320000000000000000e+02,-2.319002980326176008e-02,0.000000000000000000e+00
6.330000000000000000e+02,9.747285235141853188e-02,0.000000000000000000e+00
6.340000000000000000e+02,-6.211937877121187501e-01,0.000000000000000000e+00
6.350000000000000000e+02,-2.358647834660844433e-01,0.000000000000000000e+00
6.360000000000000000e+02,-4.879120813963044867e-01,0.000000000000000000e+00
6.370000000000000000e+02,1.629452281435309069e-01,0.000000000000000000e+00
6.380000000000000000e+02,-5.168458081045532726e-01,0.000000000000000000e+00
6.390000000000000000e+02,-1.307401527227889826e+00,0.000000000000000000e+00
6.400000000000000000e+02,-9.926804945360429011e-01,0.000000000000000000e+00
6.410000000000000000e+02,-1.425714699130081309e+00,0.000000000000000000e+00
6.420000000000000000e+02,-1.832288872999144003e+00,0.000000000000000000e+00
6.430000000000000000e+02,4.211309595564771691e-01,1.000000000000000000e+00
6.440000000000000000e+02,1.515776058872160270e+00,0.000000000000000000e+00
6.450000000000000000e+02,1.225845125070608388e+00,0.000000000000000000e+00
6.460000000000000000e+02,1.348609652286830940e+00,0.000000000000000000e+00
6.470000000000000000e+02,7.276707731652986011e-01,0.000000000000000000e+00
6.480000000000000000e+02,8.519530982145313569e-01,0.000000000000000000e+00
6.490000000000000000e+02,9.552825382670929732e-01,0.000000000000000000e+00
6.500000000000000000e+02,1.178848881540844218e+00,0.000000000000000000e+00
6.510000000000000000e+02,3.505192997144276901e-01,0.000000000000000000e+00
6.520000000000000000e+02,7.017643958457193687e-01,0.000000000000000000e+00
6.530000000000000000e+02,3.778838956335369703e-01,0.000000000000000000e+00
6.540000000000000000e+02,6.513168824323456452e-01,0.000000000000000000e+00
6.550000000000000000e+02,9.773904959523077585e-01,0.000000000000000000e+00
6.560000000000000000e+02,9.689993704175470235e-01,0.000000000000000000e+00
6.570000000000000000e+02,1.241210391534462110e+00,0.000000000000000000e+00
6.580000000000000000e+02,8.962614116996965308e-01,0.000000000000000000e+00
6.590000000000000000e+02,3.444143973140322279e-01,0.000000000000000000e+00
6.600000000000000000e+02,4.180547159873834046e-02,0.000000000000000000e+00
6.610000000000000000e+02,-2.492447793694442526e-01,0.000000000000000000e+00
6.620000000000000000e+02,-7.702170157454663046e-01,0.000000000000000000e+00
6.630000000000000000e+02,-6.720146883646868075e-01,0.000000000000000000e+00
6.640000000000000000e+02,-4.641089723568522785e-01,0.000000000000000000e+00
6.650000000000000000e+02,-5.319477543687065602e-01,0.000000000000000000e+00
6.660000000000000000e+02,-5.650474410811691106e-01,0.000000000000000000e+00
6.670000000000000000e+02,-7.681801559686620706e-01,0.000000000000000000e+00
6.680000000000000000e+02,-7.809752462506467374e-01,0.000000000000000000e+00
6.690000000000000000e+02,-8.866536198300231097e-01,0.000000000000000000e+00
6.700000000000000000e+02,-3.789162042809747222e-01,0.000000000000000000e+00
6.710000000000000000e+02,-5.987827641647222032e-01,0.000000000000000000e+00
6.720000000000000000e+02,-3.956639226001245624e-01,0.000000000000000000e+00
6.730000000000000000e+02,-2.197368746264753148e-01,0.000000000000000000e+00
6.740000000000000000e+02,1.679540798324356821e-01,0.000000000000000000e+00
6.750000000000000000e+02,-3.803467486961524813e-01,0.000000000000000000e+00
6.760000000000000000e+02,-4.670510284164199888e-01,0.000000000000000000e+00
6.770000000000000000e+02,-4.369747287086002685e-01,0.000000000000000000e+00
6.780000000000000000e+02,-2.104047387710694106e-01,0.000000000000000000e+00
6.790000000000000000e+02,7.644470368638266178e-02,0.000000000000000000e+00
6.800000000000000000e+02,-3.327852279380079104e-01,0.000000000000000000e+00
6.810000000000000000e+02,-5.437035071030677435e-04,0.000000000000000000e+00
6.820000000000000000e+02,6.379835635959454354e-01,0.000000000000000000e+00
6.830000000000000000e+02,3.221137719002331035e-01,0.000000000000000000e+00
6.840000000000000000e+02,3.006296874963622079e-01,0.000000000000000000e+00
6.850000000000000000e+02,1.073465013842025834e-01,0.000000000000000000e+00
6.860000000000000000e+02,4.114430271067784917e-01,0.000000000000000000e+00
6.870000000000000000e+02,8.091275055961393015e-02,0.000000000000000000e+00
6.880000000000000000e+02,7.315296618171037712e-01,0.000000000000000000e+00
6.890000000000000000e+02,-5.889219521720301387e-01,0.000000000000000000e+00
6.900000000000000000e+02,-5.970258913191416328e-01,0.000000000000000000e+00
6.910000000000000000e+02,-1.077218697410404324e+00,0.000000000000000000e+00
6.920000000000000000e+02,-1.114919995842307499e+00,0.000000000000000000e+00
6.930000000000000000e+02,-1.398490055499540752e+00,0.000000000000000000e+00
6.940000000000000000e+02,4.822308816886521909e-01,0.000000000000000000e+00
6.950000000000000000e+02,1.650862559895913018e+00,1.000000000000000000e+00
6.960000000000000000e+02,1.021326765188764751e+00,0.000000000000000000e+00
6.970000000000000000e+02,1.079518389412073454e+00,0.000000000000000000e+00
6.980000000000000000e+02,3.592202279680520860e-01,0.000000000000000000e+00
6.990000000000000000e+02,1.052543201836606768e+00,0.000000000000000000e+00
7.000000000000000000e+02,6.334152463962955393e-01,0.000000000000000000e+00
7.010000000000000000e+02,1.268136263514229867e-01,0.000000000000000000e+00
7.020000000000000000e+02,2.622633567585911929e-01,0.000000000000000000e+00
7.030000000000000000e+02,1.514549143424334110e-01,0.000000000000000000e+00
7.040000000000000000e+02,5.618584818376595180e-01,0.000000000000000000e+00
7.050000000000000000e+02,5.775107534000080145e-01,0.000000000000000000e+00
7.060000000000000000e+02,8.952879603419758858e-01,0.000000000000000000e+00
7.070000000000000000e+02,1.485061721055764172e+00,0.000000000000000000e+00
7.080000000000000000e+02,1.140619916844131776e+00,0.000000000000000000e+00
7.090000000000000000e+02,3.676627568212520458e-01,0.000000000000000000e+00
7.100000000000000000e+02,4.816344274567622152e-01,0.000000000000000000e+00
7.110000000000000000e+02,7.981844342438353113e-02,0.000000000000000000e+00
7.120000000000000000e+02,-1.333981984736367365e-01,0.000000000000000000e+00
7.130000000000000000e+02,-7.104373981267491089e-01,0.000000000000000000e+00
7.140000000000000000e+02,-7.435929199447759430e-01,0.000000000000000000e+00
7.150000000000000000e+02,-8.685396343518566598e-01,0.000000000000000000e+00
7.160000000000000000e+02,-2.872694977330600419e-01,0.000000000000000000e+00
7.170000000000000000e+02,-3.708752612897682210e-01,0.000000000000000000e+00
7.180000000000000000e+02,-9.586941440921897817e-01,0.000000000000000000e+00
7.190000000000000000e+02,-8.634421469509909741e-01,0.000000000000000000e+00
7.200000000000000000e+02,-1.111712743399692060e+00,0.000000000000000000e+00
7.210000000000000000e+02,-5.253673797541136281e-01,0.000000000000000000e+00
7.220000000000000000e+02,-2.802869143366732430e-01,0.000000000000000000e+00
7.230000000000000000e+02,-6.638980492841501935e-01,0.000000000000000000e+00
7.240000000000000000e+02,-3.958326561644887609e-01,0.000000000000000000e+00
7.250000000000000000e+02,-3.444890650959715472e-01,0.000000000000000000e+00
7.260000000000000000e+02,-7.227484109941135770e-01,0.000000000000000000e+00
7.270000000000000000e+02,-3.894721297414657779e-01,0.000000000000000000e+00
7.280000000000000000e+02,-7.280775062583735302e-01,0.000000000000000000e+00
7.290000000000000000e+02,-2.467854904693339568e-01,0.000000000000000000e+00
7.300000000000000000e+02,-2.440898603512044462e-01,0.000000000000000000e+00
7.310000000000000000e+02,5.561106040459913753e-03,0.000000000000000000e+00
7.320000000000000000e+02,-2.431003565643037601e-01,0.000000000000000000e+00
7.330000000000000000e+02,3.528403230566634630e-01,0.000000000000000000e+00
7.340000000000000000e+02,-1.679684556902795445e-01,0.000000000000000000e+00
7.350000000000000000e+02,-5.473930847794542531e-01,0.000000000000000000e+00
7.360000000000000000e+02,-1.220930610866086674e-01,0.000000000000000000e+00
7.370000000000000000e+02,-2.653800552877340069e-01,0.000000000000000000e+00
7.380000000000000000e+02,-7.670935902937905948e-02,0.000000000000000000e+00
7.390000000000000000e+02,-1.822063873164328843e-02,0.000000000000000000e+00
7.400000000000000000e+02,-5.013345800861508661e-02,0.000000000000000000e+00
7.410000000000000000e+02,-6.587949753887817339e-01,0.000000000000000000e+00
7.420000000000000000e+02,-1.119100838530643571e+00,0.000000000000000000e+00
7.430000000000000000e+02,-1.584811855989438856e+00,0.000000000000000000e+00
7.440000000000000000e+02,-1.664927919567983139e+00,0.000000000000000000e+00
7.450000000000000000e+02,4.318975236106930571e-01,0.000000000000000000e+00
7.460000000000000000e+02,2.145403390953952272e+00,1.000000000000000000e+00
7.470000000000000000e+02,1.727476024906970276e+00,0.000000000000000000e+00
7.480000000000000000e+02,1.431924073497051975e+00,0.000000000000000000e+00
7.490000000000000000e+02,9.899932815583131207e-01,0.000000000000000000e+00
7.500000000000000000e+02,1.514363928629404610e+00,0.000000000000000000e+00
7.510000000000000000e+02,7.253521767532673525e-01,0.000000000000000000e+00
7.520000000000000000e+02,1.098095592573602231e+00,0.000000000000000000e+00
7.530000000000000000e+02,1.521648441445912159e+00,0.000000000000000000e+00
7.540000000000000000e+02,9.323602152228490647e-01,0.000000000000000000e+00
7.550000000000000000e+02,1.122661892313194132e+00,0.000000000000000000e+00
7.560000000000000000e+02,7.791024393104455381e-01,0.000000000000000000e+00
7.570000000000000000e+02,1.121462682392966093e+00,0.000000000000000000e+00
7.580000000000000000e+02,1.054575353567118734e+00,0.000000000000000000e+00
7.590000000000000000e+02,1.451821145638699351e+00,0.000000000000000000e+00
7.600000000000000000e+02,9.104788759434874201e-01,0.000000000000000000e+00
7.610000000000000000e+02,5.351153939128481252e-01,0.000000000000000000e+00
7.620000000000000000e+02,-2.057251950035846322e-01,0.000000000000000000e+00
7.630000000000000000e+02,-4.845081142416566289e-01,0.000000000000000000e+00
7.640000000000000000e+02,-2.193223863741809998e-01,0.000000000000000000e+00
7.650000000000000000e+02,-9.447286033485744472e-01,0.000000000000000000e+00
7.660000000000000000e+02,-5.469815209342486773e-01,0.000000000000000000e+00
7.670000000000000000e+02,-6.262882258786659495e-01,0.000000000000000000e+00
7.680000000000000000e+02,-1.039495036882391865e+00,0.000000000000000000e+00
7.690000000000000000e+02,-8.440173602053349100e-01,0.000000000000000000e+00
7.700000000000000000e+02,-8.654166672201333288e-01,0.000000000000000000e+00
7.710000000000000000e+02,-8.149794314452872834e-01,0.000000000000000000e+00
7.720000000000000000e+02,-7.604181328995326394e-01,0.000000000000000000e+00
7.730000000000000000e+02,-7.359455944431834151e-01,0.000000000000000000e+00
7.740000000000000000e+02,-1.873499835736484320e-01,0.000000000000000000e+00
7.750000000000000000e+02,7.319196523746482330e-02,0.000000000000000000e+00
7.760000000000000000e+02,-3.515542548917478527e-01,0.000000000000000000e+00
7.770000000000000000e+02,-6.116876121580212544e-01,0.000000000000000000e+00
7.780000000000000000e+02,-5.860699901256950506e-01,0.000000000000000000e+00
7.790000000000000000e+02,-5.593232779892708395e-01,0.000000000000000000e+00
7.800000000000000000e+02,1.355921721262006718e-01,0.000000000000000000e+00
7.810000000000000000e+02,-2.629245805893720145e-01,0.000000000000000000e+00
7.820000000000000000e+02,-9.569149603349370869e-02,0.000000000000000000e+00
7.830000000000000000e+02,-1.548005250913615516e-01,0.000000000000000000e+00
7.840000000000000000e+02,-1.363290538468744373e-01,0.000000000000000000e+00
7.850000000000000000e+02,-2.947728526094300916e-01,0.000000000000000000e+00
7.860000000000000000e+02,-2.252513104967007462e-01,0.000000000000000000e+00
7.870000000000000000e+02,1.342485046713478292e-01,0.000000000000000000e+00
7.880000000000000000e+02,2.998205028181177290e-01,0.000000000000000000e+00
7.890000000000000000e+02,1.807488633701899994e-01,0.000000000000000000e+00
7.900000000000000000e+02,-2.526569068806636120e-01,0.000000000000000000e+00
7.910000000000000000e+02,-4.914853513820484077e-01,0.000000000000000000e+00
7.920000000000000000e+02,-8.425275683919459802e-01,0.000000000000000000e+00
7.930000000000000000e+02,-1.562327730697175454e+00,0.000000000000000000e+00
7.940000000000000000e+02,-1.357344777839885497e+00,0.000000000000000000e+00
7.950000000000000000e+02,-1.919073689178087294e+00,0.000000000000000000e+00
7.960000000000000000e+02,4.523433746616790097e-01,0.000000000000000000e+00
7.970000000000000000e+02,1.676085753765452546e+00,1.000000000000000000e+00
7.980000000000000000e+02,8.726755590708832333e-01,0.000000000000000000e+00
7.990000000000000000e+02,1.428521195286573509e+00,0.000000000000000000e+00
8.000000000000000000e+02,9.084264578226617370e-01,0.000000000000000000e+00
8.010000000000000000e+02,9.207757449486665413e-01,0.000000000000000000e+00
8.020000000000000000e+02,6.148539358845488412e-01,0.000000000000000000e+00
8.030000000000000000e+02,8.650312005139830784e-01,0.000000000000000000e+00
8.040000000000000000e+02,8.998327933838222714e-01,0.000000000000000000e+00
8.050000000000000000e+02,9.074610644510705537e-01,0.000000000000000000e+00
8.060000000000000000e+02,3.475731956986324866e-01,0.000000000000000000e+00
8.070000000000000000e+02,1.150129141769246521e+00,0.000000000000000000e+00
8.080000000000000000e+02,1.444777192735476889e+00,0.000000000000000000e+00
8.090000000000000000e+02,1.102896327690165323e+00,0.000000000000000000e+00
8.100000000000000000e+02,1.169522073654301497e+00,0.000000000000000000e+00
8.110000000000000000e+02,6.289501718314661760e-01,0.000000000000000000e+00
8.120000000000000000e+02,2.002831011670614392e-01,0.000000000000000000e+00
8.130000000000000000e+02,1.451314098670143660e-01,0.000000000000000000e+00
8.140000000000000000e+02,-8.009971150915603522e-01,0.000000000000000000e+00
8.150000000000000000e+02,-3.391759591847894328e-01,0.000000000000000000e+00
8.160000000000000000e+02,-2.596552451188752775e-01,0.000000000000000000e+00
8.170000000000000000e+02,-6.563945568430541444e-01,0.000000000000000000e+00
8.180000000000000000e+02,-6.421325862271095586e-01,0.000000000000000000e+00
8.190000000000000000e+02,-1.187490565495351813e+00,0.000000000000000000e+00
8.200000000000000000e+02,-1.087437040418007372e+00,0.000000000000000000e+00
8.210000000000000000e+02,-1.349622274487086049e+00,0.000000000000000000e+00
8.220000000000000000e+02,-6.066933820739713878e-01,0.000000000000000000e+00
8.230000000000000000e+02,-5.509820416889635863e-01,0.000000000000000000e+00
8.240000000000000000e+02,-6.879788851516447368e-01,0.000000000000000000e+00
8.250000000000000000e+02,-2.821373319116527584e-02,0.000000000000000000e+00
8.260000000000000000e+02,-4.054084997149067782e-01,0.000000000000000000e+00
8.270000000000000000e+02,-1.614738991427916992e-01,0.000000000000000000e+00
8.280000000000000000e+02,-5.583811053303754379e-01,0.000000000000000000e+00
8.290000000000000000e+02,-3.785095968916405429e-01,0.000000000000000000e+00
8.300000000000000000e+02,-6.680690311827817141e-01,0.000000000000000000e+00
8.310000000000000000e+02,-5.204176158487936465e-01,0.000000000000000000e+00
8.320000000000000000e+02,-5.890549483983944373e-02,0.000000000000000000e+00
8.330000000000000000e+02,-1.637959084173485833e-02,0.000000000000000000e+00
8.340000000000000000e+02,7.142510182144662378e-02,0.000000000000000000e+00
8.350000000000000000e+02,-2.754530393091581542e-01,0.000000000000000000e+00
8.360000000000000000e+02,-2.506940142036213071e-01,0.000000000000000000e+00
8.370000000000000000e+02,8.136292404589710869e-02,0.000000000000000000e+00
8.380000000000000000e+02,-4.921700320937181239e-01,0.000000000000000000e+00
8.390000000000000000e+02,2.652534303228454640e-02,0.000000000000000000e+00
8.400000000000000000e+02,3.440936027092363764e-02,0.000000000000000000e+00
8.410000000000000000e+02,5.481181581411598280e-01,0.000000000000000000e+00
8.420000000000000000e+02,-7.095848005461218300e-01,0.000000000000000000e+00
8.430000000000000000e+02,-1.371289807206261591e+00,0.000000000000000000e+00
8.440000000000000000e+02,-1.967597844727376089e+00,0.000000000000000000e+00
8.450000000000000000e+02,-2.332357412533234697e+00,0.000000000000000000e+00
8.460000000000000000e+02,-2.450034109471336041e+00,0.000000000000000000e+00
8.470000000000000000e+02,-5.679464095507062993e-01,0.000000000000000000e+00
8.480000000000000000e+02,2.202326326694523217e+00,1.000000000000000000e+00
8.490000000000000000e+02,2.373427698984019507e+00,0.000000000000000000e+00
8.500000000000000000e+02,1.960278733260998330e+00,0.000000000000000000e+00
8.510000000000000000e+02,1.638298436528618840e+00,0.000000000000000000e+00
8.520000000000000000e+02,1.163095086231528130e+00,0.000000000000000000e+00
8.530000000000000000e+02,1.102363650888080304e+00,0.000000000000000000e+00
8.540000000000000000e+02,1.617436885791454060e+00,0.000000000000000000e+00
8.550000000000000000e+02,1.247653295632491721e+00,0.000000000000000000e+00
8.560000000000000000e+02,1.570305148556524255e+00,0.000000000000000000e+00
8.570000000000000000e+02,1.364778597555692752e+00,0.000000000000000000e+00
8.580000000000000000e+02,1.365304906023967702e+00,0.000000000000000000e+00
8.590000000000000000e+02,1.762295401455040933e+00,0.000000000000000000e+00
8.600000000000000000e+02,1.125653856843022105e+00,0.000000000000000000e+00
8.610000000000000000e+02,8.853266263872568986e-01,0.000000000000000000e+00
8.620000000000000000e+02,1.268606024898643714e+00,0.000000000000000000e+00
8.630000000000000000e+02,5.807196270388508275e-01,0.000000000000000000e+00
8.640000000000000000e+02,7.549788270807525348e-02,0.000000000000000000e+00
8.650000000000000000e+02,-3.754247064330976658e-01,0.000000000000000000e+00
8.660000000000000000e+02,-3.048692600754171478e-01,0.000000000000000000e+00
8.670000000000000000e+02,-9.546672221085470422e-01,0.000000000000000000e+00
8.680000000000000000e+02,-1.153357463872801469e+00,0.000000000000000000e+00
8.690000000000000000e+02,-1.472421252514725332e+00,0.000000000000000000e+00
8.700000000000000000e+02,-1.213698186293084902e+00,0.000000000000000000e+00
8.710000000000000000e+02,-1.136458806778026354e+00,0.000000000000000000e+00
8.720000000000000000e+02,-7.258373946113614306e-01,0.000000000000000000e+00
8.730000000000000000e+02,-7.964067761940988310e-01,0.000000000000000000e+00
8.740000000000000000e+02,-5.035688917967170442e-01,0.000000000000000000e+00
8.750000000000000000e+02,-4.949231985258981115e-01,0.000000000000000000e+00
8.760000000000000000e+02,-1.056467899332740545e+00,0.000000000000000000e+00
8.770000000000000000e+02,-7.362395684190017331e-01,0.000000000000000000e+00
8.780000000000000000e+02,-4.297400843482959698e-01,0.000000000000000000e+00
8.790000000000000000e+02,-2.826361672065201280e-01,0.000000000000000000e+00
8.800000000000000000e+02,-3.730111475193263471e-01,0.000000000000000000e+00
8.810000000000000000e+02,-3.522885549769099178e-01,0.000000000000000000e+00
8.820000000000000000e+02,-7.802325985267744013e-02,0.000000000000000000e+00
8.830000000000000000e+02,-4.713816607739442777e-01,0.000000000000000000e+00
8.840000000000000000e+02,-4.012631648009181706e-01,0.000000000000000000e+00
8.850000000000000000e+02,-3.368012241793165717e-01,0.000000000000000000e+00
8.860000000000000000e+02,-3.143753901810019680e-01,0.000000000000000000e+00
8.870000000000000000e+02,-8.828186565566811805e-02,0.000000000000000000e+00
8.880000000000000000e+02,-4.321791518844168567e-01,0.000000000000000000e+00
8.890000000000000000e+02,-6.686991323208216209e-02,0.000000000000000000e+00
8.900000000000000000e+02,2.203750225378768857e-01,0.000000000000000000e+00
8.910000000000000000e+02,-3.509019392645620905e-01,0.000000000000000000e+00
8.920000000000000000e+02,1.928729845582120295e-01,0.000000000000000000e+00
8.930000000000000000e+02,-6.458119262354106160e-01,0.000000000000000000e+00
8.940000000000000000e+02,-1.342014762670640682e+00,0.000000000000000000e+00
8.950000000000000000e+02,-1.595736273511249026e+00,0.000000000000000000e+00
8.960000000000000000e+02,-1.467328599321232607e+00,0.000000000000000000e+00
8.970000000000000000e+02,-1.709525350388408027e+00,0.000000000000000000e+00
8.980000000000000000e+02,-9.755887037925632665e-02,0.000000000000000000e+00
8.990000000000000000e+02,1.885031724263813713e+00,1.000000000000000000e+00
9.000000000000000000e+02,1.027046220164492540e+00,0.000000000000000000e+00
9.010000000000000000e+02,1.152678681083854073e+00,0.000000000000000000e+00
9.020000000000000000e+02,1.243726747257682064e+00,0.000000000000000000e+00
9.030000000000000000e+02,8.012195357185268874e-01,0.000000000000000000e+00
9.040000000000000000e+02,1.314596913955784263e+00,0.000000000000000000e+00
9.050000000000000000e+02,8.281362208990420415e-01,0.000000000000000000e+00
9.060000000000000000e+02,9.861539158620115098e-01,0.000000000000000000e+00
9.070000000000000000e+02,1.221285420868675642e+00,0.000000000000000000e+00
9.080000000000000000e+02,1.603388585871565297e+00,0.000000000000000000e+00
9.090000000000000000e+02,1.263755121908948897e+00,0.000000000000000000e+00
9.100000000000000000e+02,8.194889324548256804e-01,0.000000000000000000e+00
9.110000000000000000e+02,1.018769769083064602e+00,0.000000000000000000e+00
9.120000000000000000e+02,1.186275635726641298e+00,0.000000000000000000e+00
9.130000000000000000e+02,1.406606357446082534e+00,0.000000000000000000e+00
9.140000000000000000e+02,7.896153875540575795e-01,0.000000000000000000e+00
9.150000000000000000e+02,4.825567908815076024e-01,0.000000000000000000e+00
9.160000000000000000e+02,6.766103623831060468e-03,0.000000000000000000e+00
9.170000000000000000e+02,-6.117886595352176604e-01,0.000000000000000000e+00
9.180000000000000000e+02,-8.415952250928994127e-01,0.000000000000000000e+00
9.190000000000000000e+02,-1.058555740242895782e+00,0.000000000000000000e+00
9.200000000000000000e+02,-5.024583478832075345e-01,0.000000000000000000e+00
9.210000000000000000e+02,-9.983950944391817295e-01,0.000000000000000000e+00
9.220000000000000000e+02,-8.374519556001922549e-01,0.000000000000000000e+00
9.230000000000000000e+02,-5.337151484887270314e-01,0.000000000000000000e+00
9.240000000000000000e+02,-5.502552809994224470e-01,0.000000000000000000e+00
9.250000000000000000e+02,-3.380806748227198066e-01,0.000000000000000000e+00
9.260000000000000000e+02,-8.593784020375788701e-01,0.000000000000000000e+00
9.270000000000000000e+02,-5.924963622708632194e-01,0.000000000000000000e+00
9.280000000000000000e+02,-5.980302834504993559e-01,0.000000000000000000e+00
9.290000000000000000e+02,-2.399159276313026501e-01,0.000000000000000000e+00
9.300000000000000000e+02,-4.387553693822748291e-01,0.000000000000000000e+00
9.310000000000000000e+02,-1.542300288448759660e-01,0.000000000000000000e+00
9.320000000000000000e+02,-6.135277872270180483e-02,0.000000000000000000e+00
9.330000000000000000e+02,3.272525289474573738e-03,0.000000000000000000e+00
9.340000000000000000e+02,-6.089564048503198768e-01,0.000000000000000000e+00
9.350000000000000000e+02,-1.922671787314595426e-01,0.000000000000000000e+00
9.360000000000000000e+02,-6.577931305434434606e-01,0.000000000000000000e+00
9.370000000000000000e+02,1.921218856348859971e-01,0.000000000000000000e+00
9.380000000000000000e+02,-7.275380568984340934e-02,0.000000000000000000e+00
9.390000000000000000e+02,3.229084511981127337e-01,0.000000000000000000e+00
9.400000000000000000e+02,8.920294826362339113e-02,0.000000000000000000e+00
9.410000000000000000e+02,2.784157005466593726e-01,0.000000000000000000e+00
9.420000000000000000e+02,-3.874828318617575817e-01,0.000000000000000000e+00
9.430000000000000000e+02,-5.498148961676505575e-01,0.000000000000000000e+00
9.440000000000000000e+02,-2.900545056071507366e-01,0.000000000000000000e+00
9.450000000000000000e+02,-1.015366259302529439e+00,0.000000000000000000e+00
9.460000000000000000e+02,-1.165275945677701763e+00,0.000000000000000000e+00
9.470000000000000000e+02,-7.021947465243346675e-01,0.000000000000000000e+00
9.480000000000000000e+02,-1.527382377184822948e+00,0.000000000000000000e+00
9.490000000000000000e+02,-1.001485866801380131e-01,0.000000000000000000e+00
9.500000000000000000e+02,1.598019758924535738e+00,0.000000000000000000e+00
9.510000000000000000e+02,1.303125839468540770e+00,1.000000000000000000e+00
9.520000000000000000e+02,8.651495766692883782e-01,0.000000000000000000e+00
9.530000000000000000e+02,1.127692844589819332e+00,0.000000000000000000e+00
9.540000000000000000e+02,1.065376686787627092e+00,0.000000000000000000e+00
9.550000000000000000e+02,1.074934369952297963e+00,0.000000000000000000e+00
9.560000000000000000e+02,8.301437792352447387e-01,0.000000000000000000e+00
9.570000000000000000e+02,1.084013653958016965e+00,0.000000000000000000e+00
9.580000000000000000e+02,1.119479787228774059e+00,0.000000000000000000e+00
9.590000000000000000e+02,5.294163020061058988e-01,0.000000000000000000e+00
9.600000000000000000e+02,1.238397947853255410e+00,0.000000000000000000e+00
9.610000000000000000e+02,5.743961747044435961e-01,0.000000000000000000e+00
9.620000000000000000e+02,9.969116016656379697e-01,0.000000000000000000e+00
9.630000000000000000e+02,1.057576417357356302e+00,0.000000000000000000e+00
9.640000000000000000e+02,1.291980664026191716e+00,0.000000000000000000e+00
9.650000000000000000e+02,7.836498202066862762e-01,0.000000000000000000e+00
9.660000000000000000e+02,-2.727788586619451228e-01,0.000000000000000000e+00
9.670000000000000000e+02,-4.076550350952386492e-01,0.000000000000000000e+00
9.680000000000000000e+02,-7.805147627204802596e-01,0.000000000000000000e+00
9.690000000000000000e+02,-1.097098761131339861e+00,0.000000000000000000e+00
9.700000000000000000e+02,-8.876133216472942289e-01,0.000000000000000000e+00
9.710000000000000000e+02,-7.894979103915146235e-01,0.000000000000000000e+00
9.720000000000000000e+02,-6.052392335276501889e-01,0.000000000000000000e+00
9.730000000000000000e+02,-7.673079644740097294e-01,0.000000000000000000e+00
9.740000000000000000e+02,-1.913730977500603114e-01,0.000000000000000000e+00
9.750000000000000000e+02,-7.696386224646619700e-01,0.000000000000000000e+00
9.760000000000000000e+02,-7.488089573056332382e-01,0.000000000000000000e+00
9.770000000000000000e+02,-4.875558732845360899e-01,0.000000000000000000e+00
9.780000000000000000e+02,-1.006037071934022364e+00,0.000000000000000000e+00
9.790000000000000000e+02,-2.903986374280592142e-01,0.000000000000000000e+00
9.800000000000000000e+02,-7.994078311957685257e-01,0.000000000000000000e+00
9.810000000000000000e+02,-4.979207044401646742e-01,0.000000000000000000e+00
9.820000000000000000e+02,-3.147582588409370552e-01,0.000000000000000000e+00
9.830000000000000000e+02,-1.990385119226720581e-02,0.000000000000000000e+00
9.840000000000000000e+02,-2.248348478823050667e-01,0.000000000000000000e+00
9.850000000000000000e+02,-3.966441860337722725e-01,0.000000000000000000e+00
9.860000000000000000e+02,-7.046367176268179822e-02,0.000000000000000000e+00
9.870000000000000000e+02,-2.415810242619141346e-01,0.000000000000000000e+00
9.880000000000000000e+02,9.237660834635677814e-04,0.000000000000000000e+00
9.890000000000000000e+02,-2.143661731254392355e-01,0.000000000000000000e+00
9.900000000000000000e+02,-3.908794578034308076e-01,0.000000000000000000e+00
9.910000000000000000e+02,-2.506648781088230971e-01,0.000000000000000000e+00
9.920000000000000000e+02,1.035584751119646846e-01,0.000000000000000000e+00
9.930000000000000000e+02,1.161599560835330364e-01,0.000000000000000000e+00
9.940000000000000000e+02,1.176308777662099653e-01,0.000000000000000000e+00
9.950000000000000000e+02,-5.037606044525178017e-01,0.000000000000000000e+00
9.960000000000000000e+02,-8.111233313252366184e-01,0.000000000000000000e+00
9.970000000000000000e+02,-1.118805328912436226e+00,0.000000000000000000e+00
9.980000000000000000e+02,-1.192183781427821110e+00,0.000000000000000000e+00
9.990000000000000000e+02,-1.434692008240514127e+00,0.000000000000000000e+00
1.000000000000000000e+03,-1.178086052374140436e-01,0.000000000000000000e+00
1.001000000000000000e+03,1.802501332829922198e+00,1.000000000000000000e+00
1.002000000000000000e+03,1.132928572375639487e+00,0.000000000000000000e+00
1.003000000000000000e+03,9.299968292941204195e-01,0.000000000000000000e+00
1.004000000000000000e+03,5.810788655491658794e-01,0.000000000000000000e+00
1.005000000000000000e+03,1.130269148673380020e+00,0.000000000000000000e+00
1.006000000000000000e+03,5.806261954783266122e-01,0.000000000000000000e+00
1.007000000000000000e+03,8.515240224539248892e-01,0.000000000000000000e+00
1.008000000000000000e+03,1.575382876224295625e+00,0.000000000000000000e+00
1.009000000000000000e+03,8.388722913921551338e-01,0.000000000000000000e+00
1.010000000000000000e+03,6.447569094526284239e-01,0.000000000000000000e+00
1.011000000000000000e+03,8.099468478744634714e-01,0.000000000000000000e+00
1.012000000000000000e+03,9.466611702877466561e-01,0.000000000000000000e+00
1.013000000000000000e+03,1.385882080686088980e+00,0.000000000000000000e+00
1.014000000000000000e+03,1.189267474225901067e+00,0.000000000000000000e+00
1.015000000000000000e+03,9.303615837418527379e-01,0.000000000000000000e+00
1.016000000000000000e+03,1.443674394315514364e+00,0.000000000000000000e+00
1.017000000000000000e+03,4.540887050134616021e-01,0.000000000000000000e+00
1.018000000000000000e+03,6.377639531160357589e-02,0.000000000000000000e+00
1.019000000000000000e+03,-9.652299899192748889e-01,0.000000000000000000e+00
1.020000000000000000e+03,-7.245714869940304004e-01,0.000000000000000000e+00
1.021000000000000000e+03,-1.135342318989127408e+00,0.000000000000000000e+00
1.022000000000000000e+03,-7.722390166537764777e-01,0.000000000000000000e+00
1.023000000000000000e+03,-1.176991546957247170e+00,0.000000000000000000e+00
1.024000000000000000e+03,-4.166395196359483633e-01,0.000000000000000000e+00
1.025000000000000000e+03,-6.523196000097523095e-01,0.000000000000000000e+00
1.026000000000000000e+03,-4.415425123944293762e-01,0.000000000000000000e+00
1.027000000000000000e+03,-8.612515976531849304e-01,0.000000000000000000e+00
1.028000000000000000e+03,-7.203370522804547482e-01,0.000000000000000000e+00
1.029000000000000000e+03,-3.566837275513176642e-01,0.000000000000000000e+00
1.030000000000000000e+03,-6.174702337510453720e-01,0.000000000000000000e+00
1.031000000000000000e+03,-4.872960414207044844e-01,0.000000000000000000e+00
1.032000000000000000e+03,-2.517497364650679859e-01,0.000000000000000000e+00
1.033000000000000000e+03,-1.219873281954730188e-01,0.000000000000000000e+00
1.034000000000000000e+03,-3.362546748374425909e-01,0.000000000000000000e+00
1.035000000000000000e+03,-7.843206029845508631e-01,0.000000000000000000e+00
1.036000000000000000e+03,-7.077255807893552131e-01,0.000000000000000000e+00
1.037000000000000000e+03,-6.638141810114980279e-01,0.000000000000000000e+00
1.038000000000000000e+03,-5.031556697546496482e-01,0.000000000000000000e+00
1.039000000000000000e+03,-5.413733837457622711e-01,0.000000000000000000e+00
1.040000000000000000e+03,-1.516259279437655039e-01,0.000000000000000000e+00
1.041000000000000000e+03,-2.464823304914153523e-01,0.000000000000000000e+00
1.042000000000000000e+03,-1.359245302226333441e-01,0.000000000000000000e+00
1.043000000000000000e+03,-3.851714183033086436e-01,0.000000000000000000e+00
1.044000000000000000e+03,-5.876468215885022328e-01,0.000000000000000000e+00
1.045000000000000000e+03,-1.902762112556417029e-01,0.000000000000000000e+00
1.046000000000000000e+03,-3.727930666111298197e-01,0.000000000000000000e+00
1.047000000000000000e+03,-1.185303628656210195e+00,0.000000000000000000e+00
1.048000000000000000e+03,-1.198015847013156332e+00,0.000000000000000000e+00
1.049000000000000000e+03,-6.402169773364915217e-01,0.000000000000000000e+00
1.050000000000000000e+03,-1.446389391615814146e+00,0.000000000000000000e+00
1.051000000000000000e+03,-3.232941158483769173e-01,0.000000000000000000e+00
1.052000000000000000e+03,1.236196112709303518e+00,1.000000000000000000e+00
1.053000000000000000e+03,1.318820492935357302e+00,0.000000000000000000e+00
1.054000000000000000e+03,1.215633251599538944e+00,0.000000000000000000e+00
1.055000000000000000e+03,9.284954080105624064e-01,0.000000000000000000e+00
1.056000000000000000e+03,1.305136508899890524e+00,0.000000000000000000e+00
1.057000000000000000e+03,1.251939884963690464e+00,0.000000000000000000e+00
1.058000000000000000e+03,9.845991833966807327e-01,0.000000000000000000e+00
1.059000000000000000e+03,9.408790615103417299e-01,0.000000000000000000e+00
1.060000000000000000e+03,1.191810387009932581e+00,0.000000000000000000e+00
1.061000000000000000e+03,5.302682598221314381e-01,0.000000000000000000e+00
1.062000000000000000e+03,1.165160986063259463e+00,0.000000000000000000e+00
1.063000000000000000e+03,1.452432436884129707e+00,0.000000000000000000e+00
1.064000000000000000e+03,1.308035263742200138e+00,0.000000000000000000e+00
1.065000000000000000e+03,2.182125754701611964e+00,0.000000000000000000e+00
1.066000000000000000e+03,1.525196801588844409e+00,0.000000000000000000e+00
1.067000000000000000e+03,1.374364589349641230e+00,0.000000000000000000e+00
1.068000000000000000e+03,5.364026391175162889e-01,0.000000000000000000e+00
1.069000000000000000e+03,-1.458350700060257743e-01,0.000000000000000000e+00
1.070000000000000000e+03,1.546649772446240800e-01,0.000000000000000000e+00
1.071000000000000000e+03,-3.144642071274422745e-01,0.000000000000000000e+00
1.072000000000000000e+03,-3.815350263976262646e-01,0.000000000000000000e+00
1.073000000000000000e+03,1.107781064548351013e-01,0.000000000000000000e+00
1.074000000000000000e+03,5.697901672446544774e-01,0.000000000000000000e+00
1.075000000000000000e+03,-8.296269289468847230e-01,0.000000000000000000e+00
1.076000000000000000e+03,1.486736849944647887e-01,0.000000000000000000e+00
1.077000000000000000e+03,-5.493948657149043679e-01,0.000000000000000000e+00
1.078000000000000000e+03,-5.229064191625883984e-01,0.000000000000000000e+00
1.079000000000000000e+03,-3.878352882226694942e-01,0.000000000000000000e+00
1.080000000000000000e+03,-2.741228726186901166e-01,0.000000000000000000e+00
1.081000000000000000e+03,2.757015389236396330e-01,0.000000000000000000e+00
1.082000000000000000e+03,2.291954040435459916e-01,0.000000000000000000e+00
1.083000000000000000e+03,9.165169307283435596e-03,0.000000000000000000e+00
1.084000000000000000e+03,-5.693555406267757357e-01,0.000000000000000000e+00
1.085000000000000000e+03,-3.468359772622399140e-01,0.000000000000000000e+00
1.086000000000000000e+03,-3.925129980169068666e-01,0.000000000000000000e+00
1.087000000000000000e+03,-5.850972201725106459e-01,0.000000000000000000e+00
1.088000000000000000e+03,2.274508645552329178e-01,0.000000000000000000e+00
1.089000000000000000e+03,-6.398705256237845473e-01,0.000000000000000000e+00
1.090000000000000000e+03,-4.020610330020899514e-01,0.000000000000000000e+00
1.091000000000000000e+03,-5.670612800435000933e-01,0.000000000000000000e+00
1.092000000000000000e+03,-2.954348336095152794e-01,0.000000000000000000e+00
1.093000000000000000e+03,-7.319043995941137970e-01,0.000000000000000000e+00
1.094000000000000000e+03,-4.017604385458110050e-01,0.000000000000000000e+00
1.095000000000000000e+03,-9.537597326228620664e-01,0.000000000000000000e+00
1.096000000000000000e+03,-9.558792607185269130e-01,0.000000000000000000e+00
1.097000000000000000e+03,-1.262992974159425907e+00,0.000000000000000000e+00
1.098000000000000000e+03,-1.249014043877702207e+00,0.000000000000000000e+00
1.099000000000000000e+03,-1.720215478491894379e+00,0.000000000000000000e+00
1.100000000000000000e+03,-1.888642573397634861e+00,0.000000000000000000e+00
1.101000000000000000e+03,-1.719588184378132878e+00,0.000000000000000000e+00
1.102000000000000000e+03,-9.312514499638923082e-01,0.000000000000000000e+00
1.103000000000000000e+03,9.604745926436637493e-01,1.000000000000000000e+00
1.104000000000000000e+03,4.260655434061970115e-01,0.000000000000000000e+00
1.105000000000000000e+03,1.504921624045255091e-01,0.000000000000000000e+00
1.106000000000000000e+03,3.083710611650944400e-02,0.000000000000000000e+00
1.107000000000000000e+03,-1.507044292145317543e-01,0.000000000000000000e+00
1.108000000000000000e+03,-1.120364749591910847e-01,0.000000000000000000e+00
1.109000000000000000e+03,2.723780502143064441e-01,0.000000000000000000e+00
1.110000000000000000e+03,3.980821058388127609e-01,0.000000000000000000e+00
1.111000000000000000e+03,-3.873209890278054429e-02,0.000000000000000000e+00
1.112000000000000000e+03,4.423094075970603334e-01,0.000000000000000000e+00
1.113000000000000000e+03,1.947105994925176220e-01,0.000000000000000000e+00
1.114000000000000000e+03,3.558362772490892278e-01,0.000000000000000000e+00
1.115000000000000000e+03,6.806739645425676777e-01,0.000000000000000000e+00
1.116000000000000000e+03,8.738295062515247791e-01,0.000000000000000000e+00
1.117000000000000000e+03,1.094979971536299557e+00,0.000000000000000000e+00
1.118000000000000000e+03,1.314174881919095261e+00,0.000000000000000000e+00
1.119000000000000000e+03,6.828604687769573856e-01,0.000000000000000000e+00
1.120000000000000000e+03,1.795178418183304703e-01,0.000000000000000000e+00
1.121000000000000000e+03,-2.430991469973738661e-01,0.000000000000000000e+00
1.122000000000000000e+03,1.704547858331690313e-01,0.000000000000000000e+00
1.123000000000000000e+03,2.279823213830119849e-02,0.000000000000000000e+00
1.124000000000000000e+03,3.978320812261570277e-02,0.000000000000000000e+00
1.125000000000000000e+03,-7.547056136634323620e-01,0.000000000000000000e+00
1.126000000000000000e+03,2.474099146672546073e-02,0.000000000000000000e+00
1.127000000000000000e+03,-6.945015627424641624e-02,0.000000000000000000e+00
1.128000000000000000e+03,-2.021457306882767091e-01,0.000000000000000000e+00
1.129000000000000000e+03,1.434803025769106621e-01,0.000000000000000000e+00
1.130000000000000000e+03,-1.080552123625015126e-01,0.000000000000000000e+00
1.131000000000000000e+03,2.848237416632297681e-01,0.000000000000000000e+00
1.132000000000000000e+03,3.502761848003522194e-01,0.000000000000000000e+00
1.133000000000000000e+03,7.459070250386741225e-04,0.000000000000000000e+00
1.134000000000000000e+03,4.711171465604417907e-01,0.000000000000000000e+00
1.135000000000000000e+03,1.752048920490107686e-01,0.000000000000000000e+00
1.136000000000000000e+03,-1.918152210633125021e-01,0.000000000000000000e+00
1.137000000000000000e+03,-4.046206215491292002e-01,0.000000000000000000e+00
1.138000000000000000e+03,7.297488994280706964e-02,0.000000000000000000e+00
1.139000000000000000e+03,-3.081177508090745532e-01,0.000000000000000000e+00
1.140000000000000000e+03,1.821786503119763589e-01,0.000000000000000000e+00
1.141000000000000000e+03,8.895325508142100379e-02,0.000000000000000000e+00
1.142000000000000000e+03,-8.621591262483066509e-02,0.000000000000000000e+00
1.143000000000000000e+03,6.730664874100522610e-02,0.000000000000000000e+00
1.144000000000000000e+03,-2.857866423926107013e-01,0.000000000000000000e+00
1.145000000000000000e+03,-4.889670598121576561e-01,0.000000000000000000e+00
1.146000000000000000e+03,2.344256493988386980e-01,0.000000000000000000e+00
1.147000000000000000e+03,-1.948712854031358355e-01,0.000000000000000000e+00
1.148000000000000000e+03,3.390923831054866722e-01,0.000000000000000000e+00
1.149000000000000000e+03,-6.452781952273534127e-01,0.000000000000000000e+00
1.150000000000000000e+03,-1.180065405603015538e+00,0.000000000000000000e+00
1.151000000000000000e+03,-9.718471930147084548e-01,0.000000000000000000e+00
1.152000000000000000e+03,-1.779441242556144998e+00,0.000000000000000000e+00
1.153000000000000000e+03,-7.550441178951246002e-01,0.000000000000000000e+00
1.154000000000000000e+03,1.801603167799599392e+00,0.000000000000000000e+00
1.155000000000000000e+03,7.649469189308830686e-01,1.000000000000000000e+00
1.156000000000000000e+03,1.242502249326397967e+00,0.000000000000000000e+00
1.157000000000000000e+03,1.166163503111959932e+00,0.000000000000000000e+00
1.158000000000000000e+03,4.971690477261055952e-01,0.000000000000000000e+00
1.159000000000000000e+03,5.482092791279117305e-01,0.000000000000000000e+00
1.160000000000000000e+03,7.148019678177158776e-01,0.000000000000000000e+00
1.161000000000000000e+03,2.507701326755205073e-01,0.000000000000000000e+00
1.162000000000000000e+03,2.637641710294006403e-01,0.000000000000000000e+00
1.163000000000000000e+03,8.149397846458111827e-01,0.000000000000000000e+00
1.164000000000000000e+03,9.203843505713157347e-01,0.000000000000000000e+00
1.165000000000000000e+03,1.205002109027517365e+00,0.000000000000000000e+00
1.166000000000000000e+03,6.822446534371529037e-01,0.000000000000000000e+00
1.167000000000000000e+03,6.747424501254792872e-01,0.000000000000000000e+00
1.168000000000000000e+03,8.598046589488490543e-01,0.000000000000000000e+00
1.169000000000000000e+03,2.779877618105024428e-01,0.000000000000000000e+00
1.170000000000000000e+03,-1.681815815230016942e-01,0.000000000000000000e+00
1.171000000000000000e+03,2.112177952678630233e-01,0.000000000000000000e+00
1.172000000000000000e+03,-1.034588078237799885e-01,0.000000000000000000e+00
1.173000000000000000e+03,-2.846188658858723741e-01,0.000000000000000000e+00
1.174000000000000000e+03,-1.308725215252670715e+00,0.000000000000000000e+00
1.175000000000000000e+03,-6.842609711041786058e-01,0.000000000000000000e+00
1.176000000000000000e+03,-1.201040992531688723e+00,0.000000000000000000e+00
1.177000000000000000e+03,-1.164971027708768148e+00,0.000000000000000000e+00
1.178000000000000000e+03,-5.391833536607382182e-01,0.000000000000000000e+00
1.179000000000000000e+03,-6.282315974398016145e-01,0.000000000000000000e+00
1.180000000000000000e+03,-2.348813318032513531e-01,0.000000000000000000e+00
1.181000000000000000e+03,-4.002502200148224110e-01,0.000000000000000000e+00
1.182000000000000000e+03,-4.377621916360781296e-02,0.000000000000000000e+00
1.183000000000000000e+03,-8.619951253213959941e-01,0.000000000000000000e+00
1.184000000000000000e+03,-3.364273229225357986e-01,0.000000000000000000e+00
1.185000000000000000e+03,-3.347259883996281937e-01,0.000000000000000000e+00
1.186000000000000000e+03,9.019328638306897683e-02,0.000000000000000000e+00
1.187000000000000000e+03,-3.096547943962707494e-01,0.000000000000000000e+00
1.188000000000000000e+03,1.312289479087145327e-01,0.000000000000000000e+00
1.189000000000000000e+03,-3.321181915465461487e-01,0.000000000000000000e+00
1.190000000000000000e+03,3.600673426036185565e-01,0.000000000000000000e+00
1.191000000000000000e+03,5.662787174003316992e-02,0.000000000000000000e+00
1.192000000000000000e+03,-1.503681419726379809e-01,0.000000000000000000e+00
1.193000000000000000e+03,-3.989695783902673376e-02,0.000000000000000000e+00
1.194000000000000000e+03,1.958622298207405091e-02,0.000000000000000000e+00
1.195000000000000000e+03,4.718706420800384410e-02,0.000000000000000000e+00
1.196000000000000000e+03,9.349216108846843121e-02,0.000000000000000000e+00
1.197000000000000000e+03,1.981676165509866361e-01,0.000000000000000000e+00
1.198000000000000000e+03,4.404683029572752095e-02,0.000000000000000000e+00
1.199000000000000000e+03,3.503171006841341445e-02,0.000000000000000000e+00
1.200000000000000000e+03,-6.151375487120874785e-01,0.000000000000000000e+00
1.201000000000000000e+03,-9.512592625109309585e-01,0.000000000000000000e+00
1.202000000000000000e+03,-1.174387801417358324e+00,0.000000000000000000e+00
1.203000000000000000e+03,-2.109360905943048259e+00,0.000000000000000000e+00
1.204000000000000000e+03,-6.733680129859906938e-01,0.000000000000000000e+00
1.205000000000000000e+03,1.399980703738094245e+00,1.000000000000000000e+00
1.206000000000000000e+03,9.143954379120758924e-01,0.000000000000000000e+00
1.207000000000000000e+03,1.593551580366874942e+00,0.000000000000000000e+00
1.208000000000000000e+03,8.629958316847970989e-01,0.000000000000000000e+00
1.209000000000000000e+03,6.104392647688675622e-01,0.000000000000000000e+00
1.210000000000000000e+03,8.886505333907872561e-01,0.000000000000000000e+00
1.211000000000000000e+03,5.962713471860868752e-01,0.000000000000000000e+00
1.212000000000000000e+03,9.182038619826147219e-01,0.000000000000000000e+00
1.213000000000000000e+03,8.959595580238689516e-01,0.000000000000000000e+00
1.214000000000000000e+03,1.064753443466306848e+00,0.000000000000000000e+00
1.215000000000000000e+03,7.086645577234729210e-01,0.000000000000000000e+00
1.216000000000000000e+03,5.791767442033103341e-01,0.000000000000000000e+00
1.217000000000000000e+03,9.486495643848887882e-01,0.000000000000000000e+00
1.218000000000000000e+03,1.014895406210206907e+00,0.000000000000000000e+00
1.219000000000000000e+03,1.205829375335740528e+00,0.000000000000000000e+00
1.220000000000000000e+03,7.850017700120834885e-01,0.000000000000000000e+00
1.221000000000000000e+03,7.117484887290118634e-01,0.000000000000000000e+00
1.222000000000000000e+03,-4.086508772357501373e-02,0.000000000000000000e+00
1.223000000000000000e+03,-3.810496441726815009e-01,0.000000000000000000e+00
1.224000000000000000e+03,-6.564809030097774611e-01,0.000000000000000000e+00
1.225000000000000000e+03,-5.955783343297607058e-01,0.000000000000000000e+00
1.226000000000000000e+03,-1.094310761086048744e+00,0.000000000000000000e+00
1.227000000000000000e+03,-6.717636553957587742e-01,0.000000000000000000e+00
1.228000000000000000e+03,-6.710137447325280613e-01,0.000000000000000000e+00
1.229000000000000000e+03,-6.485594446480954511e-01,0.000000000000000000e+00
1.230000000000000000e+03,-2.669912398129504760e-01,0.000000000000000000e+00
1.231000000000000000e+03,-3.092684949647284687e-01,0.000000000000000000e+00
1.232000000000000000e+03,-6.423654470559509999e-01,0.000000000000000000e+00
1.233000000000000000e+03,-4.797330844253859805e-01,0.000000000000000000e+00
1.234000000000000000e+03,-6.922108541428695361e-01,0.000000000000000000e+00
1.235000000000000000e+03,-3.780624342335305310e-01,0.000000000000000000e+00
1.236000000000000000e+03,-9.610252815159020523e-02,0.000000000000000000e+00
1.237000000000000000e+03,-4.248928971731995574e-01,0.000000000000000000e+00
1.238000000000000000e+03,6.256615670287765489e-03,0.000000000000000000e+00
1.239000000000000000e+03,8.773833936750223550e-02,0.000000000000000000e+00
1.240000000000000000e+03,-5.560520966016779809e-01,0.000000000000000000e+00
1.241000000000000000e+03,-2.023565556435621138e-01,0.000000000000000000e+00
1.242000000000000000e+03,-5.187947907349266946e-02,0.000000000000000000e+00
1.243000000000000000e+03,-3.130088791871928344e-01,0.000000000000000000e+00
1.244000000000000000e+03,-4.886757575494774519e-01,0.000000000000000000e+00
1.245000000000000000e+03,-3.776262699326078387e-01,0.000000000000000000e+00
1.246000000000000000e+03,2.833935633114322283e-01,0.000000000000000000e+00
1.247000000000000000e+03,-3.980399840519336374e-01,0.000000000000000000e+00
1.248000000000000000e+03,-3.795483268257353049e-01,0.000000000000000000e+00
1.249000000000000000e+03,-4.943495865220163266e-01,0.000000000000000000e+00
1.250000000000000000e+03,-5.526898161755008365e-01,0.000000000000000000e+00
1.251000000000000000e+03,-7.448089772889264770e-01,0.000000000000000000e+00
1.252000000000000000e+03,-1.282920628866242918e+00,0.000000000000000000e+00
1.253000000000000000e+03,-1.477417979013676774e+00,0.000000000000000000e+00
1.254000000000000000e+03,-2.126083659702878048e+00,0.000000000000000000e+00
1.255000000000000000e+03,-1.253626517689744313e+00,0.000000000000000000e+00
1.256000000000000000e+03,1.913389710744666461e+00,0.000000000000000000e+00
1.257000000000000000e+03,7.248073234593507275e-01,1.000000000000000000e+00
1.258000000000000000e+03,1.171160180158130393e+00,0.000000000000000000e+00
1.259000000000000000e+03,7.675649209104202786e-01,0.000000000000000000e+00
1.260000000000000000e+03,6.910782936222336081e-01,0.000000000000000000e+00
1.261000000000000000e+03,8.965026840310265088e-01,0.000000000000000000e+00
1.262000000000000000e+03,7.126216139353371837e-01,0.000000000000000000e+00
1.263000000000000000e+03,3.427488508344692653e-01,0.000000000000000000e+00
1.264000000000000000e+03,1.061721923139963053e+00,0.000000000000000000e+00
1.265000000000000000e+03,4.577855978532199832e-01,0.000000000000000000e+00
1.266000000000000000e+03,9.455189635232019718e-01,0.000000000000000000e+00
1.267000000000000000e+03,7.404137293371100270e-01,0.000000000000000000e+00
1.268000000000000000e+03,1.069063888034082144e+00,0.000000000000000000e+00
1.269000000000000000e+03,1.549802573908847902e+00,0.000000000000000000e+00
1.270000000000000000e+03,1.421946815860382740e+00,0.000000000000000000e+00
1.271000000000000000e+03,4.555505619974587472e-01,0.000000000000000000e+00
1.272000000000000000e+03,6.104113397535864127e-01,0.000000000000000000e+00
1.273000000000000000e+03,-1.191010574598655031e-01,0.000000000000000000e+00
1.274000000000000000e+03,-4.717019908840049403e-01,0.000000000000000000e+00
1.275000000000000000e+03,-2.518307422644815441e-01,0.000000000000000000e+00
1.276000000000000000e+03,-5.600967765220193906e-01,0.000000000000000000e+00
1.277000000000000000e+03,-6.151692700570530192e-01,0.000000000000000000e+00
1.278000000000000000e+03,-7.008176937100386583e-01,0.000000000000000000e+00
1.279000000000000000e+03,-2.230422486691204798e-01,0.000000000000000000e+00
1.280000000000000000e+03,-5.108766902556933776e-01,0.000000000000000000e+00
1.281000000000000000e+03,-8.810515383938792855e-01,0.000000000000000000e+00
1.282000000000000000e+03,-4.944501055597392281e-01,0.000000000000000000e+00
1.283000000000000000e+03,-5.534953640743085490e-01,0.000000000000000000e+00
1.284000000000000000e+03,-3.365890075465716169e-01,0.000000000000000000e+00
1.285000000000000000e+03,-4.131135048842623503e-01,0.000000000000000000e+00
1.286000000000000000e+03,-3.627610449223400702e-01,0.000000000000000000e+00
1.287000000000000000e+03,8.054726447152864288e-02,0.000000000000000000e+00
1.288000000000000000e+03,-1.001087496748819528e-01,0.000000000000000000e+00
1.289000000000000000e+03,-2.555057133284108217e-01,0.000000000000000000e+00
1.290000000000000000e+03,-1.259278517433148337e-01,0.000000000000000000e+00
1.291000000000000000e+03,-3.852437615376570479e-01,0.000000000000000000e+00
1.292000000000000000e+03,-1.520221656131992838e-01,0.000000000000000000e+00
1.293000000000000000e+03,-2.114113293316490505e-01,0.000000000000000000e+00
1.294000000000000000e+03,-1.278949262128631637e-01,0.000000000000000000e+00
1.295000000000000000e+03,-3.430156550835508078e-01,0.000000000000000000e+00
1.296000000000000000e+03,-4.710336883142490078e-02,0.000000000000000000e+00
1.297000000000000000e+03,2.349215038338187123e-01,0.000000000000000000e+00
1.298000000000000000e+03,6.885531288019250962e-01,0.000000000000000000e+00
1.299000000000000000e+03,-1.149369793484571883e-01,0.000000000000000000e+00
1.300000000000000000e+03,3.418895037394387715e-01,0.000000000000000000e+00
1.301000000000000000e+03,-1.051551265876083274e+00,0.000000000000000000e+00
1.302000000000000000e+03,-1.237807626915884196e+00,0.000000000000000000e+00
1.303000000000000000e+03,-1.650773641329636776e+00,0.000000000000000000e+00
1.304000000000000000e+03,-2.202980803092451811e+00,0.000000000000000000e+00
1.305000000000000000e+03,-2.005144139459037689e+00,0.000000000000000000e+00
1.306000000000000000e+03,1.262550570931600280e+00,1.000000000000000000e+00
1.307000000000000000e+03,2.405013650052593377e+00,0.000000000000000000e+00
1.308000000000000000e+03,1.570918120751342739e+00,0.000000000000000000e+00
1.309000000000000000e+03,1.319067420399570256e+00,0.000000000000000000e+00
1.310000000000000000e+03,1.035553176047944390e+00,0.000000000000000000e+00
1.311000000000000000e+03,7.437481966892405261e-01,0.000000000000000000e+00
1.312000000000000000e+03,8.306384113468254782e-01,0.000000000000000000e+00
1.313000000000000000e+03,5.922476059090797662e-01,0.000000000000000000e+00
1.314000000000000000e+03,1.266564350046328391e+00,0.000000000000000000e+00
1.315000000000000000e+03,1.464014456227730854e+00,0.000000000000000000e+00
1.316000000000000000e+03,1.564824794856581658e+00,0.000000000000000000e+00
1.317000000000000000e+03,1.134222187297726503e+00,0.000000000000000000e+00
1.318000000000000000e+03,6.343945828302534062e-01,0.000000000000000000e+00
1.319000000000000000e+03,8.872321205154189983e-01,0.000000000000000000e+00
1.320000000000000000e+03,8.749029868510312946e-01,0.000000000000000000e+00
1.321000000000000000e+03,7.469114951060922269e-01,0.000000000000000000e+00
1.322000000000000000e+03,3.677938742050099741e-01,0.000000000000000000e+00
1.323000000000000000e+03,3.648587507335993019e-01,0.000000000000000000e+00
1.324000000000000000e+03,-1.069164436750775077e-01,0.000000000000000000e+00
1.325000000000000000e+03,-3.929803283448819462e-01,0.000000000000000000e+00
1.326000000000000000e+03,-7.606584050351915538e-01,0.000000000000000000e+00
1.327000000000000000e+03,-1.122259973624628815e+00,0.000000000000000000e+00
1.328000000000000000e+03,-9.340999046935328787e-01,0.000000000000000000e+00
1.329000000000000000e+03,-1.201209016096012938e+00,0.000000000000000000e+00
1.330000000000000000e+03,-1.235794364867887740e+00,0.000000000000000000e+00
1.331000000000000000e+03,-8.189966302753854954e-01,0.000000000000000000e+00
1.332000000000000000e+03,-6.482134042149143571e-01,0.000000000000000000e+00
1.333000000000000000e+03,-6.316397040627270698e-01,0.000000000000000000e+00
1.334000000000000000e+03,-3.546103006368561683e-01,0.000000000000000000e+00
1.335000000000000000e+03,-1.557839778827330157e-01,0.000000000000000000e+00
1.336000000000000000e+03,-7.523560115151330940e-01,0.000000000000000000e+00
1.337000000000000000e+03,-6.747643802476592789e-01,0.000000000000000000e+00
1.338000000000000000e+03,-8.455872627816015674e-01,0.000000000000000000e+00
1.339000000000000000e+03,-5.893506051643681021e-01,0.000000000000000000e+00
1.340000000000000000e+03,-1.110941926573275174e+00,0.000000000000000000e+00
1.341000000000000000e+03,-6.385873173783712664e-02,0.000000000000000000e+00
1.342000000000000000e+03,-9.934561834293027804e-02,0.000000000000000000e+00
1.343000000000000000e+03,-3.163724618529042965e-01,0.000000000000000000e+00
1.344000000000000000e+03,-5.276630415646669375e-02,0.000000000000000000e+00
1.345000000000000000e+03,-4.973517059764608894e-01,0.000000000000000000e+00
1.346000000000000000e+03,-3.754794731186527068e-01,0.000000000000000000e+00
1.347000000000000000e+03,-4.316524233456628945e-01,0.000000000000000000e+00
1.348000000000000000e+03,-6.820740716042958951e-01,0.000000000000000000e+00
1.349000000000000000e+03,-2.849866969455943644e-01,0.000000000000000000e+00
1.350000000000000000e+03,-7.343264014877974588e-02,0.000000000000000000e+00
1.351000000000000000e+03,-3.454645359357350620e-01,0.000000000000000000e+00
1.352000000000000000e+03,-1.191461066199166030e+00,0.000000000000000000e+00
1.353000000000000000e+03,-1.171343236907561147e+00,0.000000000000000000e+00
1.354000000000000000e+03,-1.977170395331751873e+00,0.000000000000000000e+00
1.355000000000000000e+03,-2.729024684177865367e+00,0.000000000000000000e+00
1.356000000000000000e+03,-1.052388970383918210e+00,0.000000000000000000e+00
1.357000000000000000e+03,1.651993668233372459e+00,1.000000000000000000e+00
1.358000000000000000e+03,1.820543590661782174e+00,0.000000000000000000e+00
1.359000000000000000e+03,1.751313176580533648e+00,0.000000000000000000e+00
1.360000000000000000e+03,1.302985012658772312e+00,0.000000000000000000e+00
1.361000000000000000e+03,1.765375714695737619e+00,0.000000000000000000e+00
1.362000000000000000e+03,1.376666152176720281e+00,0.000000000000000000e+00
1.363000000000000000e+03,1.067203222547897568e+00,0.000000000000000000e+00
1.364000000000000000e+03,1.347295577712540160e+00,0.000000000000000000e+00
1.365000000000000000e+03,1.242177295381751367e+00,0.000000000000000000e+00
1.366000000000000000e+03,1.459253181907062658e+00,0.000000000000000000e+00
1.367000000000000000e+03,1.228602365917824235e+00,0.000000000000000000e+00
1.368000000000000000e+03,1.435449295798353786e+00,0.000000000000000000e+00
1.369000000000000000e+03,1.804053666530735622e+00,0.000000000000000000e+00
1.370000000000000000e+03,1.769127804079579480e+00,0.000000000000000000e+00
1.371000000000000000e+03,1.467755991384178893e+00,0.000000000000000000e+00
1.372000000000000000e+03,1.551015647549757848e+00,0.000000000000000000e+00
1.373000000000000000e+03,8.460513676378139669e-01,0.000000000000000000e+00
1.374000000000000000e+03,1.311258932077058736e-01,0.000000000000000000e+00
1.375000000000000000e+03,1.123432237798170814e-02,0.000000000000000000e+00
1.376000000000000000e+03,-7.112625414022863968e-01,0.000000000000000000e+00
1.377000000000000000e+03,-1.364142188157909219e+00,0.000000000000000000e+00
1.378000000000000000e+03,-7.966858767920727002e-01,0.000000000000000000e+00
1.379000000000000000e+03,-1.124565471749399581e+00,0.000000000000000000e+00
1.380000000000000000e+03,-1.096073698268079877e+00,0.000000000000000000e+00
1.381000000000000000e+03,-8.022516000375686795e-01,0.000000000000000000e+00
1.382000000000000000e+03,-5.035429462486202823e-01,0.000000000000000000e+00
1.383000000000000000e+03,-3.151601372960898817e-01,0.000000000000000000e+00
1.384000000000000000e+03,-8.550878248379084612e-01,0.000000000000000000e+00
1.385000000000000000e+03,-3.004624392215972661e-01,0.000000000000000000e+00
1.386000000000000000e+03,-6.802061852015298671e-01,0.000000000000000000e+00
1.387000000000000000e+03,-3.108149191874666761e-01,0.000000000000000000e+00
1.388000000000000000e+03,-7.984066667075174761e-01,0.000000000000000000e+00
1.389000000000000000e+03,-5.145665402777888087e-01,0.000000000000000000e+00
1.390000000000000000e+03,-1.820742597944955410e-01,0.000000000000000000e+00
1.391000000000000000e+03,-4.020328047891970624e-01,0.000000000000000000e+00
1.392000000000000000e+03,-1.405840611421537711e-01,0.000000000000000000e+00
1.393000000000000000e+03,-3.564539966854976538e-01,0.000000000000000000e+00
1.394000000000000000e+03,-3.486580589921158269e-01,0.000000000000000000e+00
1.395000000000000000e+03,-5.027485916566970525e-01,0.000000000000000000e+00
1.396000000000000000e+03,-5.808871166453333235e-01,0.000000000000000000e+00
1.397000000000000000e+03,-4.014052086975312128e-01,0.000000000000000000e+00
1.398000000000000000e+03,-6.884791968815927587e-01,0.000000000000000000e+00
1.399000000000000000e+03,-3.304727325702956908e-01,0.000000000000000000e+00
1.400000000000000000e+03,-5.929819729033694031e-01,0.000000000000000000e+00
1.401000000000000000e+03,-1.959810739155382411e-02,0.000000000000000000e+00
1.402000000000000000e+03,-1.196324852262674598e+00,0.000000000000000000e+00
1.403000000000000000e+03,-1.779275329882703316e+00,0.000000000000000000e+00
1.404000000000000000e+03,-2.739664225550499932e+00,0.000000000000000000e+00
1.405000000000000000e+03,-2.513918393170307741e+00,0.000000000000000000e+00
1.406000000000000000e+03,-2.118458951237811139e+00,0.000000000000000000e+00
1.407000000000000000e+03,1.019773868251498516e+00,0.000000000000000000e+00
1.408000000000000000e+03,1.847372316806811909e+00,1.000000000000000000e+00
1.409000000000000000e+03,1.924821928926936598e+00,0.000000000000000000e+00
1.410000000000000000e+03,1.947045259468703549e+00,0.000000000000000000e+00
1.411000000000000000e+03,1.416706974542764064e+00,0.000000000000000000e+00
1.412000000000000000e+03,1.531420662012541678e+00,0.000000000000000000e+00
1.413000000000000000e+03,1.486912322315990576e+00,0.000000000000000000e+00
1.414000000000000000e+03,1.622665059631057449e+00,0.000000000000000000e+00
1.415000000000000000e+03,1.338448962030113876e+00,0.000000000000000000e+00
1.416000000000000000e+03,1.612624645579637805e+00,0.000000000000000000e+00
1.417000000000000000e+03,1.529983441861430205e+00,0.000000000000000000e+00
1.418000000000000000e+03,2.215788999912932766e+00,0.000000000000000000e+00
1.419000000000000000e+03,1.930074605091133932e+00,0.000000000000000000e+00
1.420000000000000000e+03,1.699118219840457966e+00,0.000000000000000000e+00
1.421000000000000000e+03,1.526616966943619813e+00,0.000000000000000000e+00
1.422000000000000000e+03,1.017301783320380126e+00,0.000000000000000000e+00
1.423000000000000000e+03,1.023423768043077553e+00,0.000000000000000000e+00
1.424000000000000000e+03,3.806109478899628862e-02,0.000000000000000000e+00
1.425000000000000000e+03,-3.170895902066292460e-01,0.000000000000000000e+00
1.426000000000000000e+03,-5.480694175070180973e-01,0.000000000000000000e+00
1.427000000000000000e+03,-9.929508274052214478e-01,0.000000000000000000e+00
1.428000000000000000e+03,-1.286566534245181970e+00,0.000000000000000000e+00
1.429000000000000000e+03,-8.633260523188464042e-01,0.000000000000000000e+00
1.430000000000000000e+03,-1.133943611496338155e+00,0.000000000000000000e+00
1.431000000000000000e+03,-1.006869532022281799e+00,0.000000000000000000e+00
1.432000000000000000e+03,-5.793485805648876941e-01,0.000000000000000000e+00
1.433000000000000000e+03,-8.990145166857660408e-01,0.000000000000000000e+00
1.434000000000000000e+03,-1.085011565664471433e+00,0.000000000000000000e+00
1.435000000000000000e+03,-8.695424975696749992e-02,0.000000000000000000e+00
1.436000000000000000e+03,-8.365921875807895702e-01,0.000000000000000000e+00
1.437000000000000000e+03,-4.514668811999765219e-01,0.000000000000000000e+00
1.438000000000000000e+03,-6.197379498527805231e-01,0.000000000000000000e+00
1.439000000000000000e+03,-8.544566750352948770e-01,0.000000000000000000e+00
1.440000000000000000e+03,-6.930281845993181422e-01,0.000000000000000000e+00
1.441000000000000000e+03,-6.099927977225617637e-01,0.000000000000000000e+00
1.442000000000000000e+03,-4.087213776795171616e-01,0.000000000000000000e+00
1.443000000000000000e+03,-3.562994538511167208e-01,0.000000000000000000e+00
1.444000000000000000e+03,-5.776968041632335460e-01,0.000000000000000000e+00
1.445000000000000000e+03,-2.009564696436377806e-01,0.000000000000000000e+00
1.446000000000000000e+03,-3.812528494632648757e-01,0.000000000000000000e+00
1.447000000000000000e+03,-2.149909550193901120e-01,0.000000000000000000e+00
1.448000000000000000e+03,-4.811284117971931229e-01,0.000000000000000000e+00
1.449000000000000000e+03,-2.027848296811149975e-01,0.000000000000000000e+00
1.450000000000000000e+03,-4.399826388289896917e-01,0.000000000000000000e+00
1.451000000000000000e+03,1.401617872062352887e-01,0.000000000000000000e+00
1.452000000000000000e+03,-6.867659267576969873e-01,0.000000000000000000e+00
1.453000000000000000e+03,-5.587898839657712280e-01,0.000000000000000000e+00
1.454000000000000000e+03,-1.353998286025462461e+00,0.000000000000000000e+00
1.455000000000000000e+03,-1.409047575321107137e+00,0.000000000000000000e+00
1.456000000000000000e+03,-1.996329355719537402e+00,0.000000000000000000e+00
1.457000000000000000e+03,-5.298865511013142182e-01,0.000000000000000000e+00
1.458000000000000000e+03,1.604090711436706229e+00,1.000000000000000000e+00
1.459000000000000000e+03,1.003814204781471764e+00,0.000000000000000000e+00
1.460000000000000000e+03,1.007281178192216409e+00,0.000000000000000000e+00
1.461000000000000000e+03,5.800913377240087820e-01,0.000000000000000000e+00
1.462000000000000000e+03,1.115325404853022340e+00,0.000000000000000000e+00
1.463000000000000000e+03,4.683935823490255057e-01,0.000000000000000000e+00
1.464000000000000000e+03,7.156073784329355369e-01,0.000000000000000000e+00
1.465000000000000000e+03,6.123358781052703481e-01,0.000000000000000000e+00
1.466000000000000000e+03,7.182569047726601319e-01,0.000000000000000000e+00
1.467000000000000000e+03,9.860735587140154745e-01,0.000000000000000000e+00
1.468000000000000000e+03,5.555095336445637910e-01,0.000000000000000000e+00
1.469000000000000000e+03,1.586595251892366720e+00,0.000000000000000000e+00
1.470000000000000000e+03,8.163598622016576822e-01,0.000000000000000000e+00
1.471000000000000000e+03,9.700572358561847519e-01,0.000000000000000000e+00
1.472000000000000000e+03,6.771698749409529317e-01,0.000000000000000000e+00
1.473000000000000000e+03,7.268645900229324663e-01,0.000000000000000000e+00
1.474000000000000000e+03,1.051217498976256826e+00,0.000000000000000000e+00
1.475000000000000000e+03,1.287094841590263189e-02,0.000000000000000000e+00
1.476000000000000000e+03,-4.321296794243996708e-01,0.000000000000000000e+00
1.477000000000000000e+03,-5.562978510225300433e-01,0.000000000000000000e+00
1.478000000000000000e+03,-5.476317690764389567e-01,0.000000000000000000e+00
1.479000000000000000e+03,-5.128797587995129748e-01,0.000000000000000000e+00
1.480000000000000000e+03,-8.026621897991382815e-01,0.000000000000000000e+00
1.481000000000000000e+03,-6.674815748977325214e-01,0.000000000000000000e+00
1.482000000000000000e+03,1.805138956648189852e-01,0.000000000000000000e+00
1.483000000000000000e+03,-6.727293216484422356e-01,0.000000000000000000e+00
1.484000000000000000e+03,-1.629121007243271996e-02,0.000000000000000000e+00
1.485000000000000000e+03,-9.197250084855296270e-01,0.000000000000000000e+00
1.486000000000000000e+03,-2.473702419646030826e-01,0.000000000000000000e+00
1.487000000000000000e+03,-5.555370270667854271e-01,0.000000000000000000e+00
1.488000000000000000e+03,7.434097386559375409e-02,0.000000000000000000e+00
1.489000000000000000e+03,2.912226506276855975e-01,0.000000000000000000e+00
1.490000000000000000e+03,-4.641711750858631413e-01,0.000000000000000000e+00
1.491000000000000000e+03,1.990374593621085653e-01,0.000000000000000000e+00
1.492000000000000000e+03,-8.043170990724798353e-01,0.000000000000000000e+00
1.493000000000000000e+03,-5.522567831765540051e-03,0.000000000000000000e+00
1.494000000000000000e+03,9.996123418894294066e-02,0.000000000000000000e+00
1.495000000000000000e+03,-4.083506344614211692e-01,0.000000000000000000e+00
1.496000000000000000e+03,-5.677432928359189140e-02,0.000000000000000000e+00
1.497000000000000000e+03,4.297354167119026846e-01,0.000000000000000000e+00
1.498000000000000000e+03,-2.953946431496772274e-01,0.000000000000000000e+00
1.499000000000000000e+03,4.781183913178874700e-01,0.000000000000000000e+00
1.500000000000000000e+03,-1.905274749612936025e-01,0.000000000000000000e+00
1.501000000000000000e+03,4.466703196085390903e-01,0.000000000000000000e+00
1.502000000000000000e+03,1.660861966612418028e-01,0.000000000000000000e+00
1.503000000000000000e+03,-7.559455925628170148e-01,0.000000000000000000e+00
1.504000000000000000e+03,-1.033091264010041810e+00,0.000000000000000000e+00
1.505000000000000000e+03,-1.448287762924251654e+00,0.000000000000000000e+00
1.506000000000000000e+03,-1.354482039540702676e+00,0.000000000000000000e+00
1.507000000000000000e+03,-1.386313459247555446e+00,0.000000000000000000e+00
1.508000000000000000e+03,1.723735131778314500e+00,0.000000000000000000e+00
1.509000000000000000e+03,1.396547673558047320e+00,1.000000000000000000e+00
1.510000000000000000e+03,9.435044457830424891e-01,0.000000000000000000e+00
1.511000000000000000e+03,1.146789883692604262e+00,0.000000000000000000e+00
1.512000000000000000e+03,7.823322667799474939e-01,0.000000000000000000e+00
1.513000000000000000e+03,7.569045276667022426e-01,0.000000000000000000e+00
1.514000000000000000e+03,4.561657829130607578e-01,0.000000000000000000e+00
1.515000000000000000e+03,7.468802493719041147e-01,0.000000000000000000e+00
1.516000000000000000e+03,5.153147109039731832e-01,0.000000000000000000e+00
1.517000000000000000e+03,7.839800563217071971e-01,0.000000000000000000e+00
1.518000000000000000e+03,1.001198014019577753e+00,0.000000000000000000e+00
1.519000000000000000e+03,1.228258360944992189e+00,0.000000000000000000e+00
1.520000000000000000e+03,9.392795205111150736e-01,0.000000000000000000e+00
1.521000000000000000e+03,1.101142618058016609e+00,0.000000000000000000e+00
1.522000000000000000e+03,8.853327605407509404e-01,0.000000000000000000e+00
1.523000000000000000e+03,6.702553641940837137e-01,0.000000000000000000e+00
1.524000000000000000e+03,3.979997441092890109e-01,0.000000000000000000e+00
1.525000000000000000e+03,-1.237066869146175307e-01,0.000000000000000000e+00
1.526000000000000000e+03,-4.503491229983949129e-01,0.000000000000000000e+00
1.527000000000000000e+03,-5.782462490442100700e-01,0.000000000000000000e+00
1.528000000000000000e+03,-1.352949028053836100e+00,0.000000000000000000e+00
1.529000000000000000e+03,-6.867301138145596173e-01,0.000000000000000000e+00
1.530000000000000000e+03,-1.047613222304887071e+00,0.000000000000000000e+00
1.531000000000000000e+03,-9.927928750245463840e-01,0.000000000000000000e+00
1.532000000000000000e+03,-7.865713896411997696e-01,0.000000000000000000e+00
1.533000000000000000e+03,-7.880068038306443645e-01,0.000000000000000000e+00
1.534000000000000000e+03,-7.690011611613728482e-01,0.000000000000000000e+00
1.535000000000000000e+03,-7.692252755922057705e-01,0.000000000000000000e+00
1.536000000000000000e+03,-4.929670824519847283e-01,0.000000000000000000e+00
1.537000000000000000e+03,-4.592440283770788945e-01,0.000000000000000000e+00
1.538000000000000000e+03,-6.345241699518154865e-01,0.000000000000000000e+00
1.539000000000000000e+03,-4.758368612680491938e-01,0.000000000000000000e+00
1.540000000000000000e+03,-2.382989379025559351e-01,0.000000000000000000e+00
1.541000000000000000e+03,-4.211778459992497337e-01,0.000000000000000000e+00
1.542000000000000000e+03,-4.011911401154831247e-01,0.000000000000000000e+00
1.543000000000000000e+03,-2.265537714596037588e-01,0.000000000000000000e+00
1.544000000000000000e+03,2.273122961452427315e-01,0.000000000000000000e+00
1.545000000000000000e+03,-1.382848211479214551e-01,0.000000000000000000e+00
1.546000000000000000e+03,2.996455895643516665e-01,0.000000000000000000e+00
1.547000000000000000e+03,-6.566849858460022116e-01,0.000000000000000000e+00
1.548000000000000000e+03,-1.847617657971541705e-01,0.000000000000000000e+00
1.549000000000000000e+03,2.584146288030697014e-01,0.000000000000000000e+00
1.550000000000000000e+03,9.184861917764321204e-02,0.000000000000000000e+00
1.551000000000000000e+03,-6.533312134997815157e-02,0.000000000000000000e+00
1.552000000000000000e+03,2.549905784528936348e-01,0.000000000000000000e+00
1.553000000000000000e+03,-2.740369041426407026e-01,0.000000000000000000e+00
1.554000000000000000e+03,-5.818036452225626709e-01,0.000000000000000000e+00
1.555000000000000000e+03,-1.149456781117636162e+00,0.000000000000000000e+00
1.556000000000000000e+03,-1.398900491053431283e+00,0.000000000000000000e+00
1.557000000000000000e+03,-1.801078217543930160e+00,0.000000000000000000e+00
1.558000000000000000e+03,2.384097518304225394e-01,0.000000000000000000e+00
1.559000000000000000e+03,1.791855856748063802e+00,1.000000000000000000e+00
1.560000000000000000e+03,1.420354675542484735e+00,0.000000000000000000e+00
1.561000000000000000e+03,1.327154761105568515e+00,0.000000000000000000e+00
1.562000000000000000e+03,8.834957875629867452e-01,0.000000000000000000e+00
1.563000000000000000e+03,1.111899786033411663e+00,0.000000000000000000e+00
1.564000000000000000e+03,6.709472808173513325e-01,0.000000000000000000e+00
1.565000000000000000e+03,5.677545790050630981e-01,0.000000000000000000e+00
1.566000000000000000e+03,3.279101433068989935e-01,0.000000000000000000e+00
1.567000000000000000e+03,9.122570028415856180e-01,0.000000000000000000e+00
1.568000000000000000e+03,7.988445249076699950e-01,0.000000000000000000e+00
1.569000000000000000e+03,7.722493472480166377e-01,0.000000000000000000e+00
1.570000000000000000e+03,7.681001405575881291e-01,0.000000000000000000e+00
1.571000000000000000e+03,1.386970887365112981e+00,0.000000000000000000e+00
1.572000000000000000e+03,1.011295079003288855e+00,0.000000000000000000e+00
1.573000000000000000e+03,1.485251218974226628e+00,0.000000000000000000e+00
1.574000000000000000e+03,6.228849694716350749e-01,0.000000000000000000e+00
1.575000000000000000e+03,-3.484880410553736763e-01,0.000000000000000000e+00
1.576000000000000000e+03,-5.598148614057805172e-01,0.000000000000000000e+00
1.577000000000000000e+03,-6.625805448264946440e-01,0.000000000000000000e+00
1.578000000000000000e+03,-1.086803555486488548e+00,0.000000000000000000e+00
1.579000000000000000e+03,-1.150961930313341597e+00,0.000000000000000000e+00
1.580000000000000000e+03,-6.927649892693510392e-02,0.000000000000000000e+00
1.581000000000000000e+03,-5.385617889701140859e-01,0.000000000000000000e+00
1.582000000000000000e+03,-1.070579031641768486e+00,0.000000000000000000e+00
1.583000000000000000e+03,-8.657448441707710218e-01,0.000000000000000000e+00
1.584000000000000000e+03,-8.809535622551107892e-01,0.000000000000000000e+00
1.585000000000000000e+03,-8.695301390248619811e-01,0.000000000000000000e+00
1.586000000000000000e+03,-6.856449414159817568e-01,0.000000000000000000e+00
