timestamp,ecg_measurement,qrs_detected
0.000000000000000000e+00,-5.074832144280708723e-01,0.000000000000000000e+00
1.000000000000000000e+00,-5.164965495100828363e-01,0.000000000000000000e+00
2.000000000000000000e+00,8.864921086640067949e-02,0.000000000000000000e+00
3.000000000000000000e+00,-1.603670656385064175e-01,0.000000000000000000e+00
4.000000000000000000e+00,2.625143752124834418e-01,0.000000000000000000e+00
5.000000000000000000e+00,-2.649633593207189608e-01,0.000000000000000000e+00
6.000000000000000000e+00,-3.190256142938658335e-01,0.000000000000000000e+00
7.000000000000000000e+00,-4.448435375555543358e-01,0.000000000000000000e+00
8.000000000000000000e+00,-1.531955991821609409e-01,0.000000000000000000e+00
9.000000000000000000e+00,-4.302188706755250558e-01,0.000000000000000000e+00
1.000000000000000000e+01,-8.713747268045383965e-02,0.000000000000000000e+00
1.100000000000000000e+01,-1.215147981142713496e-01,0.000000000000000000e+00
1.200000000000000000e+01,2.906080506133234542e-01,0.000000000000000000e+00
1.300000000000000000e+01,-1.722797541201701588e-01,0.000000000000000000e+00
1.400000000000000000e+01,4.213053779459858261e-01,0.000000000000000000e+00
1.500000000000000000e+01,-8.814984932958734587e-02,0.000000000000000000e+00
1.600000000000000000e+01,-3.389959037310412704e-01,0.000000000000000000e+00
1.700000000000000000e+01,-1.519188720270741699e+00,0.000000000000000000e+00
1.800000000000000000e+01,-1.000102187641826124e+00,0.000000000000000000e+00
1.900000000000000000e+01,-1.414029522480442891e+00,0.000000000000000000e+00
2.000000000000000000e+01,-1.176916148752195967e+00,0.000000000000000000e+00
2.100000000000000000e+01,1.143146694399355345e+00,0.000000000000000000e+00
2.200000000000000000e+01,1.904345786111211858e+00,1.000000000000000000e+00
2.300000000000000000e+01,1.409933372215220748e+00,0.000000000000000000e+00
2.400000000000000000e+01,6.844181745339841250e-01,0.000000000000000000e+00
2.500000000000000000e+01,7.551936199966116092e-01,0.000000000000000000e+00
2.600000000000000000e+01,9.295188146032594689e-01,0.000000000000000000e+00
2.700000000000000000e+01,5.189543668654568176e-01,0.000000000000000000e+00
2.800000000000000000e+01,1.051092280350725217e+00,0.000000000000000000e+00
2.900000000000000000e+01,4.725457960718972283e-01,0.000000000000000000e+00
3.000000000000000000e+01,1.398643077245729449e+00,0.000000000000000000e+00
3.100000000000000000e+01,1.053263726126777211e+00,0.000000000000000000e+00
3.200000000000000000e+01,7.240529563224413767e-01,0.000000000000000000e+00
3.300000000000000000e+01,6.056010762779865386e-01,0.000000000000000000e+00
3.400000000000000000e+01,8.895919288607676556e-01,0.000000000000000000e+00
3.500000000000000000e+01,4.481825331135629864e-01,0.000000000000000000e+00
3.600000000000000000e+01,6.803794108178100597e-01,0.000000000000000000e+00
3.700000000000000000e+01,4.570805658210626565e-01,0.000000000000000000e+00
3.800000000000000000e+01,1.352694136105688227e-01,0.000000000000000000e+00
3.900000000000000000e+01,3.051557588324272929e-01,0.000000000000000000e+00
4.000000000000000000e+01,-2.843080798061928816e-01,0.000000000000000000e+00
4.100000000000000000e+01,-3.025455382114594083e-01,0.000000000000000000e+00
4.200000000000000000e+01,-7.466613829478251363e-01,0.000000000000000000e+00
4.300000000000000000e+01,-1.047912750232319112e+00,0.000000000000000000e+00
4.400000000000000000e+01,-5.503261478777129456e-01,0.000000000000000000e+00
4.500000000000000000e+01,-8.698988259127368172e-01,0.000000000000000000e+00
4.600000000000000000e+01,-6.592059015371443120e-01,0.000000000000000000e+00
4.700000000000000000e+01,-3.791601700394372498e-01,0.000000000000000000e+00
4.800000000000000000e+01,-3.483577404115116849e-01,0.000000000000000000e+00
4.900000000000000000e+01,-3.593717340396492821e-01,0.000000000000000000e+00
5.000000000000000000e+01,3.190512389884611055e-01,0.000000000000000000e+00
5.100000000000000000e+01,-6.750620782953971055e-01,0.000000000000000000e+00
5.200000000000000000e+01,-2.304360895407728815e-01,0.000000000000000000e+00
5.300000000000000000e+01,-5.657501767235643131e-01,0.000000000000000000e+00
5.400000000000000000e+01,-3.706682890133572994e-01,0.000000000000000000e+00
5.500000000000000000e+01,-2.648763016200877396e-01,0.000000000000000000e+00
5.600000000000000000e+01,-1.179815992129703422e-01,0.000000000000000000e+00
5.700000000000000000e+01,2.050069993948004654e-01,0.000000000000000000e+00
5.800000000000000000e+01,-7.960433290877824697e-03,0.000000000000000000e+00
5.900000000000000000e+01,-4.252583115625709065e-02,0.000000000000000000e+00
6.000000000000000000e+01,-3.511415892523253035e-01,0.000000000000000000e+00
6.100000000000000000e+01,-3.148500292547081747e-01,0.000000000000000000e+00
6.200000000000000000e+01,-2.286193197315363468e-01,0.000000000000000000e+00
6.300000000000000000e+01,-2.513169682635139068e-01,0.000000000000000000e+00
6.400000000000000000e+01,-1.724976456176124107e-01,0.000000000000000000e+00
6.500000000000000000e+01,-2.056344757820380564e-01,0.000000000000000000e+00
6.600000000000000000e+01,2.192322214281552661e-01,0.000000000000000000e+00
6.700000000000000000e+01,-5.156982609015655639e-01,0.000000000000000000e+00
6.800000000000000000e+01,-1.423870755353356721e+00,0.000000000000000000e+00
6.900000000000000000e+01,-1.624860533117941763e+00,0.000000000000000000e+00
7.000000000000000000e+01,-1.796570068201202908e+00,0.000000000000000000e+00
7.100000000000000000e+01,-1.894004914908751669e+00,0.000000000000000000e+00
7.200000000000000000e+01,-2.094585449620517403e-02,0.000000000000000000e+00
7.300000000000000000e+01,1.765691402200320059e+00,1.000000000000000000e+00
7.400000000000000000e+01,1.542507364068046449e+00,0.000000000000000000e+00
7.500000000000000000e+01,1.550089574471645193e+00,0.000000000000000000e+00
7.600000000000000000e+01,8.007011850947611808e-01,0.000000000000000000e+00
7.700000000000000000e+01,1.075790471666717041e+00,0.000000000000000000e+00
7.800000000000000000e+01,7.889705099560631041e-01,0.000000000000000000e+00
7.900000000000000000e+01,8.393517740022714557e-01,0.000000000000000000e+00
8.000000000000000000e+01,1.043327974524043800e+00,0.000000000000000000e+00
8.100000000000000000e+01,6.885579735445365168e-01,0.000000000000000000e+00
8.200000000000000000e+01,8.182005169027894986e-01,0.000000000000000000e+00
8.300000000000000000e+01,1.425354629994320721e+00,0.000000000000000000e+00
8.400000000000000000e+01,1.246181024085494027e+00,0.000000000000000000e+00
8.500000000000000000e+01,8.448765684178052293e-01,0.000000000000000000e+00
8.600000000000000000e+01,8.917821948413592326e-01,0.000000000000000000e+00
8.700000000000000000e+01,6.386300390929954274e-01,0.000000000000000000e+00
8.800000000000000000e+01,6.399894542722863733e-01,0.000000000000000000e+00
8.900000000000000000e+01,1.801027744412200260e-01,0.000000000000000000e+00
9.000000000000000000e+01,-2.406493792011224764e-01,0.000000000000000000e+00
9.100000000000000000e+01,-4.412033945167120330e-01,0.000000000000000000e+00
9.200000000000000000e+01,-4.071110925153754723e-01,0.000000000000000000e+00
9.300000000000000000e+01,-6.484551593888401855e-02,0.000000000000000000e+00
9.400000000000000000e+01,-4.454657353820960508e-01,0.000000000000000000e+00
9.500000000000000000e+01,3.639586323808982615e-02,0.000000000000000000e+00
9.600000000000000000e+01,-1.032380029071757077e+00,0.000000000000000000e+00
9.700000000000000000e+01,-1.026825575568740101e+00,0.000000000000000000e+00
9.800000000000000000e+01,-1.296952651801711820e+00,0.000000000000000000e+00
9.900000000000000000e+01,-7.857553667988756985e-01,0.000000000000000000e+00
1.000000000000000000e+02,-7.409885031539226175e-01,0.000000000000000000e+00
1.010000000000000000e+02,-2.970526607672438479e-01,0.000000000000000000e+00
1.020000000000000000e+02,-5.034404211799284878e-01,0.000000000000000000e+00
1.030000000000000000e+02,-3.569145119002777311e-01,0.000000000000000000e+00
1.040000000000000000e+02,-5.536324224908298897e-01,0.000000000000000000e+00
1.050000000000000000e+02,-6.120549863564117565e-01,0.000000000000000000e+00
1.060000000000000000e+02,-3.550872187479546249e-01,0.000000000000000000e+00
1.070000000000000000e+02,-2.835055710120891193e-01,0.000000000000000000e+00
1.080000000000000000e+02,8.245839300807741856e-02,0.000000000000000000e+00
1.090000000000000000e+02,2.437352254217871883e-01,0.000000000000000000e+00
1.100000000000000000e+02,4.513531819556123037e-01,0.000000000000000000e+00
1.110000000000000000e+02,9.709294387963219100e-03,0.000000000000000000e+00
1.120000000000000000e+02,-5.478801990688528245e-02,0.000000000000000000e+00
1.130000000000000000e+02,8.701188482137012237e-02,0.000000000000000000e+00
1.140000000000000000e+02,-2.401257500832893466e-01,0.000000000000000000e+00
1.150000000000000000e+02,-4.447001915780375292e-01,0.000000000000000000e+00
1.160000000000000000e+02,-5.470699962449698806e-01,0.000000000000000000e+00
1.170000000000000000e+02,-4.434081452171586418e-02,0.000000000000000000e+00
1.180000000000000000e+02,-2.794610367432173170e-01,0.000000000000000000e+00
1.190000000000000000e+02,-1.110698572164606990e+00,0.000000000000000000e+00
1.200000000000000000e+02,-2.453488530738488382e+00,0.000000000000000000e+00
1.210000000000000000e+02,-2.161303609401025394e+00,0.000000000000000000e+00
1.220000000000000000e+02,-2.388312582008153662e+00,0.000000000000000000e+00
1.230000000000000000e+02,-1.122568238515357697e+00,0.000000000000000000e+00
1.240000000000000000e+02,1.611496606151934019e+00,1.000000000000000000e+00
1.250000000000000000e+02,1.632893363689361443e+00,0.000000000000000000e+00
1.260000000000000000e+02,1.494918565019173640e+00,0.000000000000000000e+00
1.270000000000000000e+02,2.039648387345818659e+00,0.000000000000000000e+00
1.280000000000000000e+02,1.663059847407388325e+00,0.000000000000000000e+00
1.290000000000000000e+02,1.782891916272827615e+00,0.000000000000000000e+00
1.300000000000000000e+02,1.310529308954863081e+00,0.000000000000000000e+00
1.310000000000000000e+02,1.503874425013432159e+00,0.000000000000000000e+00
1.320000000000000000e+02,9.124267916245886179e-01,0.000000000000000000e+00
1.330000000000000000e+02,1.256531982095520528e+00,0.000000000000000000e+00
1.340000000000000000e+02,1.269953553809261226e+00,0.000000000000000000e+00
1.350000000000000000e+02,1.272797610517221178e+00,0.000000000000000000e+00
1.360000000000000000e+02,1.633326490359223060e+00,0.000000000000000000e+00
1.370000000000000000e+02,1.314409540771769969e+00,0.000000000000000000e+00
1.380000000000000000e+02,7.943733034786879532e-01,0.000000000000000000e+00
1.390000000000000000e+02,5.652780015985477968e-01,0.000000000000000000e+00
1.400000000000000000e+02,3.411407036920891533e-01,0.000000000000000000e+00
1.410000000000000000e+02,-1.156791277151102831e-01,0.000000000000000000e+00
1.420000000000000000e+02,-7.555390039088428766e-01,0.000000000000000000e+00
1.430000000000000000e+02,-6.679535133593923479e-01,0.000000000000000000e+00
1.440000000000000000e+02,-6.255712204139692867e-01,0.000000000000000000e+00
1.450000000000000000e+02,-3.781113303116351854e-01,0.000000000000000000e+00
1.460000000000000000e+02,-1.012876215696388638e+00,0.000000000000000000e+00
1.470000000000000000e+02,-7.200050605853076657e-01,0.000000000000000000e+00
1.480000000000000000e+02,-1.059537811034409582e+00,0.000000000000000000e+00
1.490000000000000000e+02,-8.287834769349882169e-01,0.000000000000000000e+00
1.500000000000000000e+02,-7.376141560160806021e-01,0.000000000000000000e+00
1.510000000000000000e+02,-1.068918213111677673e+00,0.000000000000000000e+00
1.520000000000000000e+02,-6.788374024863478295e-01,0.000000000000000000e+00
1.530000000000000000e+02,1.985809471157428674e-01,0.000000000000000000e+00
1.540000000000000000e+02,-4.272736292323431329e-01,0.000000000000000000e+00
1.550000000000000000e+02,-1.109689982354559595e-01,0.000000000000000000e+00
1.560000000000000000e+02,-8.558036468577726597e-01,0.000000000000000000e+00
1.570000000000000000e+02,-4.213877854825304747e-01,0.000000000000000000e+00
1.580000000000000000e+02,-5.641372381633503741e-01,0.000000000000000000e+00
1.590000000000000000e+02,-4.522251075588509250e-01,0.000000000000000000e+00
1.600000000000000000e+02,-5.173150330228160065e-01,0.000000000000000000e+00
1.610000000000000000e+02,-5.700448954940642299e-01,0.000000000000000000e+00
1.620000000000000000e+02,-5.915796455737531989e-01,0.000000000000000000e+00
1.630000000000000000e+02,1.283637722366806899e-01,0.000000000000000000e+00
1.640000000000000000e+02,7.936687362128498624e-02,0.000000000000000000e+00
1.650000000000000000e+02,-5.063312812922731582e-02,0.000000000000000000e+00
1.660000000000000000e+02,-4.140997703836549887e-02,0.000000000000000000e+00
1.670000000000000000e+02,-2.123500657187460672e-01,0.000000000000000000e+00
1.680000000000000000e+02,-3.553762663569707825e-01,0.000000000000000000e+00
1.690000000000000000e+02,-4.122116050240125507e-01,0.000000000000000000e+00
1.700000000000000000e+02,-1.654291378076687691e+00,0.000000000000000000e+00
1.710000000000000000e+02,-2.092177658159611209e+00,0.000000000000000000e+00
1.720000000000000000e+02,-2.267013917147710611e+00,0.000000000000000000e+00
1.730000000000000000e+02,-2.252129937285659800e+00,0.000000000000000000e+00
1.740000000000000000e+02,-1.690569636793667563e+00,0.000000000000000000e+00
1.750000000000000000e+02,8.472720845130220502e-01,0.000000000000000000e+00
1.760000000000000000e+02,1.969639234006314243e+00,1.000000000000000000e+00
1.770000000000000000e+02,1.832133934952852261e+00,0.000000000000000000e+00
1.780000000000000000e+02,1.570041852822376738e+00,0.000000000000000000e+00
1.790000000000000000e+02,1.359616328410441444e+00,0.000000000000000000e+00
1.800000000000000000e+02,1.473099866991316009e+00,0.000000000000000000e+00
1.810000000000000000e+02,1.106715249937854306e+00,0.000000000000000000e+00
1.820000000000000000e+02,1.079108568436775384e+00,0.000000000000000000e+00
1.830000000000000000e+02,9.931912404271847628e-01,0.000000000000000000e+00
1.840000000000000000e+02,1.091871248857124943e+00,0.000000000000000000e+00
1.850000000000000000e+02,1.623760795860344164e+00,0.000000000000000000e+00
1.860000000000000000e+02,1.037912078447128073e+00,0.000000000000000000e+00
1.870000000000000000e+02,1.560654353328136512e+00,0.000000000000000000e+00
1.880000000000000000e+02,1.059039259213092832e+00,0.000000000000000000e+00
1.890000000000000000e+02,1.321487299060459142e+00,0.000000000000000000e+00
1.900000000000000000e+02,8.758366154184855645e-01,0.000000000000000000e+00
1.910000000000000000e+02,-1.060719035188436438e-01,0.000000000000000000e+00
1.920000000000000000e+02,-1.486932949345414479e-01,0.000000000000000000e+00
1.930000000000000000e+02,-4.993883317065238026e-01,0.000000000000000000e+00
1.940000000000000000e+02,-7.373303407166398316e-01,0.000000000000000000e+00
1.950000000000000000e+02,-8.762032771682507493e-01,0.000000000000000000e+00
1.960000000000000000e+02,-6.092157197776045807e-01,0.000000000000000000e+00
1.970000000000000000e+02,-4.804153793353656554e-01,0.000000000000000000e+00
1.980000000000000000e+02,-4.035483043240566392e-01,0.000000000000000000e+00
1.990000000000000000e+02,-9.371439032368783506e-01,0.000000000000000000e+00
2.000000000000000000e+02,-9.121293444923483928e-01,0.000000000000000000e+00
2.010000000000000000e+02,-8.948509591343902780e-01,0.000000000000000000e+00
2.020000000000000000e+02,-4.429209273634016619e-01,0.000000000000000000e+00
2.030000000000000000e+02,-5.868094399252320459e-01,0.000000000000000000e+00
2.040000000000000000e+02,-5.909610958729857311e-01,0.000000000000000000e+00
2.050000000000000000e+02,-4.531325084468590947e-01,0.000000000000000000e+00
2.060000000000000000e+02,3.191983360345258813e-02,0.000000000000000000e+00
2.070000000000000000e+02,-2.828578508983721762e-01,0.000000000000000000e+00
2.080000000000000000e+02,1.581375912074248768e-01,0.000000000000000000e+00
2.090000000000000000e+02,-4.122709470041866497e-01,0.000000000000000000e+00
2.100000000000000000e+02,-1.810876226637185837e-01,0.000000000000000000e+00
2.110000000000000000e+02,-2.709479138874461568e-01,0.000000000000000000e+00
2.120000000000000000e+02,-1.637635994115782812e-01,0.000000000000000000e+00
2.130000000000000000e+02,-2.933791842373711378e-01,0.000000000000000000e+00
2.140000000000000000e+02,8.685546277350950084e-02,0.000000000000000000e+00
2.150000000000000000e+02,2.533751965905328002e-02,0.000000000000000000e+00
2.160000000000000000e+02,-7.536601611467011463e-02,0.000000000000000000e+00
2.170000000000000000e+02,2.753598286850161281e-01,0.000000000000000000e+00
2.180000000000000000e+02,2.412895343473523413e-01,0.000000000000000000e+00
2.190000000000000000e+02,9.832513984270584498e-03,0.000000000000000000e+00
2.200000000000000000e+02,-1.275328483539354685e-01,0.000000000000000000e+00
2.210000000000000000e+02,-9.986165328761605897e-01,0.000000000000000000e+00
2.220000000000000000e+02,-1.485666979192013404e+00,0.000000000000000000e+00
2.230000000000000000e+02,-1.189349199388521905e+00,0.000000000000000000e+00
2.240000000000000000e+02,-1.465033970436604438e+00,0.000000000000000000e+00
2.250000000000000000e+02,-1.210224049277900171e+00,0.000000000000000000e+00
2.260000000000000000e+02,5.804024502668785335e-01,0.000000000000000000e+00
2.270000000000000000e+02,1.932067327545086588e+00,1.000000000000000000e+00
2.280000000000000000e+02,1.336306443083876916e+00,0.000000000000000000e+00
2.290000000000000000e+02,1.514854518228506919e+00,0.000000000000000000e+00
2.300000000000000000e+02,8.946307393063362978e-01,0.000000000000000000e+00
2.310000000000000000e+02,6.706445562144752737e-01,0.000000000000000000e+00
2.320000000000000000e+02,9.410903641202479353e-01,0.000000000000000000e+00
2.330000000000000000e+02,1.169248531001670699e+00,0.000000000000000000e+00
2.340000000000000000e+02,7.732264711063222551e-01,0.000000000000000000e+00
2.350000000000000000e+02,9.532444543762049749e-01,0.000000000000000000e+00
2.360000000000000000e+02,6.982868798239958430e-01,0.000000000000000000e+00
2.370000000000000000e+02,1.151498397859773037e+00,0.000000000000000000e+00
2.380000000000000000e+02,1.361433912828215353e+00,0.000000000000000000e+00
2.390000000000000000e+02,1.299683945453453893e+00,0.000000000000000000e+00
2.400000000000000000e+02,9.536281380050969370e-01,0.000000000000000000e+00
2.410000000000000000e+02,5.752882053011352248e-01,0.000000000000000000e+00
2.420000000000000000e+02,3.809217883447326147e-01,0.000000000000000000e+00
2.430000000000000000e+02,-2.133894968857871499e-01,0.000000000000000000e+00
2.440000000000000000e+02,-2.895114501192892487e-01,0.000000000000000000e+00
2.450000000000000000e+02,-5.536030637889621797e-01,0.000000000000000000e+00
2.460000000000000000e+02,-7.807935581639262601e-01,0.000000000000000000e+00
2.470000000000000000e+02,-6.277084348488138899e-01,0.000000000000000000e+00
2.480000000000000000e+02,-2.455277492162373232e-01,0.000000000000000000e+00
2.490000000000000000e+02,-3.058923087360741477e-01,0.000000000000000000e+00
2.500000000000000000e+02,-4.099522403553020888e-01,0.000000000000000000e+00
2.510000000000000000e+02,-4.802734984723869283e-01,0.000000000000000000e+00
2.520000000000000000e+02,-6.899523644348545259e-01,0.000000000000000000e+00
2.530000000000000000e+02,-9.281795578566001126e-01,0.000000000000000000e+00
2.540000000000000000e+02,-7.775251991301128651e-01,0.000000000000000000e+00
2.550000000000000000e+02,-7.358754042204689316e-01,0.000000000000000000e+00
2.560000000000000000e+02,-5.216059957955049287e-01,0.000000000000000000e+00
2.570000000000000000e+02,-4.682564449764065606e-01,0.000000000000000000e+00
2.580000000000000000e+02,2.083712730420077264e-01,0.000000000000000000e+00
2.590000000000000000e+02,3.230124130656086834e-01,0.000000000000000000e+00
2.600000000000000000e+02,-1.579068134161079329e-01,0.000000000000000000e+00
2.610000000000000000e+02,-6.971255810330224678e-01,0.000000000000000000e+00
2.620000000000000000e+02,-1.948645079608879449e-01,0.000000000000000000e+00
2.630000000000000000e+02,-4.978236341214625771e-01,0.000000000000000000e+00
2.640000000000000000e+02,-5.379550113868383221e-01,0.000000000000000000e+00
2.650000000000000000e+02,-2.258770796321576402e-01,0.000000000000000000e+00
2.660000000000000000e+02,-2.752737091690835580e-01,0.000000000000000000e+00
2.670000000000000000e+02,1.745373895414704668e-01,0.000000000000000000e+00
2.680000000000000000e+02,8.766638703552365186e-02,0.000000000000000000e+00
2.690000000000000000e+02,1.491579115932648580e-01,0.000000000000000000e+00
2.700000000000000000e+02,-7.754779938454101074e-02,0.000000000000000000e+00
2.710000000000000000e+02,-1.778849738269176750e-02,0.000000000000000000e+00
2.720000000000000000e+02,-1.043720849896088154e+00,0.000000000000000000e+00
2.730000000000000000e+02,-1.202371790915854000e+00,0.000000000000000000e+00
2.740000000000000000e+02,-1.588237616427285781e+00,0.000000000000000000e+00
2.750000000000000000e+02,-1.083438846325970095e+00,0.000000000000000000e+00
2.760000000000000000e+02,-1.386587204698719544e+00,0.000000000000000000e+00
2.770000000000000000e+02,3.071899478459621524e-01,0.000000000000000000e+00
2.780000000000000000e+02,1.788147065558406856e+00,1.000000000000000000e+00
2.790000000000000000e+02,1.416265463595675067e+00,0.000000000000000000e+00
2.800000000000000000e+02,1.183248387626996578e+00,0.000000000000000000e+00
2.810000000000000000e+02,8.347858810853622247e-01,0.000000000000000000e+00
2.820000000000000000e+02,4.767210412538907538e-01,0.000000000000000000e+00
2.830000000000000000e+02,1.367034776894683057e-01,0.000000000000000000e+00
2.840000000000000000e+02,9.544323167071150360e-01,0.000000000000000000e+00
2.850000000000000000e+02,6.176201778613489290e-01,0.000000000000000000e+00
2.860000000000000000e+02,7.685992656319562411e-01,0.000000000000000000e+00
2.870000000000000000e+02,5.648436669102400165e-01,0.000000000000000000e+00
2.880000000000000000e+02,3.986444697565240669e-01,0.000000000000000000e+00
2.890000000000000000e+02,1.010172419718142978e+00,0.000000000000000000e+00
2.900000000000000000e+02,1.265626474305671101e+00,0.000000000000000000e+00
2.910000000000000000e+02,8.874460856164687605e-01,0.000000000000000000e+00
2.920000000000000000e+02,7.760724817327329106e-01,0.000000000000000000e+00
2.930000000000000000e+02,7.631213308969143905e-02,0.000000000000000000e+00
2.940000000000000000e+02,-2.116575927740596552e-01,0.000000000000000000e+00
2.950000000000000000e+02,-2.266362605762287930e-01,0.000000000000000000e+00
2.960000000000000000e+02,-5.231471320947506110e-01,0.000000000000000000e+00
2.970000000000000000e+02,-6.275921685836083341e-01,0.000000000000000000e+00
2.980000000000000000e+02,-5.409847668717233660e-01,0.000000000000000000e+00
2.990000000000000000e+02,-2.559871376767731688e-01,0.000000000000000000e+00
3.000000000000000000e+02,-1.903117505506845830e-01,0.000000000000000000e+00
3.010000000000000000e+02,-1.869247087721917500e-01,0.000000000000000000e+00
3.020000000000000000e+02,-1.008380635868238118e+00,0.000000000000000000e+00
3.030000000000000000e+02,-7.328650036094531695e-01,0.000000000000000000e+00
3.040000000000000000e+02,-8.857250530215611262e-01,0.000000000000000000e+00
3.050000000000000000e+02,-3.570881520320230984e-01,0.000000000000000000e+00
3.060000000000000000e+02,-2.626846067373910798e-01,0.000000000000000000e+00
3.070000000000000000e+02,-1.715158096742781801e-01,0.000000000000000000e+00
3.080000000000000000e+02,-1.880002627283839656e-01,0.000000000000000000e+00
3.090000000000000000e+02,-2.213275933546859087e-01,0.000000000000000000e+00
3.100000000000000000e+02,-3.050847432477744037e-01,0.000000000000000000e+00
3.110000000000000000e+02,2.272290621160232282e-01,0.000000000000000000e+00
3.120000000000000000e+02,-7.686952626660445986e-01,0.000000000000000000e+00
3.130000000000000000e+02,8.543985172908780124e-02,0.000000000000000000e+00
3.140000000000000000e+02,-3.258965332294401218e-01,0.000000000000000000e+00
3.150000000000000000e+02,-2.163834625576620263e-01,0.000000000000000000e+00
3.160000000000000000e+02,-1.280135584857162653e-02,0.000000000000000000e+00
3.170000000000000000e+02,-1.410310987666458793e-01,0.000000000000000000e+00
3.180000000000000000e+02,-4.746149193769465258e-02,0.000000000000000000e+00
3.190000000000000000e+02,-4.835021969665256325e-01,0.000000000000000000e+00
3.200000000000000000e+02,1.322014872809119390e-01,0.000000000000000000e+00
3.210000000000000000e+02,3.604278348679402222e-01,0.000000000000000000e+00
3.220000000000000000e+02,2.387020108432643395e-01,0.000000000000000000e+00
3.230000000000000000e+02,-3.240534279628187186e-01,0.000000000000000000e+00
3.240000000000000000e+02,-1.262574658960434082e+00,0.000000000000000000e+00
3.250000000000000000e+02,-1.399017964240924616e+00,0.000000000000000000e+00
3.260000000000000000e+02,-1.097600364400224571e+00,0.000000000000000000e+00
3.270000000000000000e+02,-1.610925898725590333e+00,0.000000000000000000e+00
3.280000000000000000e+02,-8.282318586603926169e-01,0.000000000000000000e+00
3.290000000000000000e+02,1.561747665910174776e+00,1.000000000000000000e+00
3.300000000000000000e+02,1.105670073746809701e+00,0.000000000000000000e+00
3.310000000000000000e+02,1.450559964563399307e+00,0.000000000000000000e+00
3.320000000000000000e+02,1.213490200573983380e+00,0.000000000000000000e+00
3.330000000000000000e+02,1.288031028284858825e+00,0.000000000000000000e+00
3.340000000000000000e+02,1.905655392973499840e-01,0.000000000000000000e+00
3.350000000000000000e+02,7.589785901685639491e-01,0.000000000000000000e+00
3.360000000000000000e+02,4.129753154438918217e-01,0.000000000000000000e+00
3.370000000000000000e+02,3.958021792187557675e-01,0.000000000000000000e+00
3.380000000000000000e+02,2.972059612890416425e-01,0.000000000000000000e+00
3.390000000000000000e+02,5.387084329098106306e-01,0.000000000000000000e+00
3.400000000000000000e+02,8.988836830280824142e-01,0.000000000000000000e+00
3.410000000000000000e+02,1.587217934912795059e+00,0.000000000000000000e+00
3.420000000000000000e+02,1.517551668046058788e+00,0.000000000000000000e+00
3.430000000000000000e+02,9.621852590323519694e-01,0.000000000000000000e+00
3.440000000000000000e+02,3.534136241462381145e-01,0.000000000000000000e+00
3.450000000000000000e+02,-3.683082614817123623e-01,0.000000000000000000e+00
3.460000000000000000e+02,-4.030676172921509592e-01,0.000000000000000000e+00
3.470000000000000000e+02,-4.836540958945125257e-01,0.000000000000000000e+00
3.480000000000000000e+02,-7.228990949436145952e-01,0.000000000000000000e+00
3.490000000000000000e+02,-6.765478361542998087e-01,0.000000000000000000e+00
3.500000000000000000e+02,-6.960714733628432793e-02,0.000000000000000000e+00
3.510000000000000000e+02,-3.212592926157263329e-01,0.000000000000000000e+00
3.520000000000000000e+02,-8.200217692827381499e-02,0.000000000000000000e+00
3.530000000000000000e+02,-6.526232359141127537e-01,0.000000000000000000e+00
3.540000000000000000e+02,-6.465669099086595040e-01,0.000000000000000000e+00
3.550000000000000000e+02,-9.130479397984211376e-01,0.000000000000000000e+00
3.560000000000000000e+02,-4.545071851122613471e-01,0.000000000000000000e+00
3.570000000000000000e+02,-6.430340319684885175e-01,0.000000000000000000e+00
3.580000000000000000e+02,-5.553390315916185704e-01,0.000000000000000000e+00
3.590000000000000000e+02,-2.244760654822935408e-01,0.000000000000000000e+00
3.600000000000000000e+02,-2.581505065141463939e-01,0.000000000000000000e+00
3.610000000000000000e+02,-2.758607091966513436e-01,0.000000000000000000e+00
3.620000000000000000e+02,3.409085640982750798e-01,0.000000000000000000e+00
3.630000000000000000e+02,1.742244631594006277e-01,0.000000000000000000e+00
3.640000000000000000e+02,-3.992560109712657845e-01,0.000000000000000000e+00
3.650000000000000000e+02,-2.648676824154459486e-01,0.000000000000000000e+00
3.660000000000000000e+02,-3.196921152360039375e-01,0.000000000000000000e+00
3.670000000000000000e+02,-1.149334236352331506e-01,0.000000000000000000e+00
3.680000000000000000e+02,-3.865466199009912618e-01,0.000000000000000000e+00
3.690000000000000000e+02,-1.446782578786205975e-01,0.000000000000000000e+00
3.700000000000000000e+02,2.230243976952683560e-01,0.000000000000000000e+00
3.710000000000000000e+02,2.356573250396984121e-01,0.000000000000000000e+00
3.720000000000000000e+02,1.075809251722580073e-01,0.000000000000000000e+00
3.730000000000000000e+02,5.081868030421140547e-01,0.000000000000000000e+00
3.740000000000000000e+02,-3.145366334645524065e-01,0.000000000000000000e+00
3.750000000000000000e+02,-1.120707358425018230e+00,0.000000000000000000e+00
3.760000000000000000e+02,-1.854355451177713165e+00,0.000000000000000000e+00
3.770000000000000000e+02,-1.846317202618669606e+00,0.000000000000000000e+00
3.780000000000000000e+02,-2.114912048150800583e+00,0.000000000000000000e+00
3.790000000000000000e+02,-1.539738651322861251e+00,0.000000000000000000e+00
3.800000000000000000e+02,1.694724772398950696e+00,1.000000000000000000e+00
3.810000000000000000e+02,1.712647564995233074e+00,0.000000000000000000e+00
3.820000000000000000e+02,1.541503693497731087e+00,0.000000000000000000e+00
3.830000000000000000e+02,1.791582643455341461e+00,0.000000000000000000e+00
3.840000000000000000e+02,1.268470553047528648e+00,0.000000000000000000e+00
3.850000000000000000e+02,6.893803944473151368e-01,0.000000000000000000e+00
3.860000000000000000e+02,1.122487644821700492e+00,0.000000000000000000e+00
3.870000000000000000e+02,7.991101387127645950e-01,0.000000000000000000e+00
3.880000000000000000e+02,1.298517881064722435e+00,0.000000000000000000e+00
3.890000000000000000e+02,9.148523311407300573e-01,0.000000000000000000e+00
3.900000000000000000e+02,8.320288092764417387e-01,0.000000000000000000e+00
3.910000000000000000e+02,1.124543897636455903e+00,0.000000000000000000e+00
3.920000000000000000e+02,1.209880133195582408e+00,0.000000000000000000e+00
3.930000000000000000e+02,1.500347645410494923e+00,0.000000000000000000e+00
3.940000000000000000e+02,1.757885351011617914e+00,0.000000000000000000e+00
3.950000000000000000e+02,7.943546395947409522e-01,0.000000000000000000e+00
3.960000000000000000e+02,3.790952706226320412e-01,0.000000000000000000e+00
3.970000000000000000e+02,-5.766664165292715305e-01,0.000000000000000000e+00
3.980000000000000000e+02,-9.137701808899444389e-01,0.000000000000000000e+00
3.990000000000000000e+02,-9.217226384774629411e-01,0.000000000000000000e+00
4.000000000000000000e+02,-7.090674993485667210e-01,0.000000000000000000e+00
4.010000000000000000e+02,-1.151397821231673779e+00,0.000000000000000000e+00
4.020000000000000000e+02,-4.295029428783622705e-01,0.000000000000000000e+00
4.030000000000000000e+02,-2.804941420918892758e-01,0.000000000000000000e+00
4.040000000000000000e+02,-3.898126510443840620e-01,0.000000000000000000e+00
4.050000000000000000e+02,-6.794779037918935449e-01,0.000000000000000000e+00
4.060000000000000000e+02,-7.121753491827030880e-01,0.000000000000000000e+00
4.070000000000000000e+02,-1.027909238301019101e+00,0.000000000000000000e+00
4.080000000000000000e+02,-9.686840976286732463e-01,0.000000000000000000e+00
4.090000000000000000e+02,-5.991242156386638040e-01,0.000000000000000000e+00
4.100000000000000000e+02,-6.139804289978257890e-01,0.000000000000000000e+00
4.110000000000000000e+02,-2.404681677620580937e-01,0.000000000000000000e+00
4.120000000000000000e+02,-5.490828564841152559e-01,0.000000000000000000e+00
4.130000000000000000e+02,-3.319606137803438051e-02,0.000000000000000000e+00
4.140000000000000000e+02,-9.008137759564763258e-02,0.000000000000000000e+00
4.150000000000000000e+02,-2.691500133238771131e-01,0.000000000000000000e+00
4.160000000000000000e+02,-5.473487307306191818e-01,0.000000000000000000e+00
4.170000000000000000e+02,-2.916593755044883940e-01,0.000000000000000000e+00
4.180000000000000000e+02,-2.674096073011613672e-01,0.000000000000000000e+00
4.190000000000000000e+02,-5.460892757901824046e-01,0.000000000000000000e+00
4.200000000000000000e+02,-1.019334115268085289e-01,0.000000000000000000e+00
4.210000000000000000e+02,-2.362671369981526603e-01,0.000000000000000000e+00
4.220000000000000000e+02,-3.073014529426817409e-01,0.000000000000000000e+00
4.230000000000000000e+02,2.598994627476723385e-01,0.000000000000000000e+00
4.240000000000000000e+02,-3.168010037125997269e-01,0.000000000000000000e+00
4.250000000000000000e+02,3.177380869270211017e-01,0.000000000000000000e+00
4.260000000000000000e+02,-1.411592473625084665e+00,0.000000000000000000e+00
4.270000000000000000e+02,-2.202517933235018877e+00,0.000000000000000000e+00
4.280000000000000000e+02,-2.486731438886518486e+00,0.000000000000000000e+00
4.290000000000000000e+02,-2.082711306710923083e+00,0.000000000000000000e+00
4.300000000000000000e+02,-2.098361893018375834e+00,0.000000000000000000e+00
4.310000000000000000e+02,4.769977090182573876e-01,0.000000000000000000e+00
4.320000000000000000e+02,1.688491410280020810e+00,1.000000000000000000e+00
4.330000000000000000e+02,1.862119150084116104e+00,0.000000000000000000e+00
4.340000000000000000e+02,1.872413656882200295e+00,0.000000000000000000e+00
4.350000000000000000e+02,2.138027957663528600e+00,0.000000000000000000e+00
4.360000000000000000e+02,1.983525419733909612e+00,0.000000000000000000e+00
4.370000000000000000e+02,1.363518651383529345e+00,0.000000000000000000e+00
4.380000000000000000e+02,1.119484598021915245e+00,0.000000000000000000e+00
4.390000000000000000e+02,1.394615454536878074e+00,0.000000000000000000e+00
4.400000000000000000e+02,8.350960814798005227e-01,0.000000000000000000e+00
4.410000000000000000e+02,1.001805777029048494e+00,0.000000000000000000e+00
4.420000000000000000e+02,1.099483791505792674e+00,0.000000000000000000e+00
4.430000000000000000e+02,1.408970027457852936e+00,0.000000000000000000e+00
4.440000000000000000e+02,1.348736753621528228e+00,0.000000000000000000e+00
4.450000000000000000e+02,1.555526837767609249e+00,0.000000000000000000e+00
4.460000000000000000e+02,1.515461323483546785e+00,0.000000000000000000e+00
4.470000000000000000e+02,7.462082086390080526e-01,0.000000000000000000e+00
4.480000000000000000e+02,-4.554086047141477356e-01,0.000000000000000000e+00
4.490000000000000000e+02,-3.999743907375735152e-01,0.000000000000000000e+00
4.500000000000000000e+02,-1.496527367356479621e+00,0.000000000000000000e+00
4.510000000000000000e+02,-1.115434111253075233e+00,0.000000000000000000e+00
4.520000000000000000e+02,-8.040149483250286222e-01,0.000000000000000000e+00
4.530000000000000000e+02,-7.823132380071265990e-01,0.000000000000000000e+00
4.540000000000000000e+02,-8.650869360366091332e-01,0.000000000000000000e+00
4.550000000000000000e+02,-2.245835258229061382e-01,0.000000000000000000e+00
4.560000000000000000e+02,-9.683960355771299711e-02,0.000000000000000000e+00
4.570000000000000000e+02,-1.982360237778979517e-01,0.000000000000000000e+00
4.580000000000000000e+02,-1.047142935606743652e+00,0.000000000000000000e+00
4.590000000000000000e+02,-9.686630122339237037e-01,0.000000000000000000e+00
4.600000000000000000e+02,-1.296730540296432976e-01,0.000000000000000000e+00
4.610000000000000000e+02,-8.724300646574512097e-01,0.000000000000000000e+00
4.620000000000000000e+02,-7.374259645260173857e-01,0.000000000000000000e+00
4.630000000000000000e+02,-6.268239614861087494e-01,0.000000000000000000e+00
4.640000000000000000e+02,-2.907108461603027938e-01,0.000000000000000000e+00
4.650000000000000000e+02,-3.097246627987905732e-01,0.000000000000000000e+00
4.660000000000000000e+02,-5.028971545045488045e-02,0.000000000000000000e+00
4.670000000000000000e+02,1.866038763345602147e-01,0.000000000000000000e+00
4.680000000000000000e+02,-4.634798085208149954e-02,0.000000000000000000e+00
4.690000000000000000e+02,-4.351548877912639890e-01,0.000000000000000000e+00
4.700000000000000000e+02,-3.768418395966935952e-01,0.000000000000000000e+00
4.710000000000000000e+02,-4.647121273773131556e-01,0.000000000000000000e+00
4.720000000000000000e+02,1.059399258678156708e-01,0.000000000000000000e+00
4.730000000000000000e+02,-3.192749672641198022e-01,0.000000000000000000e+00
4.740000000000000000e+02,-5.103103952407966881e-02,0.000000000000000000e+00
4.750000000000000000e+02,1.262334376837652428e-02,0.000000000000000000e+00
4.760000000000000000e+02,-5.085026055577796661e-02,0.000000000000000000e+00
4.770000000000000000e+02,-4.268883164630793980e-01,0.000000000000000000e+00
4.780000000000000000e+02,-1.268684330812347660e+00,0.000000000000000000e+00
4.790000000000000000e+02,-1.884378454254169499e+00,0.000000000000000000e+00
4.800000000000000000e+02,-1.441070664168087712e+00,0.000000000000000000e+00
4.810000000000000000e+02,-1.957065456078061150e+00,0.000000000000000000e+00
4.820000000000000000e+02,4.442281652542012793e-01,0.000000000000000000e+00
4.830000000000000000e+02,1.323337863145962023e+00,1.000000000000000000e+00
4.840000000000000000e+02,1.576721621481187219e+00,0.000000000000000000e+00
4.850000000000000000e+02,8.269924447187017025e-01,0.000000000000000000e+00
4.860000000000000000e+02,1.798679606125732855e+00,0.000000000000000000e+00
4.870000000000000000e+02,1.182544708908997544e+00,0.000000000000000000e+00
4.880000000000000000e+02,1.630016230081840600e+00,0.000000000000000000e+00
4.890000000000000000e+02,1.199167269051669038e+00,0.000000000000000000e+00
4.900000000000000000e+02,9.322333482111820890e-01,0.000000000000000000e+00
4.910000000000000000e+02,7.471764057201057962e-01,0.000000000000000000e+00
4.920000000000000000e+02,9.382692398002633327e-01,0.000000000000000000e+00
4.930000000000000000e+02,1.037049609649549620e+00,0.000000000000000000e+00
4.940000000000000000e+02,1.131252725502860157e+00,0.000000000000000000e+00
4.950000000000000000e+02,8.872609409263721991e-01,0.000000000000000000e+00
4.960000000000000000e+02,8.675284768699424998e-01,0.000000000000000000e+00
4.970000000000000000e+02,8.326341467822987452e-01,0.000000000000000000e+00
4.980000000000000000e+02,1.200185926516600388e+00,0.000000000000000000e+00
4.990000000000000000e+02,6.250879089516001574e-01,0.000000000000000000e+00
5.000000000000000000e+02,-4.749194857589335989e-02,0.000000000000000000e+00
5.010000000000000000e+02,-7.566740724536481499e-01,0.000000000000000000e+00
5.020000000000000000e+02,-1.104279445127797965e+00,0.000000000000000000e+00
5.030000000000000000e+02,-8.698455689201882723e-01,0.000000000000000000e+00
5.040000000000000000e+02,-9.762184349884452939e-01,0.000000000000000000e+00
5.050000000000000000e+02,-7.782715059701620364e-01,0.000000000000000000e+00
5.060000000000000000e+02,-5.885899456060057489e-01,0.000000000000000000e+00
5.070000000000000000e+02,-2.988410800511338006e-01,0.000000000000000000e+00
5.080000000000000000e+02,-3.892724178071363950e-01,0.000000000000000000e+00
5.090000000000000000e+02,-4.644427185409734649e-01,0.000000000000000000e+00
5.100000000000000000e+02,-2.065879358736450733e-01,0.000000000000000000e+00
5.110000000000000000e+02,-8.202894958060414909e-01,0.000000000000000000e+00
5.120000000000000000e+02,-3.405447091571608964e-01,0.000000000000000000e+00
5.130000000000000000e+02,-3.888606994724617683e-01,0.000000000000000000e+00
5.140000000000000000e+02,-7.118748538415298199e-01,0.000000000000000000e+00
5.150000000000000000e+02,8.956691223133779467e-02,0.000000000000000000e+00
5.160000000000000000e+02,-2.248261893380997245e-01,0.000000000000000000e+00
5.170000000000000000e+02,-7.794145065449018528e-01,0.000000000000000000e+00
5.180000000000000000e+02,1.741581791269010762e-02,0.000000000000000000e+00
5.190000000000000000e+02,1.459763052887186885e-01,0.000000000000000000e+00
5.200000000000000000e+02,-2.741289034123982615e-01,0.000000000000000000e+00
5.210000000000000000e+02,-2.005027346186556703e-01,0.000000000000000000e+00
5.220000000000000000e+02,-1.497848327411909486e-01,0.000000000000000000e+00
5.230000000000000000e+02,-3.407109245069085413e-01,0.000000000000000000e+00
5.240000000000000000e+02,-1.277707400395544923e-01,0.000000000000000000e+00
5.250000000000000000e+02,-1.522636879380127595e-01,0.000000000000000000e+00
5.260000000000000000e+02,-9.569876547796886401e-02,0.000000000000000000e+00
5.270000000000000000e+02,-2.245576389144860741e-01,0.000000000000000000e+00
5.280000000000000000e+02,-6.803588261058037823e-01,0.000000000000000000e+00
5.290000000000000000e+02,-9.780872038177030880e-01,0.000000000000000000e+00
5.300000000000000000e+02,-1.368167680288138843e+00,0.000000000000000000e+00
5.310000000000000000e+02,-1.476471592346805917e+00,0.000000000000000000e+00
5.320000000000000000e+02,-2.007700212236909643e+00,0.000000000000000000e+00
5.330000000000000000e+02,-4.143469781507433392e-01,0.000000000000000000e+00
5.340000000000000000e+02,1.827337897966549107e+00,1.000000000000000000e+00
5.350000000000000000e+02,1.360536539452811722e+00,0.000000000000000000e+00
5.360000000000000000e+02,1.284515719613638751e+00,0.000000000000000000e+00
5.370000000000000000e+02,7.365590578296306035e-01,0.000000000000000000e+00
5.380000000000000000e+02,7.004451031735394739e-01,0.000000000000000000e+00
5.390000000000000000e+02,1.100491320314708865e+00,0.000000000000000000e+00
5.400000000000000000e+02,1.203332222526460438e+00,0.000000000000000000e+00
5.410000000000000000e+02,9.821523492303945169e-01,0.000000000000000000e+00
5.420000000000000000e+02,8.308604275849297283e-01,0.000000000000000000e+00
5.430000000000000000e+02,8.825762147039346583e-01,0.000000000000000000e+00
5.440000000000000000e+02,9.329948344909331226e-01,0.000000000000000000e+00
5.450000000000000000e+02,6.401330202623767285e-01,0.000000000000000000e+00
5.460000000000000000e+02,4.108823564206198764e-01,0.000000000000000000e+00
5.470000000000000000e+02,6.117582905117879832e-01,0.000000000000000000e+00
5.480000000000000000e+02,4.430334601865793531e-01,0.000000000000000000e+00
5.490000000000000000e+02,8.302427601704230886e-01,0.000000000000000000e+00
5.500000000000000000e+02,6.635707569679828444e-01,0.000000000000000000e+00
5.510000000000000000e+02,-1.640023400419534927e-01,0.000000000000000000e+00
5.520000000000000000e+02,1.349158063812236075e-01,0.000000000000000000e+00
5.530000000000000000e+02,-8.702346926125221760e-01,0.000000000000000000e+00
5.540000000000000000e+02,-1.025387717535414467e+00,0.000000000000000000e+00
5.550000000000000000e+02,-1.015024098817651543e+00,0.000000000000000000e+00
5.560000000000000000e+02,-1.128138997913944008e+00,0.000000000000000000e+00
5.570000000000000000e+02,-6.477552558811037198e-01,0.000000000000000000e+00
5.580000000000000000e+02,-7.798910272609367311e-01,0.000000000000000000e+00
5.590000000000000000e+02,-4.273592249912603336e-01,0.000000000000000000e+00
5.600000000000000000e+02,-3.521345777952240574e-01,0.000000000000000000e+00
5.610000000000000000e+02,2.050330820244238850e-01,0.000000000000000000e+00
5.620000000000000000e+02,-3.748577525864474902e-01,0.000000000000000000e+00
5.630000000000000000e+02,-5.890392229590525330e-01,0.000000000000000000e+00
5.640000000000000000e+02,-1.708832132217534272e-01,0.000000000000000000e+00
5.650000000000000000e+02,-5.719594537926193656e-01,0.000000000000000000e+00
5.660000000000000000e+02,-8.637635854932413926e-01,0.000000000000000000e+00
5.670000000000000000e+02,-1.542181015877409078e-01,0.000000000000000000e+00
5.680000000000000000e+02,-1.699167673276103241e-01,0.000000000000000000e+00
5.690000000000000000e+02,-2.644832828466976982e-01,0.000000000000000000e+00
5.700000000000000000e+02,4.443698821453850312e-01,0.000000000000000000e+00
5.710000000000000000e+02,2.547495611685668959e-01,0.000000000000000000e+00
5.720000000000000000e+02,1.658574071016889750e-01,0.000000000000000000e+00
5.730000000000000000e+02,3.554119165464052210e-02,0.000000000000000000e+00
5.740000000000000000e+02,-2.766620898143790641e-01,0.000000000000000000e+00
5.750000000000000000e+02,-6.586839921873840487e-01,0.000000000000000000e+00
5.760000000000000000e+02,-9.945558278654811901e-02,0.000000000000000000e+00
5.770000000000000000e+02,-1.649101183512636515e-01,0.000000000000000000e+00
5.780000000000000000e+02,5.494920833708923924e-01,0.000000000000000000e+00
5.790000000000000000e+02,1.429028703318145077e-01,0.000000000000000000e+00
5.800000000000000000e+02,-9.668820147473730087e-01,0.000000000000000000e+00
5.810000000000000000e+02,-1.742371713567003821e+00,0.000000000000000000e+00
5.820000000000000000e+02,-1.341859791705205085e+00,0.000000000000000000e+00
5.830000000000000000e+02,-1.761569369606029500e+00,0.000000000000000000e+00
5.840000000000000000e+02,-1.068889099260561748e+00,0.000000000000000000e+00
5.850000000000000000e+02,1.511867951598588888e+00,1.000000000000000000e+00
5.860000000000000000e+02,1.101834787754147227e+00,0.000000000000000000e+00
5.870000000000000000e+02,1.473011967080700702e+00,0.000000000000000000e+00
5.880000000000000000e+02,1.238616992582857845e+00,0.000000000000000000e+00
5.890000000000000000e+02,1.253301878464113672e+00,0.000000000000000000e+00
5.900000000000000000e+02,5.883135999721776921e-01,0.000000000000000000e+00
5.910000000000000000e+02,1.375596947626874789e+00,0.000000000000000000e+00
5.920000000000000000e+02,7.279192457816205941e-01,0.000000000000000000e+00
5.930000000000000000e+02,1.688109620143698919e+00,0.000000000000000000e+00
5.940000000000000000e+02,8.785231364421737243e-01,0.000000000000000000e+00
5.950000000000000000e+02,7.337867552913736047e-01,0.000000000000000000e+00
5.960000000000000000e+02,8.440432737481918801e-01,0.000000000000000000e+00
5.970000000000000000e+02,8.989539165245096219e-01,0.000000000000000000e+00
5.980000000000000000e+02,1.097930658127999282e+00,0.000000000000000000e+00
5.990000000000000000e+02,1.249577966366808512e+00,0.000000000000000000e+00
6.000000000000000000e+02,6.398091283071957180e-01,0.000000000000000000e+00
6.010000000000000000e+02,2.410215875803113084e-01,0.000000000000000000e+00
6.020000000000000000e+02,-4.312662226661778675e-01,0.000000000000000000e+00
6.030000000000000000e+02,-3.271413470935034817e-02,0.000000000000000000e+00
6.040000000000000000e+02,-8.728140056156019622e-01,0.000000000000000000e+00
6.050000000000000000e+02,-7.141134912723340333e-01,0.000000000000000000e+00
6.060000000000000000e+02,-1.084329806357853476e+00,0.000000000000000000e+00
6.070000000000000000e+02,-7.322825091688300869e-01,0.000000000000000000e+00
6.080000000000000000e+02,-7.131472261607799679e-01,0.000000000000000000e+00
6.090000000000000000e+02,-7.845899761706376374e-01,0.000000000000000000e+00
6.100000000000000000e+02,-1.020101322944221067e+00,0.000000000000000000e+00
6.110000000000000000e+02,-5.721784336799887738e-01,0.000000000000000000e+00
6.120000000000000000e+02,-4.372305054989197859e-01,0.000000000000000000e+00
6.130000000000000000e+02,-2.342784551639792434e-01,0.000000000000000000e+00
6.140000000000000000e+02,-5.475636216598878114e-01,0.000000000000000000e+00
6.150000000000000000e+02,-2.528541155973137444e-01,0.000000000000000000e+00
6.160000000000000000e+02,-8.264014082651578441e-01,0.000000000000000000e+00
6.170000000000000000e+02,5.568068295209090135e-02,0.000000000000000000e+00
6.180000000000000000e+02,-6.554439115287613582e-02,0.000000000000000000e+00
6.190000000000000000e+02,-5.042034143239798594e-01,0.000000000000000000e+00
6.200000000000000000e+02,-6.010065226309921904e-01,0.000000000000000000e+00
6.210000000000000000e+02,-3.125035330060121908e-01,0.000000000000000000e+00
6.220000000000000000e+02,-1.460073185841106458e-01,0.000000000000000000e+00
6.230000000000000000e+02,-1.898760508843952977e-01,0.000000000000000000e+00
6.240000000000000000e+02,2.886549843500906820e-01,0.000000000000000000e+00
6.250000000000000000e+02,4.309042615266624465e-01,0.000000000000000000e+00
6.260000000000000000e+02,-2.108092968563565414e-02,0.000000000000000000e+00
6.270000000000000000e+02,2.621948624931171312e-01,0.000000000000000000e+00
6.280000000000000000e+02,-5.282401089513384385e-01,0.000000000000000000e+00
6.290000000000000000e+02,-4.323870550342641117e-01,0.000000000000000000e+00
6.300000000000000000e+02,-4.076769585774532856e-01,0.000000000000000000e+00
6.310000000000000000e+02,-9.920774733550739022e-01,0.000000000000000000e+00
6.320000000000000000e+02,-1.225495618668986264e+00,0.000000000000000000e+00
6.330000000000000000e+02,-1.480233883169208564e+00,0.000000000000000000e+00
6.340000000000000000e+02,-8.931931897034238732e-01,0.000000000000000000e+00
6.350000000000000000e+02,-8.708509325297392190e-01,0.000000000000000000e+00
6.360000000000000000e+02,1.319953529952986093e+00,1.000000000000000000e+00
6.370000000000000000e+02,1.303383122257587567e+00,0.000000000000000000e+00
6.380000000000000000e+02,8.777772046587263288e-01,0.000000000000000000e+00
6.390000000000000000e+02,1.029261078716456002e+00,0.000000000000000000e+00
6.400000000000000000e+02,3.233579683232031265e-01,0.000000000000000000e+00
6.410000000000000000e+02,5.241679347018876056e-01,0.000000000000000000e+00
6.420000000000000000e+02,1.304547781856439492e+00,0.000000000000000000e+00
6.430000000000000000e+02,1.178207394947920372e+00,0.000000000000000000e+00
6.440000000000000000e+02,1.249358597958840189e+00,0.000000000000000000e+00
6.450000000000000000e+02,1.113238298613141275e+00,0.000000000000000000e+00
6.460000000000000000e+02,7.337338785012684772e-01,0.000000000000000000e+00
6.470000000000000000e+02,4.739456431038846507e-01,0.000000000000000000e+00
6.480000000000000000e+02,7.172925004777470637e-01,0.000000000000000000e+00
6.490000000000000000e+02,5.173300180139646098e-01,0.000000000000000000e+00
6.500000000000000000e+02,4.040512808161977887e-01,0.000000000000000000e+00
6.510000000000000000e+02,7.753951864620497458e-01,0.000000000000000000e+00
6.520000000000000000e+02,8.499341360762709963e-01,0.000000000000000000e+00
6.530000000000000000e+02,4.103261866084758069e-01,0.000000000000000000e+00
6.540000000000000000e+02,-1.403368417271959878e-01,0.000000000000000000e+00
6.550000000000000000e+02,-2.106167458905575940e-01,0.000000000000000000e+00
6.560000000000000000e+02,-2.822752398291628606e-01,0.000000000000000000e+00
6.570000000000000000e+02,-8.080738196651968686e-01,0.000000000000000000e+00
6.580000000000000000e+02,-7.402161153040541786e-01,0.000000000000000000e+00
6.590000000000000000e+02,-4.601242244185567154e-01,0.000000000000000000e+00
6.600000000000000000e+02,-7.001052058001273615e-01,0.000000000000000000e+00
6.610000000000000000e+02,-9.548983282673773054e-01,0.000000000000000000e+00
6.620000000000000000e+02,-8.369716367516898403e-01,0.000000000000000000e+00
6.630000000000000000e+02,-5.773653094983701717e-01,0.000000000000000000e+00
6.640000000000000000e+02,-6.140408544833645399e-01,0.000000000000000000e+00
6.650000000000000000e+02,-1.550035041334726638e-01,0.000000000000000000e+00
6.660000000000000000e+02,1.340574776583562111e-01,0.000000000000000000e+00
6.670000000000000000e+02,-3.139830197024286451e-01,0.000000000000000000e+00
6.680000000000000000e+02,-2.107015514889564733e-01,0.000000000000000000e+00
6.690000000000000000e+02,-4.051270155268736906e-01,0.000000000000000000e+00
6.700000000000000000e+02,-3.901873750816818309e-01,0.000000000000000000e+00
6.710000000000000000e+02,-6.100514668594084755e-01,0.000000000000000000e+00
6.720000000000000000e+02,-2.628234293784066922e-01,0.000000000000000000e+00
6.730000000000000000e+02,7.463703196361058667e-02,0.000000000000000000e+00
6.740000000000000000e+02,-2.483245217740705502e-01,0.000000000000000000e+00
6.750000000000000000e+02,9.585023884047519371e-02,0.000000000000000000e+00
6.760000000000000000e+02,6.384113892288882930e-01,0.000000000000000000e+00
6.770000000000000000e+02,-1.327855010635324851e-01,0.000000000000000000e+00
6.780000000000000000e+02,-2.566611512802909334e-01,0.000000000000000000e+00
6.790000000000000000e+02,1.280403799345639637e-01,0.000000000000000000e+00
6.800000000000000000e+02,-5.133617439762943047e-01,0.000000000000000000e+00
6.810000000000000000e+02,-2.686596489014997369e-01,0.000000000000000000e+00
6.820000000000000000e+02,-9.754824560490886753e-01,0.000000000000000000e+00
6.830000000000000000e+02,-1.227720778871219220e+00,0.000000000000000000e+00
6.840000000000000000e+02,-1.107883278681521144e+00,0.000000000000000000e+00
6.850000000000000000e+02,-1.427616897723003486e+00,0.000000000000000000e+00
6.860000000000000000e+02,-8.010899867431859889e-01,0.000000000000000000e+00
6.870000000000000000e+02,8.373704120123970362e-01,0.000000000000000000e+00
6.880000000000000000e+02,1.460340721860160951e+00,1.000000000000000000e+00
6.890000000000000000e+02,1.157452349285631010e+00,0.000000000000000000e+00
6.900000000000000000e+02,8.038027225751739335e-01,0.000000000000000000e+00
6.910000000000000000e+02,6.174600979482989249e-01,0.000000000000000000e+00
6.920000000000000000e+02,8.586918417443649698e-01,0.000000000000000000e+00
6.930000000000000000e+02,8.594243790035706043e-01,0.000000000000000000e+00
6.940000000000000000e+02,8.380259972627366327e-01,0.000000000000000000e+00
6.950000000000000000e+02,7.519967404611085371e-01,0.000000000000000000e+00
6.960000000000000000e+02,1.351559725592090144e+00,0.000000000000000000e+00
6.970000000000000000e+02,1.025671764362898530e+00,0.000000000000000000e+00
6.980000000000000000e+02,1.086037231603247166e+00,0.000000000000000000e+00
6.990000000000000000e+02,6.871874065453145164e-01,0.000000000000000000e+00
7.000000000000000000e+02,7.234599269293240376e-01,0.000000000000000000e+00
7.010000000000000000e+02,5.439109381107546382e-01,0.000000000000000000e+00
7.020000000000000000e+02,9.712630182693920977e-01,0.000000000000000000e+00
7.030000000000000000e+02,1.713325417572306719e-01,0.000000000000000000e+00
7.040000000000000000e+02,-3.154533153629576203e-01,0.000000000000000000e+00
7.050000000000000000e+02,1.129077841614162664e-01,0.000000000000000000e+00
7.060000000000000000e+02,-8.660889343859000666e-01,0.000000000000000000e+00
7.070000000000000000e+02,-1.858749097508406445e-01,0.000000000000000000e+00
7.080000000000000000e+02,-2.843949311544949343e-01,0.000000000000000000e+00
7.090000000000000000e+02,-7.153405338550443693e-01,0.000000000000000000e+00
7.100000000000000000e+02,-4.720610372970244217e-01,0.000000000000000000e+00
7.110000000000000000e+02,-6.299545117850157139e-01,0.000000000000000000e+00
7.120000000000000000e+02,-9.940644385160152252e-01,0.000000000000000000e+00
7.130000000000000000e+02,-1.060334483729319377e+00,0.000000000000000000e+00
7.140000000000000000e+02,-7.944783634818537443e-01,0.000000000000000000e+00
7.150000000000000000e+02,-8.815692303708040356e-01,0.000000000000000000e+00
7.160000000000000000e+02,-2.069347386067972305e-01,0.000000000000000000e+00
7.170000000000000000e+02,4.823364364103872501e-04,0.000000000000000000e+00
7.180000000000000000e+02,5.687269692991533399e-01,0.000000000000000000e+00
7.190000000000000000e+02,5.807342853924002402e-01,0.000000000000000000e+00
7.200000000000000000e+02,-5.783086930638247081e-01,0.000000000000000000e+00
7.210000000000000000e+02,-4.452498602822632656e-01,0.000000000000000000e+00
7.220000000000000000e+02,-9.247840063064978189e-01,0.000000000000000000e+00
7.230000000000000000e+02,-8.520790423167722005e-02,0.000000000000000000e+00
7.240000000000000000e+02,-4.174011326112340159e-01,0.000000000000000000e+00
7.250000000000000000e+02,-4.147052643614305284e-02,0.000000000000000000e+00
7.260000000000000000e+02,-4.191586006332890246e-01,0.000000000000000000e+00
7.270000000000000000e+02,6.196942478911421359e-01,0.000000000000000000e+00
7.280000000000000000e+02,3.526169712938999612e-01,0.000000000000000000e+00
7.290000000000000000e+02,4.591251236820336618e-02,0.000000000000000000e+00
7.300000000000000000e+02,-3.159584274356697087e-01,0.000000000000000000e+00
7.310000000000000000e+02,-2.208004422152419766e-01,0.000000000000000000e+00
7.320000000000000000e+02,-6.280971839032487569e-01,0.000000000000000000e+00
7.330000000000000000e+02,-9.300572885878880536e-01,0.000000000000000000e+00
7.340000000000000000e+02,-1.893904170629440387e+00,0.000000000000000000e+00
7.350000000000000000e+02,-1.387175959324911334e+00,0.000000000000000000e+00
7.360000000000000000e+02,-1.619097710720674099e+00,0.000000000000000000e+00
7.370000000000000000e+02,-1.441382092693205053e+00,0.000000000000000000e+00
7.380000000000000000e+02,1.688130195987186666e-01,0.000000000000000000e+00
7.390000000000000000e+02,2.114838997348598149e+00,1.000000000000000000e+00
7.400000000000000000e+02,7.883897583914618590e-01,0.000000000000000000e+00
7.410000000000000000e+02,1.093990832576471117e+00,0.000000000000000000e+00
7.420000000000000000e+02,7.483340567646337149e-01,0.000000000000000000e+00
7.430000000000000000e+02,3.760295363688767600e-01,0.000000000000000000e+00
7.440000000000000000e+02,1.035017874823640938e+00,0.000000000000000000e+00
7.450000000000000000e+02,1.376968962427863818e+00,0.000000000000000000e+00
7.460000000000000000e+02,8.134776143655584324e-01,0.000000000000000000e+00
7.470000000000000000e+02,7.171957039885955565e-01,0.000000000000000000e+00
7.480000000000000000e+02,1.141785130785435198e+00,0.000000000000000000e+00
7.490000000000000000e+02,9.193793923680062541e-01,0.000000000000000000e+00
7.500000000000000000e+02,1.114216524015187337e+00,0.000000000000000000e+00
7.510000000000000000e+02,8.140727301445943587e-01,0.000000000000000000e+00
7.520000000000000000e+02,1.009160296046567096e+00,0.000000000000000000e+00
7.530000000000000000e+02,8.138758488032793448e-01,0.000000000000000000e+00
7.540000000000000000e+02,5.018428618899832827e-01,0.000000000000000000e+00
7.550000000000000000e+02,2.906955928604746942e-01,0.000000000000000000e+00
7.560000000000000000e+02,-3.308516007513579993e-01,0.000000000000000000e+00
7.570000000000000000e+02,-2.993498574948079693e-01,0.000000000000000000e+00
7.580000000000000000e+02,-7.639451930765688292e-01,0.000000000000000000e+00
7.590000000000000000e+02,-6.807436717235202384e-01,0.000000000000000000e+00
7.600000000000000000e+02,-2.058421970952835911e-01,0.000000000000000000e+00
7.610000000000000000e+02,-2.767373132220692922e-01,0.000000000000000000e+00
7.620000000000000000e+02,-6.355688998091219011e-01,0.000000000000000000e+00
7.630000000000000000e+02,-7.836605243779729557e-01,0.000000000000000000e+00
7.640000000000000000e+02,-8.813352568957093514e-01,0.000000000000000000e+00
7.650000000000000000e+02,-8.327151464100445155e-01,0.000000000000000000e+00
7.660000000000000000e+02,-5.401481882625673858e-01,0.000000000000000000e+00
7.670000000000000000e+02,-4.196448974366213669e-01,0.000000000000000000e+00
7.680000000000000000e+02,-2.059706961893572330e-01,0.000000000000000000e+00
7.690000000000000000e+02,-1.713749535491457809e-01,0.000000000000000000e+00
7.700000000000000000e+02,4.332904782039281311e-01,0.000000000000000000e+00
7.710000000000000000e+02,1.512198768680005356e-01,0.000000000000000000e+00
7.720000000000000000e+02,-3.560728160460230329e-01,0.000000000000000000e+00
7.730000000000000000e+02,-7.852324515251617176e-02,0.000000000000000000e+00
7.740000000000000000e+02,-4.720321166446243000e-01,0.000000000000000000e+00
7.750000000000000000e+02,-3.560488739008640935e-01,0.000000000000000000e+00
7.760000000000000000e+02,-4.170896174793562450e-01,0.000000000000000000e+00
7.770000000000000000e+02,2.106552593340373924e-01,0.000000000000000000e+00
7.780000000000000000e+02,2.690726619543872267e-01,0.000000000000000000e+00
7.790000000000000000e+02,6.353498472639709793e-02,0.000000000000000000e+00
7.800000000000000000e+02,7.202719943993243223e-01,0.000000000000000000e+00
7.810000000000000000e+02,2.189605467995135116e-03,0.000000000000000000e+00
7.820000000000000000e+02,-4.443894084396746713e-01,0.000000000000000000e+00
7.830000000000000000e+02,-4.449160547068310018e-02,0.000000000000000000e+00
7.840000000000000000e+02,-4.470239074242652322e-01,0.000000000000000000e+00
7.850000000000000000e+02,-1.174017774080765575e+00,0.000000000000000000e+00
7.860000000000000000e+02,-1.799738814342801474e+00,0.000000000000000000e+00
7.870000000000000000e+02,-1.012804576302870796e+00,0.000000000000000000e+00
7.880000000000000000e+02,-1.287105318876180737e+00,0.000000000000000000e+00
7.890000000000000000e+02,-8.965048846039935793e-01,0.000000000000000000e+00
7.900000000000000000e+02,2.123718157048925637e+00,0.000000000000000000e+00
7.910000000000000000e+02,1.449742096588199969e+00,1.000000000000000000e+00
7.920000000000000000e+02,1.332836324857128218e+00,0.000000000000000000e+00
7.930000000000000000e+02,8.406868528607370772e-01,0.000000000000000000e+00
7.940000000000000000e+02,9.400480070312235981e-01,0.000000000000000000e+00
7.950000000000000000e+02,7.774759388212134636e-01,0.000000000000000000e+00
7.960000000000000000e+02,9.230869348455015277e-01,0.000000000000000000e+00
7.970000000000000000e+02,6.641612633572133717e-01,0.000000000000000000e+00
7.980000000000000000e+02,6.921741690840320649e-01,0.000000000000000000e+00
7.990000000000000000e+02,9.005440359163418007e-01,0.000000000000000000e+00
8.000000000000000000e+02,1.126126738712367903e+00,0.000000000000000000e+00
8.010000000000000000e+02,1.163932794881856303e+00,0.000000000000000000e+00
8.020000000000000000e+02,1.236006684030718894e+00,0.000000000000000000e+00
8.030000000000000000e+02,1.099366862523436073e+00,0.000000000000000000e+00
8.040000000000000000e+02,9.057831812770066326e-01,0.000000000000000000e+00
8.050000000000000000e+02,3.110202167435457410e-01,0.000000000000000000e+00
8.060000000000000000e+02,1.971550803133588492e-01,0.000000000000000000e+00
8.070000000000000000e+02,-3.987290021508421711e-01,0.000000000000000000e+00
8.080000000000000000e+02,-6.328184191938921455e-01,0.000000000000000000e+00
8.090000000000000000e+02,-8.063926151113891549e-01,0.000000000000000000e+00
8.100000000000000000e+02,-7.619792525895724422e-01,0.000000000000000000e+00
8.110000000000000000e+02,-2.934679833950665784e-01,0.000000000000000000e+00
8.120000000000000000e+02,-1.524495307630079066e-01,0.000000000000000000e+00
8.130000000000000000e+02,-6.457925378947130257e-01,0.000000000000000000e+00
8.140000000000000000e+02,-8.466624734039921440e-01,0.000000000000000000e+00
8.150000000000000000e+02,-1.453550865371908696e+00,0.000000000000000000e+00
8.160000000000000000e+02,-7.037033016398415164e-01,0.000000000000000000e+00
8.170000000000000000e+02,-1.121011544572017460e+00,0.000000000000000000e+00
8.180000000000000000e+02,-4.898274945849664941e-01,0.000000000000000000e+00
8.190000000000000000e+02,-8.388103261549400003e-01,0.000000000000000000e+00
8.200000000000000000e+02,-4.588139892327921521e-01,0.000000000000000000e+00
8.210000000000000000e+02,1.031320363861397832e-01,0.000000000000000000e+00
8.220000000000000000e+02,1.490448902768921335e-01,0.000000000000000000e+00
8.230000000000000000e+02,1.130848201924559426e-01,0.000000000000000000e+00
8.240000000000000000e+02,-7.181164919756193310e-01,0.000000000000000000e+00
8.250000000000000000e+02,-4.765400211939941899e-01,0.000000000000000000e+00
8.260000000000000000e+02,-5.348843489318687583e-01,0.000000000000000000e+00
8.270000000000000000e+02,-5.737496266674035894e-01,0.000000000000000000e+00
8.280000000000000000e+02,-9.356459748321065140e-02,0.000000000000000000e+00
8.290000000000000000e+02,-2.353767894521763548e-01,0.000000000000000000e+00
8.300000000000000000e+02,1.434667189021931188e-01,0.000000000000000000e+00
8.310000000000000000e+02,4.581115501948576085e-01,0.000000000000000000e+00
8.320000000000000000e+02,4.500438228146338426e-01,0.000000000000000000e+00
8.330000000000000000e+02,-2.267070973620030905e-01,0.000000000000000000e+00
8.340000000000000000e+02,-2.406812475429093989e-01,0.000000000000000000e+00
8.350000000000000000e+02,-4.898230848581381913e-01,0.000000000000000000e+00
8.360000000000000000e+02,-1.118304316500453144e+00,0.000000000000000000e+00
8.370000000000000000e+02,-1.384209942926036607e+00,0.000000000000000000e+00
8.380000000000000000e+02,-1.331951945277171978e+00,0.000000000000000000e+00
8.390000000000000000e+02,-1.754079759588127896e+00,0.000000000000000000e+00
8.400000000000000000e+02,-7.508510708795993471e-01,0.000000000000000000e+00
8.410000000000000000e+02,1.367519259579802027e+00,1.000000000000000000e+00
8.420000000000000000e+02,1.618291859438844238e+00,0.000000000000000000e+00
8.430000000000000000e+02,1.541290525127786193e+00,0.000000000000000000e+00
8.440000000000000000e+02,6.933167938523154827e-01,0.000000000000000000e+00
8.450000000000000000e+02,8.259012945939968597e-01,0.000000000000000000e+00
8.460000000000000000e+02,4.788844098056933007e-01,0.000000000000000000e+00
8.470000000000000000e+02,9.996363213042507301e-01,0.000000000000000000e+00
8.480000000000000000e+02,7.936803195313413273e-01,0.000000000000000000e+00
8.490000000000000000e+02,5.161272454808774057e-01,0.000000000000000000e+00
8.500000000000000000e+02,8.273881918206967834e-01,0.000000000000000000e+00
8.510000000000000000e+02,9.260142458214798422e-01,0.000000000000000000e+00
8.520000000000000000e+02,9.167912565939598801e-01,0.000000000000000000e+00
8.530000000000000000e+02,1.144351917220979287e+00,0.000000000000000000e+00
8.540000000000000000e+02,1.009891425630231598e+00,0.000000000000000000e+00
8.550000000000000000e+02,6.273966996152958719e-01,0.000000000000000000e+00
8.560000000000000000e+02,9.396391567862666383e-01,0.000000000000000000e+00
8.570000000000000000e+02,2.518698802716584639e-01,0.000000000000000000e+00
8.580000000000000000e+02,3.232259750399314457e-01,0.000000000000000000e+00
8.590000000000000000e+02,-7.164670148679156414e-01,0.000000000000000000e+00
8.600000000000000000e+02,-1.099953704095099738e+00,0.000000000000000000e+00
8.610000000000000000e+02,-6.823930868341530065e-01,0.000000000000000000e+00
8.620000000000000000e+02,-1.064236955148393227e+00,0.000000000000000000e+00
8.630000000000000000e+02,-2.350266690909083855e-01,0.000000000000000000e+00
8.640000000000000000e+02,-2.009681847645390929e-01,0.000000000000000000e+00
8.650000000000000000e+02,-5.810550286295592670e-01,0.000000000000000000e+00
8.660000000000000000e+02,-5.506833224895035794e-01,0.000000000000000000e+00
8.670000000000000000e+02,-6.074894525190919214e-01,0.000000000000000000e+00
8.680000000000000000e+02,-5.495898553350700988e-01,0.000000000000000000e+00
8.690000000000000000e+02,-4.957301911051599785e-01,0.000000000000000000e+00
8.700000000000000000e+02,-9.113248450497057895e-01,0.000000000000000000e+00
8.710000000000000000e+02,-2.378627316143923920e-01,0.000000000000000000e+00
8.720000000000000000e+02,-4.365521913448129898e-01,0.000000000000000000e+00
8.730000000000000000e+02,-2.434256369319149627e-01,0.000000000000000000e+00
8.740000000000000000e+02,1.244122707823975965e-01,0.000000000000000000e+00
8.750000000000000000e+02,-3.957715419364696979e-02,0.000000000000000000e+00
8.760000000000000000e+02,3.953189056341324115e-01,0.000000000000000000e+00
8.770000000000000000e+02,-5.224628243083540013e-01,0.000000000000000000e+00
8.780000000000000000e+02,-1.595592184903601440e-01,0.000000000000000000e+00
8.790000000000000000e+02,-7.590924369538961658e-01,0.000000000000000000e+00
8.800000000000000000e+02,-3.444377039728171996e-01,0.000000000000000000e+00
8.810000000000000000e+02,-3.552517911087786362e-01,0.000000000000000000e+00
8.820000000000000000e+02,-3.249529077202892857e-01,0.000000000000000000e+00
8.830000000000000000e+02,4.661486451430932876e-01,0.000000000000000000e+00
8.840000000000000000e+02,7.696245674771748924e-01,0.000000000000000000e+00
8.850000000000000000e+02,7.196534875204401160e-01,0.000000000000000000e+00
8.860000000000000000e+02,7.940134317466565617e-02,0.000000000000000000e+00
8.870000000000000000e+02,-1.169377801505177894e+00,0.000000000000000000e+00
8.880000000000000000e+02,-1.790408834525816451e+00,0.000000000000000000e+00
8.890000000000000000e+02,-1.295783769343798797e+00,0.000000000000000000e+00
8.900000000000000000e+02,-1.767320215340601575e+00,0.000000000000000000e+00
8.910000000000000000e+02,-1.655643457661776896e+00,0.000000000000000000e+00
8.920000000000000000e+02,5.617083698362485000e-01,0.000000000000000000e+00
8.930000000000000000e+02,2.179688325955266404e+00,1.000000000000000000e+00
8.940000000000000000e+02,1.848079494713265492e+00,0.000000000000000000e+00
8.950000000000000000e+02,1.712937546709474734e+00,0.000000000000000000e+00
8.960000000000000000e+02,9.899523432495236364e-01,0.000000000000000000e+00
8.970000000000000000e+02,9.013549626478815080e-01,0.000000000000000000e+00
8.980000000000000000e+02,8.059768094485458834e-01,0.000000000000000000e+00
8.990000000000000000e+02,4.430257144436926531e-01,0.000000000000000000e+00
9.000000000000000000e+02,7.536685360422923363e-01,0.000000000000000000e+00
9.010000000000000000e+02,8.338766134275481523e-01,0.000000000000000000e+00
9.020000000000000000e+02,1.453942147003643104e+00,0.000000000000000000e+00
9.030000000000000000e+02,1.348506006445239436e+00,0.000000000000000000e+00
9.040000000000000000e+02,1.193321838700832638e+00,0.000000000000000000e+00
9.050000000000000000e+02,1.142844357716398918e+00,0.000000000000000000e+00
9.060000000000000000e+02,1.535242631955250125e+00,0.000000000000000000e+00
9.070000000000000000e+02,7.825656899712646331e-01,0.000000000000000000e+00
9.080000000000000000e+02,4.147969832212314856e-01,0.000000000000000000e+00
9.090000000000000000e+02,1.998587029339776999e-01,0.000000000000000000e+00
9.100000000000000000e+02,-7.174047062941106834e-01,0.000000000000000000e+00
9.110000000000000000e+02,-4.974266077204967940e-01,0.000000000000000000e+00
9.120000000000000000e+02,-1.094825861162246117e+00,0.000000000000000000e+00
9.130000000000000000e+02,-1.079604090764132440e+00,0.000000000000000000e+00
9.140000000000000000e+02,-5.628926212644760341e-01,0.000000000000000000e+00
9.150000000000000000e+02,-2.571915914096318811e-01,0.000000000000000000e+00
9.160000000000000000e+02,-5.585744881080499935e-01,0.000000000000000000e+00
9.170000000000000000e+02,-4.650874967138264870e-01,0.000000000000000000e+00
9.180000000000000000e+02,-8.182701881007617972e-01,0.000000000000000000e+00
9.190000000000000000e+02,-9.293410525131517996e-01,0.000000000000000000e+00
9.200000000000000000e+02,-6.740004511780288421e-02,0.000000000000000000e+00
9.210000000000000000e+02,-5.411166965593218192e-01,0.000000000000000000e+00
9.220000000000000000e+02,-7.082254412472670513e-01,0.000000000000000000e+00
9.230000000000000000e+02,-8.270182282087357173e-01,0.000000000000000000e+00
9.240000000000000000e+02,-4.082785269833593134e-01,0.000000000000000000e+00
9.250000000000000000e+02,-1.935494588111515840e-02,0.000000000000000000e+00
9.260000000000000000e+02,-3.326337164706838490e-01,0.000000000000000000e+00
9.270000000000000000e+02,-1.406427302657882183e-01,0.000000000000000000e+00
9.280000000000000000e+02,-4.026788248377212720e-01,0.000000000000000000e+00
9.290000000000000000e+02,-3.079584964776408418e-01,0.000000000000000000e+00
9.300000000000000000e+02,-1.747621672458474218e-01,0.000000000000000000e+00
9.310000000000000000e+02,-2.595724752665608537e-01,0.000000000000000000e+00
9.320000000000000000e+02,-6.155032740978689798e-01,0.000000000000000000e+00
9.330000000000000000e+02,-3.105179499560785650e-01,0.000000000000000000e+00
9.340000000000000000e+02,-5.966435685620503915e-02,0.000000000000000000e+00
9.350000000000000000e+02,-1.773074825746808261e-02,0.000000000000000000e+00
9.360000000000000000e+02,-2.906450109474885413e-02,0.000000000000000000e+00
9.370000000000000000e+02,5.622031148376085419e-01,0.000000000000000000e+00
9.380000000000000000e+02,-5.181070151052951100e-01,0.000000000000000000e+00
9.390000000000000000e+02,-2.083874331818194481e+00,0.000000000000000000e+00
9.400000000000000000e+02,-2.478225907074190104e+00,0.000000000000000000e+00
9.410000000000000000e+02,-2.209358496328990284e+00,0.000000000000000000e+00
9.420000000000000000e+02,-2.683174388038966907e+00,0.000000000000000000e+00
9.430000000000000000e+02,-5.846751801701257634e-01,0.000000000000000000e+00
9.440000000000000000e+02,1.932765151844793916e+00,1.000000000000000000e+00
9.450000000000000000e+02,1.908233006690460698e+00,0.000000000000000000e+00
9.460000000000000000e+02,2.080424545762257882e+00,0.000000000000000000e+00
9.470000000000000000e+02,2.405623894634554727e+00,0.000000000000000000e+00
9.480000000000000000e+02,1.583446644988308671e+00,0.000000000000000000e+00
9.490000000000000000e+02,1.337115935115879450e+00,0.000000000000000000e+00
9.500000000000000000e+02,9.959702674599503203e-01,0.000000000000000000e+00
9.510000000000000000e+02,1.036061658421892462e+00,0.000000000000000000e+00
9.520000000000000000e+02,1.128208139494561557e+00,0.000000000000000000e+00
9.530000000000000000e+02,1.170247835734269826e+00,0.000000000000000000e+00
9.540000000000000000e+02,1.124410709833111977e+00,0.000000000000000000e+00
9.550000000000000000e+02,2.123482569890144500e+00,0.000000000000000000e+00
9.560000000000000000e+02,1.409647283560694575e+00,0.000000000000000000e+00
9.570000000000000000e+02,1.599700687019195211e+00,0.000000000000000000e+00
9.580000000000000000e+02,1.559435243111152447e+00,0.000000000000000000e+00
9.590000000000000000e+02,2.565294583266412576e-01,0.000000000000000000e+00
9.600000000000000000e+02,-1.443831335022270450e-02,0.000000000000000000e+00
9.610000000000000000e+02,-9.856288531171464307e-01,0.000000000000000000e+00
9.620000000000000000e+02,-7.113348446167725436e-01,0.000000000000000000e+00
9.630000000000000000e+02,-1.207728755840090429e+00,0.000000000000000000e+00
9.640000000000000000e+02,-8.760343529424258202e-01,0.000000000000000000e+00
9.650000000000000000e+02,-9.990584012571760431e-01,0.000000000000000000e+00
9.660000000000000000e+02,-1.054835965524489882e+00,0.000000000000000000e+00
9.670000000000000000e+02,-9.539139363786697245e-01,0.000000000000000000e+00
9.680000000000000000e+02,-7.997659377510616396e-01,0.000000000000000000e+00
9.690000000000000000e+02,-1.945993912658542102e-01,0.000000000000000000e+00
9.700000000000000000e+02,-7.492339311733465790e-01,0.000000000000000000e+00
9.710000000000000000e+02,-1.049137926521864994e+00,0.000000000000000000e+00
9.720000000000000000e+02,-4.173207697207970690e-01,0.000000000000000000e+00
9.730000000000000000e+02,-9.955939907597388672e-01,0.000000000000000000e+00
9.740000000000000000e+02,-9.261719533840494512e-01,0.000000000000000000e+00
9.750000000000000000e+02,-4.939747329284186472e-01,0.000000000000000000e+00
9.760000000000000000e+02,-4.401899855680152518e-01,0.000000000000000000e+00
9.770000000000000000e+02,-3.009359878331873683e-01,0.000000000000000000e+00
9.780000000000000000e+02,-3.582136221541816212e-01,0.000000000000000000e+00
9.790000000000000000e+02,5.560539946225701718e-02,0.000000000000000000e+00
9.800000000000000000e+02,6.702085626371077909e-02,0.000000000000000000e+00
9.810000000000000000e+02,-5.082045506200492113e-01,0.000000000000000000e+00
9.820000000000000000e+02,-5.109306132573417925e-01,0.000000000000000000e+00
9.830000000000000000e+02,-3.271727700250446347e-01,0.000000000000000000e+00
9.840000000000000000e+02,-5.440326914715351014e-01,0.000000000000000000e+00
9.850000000000000000e+02,-1.959505822706972267e-01,0.000000000000000000e+00
9.860000000000000000e+02,-2.322852401089527119e-01,0.000000000000000000e+00
9.870000000000000000e+02,-2.007000895396605922e-01,0.000000000000000000e+00
9.880000000000000000e+02,7.077261930619956898e-01,0.000000000000000000e+00
9.890000000000000000e+02,-2.688554420988634869e-02,0.000000000000000000e+00
9.900000000000000000e+02,-1.493232824321659047e+00,0.000000000000000000e+00
9.910000000000000000e+02,-2.450372735927037748e+00,0.000000000000000000e+00
9.920000000000000000e+02,-2.769310731484342369e+00,0.000000000000000000e+00
9.930000000000000000e+02,-2.193975389445176116e+00,0.000000000000000000e+00
9.940000000000000000e+02,-1.385308369439644860e+00,0.000000000000000000e+00
9.950000000000000000e+02,1.427142592265133292e+00,1.000000000000000000e+00
9.960000000000000000e+02,1.628473138039545409e+00,0.000000000000000000e+00
9.970000000000000000e+02,2.597504700974794467e+00,0.000000000000000000e+00
9.980000000000000000e+02,1.899186957437701606e+00,0.000000000000000000e+00
9.990000000000000000e+02,1.994348036268435154e+00,0.000000000000000000e+00
1.000000000000000000e+03,1.766587415311231313e+00,0.000000000000000000e+00
1.001000000000000000e+03,1.356545898051985777e+00,0.000000000000000000e+00
1.002000000000000000e+03,1.102826663926739004e+00,0.000000000000000000e+00
1.003000000000000000e+03,1.029806007238233123e+00,0.000000000000000000e+00
1.004000000000000000e+03,1.211278903469142909e+00,0.000000000000000000e+00
1.005000000000000000e+03,1.646468664640731383e+00,0.000000000000000000e+00
1.006000000000000000e+03,1.546524763561109461e+00,0.000000000000000000e+00
1.007000000000000000e+03,1.409749608702967061e+00,0.000000000000000000e+00
1.008000000000000000e+03,1.617560013103197525e+00,0.000000000000000000e+00
1.009000000000000000e+03,1.167827985891067621e+00,0.000000000000000000e+00
1.010000000000000000e+03,8.559773570067898962e-01,0.000000000000000000e+00
1.011000000000000000e+03,5.875891967600097576e-01,0.000000000000000000e+00
1.012000000000000000e+03,-4.984882950566751209e-02,0.000000000000000000e+00
1.013000000000000000e+03,-6.914832356356094278e-01,0.000000000000000000e+00
1.014000000000000000e+03,-6.813572587918842460e-01,0.000000000000000000e+00
1.015000000000000000e+03,-6.379822980709881630e-01,0.000000000000000000e+00
1.016000000000000000e+03,-1.287766228111847822e+00,0.000000000000000000e+00
1.017000000000000000e+03,-9.028645188448934933e-01,0.000000000000000000e+00
1.018000000000000000e+03,-8.185283297793817248e-01,0.000000000000000000e+00
1.019000000000000000e+03,-7.425691941181470357e-01,0.000000000000000000e+00
1.020000000000000000e+03,-5.272573694047789639e-01,0.000000000000000000e+00
1.021000000000000000e+03,-2.198619034933819161e-01,0.000000000000000000e+00
1.022000000000000000e+03,-8.941170352445186875e-01,0.000000000000000000e+00
1.023000000000000000e+03,-3.680537771609115882e-01,0.000000000000000000e+00
1.024000000000000000e+03,-3.821883735799183057e-01,0.000000000000000000e+00
1.025000000000000000e+03,-4.810601648054716462e-01,0.000000000000000000e+00
1.026000000000000000e+03,-8.985479185035797345e-01,0.000000000000000000e+00
1.027000000000000000e+03,-7.419189719815674211e-01,0.000000000000000000e+00
1.028000000000000000e+03,-4.841901049511986854e-01,0.000000000000000000e+00
1.029000000000000000e+03,-3.800834057628172391e-01,0.000000000000000000e+00
1.030000000000000000e+03,-1.019034294690852605e-01,0.000000000000000000e+00
1.031000000000000000e+03,-7.413211825382132192e-02,0.000000000000000000e+00
1.032000000000000000e+03,1.537103988055815440e-01,0.000000000000000000e+00
1.033000000000000000e+03,-7.905885951823054050e-03,0.000000000000000000e+00
1.034000000000000000e+03,-3.138491327801976039e-01,0.000000000000000000e+00
1.035000000000000000e+03,-1.743190416494899975e-01,0.000000000000000000e+00
1.036000000000000000e+03,-3.222981727930526730e-01,0.000000000000000000e+00
1.037000000000000000e+03,-1.935191232860116184e-01,0.000000000000000000e+00
1.038000000000000000e+03,-6.576710775918420682e-02,0.000000000000000000e+00
1.039000000000000000e+03,-2.102542480299897654e-01,0.000000000000000000e+00
1.040000000000000000e+03,-1.906522470401165459e-01,0.000000000000000000e+00
1.041000000000000000e+03,-4.187009011069016684e-01,0.000000000000000000e+00
1.042000000000000000e+03,-1.423106961933591430e+00,0.000000000000000000e+00
1.043000000000000000e+03,-1.660409488205859763e+00,0.000000000000000000e+00
1.044000000000000000e+03,-1.829002379868989392e+00,0.000000000000000000e+00
1.045000000000000000e+03,-1.653906568813866773e+00,0.000000000000000000e+00
1.046000000000000000e+03,1.594128689080951178e+00,0.000000000000000000e+00
1.047000000000000000e+03,1.208860695465638901e+00,1.000000000000000000e+00
1.048000000000000000e+03,9.837616894172329651e-01,0.000000000000000000e+00
1.049000000000000000e+03,1.155958714070723259e+00,0.000000000000000000e+00
1.050000000000000000e+03,1.293694838597299501e+00,0.000000000000000000e+00
1.051000000000000000e+03,1.648533616648763189e+00,0.000000000000000000e+00
1.052000000000000000e+03,8.603426713390645020e-01,0.000000000000000000e+00
1.053000000000000000e+03,1.185100308085544452e+00,0.000000000000000000e+00
1.054000000000000000e+03,7.692716316442889113e-01,0.000000000000000000e+00
1.055000000000000000e+03,8.755527547852010040e-01,0.000000000000000000e+00
1.056000000000000000e+03,9.059032965656917957e-01,0.000000000000000000e+00
1.057000000000000000e+03,7.637110560172574170e-01,0.000000000000000000e+00
1.058000000000000000e+03,1.241523541569222733e+00,0.000000000000000000e+00
1.059000000000000000e+03,9.362238483945071188e-01,0.000000000000000000e+00
1.060000000000000000e+03,7.391964746510139017e-01,0.000000000000000000e+00
1.061000000000000000e+03,4.686804044059147967e-01,0.000000000000000000e+00
1.062000000000000000e+03,5.302940067951625869e-01,0.000000000000000000e+00
1.063000000000000000e+03,5.415980430483679359e-02,0.000000000000000000e+00
1.064000000000000000e+03,-7.281303258295256098e-02,0.000000000000000000e+00
1.065000000000000000e+03,-8.948473039717232957e-01,0.000000000000000000e+00
1.066000000000000000e+03,-7.437691783310703686e-01,0.000000000000000000e+00
1.067000000000000000e+03,-5.003334554712995930e-01,0.000000000000000000e+00
1.068000000000000000e+03,-5.064823622517243829e-01,0.000000000000000000e+00
1.069000000000000000e+03,-8.934215515243471017e-01,0.000000000000000000e+00
1.070000000000000000e+03,-6.745571964255420161e-01,0.000000000000000000e+00
1.071000000000000000e+03,-3.764004626205724180e-01,0.000000000000000000e+00
1.072000000000000000e+03,-5.544273580379581734e-01,0.000000000000000000e+00
1.073000000000000000e+03,-2.914806898848402161e-01,0.000000000000000000e+00
1.074000000000000000e+03,-5.536007855702068658e-01,0.000000000000000000e+00
1.075000000000000000e+03,-4.157000990177040500e-01,0.000000000000000000e+00
1.076000000000000000e+03,-1.700930403211781961e-01,0.000000000000000000e+00
1.077000000000000000e+03,-9.226136804801574609e-01,0.000000000000000000e+00
1.078000000000000000e+03,-2.409622500033796189e-01,0.000000000000000000e+00
1.079000000000000000e+03,-4.048105373275084351e-01,0.000000000000000000e+00
1.080000000000000000e+03,-3.151497043693530786e-01,0.000000000000000000e+00
1.081000000000000000e+03,-1.943424595626620788e-01,0.000000000000000000e+00
1.082000000000000000e+03,-5.049959289678784824e-01,0.000000000000000000e+00
1.083000000000000000e+03,-1.402032402525797139e-01,0.000000000000000000e+00
1.084000000000000000e+03,3.518061806547238546e-01,0.000000000000000000e+00
1.085000000000000000e+03,-1.242611590916490594e-01,0.000000000000000000e+00
1.086000000000000000e+03,-9.009243542316732745e-01,0.000000000000000000e+00
1.087000000000000000e+03,-1.781919341835643267e-01,0.000000000000000000e+00
1.088000000000000000e+03,1.715571281108990362e-02,0.000000000000000000e+00
1.089000000000000000e+03,3.904345056651689627e-02,0.000000000000000000e+00
1.090000000000000000e+03,-2.313282314259861305e-01,0.000000000000000000e+00
1.091000000000000000e+03,-1.196956949915294575e-02,0.000000000000000000e+00
1.092000000000000000e+03,-7.704876577173755958e-01,0.000000000000000000e+00
1.093000000000000000e+03,-1.156001089498449597e+00,0.000000000000000000e+00
1.094000000000000000e+03,-1.349091095916378213e+00,0.000000000000000000e+00
1.095000000000000000e+03,-1.548279938855201765e+00,0.000000000000000000e+00
1.096000000000000000e+03,-1.783502776090866604e+00,0.000000000000000000e+00
1.097000000000000000e+03,5.166554803925534900e-01,0.000000000000000000e+00
1.098000000000000000e+03,1.729237368988084445e+00,1.000000000000000000e+00
1.099000000000000000e+03,9.811111033823063377e-01,0.000000000000000000e+00
1.100000000000000000e+03,1.250019327628244747e+00,0.000000000000000000e+00
1.101000000000000000e+03,9.985064911594195847e-01,0.000000000000000000e+00
1.102000000000000000e+03,1.031544720051703168e+00,0.000000000000000000e+00
1.103000000000000000e+03,7.216313391002106004e-01,0.000000000000000000e+00
1.104000000000000000e+03,7.172534399528801563e-01,0.000000000000000000e+00
1.105000000000000000e+03,9.901096904844343127e-01,0.000000000000000000e+00
1.106000000000000000e+03,3.658884838858263433e-01,0.000000000000000000e+00
1.107000000000000000e+03,1.130822475885154388e+00,0.000000000000000000e+00
1.108000000000000000e+03,7.832907359474801101e-01,0.000000000000000000e+00
1.109000000000000000e+03,1.247896190222752555e+00,0.000000000000000000e+00
1.110000000000000000e+03,1.023576773220975733e+00,0.000000000000000000e+00
1.111000000000000000e+03,8.340309350411476697e-01,0.000000000000000000e+00
1.112000000000000000e+03,7.076911521486348722e-01,0.000000000000000000e+00
1.113000000000000000e+03,5.412747681587808390e-01,0.000000000000000000e+00
1.114000000000000000e+03,2.420380540406510406e-01,0.000000000000000000e+00
1.115000000000000000e+03,-6.180943159573455692e-02,0.000000000000000000e+00
1.116000000000000000e+03,-4.133543741558253215e-01,0.000000000000000000e+00
1.117000000000000000e+03,-7.540720024460813020e-01,0.000000000000000000e+00
1.118000000000000000e+03,-6.288472360549872686e-01,0.000000000000000000e+00
1.119000000000000000e+03,-6.372116203084237096e-01,0.000000000000000000e+00
1.120000000000000000e+03,-4.500185587361565931e-01,0.000000000000000000e+00
1.121000000000000000e+03,-6.176195635122848637e-01,0.000000000000000000e+00
1.122000000000000000e+03,-3.877567641053916159e-01,0.000000000000000000e+00
1.123000000000000000e+03,-6.233591507628458706e-01,0.000000000000000000e+00
1.124000000000000000e+03,-6.359664458460213554e-01,0.000000000000000000e+00
1.125000000000000000e+03,-2.184052035127595770e-01,0.000000000000000000e+00
1.126000000000000000e+03,2.513551957822154903e-02,0.000000000000000000e+00
1.127000000000000000e+03,-3.548715269052566956e-01,0.000000000000000000e+00
1.128000000000000000e+03,-5.110378512160738129e-01,0.000000000000000000e+00
1.129000000000000000e+03,-3.173281179029145971e-01,0.000000000000000000e+00
1.130000000000000000e+03,-2.244497553139602197e-01,0.000000000000000000e+00
1.131000000000000000e+03,-4.789601152419260127e-02,0.000000000000000000e+00
1.132000000000000000e+03,-4.684330803953936501e-02,0.000000000000000000e+00
1.133000000000000000e+03,-3.962147304746360676e-01,0.000000000000000000e+00
1.134000000000000000e+03,2.510074957559996767e-01,0.000000000000000000e+00
1.135000000000000000e+03,-6.725973261183929575e-01,0.000000000000000000e+00
1.136000000000000000e+03,6.867796169598693046e-02,0.000000000000000000e+00
1.137000000000000000e+03,-3.302370480054112045e-01,0.000000000000000000e+00
1.138000000000000000e+03,-1.010327885247925134e-01,0.000000000000000000e+00
1.139000000000000000e+03,-2.100741893141411798e-01,0.000000000000000000e+00
1.140000000000000000e+03,4.673229219734414408e-01,0.000000000000000000e+00
1.141000000000000000e+03,-3.096937923961486788e-02,0.000000000000000000e+00
1.142000000000000000e+03,-3.294211842622658121e-02,0.000000000000000000e+00
1.143000000000000000e+03,-4.802855492198428999e-01,0.000000000000000000e+00
1.144000000000000000e+03,-1.340896201673329902e+00,0.000000000000000000e+00
1.145000000000000000e+03,-1.664672481072530852e+00,0.000000000000000000e+00
1.146000000000000000e+03,-1.329776481172328273e+00,0.000000000000000000e+00
1.147000000000000000e+03,-2.302685048499863107e+00,0.000000000000000000e+00
1.148000000000000000e+03,1.824243273835505774e-01,0.000000000000000000e+00
1.149000000000000000e+03,1.873023314307482812e+00,1.000000000000000000e+00
1.150000000000000000e+03,1.287265030301732338e+00,0.000000000000000000e+00
1.151000000000000000e+03,1.236049925344455236e+00,0.000000000000000000e+00
1.152000000000000000e+03,8.418210125637887176e-01,0.000000000000000000e+00
1.153000000000000000e+03,9.846432933478587168e-01,0.000000000000000000e+00
1.154000000000000000e+03,8.760174903696460458e-01,0.000000000000000000e+00
1.155000000000000000e+03,5.896099286216799351e-01,0.000000000000000000e+00
1.156000000000000000e+03,9.957926546700901493e-01,0.000000000000000000e+00
1.157000000000000000e+03,4.152813804763404448e-01,0.000000000000000000e+00
1.158000000000000000e+03,1.044254660845504334e+00,0.000000000000000000e+00
1.159000000000000000e+03,9.368870630689130063e-01,0.000000000000000000e+00
1.160000000000000000e+03,1.072723396678636254e+00,0.000000000000000000e+00
1.161000000000000000e+03,8.181377598405764617e-01,0.000000000000000000e+00
1.162000000000000000e+03,1.424621666964601241e+00,0.000000000000000000e+00
1.163000000000000000e+03,7.448121386915557141e-01,0.000000000000000000e+00
1.164000000000000000e+03,5.232719585240515059e-01,0.000000000000000000e+00
1.165000000000000000e+03,4.102973036501475490e-02,0.000000000000000000e+00
1.166000000000000000e+03,-4.659325796374844675e-01,0.000000000000000000e+00
1.167000000000000000e+03,-8.554794307923745400e-01,0.000000000000000000e+00
1.168000000000000000e+03,-5.430231179422757570e-01,0.000000000000000000e+00
1.169000000000000000e+03,-4.379989588167512715e-01,0.000000000000000000e+00
1.170000000000000000e+03,-1.284423541696939175e+00,0.000000000000000000e+00
1.171000000000000000e+03,-6.747485335214946645e-01,0.000000000000000000e+00
1.172000000000000000e+03,-6.563433517958604524e-01,0.000000000000000000e+00
1.173000000000000000e+03,-1.021007992833139033e+00,0.000000000000000000e+00
1.174000000000000000e+03,-7.328177923679355388e-01,0.000000000000000000e+00
1.175000000000000000e+03,-8.712692507519921303e-01,0.000000000000000000e+00
1.176000000000000000e+03,-4.696747526548479268e-01,0.000000000000000000e+00
1.177000000000000000e+03,-4.895738932076855177e-01,0.000000000000000000e+00
1.178000000000000000e+03,-3.204853142649967679e-01,0.000000000000000000e+00
1.179000000000000000e+03,-1.986665495136379356e-01,0.000000000000000000e+00
1.180000000000000000e+03,-5.331761520463877968e-01,0.000000000000000000e+00
1.181000000000000000e+03,-3.702572471002903987e-01,0.000000000000000000e+00
1.182000000000000000e+03,-3.428229566589245936e-01,0.000000000000000000e+00
1.183000000000000000e+03,-2.344174894342123117e-01,0.000000000000000000e+00
1.184000000000000000e+03,-1.688222318158539847e-01,0.000000000000000000e+00
1.185000000000000000e+03,-2.851232573420895214e-02,0.000000000000000000e+00
1.186000000000000000e+03,2.460707867346576851e-03,0.000000000000000000e+00
1.187000000000000000e+03,5.511556342899664312e-03,0.000000000000000000e+00
1.188000000000000000e+03,-1.930970832440147833e-01,0.000000000000000000e+00
1.189000000000000000e+03,8.055708083148148402e-02,0.000000000000000000e+00
1.190000000000000000e+03,-1.577394747802109143e-01,0.000000000000000000e+00
1.191000000000000000e+03,3.156309216520954974e-01,0.000000000000000000e+00
1.192000000000000000e+03,4.064654873126902768e-01,0.000000000000000000e+00
1.193000000000000000e+03,2.297278518171460837e-01,0.000000000000000000e+00
1.194000000000000000e+03,-7.305348846007013730e-01,0.000000000000000000e+00
1.195000000000000000e+03,-1.413986628971318549e+00,0.000000000000000000e+00
1.196000000000000000e+03,-2.277617762960165937e+00,0.000000000000000000e+00
1.197000000000000000e+03,-2.144680529901890065e+00,0.000000000000000000e+00
1.198000000000000000e+03,-2.380643668665076707e+00,0.000000000000000000e+00
1.199000000000000000e+03,-5.007726514833399367e-01,0.000000000000000000e+00
1.200000000000000000e+03,1.931212242822470504e+00,1.000000000000000000e+00
1.201000000000000000e+03,2.073794904898493829e+00,0.000000000000000000e+00
1.202000000000000000e+03,2.118689135103139165e+00,0.000000000000000000e+00
1.203000000000000000e+03,1.237198592676707953e+00,0.000000000000000000e+00
1.204000000000000000e+03,1.618928707210007811e+00,0.000000000000000000e+00
1.205000000000000000e+03,8.165500898221389470e-01,0.000000000000000000e+00
1.206000000000000000e+03,1.564109907394143129e+00,0.000000000000000000e+00
1.207000000000000000e+03,1.845266850796808855e+00,0.000000000000000000e+00
1.208000000000000000e+03,1.271199671699982936e+00,0.000000000000000000e+00
1.209000000000000000e+03,1.591399064047827938e+00,0.000000000000000000e+00
1.210000000000000000e+03,1.811299734338767564e+00,0.000000000000000000e+00
1.211000000000000000e+03,1.324451618591022450e+00,0.000000000000000000e+00
1.212000000000000000e+03,1.117761221172456576e+00,0.000000000000000000e+00
1.213000000000000000e+03,1.214552663416001543e+00,0.000000000000000000e+00
1.214000000000000000e+03,7.132481498329016345e-01,0.000000000000000000e+00
1.215000000000000000e+03,6.648114915277295589e-01,0.000000000000000000e+00
1.216000000000000000e+03,-8.333266149164475500e-02,0.000000000000000000e+00
1.217000000000000000e+03,2.946131676692833462e-02,0.000000000000000000e+00
1.218000000000000000e+03,-5.753226133789265395e-01,0.000000000000000000e+00
1.219000000000000000e+03,-5.955580491416739841e-01,0.000000000000000000e+00
1.220000000000000000e+03,-7.265724410516312126e-01,0.000000000000000000e+00
1.221000000000000000e+03,-1.246377206867482546e+00,0.000000000000000000e+00
1.222000000000000000e+03,-1.069911389403630730e+00,0.000000000000000000e+00
1.223000000000000000e+03,-1.240822520892967962e+00,0.000000000000000000e+00
1.224000000000000000e+03,-1.016774072419013075e+00,0.000000000000000000e+00
1.225000000000000000e+03,-8.787217140127945303e-01,0.000000000000000000e+00
1.226000000000000000e+03,-4.440378048798325206e-01,0.000000000000000000e+00
1.227000000000000000e+03,-7.233692882171985916e-01,0.000000000000000000e+00
1.228000000000000000e+03,-7.007092485969782514e-01,0.000000000000000000e+00
1.229000000000000000e+03,-3.651043519853602315e-01,0.000000000000000000e+00
1.230000000000000000e+03,-7.543891583332752448e-01,0.000000000000000000e+00
1.231000000000000000e+03,-2.959455114036900758e-01,0.000000000000000000e+00
1.232000000000000000e+03,-8.907630907072090487e-01,0.000000000000000000e+00
1.233000000000000000e+03,-5.524671485032580653e-01,0.000000000000000000e+00
1.234000000000000000e+03,-3.320251804189484623e-01,0.000000000000000000e+00
1.235000000000000000e+03,-5.245480776948628909e-01,0.000000000000000000e+00
1.236000000000000000e+03,-1.377974932302012123e-01,0.000000000000000000e+00
1.237000000000000000e+03,-3.954246234104574209e-01,0.000000000000000000e+00
1.238000000000000000e+03,3.028207859205181429e-02,0.000000000000000000e+00
1.239000000000000000e+03,-5.593695825324852128e-02,0.000000000000000000e+00
1.240000000000000000e+03,-2.990996654210942296e-01,0.000000000000000000e+00
1.241000000000000000e+03,-2.110946336806224510e-01,0.000000000000000000e+00
1.242000000000000000e+03,-1.077260598607265724e-01,0.000000000000000000e+00
1.243000000000000000e+03,-1.449476207414617246e-01,0.000000000000000000e+00
1.244000000000000000e+03,-1.218781926260555648e-01,0.000000000000000000e+00
1.245000000000000000e+03,-2.340071699700793928e-01,0.000000000000000000e+00
1.246000000000000000e+03,-8.183467154337435989e-01,0.000000000000000000e+00
1.247000000000000000e+03,-1.687247422691124266e+00,0.000000000000000000e+00
1.248000000000000000e+03,-2.381764935674380634e+00,0.000000000000000000e+00
1.249000000000000000e+03,-2.303240393311288603e+00,0.000000000000000000e+00
1.250000000000000000e+03,-1.646701259420336294e+00,0.000000000000000000e+00
1.251000000000000000e+03,1.695765562059219800e+00,1.000000000000000000e+00
1.252000000000000000e+03,1.943132100064149714e+00,0.000000000000000000e+00
1.253000000000000000e+03,1.704543086046879763e+00,0.000000000000000000e+00
1.254000000000000000e+03,1.659338570698514648e+00,0.000000000000000000e+00
1.255000000000000000e+03,1.433171043918416876e+00,0.000000000000000000e+00
1.256000000000000000e+03,1.201846838476840373e+00,0.000000000000000000e+00
1.257000000000000000e+03,1.153850200089334921e+00,0.000000000000000000e+00
1.258000000000000000e+03,1.168830115414434712e+00,0.000000000000000000e+00
1.259000000000000000e+03,1.037483264499689195e+00,0.000000000000000000e+00
1.260000000000000000e+03,1.470166049616287385e+00,0.000000000000000000e+00
1.261000000000000000e+03,1.118071894993813320e+00,0.000000000000000000e+00
1.262000000000000000e+03,1.177351585109547516e+00,0.000000000000000000e+00
1.263000000000000000e+03,1.228176076888155999e+00,0.000000000000000000e+00
1.264000000000000000e+03,1.483931751960124723e+00,0.000000000000000000e+00
1.265000000000000000e+03,1.081986921382381173e+00,0.000000000000000000e+00
1.266000000000000000e+03,7.651642010721236842e-01,0.000000000000000000e+00
1.267000000000000000e+03,3.782835282449052983e-01,0.000000000000000000e+00
1.268000000000000000e+03,2.049026498701197463e-01,0.000000000000000000e+00
1.269000000000000000e+03,-7.275862093513568718e-01,0.000000000000000000e+00
1.270000000000000000e+03,-7.917140552656843910e-01,0.000000000000000000e+00
1.271000000000000000e+03,-6.677594276088806291e-01,0.000000000000000000e+00
1.272000000000000000e+03,-7.948301977932705764e-01,0.000000000000000000e+00
1.273000000000000000e+03,-6.165706637796177780e-01,0.000000000000000000e+00
1.274000000000000000e+03,-6.471595436767777487e-01,0.000000000000000000e+00
1.275000000000000000e+03,-7.319630682291011770e-01,0.000000000000000000e+00
1.276000000000000000e+03,-4.755767776734696195e-01,0.000000000000000000e+00
1.277000000000000000e+03,-5.226343800985078225e-01,0.000000000000000000e+00
1.278000000000000000e+03,-5.639631824495191514e-01,0.000000000000000000e+00
1.279000000000000000e+03,-6.981651034894007513e-01,0.000000000000000000e+00
1.280000000000000000e+03,-4.345277483911734184e-01,0.000000000000000000e+00
1.281000000000000000e+03,-3.603680080177464329e-01,0.000000000000000000e+00
1.282000000000000000e+03,-3.947464106767573089e-01,0.000000000000000000e+00
1.283000000000000000e+03,-4.671240692481827828e-01,0.000000000000000000e+00
1.284000000000000000e+03,-2.247221970002026004e-01,0.000000000000000000e+00
1.285000000000000000e+03,-2.298992581966835536e-01,0.000000000000000000e+00
1.286000000000000000e+03,-1.740128107256274925e-01,0.000000000000000000e+00
1.287000000000000000e+03,-2.755407523004194115e-01,0.000000000000000000e+00
1.288000000000000000e+03,-3.727579680058208944e-01,0.000000000000000000e+00
1.289000000000000000e+03,-4.978271817551294109e-02,0.000000000000000000e+00
1.290000000000000000e+03,3.106233792247081738e-01,0.000000000000000000e+00
1.291000000000000000e+03,-3.066588963870038320e-01,0.000000000000000000e+00
1.292000000000000000e+03,5.416903914233862222e-02,0.000000000000000000e+00
1.293000000000000000e+03,3.252719554835709070e-01,0.000000000000000000e+00
1.294000000000000000e+03,-1.542961539075068111e-01,0.000000000000000000e+00
1.295000000000000000e+03,1.783334991813868009e-01,0.000000000000000000e+00
1.296000000000000000e+03,-7.351887838044907086e-02,0.000000000000000000e+00
1.297000000000000000e+03,-9.659532850403907966e-01,0.000000000000000000e+00
1.298000000000000000e+03,-1.324581353692178221e+00,0.000000000000000000e+00
1.299000000000000000e+03,-1.466520440022192284e+00,0.000000000000000000e+00
1.300000000000000000e+03,-1.621399440721068119e+00,0.000000000000000000e+00
1.301000000000000000e+03,-1.131416362249748397e+00,0.000000000000000000e+00
1.302000000000000000e+03,5.542644781353442962e-01,0.000000000000000000e+00
1.303000000000000000e+03,1.696618973854542078e+00,1.000000000000000000e+00
1.304000000000000000e+03,1.198929098843177110e+00,0.000000000000000000e+00
1.305000000000000000e+03,1.422572315644794028e+00,0.000000000000000000e+00
1.306000000000000000e+03,8.632304443984357700e-01,0.000000000000000000e+00
1.307000000000000000e+03,1.059347123188423057e+00,0.000000000000000000e+00
1.308000000000000000e+03,6.112445418516053719e-01,0.000000000000000000e+00
1.309000000000000000e+03,1.131280455261498119e+00,0.000000000000000000e+00
1.310000000000000000e+03,5.778209456774243691e-01,0.000000000000000000e+00
1.311000000000000000e+03,7.384785767637324083e-01,0.000000000000000000e+00
1.312000000000000000e+03,6.147173440757057739e-01,0.000000000000000000e+00
1.313000000000000000e+03,9.037567760482049239e-01,0.000000000000000000e+00
1.314000000000000000e+03,9.076385373303172965e-01,0.000000000000000000e+00
1.315000000000000000e+03,1.114046191572147126e+00,0.000000000000000000e+00
1.316000000000000000e+03,1.117566343609757151e+00,0.000000000000000000e+00
1.317000000000000000e+03,6.687491706419709248e-01,0.000000000000000000e+00
1.318000000000000000e+03,7.009730273561166625e-01,0.000000000000000000e+00
1.319000000000000000e+03,6.678867519184682883e-03,0.000000000000000000e+00
1.320000000000000000e+03,-8.061976115059735770e-01,0.000000000000000000e+00
1.321000000000000000e+03,-5.721386963960033434e-01,0.000000000000000000e+00
1.322000000000000000e+03,-1.259937247039976338e+00,0.000000000000000000e+00
1.323000000000000000e+03,-7.907085929405740510e-01,0.000000000000000000e+00
1.324000000000000000e+03,-5.625910821622082114e-01,0.000000000000000000e+00
1.325000000000000000e+03,-9.945285299769137666e-01,0.000000000000000000e+00
1.326000000000000000e+03,-6.287335678371999137e-01,0.000000000000000000e+00
1.327000000000000000e+03,-6.111691636912079950e-01,0.000000000000000000e+00
1.328000000000000000e+03,-9.381156658697775708e-01,0.000000000000000000e+00
1.329000000000000000e+03,-7.172946295627237179e-01,0.000000000000000000e+00
1.330000000000000000e+03,-9.653035305891610740e-01,0.000000000000000000e+00
1.331000000000000000e+03,-6.994697401035999684e-01,0.000000000000000000e+00
1.332000000000000000e+03,-3.124442062621325400e-01,0.000000000000000000e+00
1.333000000000000000e+03,-4.957047369789947533e-01,0.000000000000000000e+00
1.334000000000000000e+03,-2.993104101448822996e-01,0.000000000000000000e+00
1.335000000000000000e+03,6.591126202214092622e-02,0.000000000000000000e+00
1.336000000000000000e+03,-5.555277935186290206e-01,0.000000000000000000e+00
1.337000000000000000e+03,-4.880998053256795366e-01,0.000000000000000000e+00
1.338000000000000000e+03,-4.553036993592419757e-01,0.000000000000000000e+00
1.339000000000000000e+03,-2.678904723309733504e-01,0.000000000000000000e+00
1.340000000000000000e+03,-4.301715424305082580e-01,0.000000000000000000e+00
1.341000000000000000e+03,-8.172841959588209026e-02,0.000000000000000000e+00
1.342000000000000000e+03,-9.576276613052985276e-01,0.000000000000000000e+00
1.343000000000000000e+03,2.428111437919764082e-01,0.000000000000000000e+00
1.344000000000000000e+03,-2.129704795843064546e-01,0.000000000000000000e+00
1.345000000000000000e+03,-2.987739000114714716e-01,0.000000000000000000e+00
1.346000000000000000e+03,3.307577991891066244e-02,0.000000000000000000e+00
1.347000000000000000e+03,4.484071200182279671e-02,0.000000000000000000e+00
1.348000000000000000e+03,-8.953735250340383311e-01,0.000000000000000000e+00
1.349000000000000000e+03,-1.086514578489231386e+00,0.000000000000000000e+00
1.350000000000000000e+03,-1.700338102242788807e+00,0.000000000000000000e+00
1.351000000000000000e+03,-1.165792351210346522e+00,0.000000000000000000e+00
1.352000000000000000e+03,-2.081349244974419754e+00,0.000000000000000000e+00
1.353000000000000000e+03,2.407924147392530578e-01,0.000000000000000000e+00
1.354000000000000000e+03,1.781243521253163209e+00,1.000000000000000000e+00
1.355000000000000000e+03,9.823102517987489790e-01,0.000000000000000000e+00
1.356000000000000000e+03,1.003174465137352422e+00,0.000000000000000000e+00
1.357000000000000000e+03,7.355371394811567320e-01,0.000000000000000000e+00
1.358000000000000000e+03,9.841331298691580187e-01,0.000000000000000000e+00
1.359000000000000000e+03,9.659796142814758291e-01,0.000000000000000000e+00
1.360000000000000000e+03,1.113884621781147777e+00,0.000000000000000000e+00
1.361000000000000000e+03,5.434816815246568122e-01,0.000000000000000000e+00
1.362000000000000000e+03,7.156535688227574354e-01,0.000000000000000000e+00
1.363000000000000000e+03,9.234969708552887013e-01,0.000000000000000000e+00
1.364000000000000000e+03,7.786154486813638975e-01,0.000000000000000000e+00
1.365000000000000000e+03,1.229308762457057558e+00,0.000000000000000000e+00
1.366000000000000000e+03,1.019515220529002120e+00,0.000000000000000000e+00
1.367000000000000000e+03,9.136940341912473951e-01,0.000000000000000000e+00
1.368000000000000000e+03,1.197723047094472193e+00,0.000000000000000000e+00
1.369000000000000000e+03,5.465377100191258775e-01,0.000000000000000000e+00
1.370000000000000000e+03,3.237901444473660351e-01,0.000000000000000000e+00
1.371000000000000000e+03,-2.368717187673324009e-01,0.000000000000000000e+00
1.372000000000000000e+03,-6.531152133249926717e-01,0.000000000000000000e+00
1.373000000000000000e+03,-2.875673169990540234e-01,0.000000000000000000e+00
1.374000000000000000e+03,-8.528365464027898302e-01,0.000000000000000000e+00
1.375000000000000000e+03,-4.502651889186168876e-01,0.000000000000000000e+00
1.376000000000000000e+03,-4.465348170193099708e-01,0.000000000000000000e+00
1.377000000000000000e+03,-7.647802294707530812e-01,0.000000000000000000e+00
1.378000000000000000e+03,-8.153605247831015035e-01,0.000000000000000000e+00
1.379000000000000000e+03,-6.423869844516066907e-01,0.000000000000000000e+00
1.380000000000000000e+03,-5.604999620267482330e-01,0.000000000000000000e+00
1.381000000000000000e+03,-5.287636762947058866e-01,0.000000000000000000e+00
1.382000000000000000e+03,-8.427180297563061639e-01,0.000000000000000000e+00
1.383000000000000000e+03,5.664842880652735946e-02,0.000000000000000000e+00
1.384000000000000000e+03,-2.432051335878098464e-01,0.000000000000000000e+00
1.385000000000000000e+03,2.753215084963288040e-01,0.000000000000000000e+00
1.386000000000000000e+03,1.477880057827814231e-01,0.000000000000000000e+00
1.387000000000000000e+03,-4.443245652282289127e-02,0.000000000000000000e+00
1.388000000000000000e+03,-3.122807786001827735e-01,0.000000000000000000e+00
1.389000000000000000e+03,1.456403602016969612e-01,0.000000000000000000e+00
1.390000000000000000e+03,4.537832655067300935e-01,0.000000000000000000e+00
1.391000000000000000e+03,7.343897700973195386e-02,0.000000000000000000e+00
1.392000000000000000e+03,1.507906418770570967e-01,0.000000000000000000e+00
1.393000000000000000e+03,-1.422262074664781273e-01,0.000000000000000000e+00
1.394000000000000000e+03,-6.294870320131401575e-02,0.000000000000000000e+00
1.395000000000000000e+03,9.544938857603559035e-02,0.000000000000000000e+00
1.396000000000000000e+03,6.229280521576745222e-02,0.000000000000000000e+00
1.397000000000000000e+03,3.703694945482339795e-01,0.000000000000000000e+00
1.398000000000000000e+03,1.206189225783277086e-01,0.000000000000000000e+00
1.399000000000000000e+03,3.523520196978822683e-01,0.000000000000000000e+00
1.400000000000000000e+03,-1.063470550415080096e+00,0.000000000000000000e+00
1.401000000000000000e+03,-4.795576074933039501e-01,0.000000000000000000e+00
1.402000000000000000e+03,-9.955815886718771823e-01,0.000000000000000000e+00
1.403000000000000000e+03,-1.602425441542480788e+00,0.000000000000000000e+00
1.404000000000000000e+03,-2.514539761873565982e-01,0.000000000000000000e+00
1.405000000000000000e+03,1.771389928315151296e+00,1.000000000000000000e+00
1.406000000000000000e+03,1.242874649901470896e+00,0.000000000000000000e+00
1.407000000000000000e+03,1.232646430927735626e+00,0.000000000000000000e+00
1.408000000000000000e+03,9.395881862005063256e-01,0.000000000000000000e+00
1.409000000000000000e+03,1.256424978643827295e+00,0.000000000000000000e+00
1.410000000000000000e+03,1.159938060999575749e+00,0.000000000000000000e+00
1.411000000000000000e+03,1.155823792100691305e+00,0.000000000000000000e+00
1.412000000000000000e+03,8.650081472577608732e-01,0.000000000000000000e+00
1.413000000000000000e+03,1.182877364174284462e+00,0.000000000000000000e+00
1.414000000000000000e+03,6.409084427249518434e-01,0.000000000000000000e+00
1.415000000000000000e+03,1.231052046046898996e+00,0.000000000000000000e+00
1.416000000000000000e+03,7.548763347912164079e-01,0.000000000000000000e+00
1.417000000000000000e+03,1.155698424894107346e+00,0.000000000000000000e+00
1.418000000000000000e+03,1.546322087522117528e+00,0.000000000000000000e+00
1.419000000000000000e+03,6.614136804514489931e-01,0.000000000000000000e+00
1.420000000000000000e+03,4.724782381392436670e-01,0.000000000000000000e+00
1.421000000000000000e+03,2.631336322552054741e-01,0.000000000000000000e+00
1.422000000000000000e+03,-1.521490767005980460e-01,0.000000000000000000e+00
1.423000000000000000e+03,-3.509055835050725047e-01,0.000000000000000000e+00
1.424000000000000000e+03,-1.001320047267247659e+00,0.000000000000000000e+00
1.425000000000000000e+03,-9.112641085360948523e-01,0.000000000000000000e+00
1.426000000000000000e+03,-3.026126167034245973e-01,0.000000000000000000e+00
1.427000000000000000e+03,-9.551953630656727645e-01,0.000000000000000000e+00
1.428000000000000000e+03,-4.905978920557726441e-01,0.000000000000000000e+00
1.429000000000000000e+03,-1.088879960846373951e+00,0.000000000000000000e+00
1.430000000000000000e+03,-7.808705354317657665e-01,0.000000000000000000e+00
1.431000000000000000e+03,-5.568325164634109203e-01,0.000000000000000000e+00
1.432000000000000000e+03,-6.413540594921639526e-01,0.000000000000000000e+00
1.433000000000000000e+03,-2.929528624428652250e-01,0.000000000000000000e+00
1.434000000000000000e+03,-4.822162733208845697e-01,0.000000000000000000e+00
1.435000000000000000e+03,-1.964645259958651691e-01,0.000000000000000000e+00
1.436000000000000000e+03,-3.522207502889814767e-01,0.000000000000000000e+00
1.437000000000000000e+03,-2.251032605088155447e-01,0.000000000000000000e+00
1.438000000000000000e+03,-4.115720316081353802e-01,0.000000000000000000e+00
1.439000000000000000e+03,-2.847982246150662089e-01,0.000000000000000000e+00
1.440000000000000000e+03,-2.888998226890213683e-01,0.000000000000000000e+00
1.441000000000000000e+03,-1.682669378387847137e-01,0.000000000000000000e+00
1.442000000000000000e+03,-4.693017878178013524e-01,0.000000000000000000e+00
1.443000000000000000e+03,-3.668591437131974442e-01,0.000000000000000000e+00
1.444000000000000000e+03,-3.750274251591925179e-01,0.000000000000000000e+00
1.445000000000000000e+03,-2.335447732977950774e-01,0.000000000000000000e+00
1.446000000000000000e+03,-4.620587264535619965e-01,0.000000000000000000e+00
1.447000000000000000e+03,7.058797922086872123e-02,0.000000000000000000e+00
1.448000000000000000e+03,-7.080606078259378544e-02,0.000000000000000000e+00
1.449000000000000000e+03,-1.122229553935134294e-01,0.000000000000000000e+00
1.450000000000000000e+03,-2.535277092328320769e-01,0.000000000000000000e+00
1.451000000000000000e+03,-9.261755771353210598e-01,0.000000000000000000e+00
1.452000000000000000e+03,-1.771171983235940273e+00,0.000000000000000000e+00
1.453000000000000000e+03,-1.816630625953120193e+00,0.000000000000000000e+00
1.454000000000000000e+03,-2.551666057273534793e+00,0.000000000000000000e+00
1.455000000000000000e+03,-1.219602109018503633e+00,0.000000000000000000e+00
1.456000000000000000e+03,1.267131104046236301e+00,1.000000000000000000e+00
1.457000000000000000e+03,1.835520887343757401e+00,0.000000000000000000e+00
1.458000000000000000e+03,1.433768829768703457e+00,0.000000000000000000e+00
1.459000000000000000e+03,1.625993849059731655e+00,0.000000000000000000e+00
1.460000000000000000e+03,1.318793398297680719e+00,0.000000000000000000e+00
1.461000000000000000e+03,9.532771248041546075e-01,0.000000000000000000e+00
1.462000000000000000e+03,9.072232606811676536e-01,0.000000000000000000e+00
1.463000000000000000e+03,1.119762045828927466e+00,0.000000000000000000e+00
1.464000000000000000e+03,8.785360500564540764e-01,0.000000000000000000e+00
1.465000000000000000e+03,1.048009224409609086e+00,0.000000000000000000e+00
1.466000000000000000e+03,1.139045633640332511e+00,0.000000000000000000e+00
1.467000000000000000e+03,1.266002433947919892e+00,0.000000000000000000e+00
1.468000000000000000e+03,1.187338415713062645e+00,0.000000000000000000e+00
1.469000000000000000e+03,1.388514821636861685e+00,0.000000000000000000e+00
1.470000000000000000e+03,5.913567708118842026e-01,0.000000000000000000e+00
1.471000000000000000e+03,8.875043368600434857e-01,0.000000000000000000e+00
1.472000000000000000e+03,-2.049808732390289989e-01,0.000000000000000000e+00
1.473000000000000000e+03,-6.155797189652751494e-02,0.000000000000000000e+00
1.474000000000000000e+03,-5.600843970179372189e-01,0.000000000000000000e+00
1.475000000000000000e+03,-9.917874710991080311e-01,0.000000000000000000e+00
1.476000000000000000e+03,-5.039551047306126685e-01,0.000000000000000000e+00
1.477000000000000000e+03,-9.313018786470956822e-01,0.000000000000000000e+00
1.478000000000000000e+03,-1.104813574998789516e+00,0.000000000000000000e+00
1.479000000000000000e+03,-8.928873476032673784e-01,0.000000000000000000e+00
1.480000000000000000e+03,-9.688442898104135947e-01,0.000000000000000000e+00
1.481000000000000000e+03,-1.095667215572869502e+00,0.000000000000000000e+00
1.482000000000000000e+03,-1.085027837384325844e+00,0.000000000000000000e+00
1.483000000000000000e+03,-6.309071537857061651e-01,0.000000000000000000e+00
1.484000000000000000e+03,-3.219855571493412394e-01,0.000000000000000000e+00
1.485000000000000000e+03,-1.060073480024104509e+00,0.000000000000000000e+00
1.486000000000000000e+03,-3.781431277825815229e-01,0.000000000000000000e+00
1.487000000000000000e+03,-4.425268691072458682e-01,0.000000000000000000e+00
1.488000000000000000e+03,-4.072529584753508680e-01,0.000000000000000000e+00
1.489000000000000000e+03,-2.141838502542480482e-01,0.000000000000000000e+00
1.490000000000000000e+03,-4.178809790506702315e-01,0.000000000000000000e+00
1.491000000000000000e+03,-1.055858782217852093e-01,0.000000000000000000e+00
1.492000000000000000e+03,-7.511783001704188667e-01,0.000000000000000000e+00
1.493000000000000000e+03,-7.302434959985520772e-03,0.000000000000000000e+00
1.494000000000000000e+03,-3.648476675189907259e-01,0.000000000000000000e+00
1.495000000000000000e+03,-2.462151810558771414e-01,0.000000000000000000e+00
1.496000000000000000e+03,1.976882251473834895e-01,0.000000000000000000e+00
1.497000000000000000e+03,-3.005750751079190874e-01,0.000000000000000000e+00
1.498000000000000000e+03,-2.063596120646304932e-01,0.000000000000000000e+00
1.499000000000000000e+03,5.455293406922767652e-01,0.000000000000000000e+00
1.500000000000000000e+03,-3.992676832125552355e-01,0.000000000000000000e+00
1.501000000000000000e+03,-3.120152888527095714e-01,0.000000000000000000e+00
1.502000000000000000e+03,-1.202487534393017254e+00,0.000000000000000000e+00
1.503000000000000000e+03,-1.628235361553992622e+00,0.000000000000000000e+00
1.504000000000000000e+03,-1.870733760746593255e+00,0.000000000000000000e+00
1.505000000000000000e+03,-2.415200132247275366e+00,0.000000000000000000e+00
1.506000000000000000e+03,-1.879179585658514284e+00,0.000000000000000000e+00
1.507000000000000000e+03,1.056022484778851300e+00,0.000000000000000000e+00
1.508000000000000000e+03,2.328747789446705241e+00,1.000000000000000000e+00
1.509000000000000000e+03,1.403376358713793071e+00,0.000000000000000000e+00
1.510000000000000000e+03,1.455607047870725701e+00,0.000000000000000000e+00
1.511000000000000000e+03,9.768687886034572720e-01,0.000000000000000000e+00
1.512000000000000000e+03,1.427364697022816875e+00,0.000000000000000000e+00
1.513000000000000000e+03,1.408965109315198694e+00,0.000000000000000000e+00
1.514000000000000000e+03,1.378162132504383575e+00,0.000000000000000000e+00
1.515000000000000000e+03,1.191279179548000666e+00,0.000000000000000000e+00
1.516000000000000000e+03,1.536758036218127677e+00,0.000000000000000000e+00
1.517000000000000000e+03,1.258229240380269953e+00,0.000000000000000000e+00
1.518000000000000000e+03,9.374608147869337715e-01,0.000000000000000000e+00
1.519000000000000000e+03,1.425475252032110340e+00,0.000000000000000000e+00
1.520000000000000000e+03,1.199007310781881053e+00,0.000000000000000000e+00
1.521000000000000000e+03,9.607639654233742776e-01,0.000000000000000000e+00
1.522000000000000000e+03,9.021723011955906646e-01,0.000000000000000000e+00
1.523000000000000000e+03,5.764917882007164485e-01,0.000000000000000000e+00
1.524000000000000000e+03,2.295902085493376626e-02,0.000000000000000000e+00
1.525000000000000000e+03,-1.542472059019813491e-01,0.000000000000000000e+00
1.526000000000000000e+03,-6.474600967619532632e-01,0.000000000000000000e+00
1.527000000000000000e+03,-1.081746950507125549e+00,0.000000000000000000e+00
1.528000000000000000e+03,-7.511048582749970670e-01,0.000000000000000000e+00
1.529000000000000000e+03,-7.917297688383065912e-01,0.000000000000000000e+00
1.530000000000000000e+03,-7.257598808374963184e-01,0.000000000000000000e+00
1.531000000000000000e+03,-7.071233346182276280e-01,0.000000000000000000e+00
1.532000000000000000e+03,-3.508061852206219577e-01,0.000000000000000000e+00
1.533000000000000000e+03,-3.563642922540972702e-01,0.000000000000000000e+00
1.534000000000000000e+03,-3.794309004474912261e-01,0.000000000000000000e+00
1.535000000000000000e+03,-4.584968129121877456e-01,0.000000000000000000e+00
1.536000000000000000e+03,-5.390810468908482367e-01,0.000000000000000000e+00
1.537000000000000000e+03,-9.669266248445619327e-01,0.000000000000000000e+00
1.538000000000000000e+03,-1.069273559208712004e-01,0.000000000000000000e+00
1.539000000000000000e+03,-5.461020712966225821e-01,0.000000000000000000e+00
1.540000000000000000e+03,-3.070509642586126131e-01,0.000000000000000000e+00
1.541000000000000000e+03,2.036621605323321940e-02,0.000000000000000000e+00
1.542000000000000000e+03,-2.247604422756028508e-01,0.000000000000000000e+00
1.543000000000000000e+03,-2.474295594245089769e-01,0.000000000000000000e+00
1.544000000000000000e+03,-4.584703816475941274e-01,0.000000000000000000e+00
1.545000000000000000e+03,-5.759009212711340558e-02,0.000000000000000000e+00
1.546000000000000000e+03,-4.124117976721680123e-01,0.000000000000000000e+00
1.547000000000000000e+03,-6.016305312963252661e-01,0.000000000000000000e+00
1.548000000000000000e+03,1.542055709974236299e-01,0.000000000000000000e+00
1.549000000000000000e+03,9.416308632476909357e-02,0.000000000000000000e+00
1.550000000000000000e+03,3.717317580251870424e-01,0.000000000000000000e+00
1.551000000000000000e+03,-2.658674766651002441e-01,0.000000000000000000e+00
1.552000000000000000e+03,1.118492491370493835e-01,0.000000000000000000e+00
1.553000000000000000e+03,-9.465011500306047543e-01,0.000000000000000000e+00
1.554000000000000000e+03,-1.333937169989763971e+00,0.000000000000000000e+00
1.555000000000000000e+03,-1.642586813201178053e+00,0.000000000000000000e+00
1.556000000000000000e+03,-2.014227382923749587e+00,0.000000000000000000e+00
1.557000000000000000e+03,-1.878970876801059342e+00,0.000000000000000000e+00
1.558000000000000000e+03,2.561684320769245238e-01,0.000000000000000000e+00
1.559000000000000000e+03,1.807410101868144325e+00,1.000000000000000000e+00
1.560000000000000000e+03,1.259416928541470915e+00,0.000000000000000000e+00
1.561000000000000000e+03,1.709791805340654225e+00,0.000000000000000000e+00
1.562000000000000000e+03,1.555490797885707543e+00,0.000000000000000000e+00
1.563000000000000000e+03,1.092098969637586903e+00,0.000000000000000000e+00
1.564000000000000000e+03,1.410023562731332003e+00,0.000000000000000000e+00
1.565000000000000000e+03,1.331164351421110892e+00,0.000000000000000000e+00
1.566000000000000000e+03,1.176916267643469238e+00,0.000000000000000000e+00
1.567000000000000000e+03,7.964142611656729320e-01,0.000000000000000000e+00
1.568000000000000000e+03,9.448337721394820532e-01,0.000000000000000000e+00
1.569000000000000000e+03,8.659628887956820620e-01,0.000000000000000000e+00
1.570000000000000000e+03,1.282085975156159297e+00,0.000000000000000000e+00
1.571000000000000000e+03,9.942828911282565185e-01,0.000000000000000000e+00
1.572000000000000000e+03,1.375584512471895282e+00,0.000000000000000000e+00
1.573000000000000000e+03,1.014771196919019403e+00,0.000000000000000000e+00
1.574000000000000000e+03,7.806982105239390624e-01,0.000000000000000000e+00
1.575000000000000000e+03,4.447207021184874098e-01,0.000000000000000000e+00
1.576000000000000000e+03,-3.314382956092158938e-01,0.000000000000000000e+00
1.577000000000000000e+03,-9.216521420693438715e-01,0.000000000000000000e+00
1.578000000000000000e+03,-9.892526550875959668e-01,0.000000000000000000e+00
1.579000000000000000e+03,-1.218286600515168461e+00,0.000000000000000000e+00
1.580000000000000000e+03,-1.026608585063730095e+00,0.000000000000000000e+00
1.581000000000000000e+03,-9.155196371546605594e-01,0.000000000000000000e+00
1.582000000000000000e+03,-5.210208368689528413e-01,0.000000000000000000e+00
1.583000000000000000e+03,-3.892251507082478135e-02,0.000000000000000000e+00
1.584000000000000000e+03,-9.799466015244469030e-01,0.000000000000000000e+00
1.585000000000000000e+03,-6.890413830235712078e-01,0.000000000000000000e+00
1.586000000000000000e+03,-6.043404527981562913e-01,0.000000000000000000e+00
