timestamp,ecg_measurement,qrs_detected
0.000000000000000000e+00,2.797453837656684733e-02,0.000000000000000000e+00
1.000000000000000000e+00,1.197820282836106476e-01,0.000000000000000000e+00
2.000000000000000000e+00,3.883611865607330266e-02,0.000000000000000000e+00
3.000000000000000000e+00,-4.500356199820462061e-02,0.000000000000000000e+00
4.000000000000000000e+00,-5.086343766936674005e-02,0.000000000000000000e+00
5.000000000000000000e+00,-2.750476044296302727e-05,0.000000000000000000e+00
6.000000000000000000e+00,8.121332286685747914e-02,0.000000000000000000e+00
7.000000000000000000e+00,-3.646511182950622210e-02,0.000000000000000000e+00
8.000000000000000000e+00,-2.005375168719779680e-02,0.000000000000000000e+00
9.000000000000000000e+00,-3.399370258088472985e-02,0.000000000000000000e+00
1.000000000000000000e+01,7.597864057179506969e-02,0.000000000000000000e+00
1.100000000000000000e+01,3.906886277881204197e-03,0.000000000000000000e+00
1.200000000000000000e+01,1.029384913040653632e-01,0.000000000000000000e+00
1.300000000000000000e+01,1.012494042274351101e-02,0.000000000000000000e+00
1.400000000000000000e+01,3.174634918971497854e-01,0.000000000000000000e+00
1.500000000000000000e+01,2.445139352866194105e-01,0.000000000000000000e+00
1.600000000000000000e+01,3.244459178212181771e-01,0.000000000000000000e+00
1.700000000000000000e+01,-4.394964822861991555e-02,0.000000000000000000e+00
1.800000000000000000e+01,-5.532386254851819063e-02,0.000000000000000000e+00
1.900000000000000000e+01,-1.907614741368772182e-01,0.000000000000000000e+00
2.000000000000000000e+01,1.940869146807562007e-01,0.000000000000000000e+00
2.100000000000000000e+01,-8.151255639353960358e-01,0.000000000000000000e+00
2.200000000000000000e+01,2.265575005714594692e+00,0.000000000000000000e+00
2.300000000000000000e+01,5.273964378797506569e+00,0.000000000000000000e+00
2.400000000000000000e+01,7.021625339421079248e-01,1.000000000000000000e+00
2.500000000000000000e+01,-7.314094919985997256e-01,0.000000000000000000e+00
2.600000000000000000e+01,-1.128856475772620049e+00,0.000000000000000000e+00
2.700000000000000000e+01,-8.693102742197968968e-01,0.000000000000000000e+00
2.800000000000000000e+01,-9.864245500705526304e-01,0.000000000000000000e+00
2.900000000000000000e+01,-6.262871316158873380e-01,0.000000000000000000e+00
3.000000000000000000e+01,-7.362897915970334495e-01,0.000000000000000000e+00
3.100000000000000000e+01,-5.481327424229763823e-01,0.000000000000000000e+00
3.200000000000000000e+01,-5.709903458572140877e-01,0.000000000000000000e+00
3.300000000000000000e+01,-4.057762737882772419e-01,0.000000000000000000e+00
3.400000000000000000e+01,-4.766169372371719115e-01,0.000000000000000000e+00
3.500000000000000000e+01,-2.396489600791736341e-01,0.000000000000000000e+00
3.600000000000000000e+01,-3.076242594682990772e-01,0.000000000000000000e+00
3.700000000000000000e+01,-1.973384192530939218e-01,0.000000000000000000e+00
3.800000000000000000e+01,-2.193234215991520242e-01,0.000000000000000000e+00
3.900000000000000000e+01,-1.262964691473172363e-01,0.000000000000000000e+00
4.000000000000000000e+01,-2.030270695388035340e-01,0.000000000000000000e+00
4.100000000000000000e+01,-1.840495043022591370e-01,0.000000000000000000e+00
4.200000000000000000e+01,-5.521104556307563499e-02,0.000000000000000000e+00
4.300000000000000000e+01,2.266069796253284557e-02,0.000000000000000000e+00
4.400000000000000000e+01,3.094571485027567109e-03,0.000000000000000000e+00
4.500000000000000000e+01,7.890517018475189104e-02,0.000000000000000000e+00
4.600000000000000000e+01,-9.965059249163061780e-03,0.000000000000000000e+00
4.700000000000000000e+01,7.629433662565208996e-02,0.000000000000000000e+00
4.800000000000000000e+01,7.374380510302624980e-02,0.000000000000000000e+00
4.900000000000000000e+01,2.360436030232322957e-01,0.000000000000000000e+00
5.000000000000000000e+01,3.131542859694775305e-01,0.000000000000000000e+00
5.100000000000000000e+01,3.623105454300168393e-01,0.000000000000000000e+00
5.200000000000000000e+01,3.478159420409733249e-01,0.000000000000000000e+00
5.300000000000000000e+01,3.689645758052050861e-01,0.000000000000000000e+00
5.400000000000000000e+01,2.613203067048053274e-01,0.000000000000000000e+00
5.500000000000000000e+01,3.529952353543635013e-01,0.000000000000000000e+00
5.600000000000000000e+01,1.579601229944858909e-01,0.000000000000000000e+00
5.700000000000000000e+01,1.478780020770929238e-01,0.000000000000000000e+00
5.800000000000000000e+01,1.971669087739666981e-01,0.000000000000000000e+00
5.900000000000000000e+01,1.856703333361936215e-01,0.000000000000000000e+00
6.000000000000000000e+01,1.022380795596694453e-01,0.000000000000000000e+00
6.100000000000000000e+01,1.442782566737401129e-01,0.000000000000000000e+00
6.200000000000000000e+01,3.458977565738190901e-02,0.000000000000000000e+00
6.300000000000000000e+01,1.296335796173079813e-01,0.000000000000000000e+00
6.400000000000000000e+01,2.465395860735090580e-02,0.000000000000000000e+00
6.500000000000000000e+01,1.058600699063368678e-01,0.000000000000000000e+00
6.600000000000000000e+01,1.448428202955603927e-01,0.000000000000000000e+00
6.700000000000000000e+01,2.704441787523860774e-01,0.000000000000000000e+00
6.800000000000000000e+01,2.124504729440505890e-01,0.000000000000000000e+00
6.900000000000000000e+01,8.513268718160023341e-02,0.000000000000000000e+00
7.000000000000000000e+01,-1.038399659404174585e-01,0.000000000000000000e+00
7.100000000000000000e+01,-4.207593555765355015e-02,0.000000000000000000e+00
7.200000000000000000e+01,-1.605286821798694030e-01,0.000000000000000000e+00
7.300000000000000000e+01,-2.519442088208544428e-01,0.000000000000000000e+00
7.400000000000000000e+01,-4.252286461257331340e-01,0.000000000000000000e+00
7.500000000000000000e+01,4.069475215302329474e+00,0.000000000000000000e+00
7.600000000000000000e+01,3.330450904291886616e+00,1.000000000000000000e+00
7.700000000000000000e+01,-3.492637094623747829e-01,0.000000000000000000e+00
7.800000000000000000e+01,-9.688300223490613483e-01,0.000000000000000000e+00
7.900000000000000000e+01,-1.115137421746602575e+00,0.000000000000000000e+00
8.000000000000000000e+01,-9.767415739158491483e-01,0.000000000000000000e+00
8.100000000000000000e+01,-9.181115240654343923e-01,0.000000000000000000e+00
8.200000000000000000e+01,-8.701027705667110368e-01,0.000000000000000000e+00
8.300000000000000000e+01,-8.096128716978849837e-01,0.000000000000000000e+00
8.400000000000000000e+01,-7.877843866494197433e-01,0.000000000000000000e+00
8.500000000000000000e+01,-6.341885616604039377e-01,0.000000000000000000e+00
8.600000000000000000e+01,-4.951997072793393184e-01,0.000000000000000000e+00
8.700000000000000000e+01,-5.508415069474601466e-01,0.000000000000000000e+00
8.800000000000000000e+01,-4.446826022001226786e-01,0.000000000000000000e+00
8.900000000000000000e+01,-4.138046911043001264e-01,0.000000000000000000e+00
9.000000000000000000e+01,-2.701643410075840190e-01,0.000000000000000000e+00
9.100000000000000000e+01,-3.570871295087265085e-01,0.000000000000000000e+00
9.200000000000000000e+01,-1.582857733839593550e-01,0.000000000000000000e+00
9.300000000000000000e+01,-2.341961493056831378e-01,0.000000000000000000e+00
9.400000000000000000e+01,-1.987260661282969354e-01,0.000000000000000000e+00
9.500000000000000000e+01,-1.223063378723182743e-01,0.000000000000000000e+00
9.600000000000000000e+01,-6.247243941631439729e-02,0.000000000000000000e+00
9.700000000000000000e+01,5.883414779135111988e-02,0.000000000000000000e+00
9.800000000000000000e+01,-4.416354178749510792e-03,0.000000000000000000e+00
9.900000000000000000e+01,-3.297030811101880898e-02,0.000000000000000000e+00
1.000000000000000000e+02,-1.782116153895288782e-02,0.000000000000000000e+00
1.010000000000000000e+02,2.083386480484907682e-02,0.000000000000000000e+00
1.020000000000000000e+02,2.039772537290623078e-01,0.000000000000000000e+00
1.030000000000000000e+02,2.953167543186357991e-01,0.000000000000000000e+00
1.040000000000000000e+02,2.182418891329409583e-01,0.000000000000000000e+00
1.050000000000000000e+02,2.720603849869174251e-01,0.000000000000000000e+00
1.060000000000000000e+02,2.517722425554234644e-01,0.000000000000000000e+00
1.070000000000000000e+02,2.321904144465991859e-01,0.000000000000000000e+00
1.080000000000000000e+02,3.017937695247867036e-01,0.000000000000000000e+00
1.090000000000000000e+02,1.222906377918529242e-01,0.000000000000000000e+00
1.100000000000000000e+02,1.442394810623586765e-01,0.000000000000000000e+00
1.110000000000000000e+02,1.126506217501547780e-01,0.000000000000000000e+00
1.120000000000000000e+02,1.012470291740600187e-01,0.000000000000000000e+00
1.130000000000000000e+02,1.733439783829589520e-01,0.000000000000000000e+00
1.140000000000000000e+02,4.593569797165009821e-02,0.000000000000000000e+00
1.150000000000000000e+02,7.426424701866637945e-02,0.000000000000000000e+00
1.160000000000000000e+02,5.990106256360147596e-02,0.000000000000000000e+00
1.170000000000000000e+02,8.025403087645964495e-02,0.000000000000000000e+00
1.180000000000000000e+02,1.327368713686093438e-01,0.000000000000000000e+00
1.190000000000000000e+02,1.558233993681993890e-01,0.000000000000000000e+00
1.200000000000000000e+02,2.707199187431014176e-01,0.000000000000000000e+00
1.210000000000000000e+02,1.717370609838056172e-01,0.000000000000000000e+00
1.220000000000000000e+02,1.805771735772667419e-01,0.000000000000000000e+00
1.230000000000000000e+02,-1.318077232765069162e-01,0.000000000000000000e+00
1.240000000000000000e+02,1.555037207670600767e-03,0.000000000000000000e+00
1.250000000000000000e+02,-2.399430747296944222e-01,0.000000000000000000e+00
1.260000000000000000e+02,4.947350793884584125e-02,0.000000000000000000e+00
1.270000000000000000e+02,-8.182319551250126777e-01,0.000000000000000000e+00
1.280000000000000000e+02,3.102771508814653245e+00,0.000000000000000000e+00
1.290000000000000000e+02,4.765596931402943603e+00,0.000000000000000000e+00
1.300000000000000000e+02,2.557970053666119292e-01,1.000000000000000000e+00
1.310000000000000000e+02,-8.753376603016117530e-01,0.000000000000000000e+00
1.320000000000000000e+02,-1.286909464643688494e+00,0.000000000000000000e+00
1.330000000000000000e+02,-1.015851071514121573e+00,0.000000000000000000e+00
1.340000000000000000e+02,-1.089629729183869911e+00,0.000000000000000000e+00
1.350000000000000000e+02,-8.726070262361884655e-01,0.000000000000000000e+00
1.360000000000000000e+02,-9.271562481782458232e-01,0.000000000000000000e+00
1.370000000000000000e+02,-7.223521127575558420e-01,0.000000000000000000e+00
1.380000000000000000e+02,-7.577434710498599513e-01,0.000000000000000000e+00
1.390000000000000000e+02,-5.373241950443352621e-01,0.000000000000000000e+00
1.400000000000000000e+02,-5.140696885340589883e-01,0.000000000000000000e+00
1.410000000000000000e+02,-4.713636910520454526e-01,0.000000000000000000e+00
1.420000000000000000e+02,-4.382098889439221545e-01,0.000000000000000000e+00
1.430000000000000000e+02,-2.763661199105615918e-01,0.000000000000000000e+00
1.440000000000000000e+02,-3.198937948203160464e-01,0.000000000000000000e+00
1.450000000000000000e+02,-3.006764467014942377e-01,0.000000000000000000e+00
1.460000000000000000e+02,-2.765324049912580850e-01,0.000000000000000000e+00
1.470000000000000000e+02,-2.641900034885378279e-01,0.000000000000000000e+00
1.480000000000000000e+02,-8.127347630139152013e-02,0.000000000000000000e+00
1.490000000000000000e+02,-5.529193023153951281e-02,0.000000000000000000e+00
1.500000000000000000e+02,-5.789930529826785993e-02,0.000000000000000000e+00
1.510000000000000000e+02,-7.758817636799004470e-03,0.000000000000000000e+00
1.520000000000000000e+02,-4.405573257246157143e-02,0.000000000000000000e+00
1.530000000000000000e+02,1.780667391658256882e-02,0.000000000000000000e+00
1.540000000000000000e+02,2.804586370128128725e-02,0.000000000000000000e+00
1.550000000000000000e+02,8.316717731893491505e-02,0.000000000000000000e+00
1.560000000000000000e+02,1.857841180622131771e-01,0.000000000000000000e+00
1.570000000000000000e+02,2.448958723449449482e-01,0.000000000000000000e+00
1.580000000000000000e+02,2.291091386646082473e-01,0.000000000000000000e+00
1.590000000000000000e+02,2.221467627960101165e-01,0.000000000000000000e+00
1.600000000000000000e+02,1.764735567330064370e-01,0.000000000000000000e+00
1.610000000000000000e+02,1.856350789669181378e-01,0.000000000000000000e+00
1.620000000000000000e+02,6.811999072198428318e-02,0.000000000000000000e+00
1.630000000000000000e+02,2.227639678101414611e-01,0.000000000000000000e+00
1.640000000000000000e+02,-6.952585024358484689e-02,0.000000000000000000e+00
1.650000000000000000e+02,1.717081263518668299e-01,0.000000000000000000e+00
1.660000000000000000e+02,2.626687257375467932e-02,0.000000000000000000e+00
1.670000000000000000e+02,9.578710314581014018e-02,0.000000000000000000e+00
1.680000000000000000e+02,3.639636817252088485e-02,0.000000000000000000e+00
1.690000000000000000e+02,8.245394980069276070e-02,0.000000000000000000e+00
1.700000000000000000e+02,-1.178695187483413086e-02,0.000000000000000000e+00
1.710000000000000000e+02,9.255813610002487646e-02,0.000000000000000000e+00
1.720000000000000000e+02,3.156073030365176557e-02,0.000000000000000000e+00
1.730000000000000000e+02,3.013862582368810328e-01,0.000000000000000000e+00
1.740000000000000000e+02,3.591620076588357691e-01,0.000000000000000000e+00
1.750000000000000000e+02,2.136069222629012054e-01,0.000000000000000000e+00
1.760000000000000000e+02,-1.322306518755400340e-01,0.000000000000000000e+00
1.770000000000000000e+02,-6.551172662059587259e-02,0.000000000000000000e+00
1.780000000000000000e+02,-1.946367988546665873e-01,0.000000000000000000e+00
1.790000000000000000e+02,5.611038147332984838e-02,0.000000000000000000e+00
1.800000000000000000e+02,-6.874756737794266437e-01,0.000000000000000000e+00
1.810000000000000000e+02,1.205589484290066737e+00,0.000000000000000000e+00
1.820000000000000000e+02,6.179585976830470173e+00,0.000000000000000000e+00
1.830000000000000000e+02,2.246945957643951886e+00,1.000000000000000000e+00
1.840000000000000000e+02,-8.480115680910702558e-01,0.000000000000000000e+00
1.850000000000000000e+02,-1.327303928205727512e+00,0.000000000000000000e+00
1.860000000000000000e+02,-1.391236434912061615e+00,0.000000000000000000e+00
1.870000000000000000e+02,-1.289779221349927285e+00,0.000000000000000000e+00
1.880000000000000000e+02,-1.142252510472982374e+00,0.000000000000000000e+00
1.890000000000000000e+02,-1.024534610821547842e+00,0.000000000000000000e+00
1.900000000000000000e+02,-9.506648572252492935e-01,0.000000000000000000e+00
1.910000000000000000e+02,-9.020262388572316548e-01,0.000000000000000000e+00
1.920000000000000000e+02,-7.562637945531253125e-01,0.000000000000000000e+00
1.930000000000000000e+02,-6.779417662268116818e-01,0.000000000000000000e+00
1.940000000000000000e+02,-6.311742801627637789e-01,0.000000000000000000e+00
1.950000000000000000e+02,-5.202847424244793073e-01,0.000000000000000000e+00
1.960000000000000000e+02,-3.683156594136914874e-01,0.000000000000000000e+00
1.970000000000000000e+02,-4.569281584427123399e-01,0.000000000000000000e+00
1.980000000000000000e+02,-3.650109316909598833e-01,0.000000000000000000e+00
1.990000000000000000e+02,-3.873925393447114618e-01,0.000000000000000000e+00
2.000000000000000000e+02,-2.729826245676362784e-01,0.000000000000000000e+00
2.010000000000000000e+02,-1.042658552787775750e-01,0.000000000000000000e+00
2.020000000000000000e+02,6.898330951476885908e-02,0.000000000000000000e+00
2.030000000000000000e+02,1.193192177263023429e-01,0.000000000000000000e+00
2.040000000000000000e+02,1.157890287246543665e-01,0.000000000000000000e+00
2.050000000000000000e+02,1.393087358256374364e-01,0.000000000000000000e+00
2.060000000000000000e+02,1.051800694470828301e-01,0.000000000000000000e+00
2.070000000000000000e+02,2.575778051311271022e-01,0.000000000000000000e+00
2.080000000000000000e+02,1.508812611862399844e-01,0.000000000000000000e+00
2.090000000000000000e+02,3.364590162146414154e-01,0.000000000000000000e+00
2.100000000000000000e+02,3.468267390444957354e-01,0.000000000000000000e+00
2.110000000000000000e+02,3.338699374904982586e-01,0.000000000000000000e+00
2.120000000000000000e+02,4.391525240577820455e-01,0.000000000000000000e+00
2.130000000000000000e+02,3.602453433377013625e-01,0.000000000000000000e+00
2.140000000000000000e+02,3.746474903551295643e-01,0.000000000000000000e+00
2.150000000000000000e+02,2.490145639083213847e-01,0.000000000000000000e+00
2.160000000000000000e+02,2.851638046688718675e-01,0.000000000000000000e+00
2.170000000000000000e+02,3.451388529735358590e-01,0.000000000000000000e+00
2.180000000000000000e+02,2.059085520096528288e-01,0.000000000000000000e+00
2.190000000000000000e+02,2.904756784787425605e-01,0.000000000000000000e+00
2.200000000000000000e+02,1.268719942421393521e-01,0.000000000000000000e+00
2.210000000000000000e+02,2.689847343843238536e-01,0.000000000000000000e+00
2.220000000000000000e+02,1.324997654141364112e-01,0.000000000000000000e+00
2.230000000000000000e+02,2.071668941995841451e-01,0.000000000000000000e+00
2.240000000000000000e+02,1.279850841466700362e-01,0.000000000000000000e+00
2.250000000000000000e+02,1.937362419443101058e-01,0.000000000000000000e+00
2.260000000000000000e+02,2.029980728808753188e-01,0.000000000000000000e+00
2.270000000000000000e+02,3.802550016819172263e-01,0.000000000000000000e+00
2.280000000000000000e+02,3.743042876427129517e-01,0.000000000000000000e+00
2.290000000000000000e+02,3.893451329129801741e-01,0.000000000000000000e+00
2.300000000000000000e+02,-1.413262169970762039e-01,0.000000000000000000e+00
2.310000000000000000e+02,8.714208682891703972e-02,0.000000000000000000e+00
2.320000000000000000e+02,-2.472689786855843397e-01,0.000000000000000000e+00
2.330000000000000000e+02,1.258768226335579277e-01,0.000000000000000000e+00
2.340000000000000000e+02,-7.288181295555539174e-01,0.000000000000000000e+00
2.350000000000000000e+02,1.641158828954131454e+00,0.000000000000000000e+00
2.360000000000000000e+02,6.575822236913229091e+00,0.000000000000000000e+00
2.370000000000000000e+02,1.807573821479839804e+00,1.000000000000000000e+00
2.380000000000000000e+02,-1.040642224552408068e+00,0.000000000000000000e+00
2.390000000000000000e+02,-1.420447688698057931e+00,0.000000000000000000e+00
2.400000000000000000e+02,-1.438954354179181383e+00,0.000000000000000000e+00
2.410000000000000000e+02,-1.400906369435611198e+00,0.000000000000000000e+00
2.420000000000000000e+02,-1.204851174353144927e+00,0.000000000000000000e+00
2.430000000000000000e+02,-1.184941538882666068e+00,0.000000000000000000e+00
2.440000000000000000e+02,-1.010756423926431946e+00,0.000000000000000000e+00
2.450000000000000000e+02,-9.351040694532339881e-01,0.000000000000000000e+00
2.460000000000000000e+02,-9.253656790129307641e-01,0.000000000000000000e+00
2.470000000000000000e+02,-7.501509529614470706e-01,0.000000000000000000e+00
2.480000000000000000e+02,-7.223005499897071635e-01,0.000000000000000000e+00
2.490000000000000000e+02,-5.998204846512491528e-01,0.000000000000000000e+00
2.500000000000000000e+02,-5.454137773394138744e-01,0.000000000000000000e+00
2.510000000000000000e+02,-5.751151749697378524e-01,0.000000000000000000e+00
2.520000000000000000e+02,-5.073610939608900194e-01,0.000000000000000000e+00
2.530000000000000000e+02,-5.297446968456772654e-01,0.000000000000000000e+00
2.540000000000000000e+02,-4.087607632519534850e-01,0.000000000000000000e+00
2.550000000000000000e+02,-2.562066481226689119e-01,0.000000000000000000e+00
2.560000000000000000e+02,-5.722972193918596934e-02,0.000000000000000000e+00
2.570000000000000000e+02,-1.044055643591319943e-01,0.000000000000000000e+00
2.580000000000000000e+02,-2.040564077224484019e-02,0.000000000000000000e+00
2.590000000000000000e+02,1.867588844651712696e-02,0.000000000000000000e+00
2.600000000000000000e+02,8.745598380236677127e-02,0.000000000000000000e+00
2.610000000000000000e+02,1.454635640567304988e-01,0.000000000000000000e+00
2.620000000000000000e+02,2.037171797518013416e-01,0.000000000000000000e+00
2.630000000000000000e+02,3.067017039840677639e-01,0.000000000000000000e+00
2.640000000000000000e+02,1.834862397159257585e-01,0.000000000000000000e+00
2.650000000000000000e+02,2.826673133115771286e-01,0.000000000000000000e+00
2.660000000000000000e+02,2.718238618416886632e-01,0.000000000000000000e+00
2.670000000000000000e+02,2.278437298999446414e-01,0.000000000000000000e+00
2.680000000000000000e+02,1.548718976346089016e-01,0.000000000000000000e+00
2.690000000000000000e+02,2.064141974426269288e-01,0.000000000000000000e+00
2.700000000000000000e+02,9.161315280568209374e-02,0.000000000000000000e+00
2.710000000000000000e+02,1.560162206109102778e-01,0.000000000000000000e+00
2.720000000000000000e+02,9.501971394227752554e-02,0.000000000000000000e+00
2.730000000000000000e+02,1.103340125793891291e-01,0.000000000000000000e+00
2.740000000000000000e+02,1.020942344624263531e-01,0.000000000000000000e+00
2.750000000000000000e+02,1.664239987425488732e-01,0.000000000000000000e+00
2.760000000000000000e+02,1.314031048463616680e-01,0.000000000000000000e+00
2.770000000000000000e+02,1.090516663337293829e-01,0.000000000000000000e+00
2.780000000000000000e+02,1.608577389821047865e-01,0.000000000000000000e+00
2.790000000000000000e+02,1.584388719940988399e-01,0.000000000000000000e+00
2.800000000000000000e+02,2.593118221924010647e-01,0.000000000000000000e+00
2.810000000000000000e+02,5.656246382589781296e-01,0.000000000000000000e+00
2.820000000000000000e+02,2.879726696624115290e-01,0.000000000000000000e+00
2.830000000000000000e+02,2.253859414135429007e-01,0.000000000000000000e+00
2.840000000000000000e+02,-1.409853722641696838e-01,0.000000000000000000e+00
2.850000000000000000e+02,8.584231329584801617e-02,0.000000000000000000e+00
2.860000000000000000e+02,-1.513631562312320045e-01,0.000000000000000000e+00
2.870000000000000000e+02,-1.571980016203084266e-02,0.000000000000000000e+00
2.880000000000000000e+02,-5.549234853246433063e-01,0.000000000000000000e+00
2.890000000000000000e+02,5.444128770084718738e+00,0.000000000000000000e+00
2.900000000000000000e+02,4.827602842159825158e+00,0.000000000000000000e+00
2.910000000000000000e+02,-3.513906724160932304e-01,1.000000000000000000e+00
2.920000000000000000e+02,-1.084914828443874324e+00,0.000000000000000000e+00
2.930000000000000000e+02,-1.537975550936769631e+00,0.000000000000000000e+00
2.940000000000000000e+02,-1.204357093954173896e+00,0.000000000000000000e+00
2.950000000000000000e+02,-1.250584257523689624e+00,0.000000000000000000e+00
2.960000000000000000e+02,-9.838834660161338563e-01,0.000000000000000000e+00
2.970000000000000000e+02,-9.869802765533450817e-01,0.000000000000000000e+00
2.980000000000000000e+02,-8.099459608106392983e-01,0.000000000000000000e+00
2.990000000000000000e+02,-8.137422444695742163e-01,0.000000000000000000e+00
3.000000000000000000e+02,-5.583960339889785240e-01,0.000000000000000000e+00
3.010000000000000000e+02,-6.822480218960381704e-01,0.000000000000000000e+00
3.020000000000000000e+02,-4.716559265998764294e-01,0.000000000000000000e+00
3.030000000000000000e+02,-4.889387896606850470e-01,0.000000000000000000e+00
3.040000000000000000e+02,-3.597090686633533929e-01,0.000000000000000000e+00
3.050000000000000000e+02,-4.757587243005746980e-01,0.000000000000000000e+00
3.060000000000000000e+02,-3.555005494773085251e-01,0.000000000000000000e+00
3.070000000000000000e+02,-3.259760334365773837e-01,0.000000000000000000e+00
3.080000000000000000e+02,-2.330050804394255548e-01,0.000000000000000000e+00
3.090000000000000000e+02,-4.657959697328092896e-02,0.000000000000000000e+00
3.100000000000000000e+02,-5.063725995869359370e-02,0.000000000000000000e+00
3.110000000000000000e+02,-6.334922806366702352e-02,0.000000000000000000e+00
3.120000000000000000e+02,1.567270559890162895e-01,0.000000000000000000e+00
3.130000000000000000e+02,1.472092561078447714e-01,0.000000000000000000e+00
3.140000000000000000e+02,2.675531116861346037e-01,0.000000000000000000e+00
3.150000000000000000e+02,2.471009149407772110e-01,0.000000000000000000e+00
3.160000000000000000e+02,3.423897532751784545e-01,0.000000000000000000e+00
3.170000000000000000e+02,1.778619413533090721e-01,0.000000000000000000e+00
3.180000000000000000e+02,3.167617961442176777e-01,0.000000000000000000e+00
3.190000000000000000e+02,2.730557952377903330e-01,0.000000000000000000e+00
3.200000000000000000e+02,2.389412122482542644e-01,0.000000000000000000e+00
3.210000000000000000e+02,2.162215975438331883e-01,0.000000000000000000e+00
3.220000000000000000e+02,1.333153211057775400e-01,0.000000000000000000e+00
3.230000000000000000e+02,8.515977109712853654e-02,0.000000000000000000e+00
3.240000000000000000e+02,1.244544259281121779e-01,0.000000000000000000e+00
3.250000000000000000e+02,8.677026213512799291e-02,0.000000000000000000e+00
3.260000000000000000e+02,1.077883208912808061e-01,0.000000000000000000e+00
3.270000000000000000e+02,5.037638113650195690e-03,0.000000000000000000e+00
3.280000000000000000e+02,1.158490435792663004e-01,0.000000000000000000e+00
3.290000000000000000e+02,2.737444895684714233e-02,0.000000000000000000e+00
3.300000000000000000e+02,1.411932375663976502e-01,0.000000000000000000e+00
3.310000000000000000e+02,1.177319845475057747e-01,0.000000000000000000e+00
3.320000000000000000e+02,2.267183666535700914e-01,0.000000000000000000e+00
3.330000000000000000e+02,3.325726496583197300e-01,0.000000000000000000e+00
3.340000000000000000e+02,3.145023185215901074e-01,0.000000000000000000e+00
3.350000000000000000e+02,1.133646895874056149e-01,0.000000000000000000e+00
3.360000000000000000e+02,-1.715755177838527157e-01,0.000000000000000000e+00
3.370000000000000000e+02,-1.083370299278654941e-01,0.000000000000000000e+00
3.380000000000000000e+02,-1.386151941012197519e-01,0.000000000000000000e+00
3.390000000000000000e+02,-2.751933724476112730e-01,0.000000000000000000e+00
3.400000000000000000e+02,-2.019665824371352780e-02,0.000000000000000000e+00
3.410000000000000000e+02,5.400957558200917497e+00,0.000000000000000000e+00
3.420000000000000000e+02,2.786495631189479294e+00,1.000000000000000000e+00
3.430000000000000000e+02,-7.576514895203022570e-01,0.000000000000000000e+00
3.440000000000000000e+02,-1.074370574717854021e+00,0.000000000000000000e+00
3.450000000000000000e+02,-1.237136846153646497e+00,0.000000000000000000e+00
3.460000000000000000e+02,-1.037315766855721355e+00,0.000000000000000000e+00
3.470000000000000000e+02,-1.075704696263404259e+00,0.000000000000000000e+00
3.480000000000000000e+02,-8.319609840856562188e-01,0.000000000000000000e+00
3.490000000000000000e+02,-8.713749695118313543e-01,0.000000000000000000e+00
3.500000000000000000e+02,-5.936576973084249920e-01,0.000000000000000000e+00
3.510000000000000000e+02,-6.756613128068366114e-01,0.000000000000000000e+00
3.520000000000000000e+02,-4.644951636655216265e-01,0.000000000000000000e+00
3.530000000000000000e+02,-4.536474096409856549e-01,0.000000000000000000e+00
3.540000000000000000e+02,-2.778777641585830072e-01,0.000000000000000000e+00
3.550000000000000000e+02,-2.452385658945832603e-01,0.000000000000000000e+00
3.560000000000000000e+02,-2.098786019061137098e-01,0.000000000000000000e+00
3.570000000000000000e+02,-2.415100419609235438e-01,0.000000000000000000e+00
3.580000000000000000e+02,-1.845259114071570450e-01,0.000000000000000000e+00
3.590000000000000000e+02,-1.593028640926333894e-01,0.000000000000000000e+00
3.600000000000000000e+02,-2.893106356370270943e-02,0.000000000000000000e+00
3.610000000000000000e+02,-4.238548496612311312e-02,0.000000000000000000e+00
3.620000000000000000e+02,7.508887413362201786e-03,0.000000000000000000e+00
3.630000000000000000e+02,-1.019274638788867232e-01,0.000000000000000000e+00
3.640000000000000000e+02,1.543813229925588559e-01,0.000000000000000000e+00
3.650000000000000000e+02,9.090453998836321714e-02,0.000000000000000000e+00
3.660000000000000000e+02,2.218193238402834111e-01,0.000000000000000000e+00
3.670000000000000000e+02,9.772928328583743718e-02,0.000000000000000000e+00
3.680000000000000000e+02,5.196070495186301541e-02,0.000000000000000000e+00
3.690000000000000000e+02,7.357677559530663436e-02,0.000000000000000000e+00
3.700000000000000000e+02,3.289076936063162204e-02,0.000000000000000000e+00
3.710000000000000000e+02,-1.238756612793439210e-01,0.000000000000000000e+00
3.720000000000000000e+02,-8.072998515264930008e-02,0.000000000000000000e+00
3.730000000000000000e+02,-1.979186510057545090e-01,0.000000000000000000e+00
3.740000000000000000e+02,-1.976477564594214809e-01,0.000000000000000000e+00
3.750000000000000000e+02,-2.998960904927505666e-01,0.000000000000000000e+00
3.760000000000000000e+02,-2.429330279596235431e-01,0.000000000000000000e+00
3.770000000000000000e+02,-2.295526229315731637e-01,0.000000000000000000e+00
3.780000000000000000e+02,-1.990764518008061590e-01,0.000000000000000000e+00
3.790000000000000000e+02,-2.962083235086295785e-01,0.000000000000000000e+00
3.800000000000000000e+02,-1.487328257531191078e-01,0.000000000000000000e+00
3.810000000000000000e+02,-2.860318211561118096e-01,0.000000000000000000e+00
3.820000000000000000e+02,-5.665971324681726151e-02,0.000000000000000000e+00
3.830000000000000000e+02,-1.140833462528551001e-01,0.000000000000000000e+00
3.840000000000000000e+02,1.792497766329720632e-01,0.000000000000000000e+00
3.850000000000000000e+02,4.813686356567511981e-02,0.000000000000000000e+00
3.860000000000000000e+02,1.922804537602748609e-01,0.000000000000000000e+00
3.870000000000000000e+02,-2.123654502098740182e-01,0.000000000000000000e+00
3.880000000000000000e+02,-2.473903811925834677e-03,0.000000000000000000e+00
3.890000000000000000e+02,-3.250453792133979891e-01,0.000000000000000000e+00
3.900000000000000000e+02,1.303297455651755699e-01,0.000000000000000000e+00
3.910000000000000000e+02,-8.599260920096521987e-01,0.000000000000000000e+00
3.920000000000000000e+02,2.750254968174186132e+00,0.000000000000000000e+00
3.930000000000000000e+02,5.002055421795194690e+00,0.000000000000000000e+00
3.940000000000000000e+02,3.689651813598785468e-01,1.000000000000000000e+00
3.950000000000000000e+02,-7.553254634071225881e-01,0.000000000000000000e+00
3.960000000000000000e+02,-1.070140173177414722e+00,0.000000000000000000e+00
3.970000000000000000e+02,-8.622873701649148570e-01,0.000000000000000000e+00
3.980000000000000000e+02,-8.731989137312556881e-01,0.000000000000000000e+00
3.990000000000000000e+02,-6.132452509777847061e-01,0.000000000000000000e+00
4.000000000000000000e+02,-6.735860759565067690e-01,0.000000000000000000e+00
4.010000000000000000e+02,-4.936684709329199339e-01,0.000000000000000000e+00
4.020000000000000000e+02,-4.639195817689809043e-01,0.000000000000000000e+00
4.030000000000000000e+02,-3.119685849750285511e-01,0.000000000000000000e+00
4.040000000000000000e+02,-2.985209289915677355e-01,0.000000000000000000e+00
4.050000000000000000e+02,-1.816545985679865471e-01,0.000000000000000000e+00
4.060000000000000000e+02,-1.466109674995499657e-01,0.000000000000000000e+00
4.070000000000000000e+02,-4.895053974884528564e-02,0.000000000000000000e+00
4.080000000000000000e+02,-3.024480870404211430e-02,0.000000000000000000e+00
4.090000000000000000e+02,-1.029252851171077177e-01,0.000000000000000000e+00
4.100000000000000000e+02,-8.196165252139200885e-02,0.000000000000000000e+00
4.110000000000000000e+02,8.685271293520231695e-02,0.000000000000000000e+00
4.120000000000000000e+02,9.868960707505719521e-02,0.000000000000000000e+00
4.130000000000000000e+02,1.652099122656784658e-01,0.000000000000000000e+00
4.140000000000000000e+02,1.797544888288514775e-01,0.000000000000000000e+00
4.150000000000000000e+02,2.426385901197466444e-01,0.000000000000000000e+00
4.160000000000000000e+02,2.130849170892091249e-01,0.000000000000000000e+00
4.170000000000000000e+02,2.369214112419528728e-01,0.000000000000000000e+00
4.180000000000000000e+02,2.407068973231383524e-01,0.000000000000000000e+00
4.190000000000000000e+02,4.448054589339258125e-01,0.000000000000000000e+00
4.200000000000000000e+02,3.722667815918850320e-01,0.000000000000000000e+00
4.210000000000000000e+02,5.396582875661662948e-01,0.000000000000000000e+00
4.220000000000000000e+02,4.626642943229241633e-01,0.000000000000000000e+00
4.230000000000000000e+02,4.155824590915940808e-01,0.000000000000000000e+00
4.240000000000000000e+02,4.014096471803384469e-01,0.000000000000000000e+00
4.250000000000000000e+02,3.010102761237150037e-01,0.000000000000000000e+00
4.260000000000000000e+02,3.230059872883679351e-01,0.000000000000000000e+00
4.270000000000000000e+02,3.137268650349647747e-01,0.000000000000000000e+00
4.280000000000000000e+02,2.639138555576098777e-01,0.000000000000000000e+00
4.290000000000000000e+02,2.168056935355176240e-01,0.000000000000000000e+00
4.300000000000000000e+02,1.155000252720323611e-01,0.000000000000000000e+00
4.310000000000000000e+02,1.188151680495708185e-01,0.000000000000000000e+00
4.320000000000000000e+02,1.991047591353094226e-01,0.000000000000000000e+00
4.330000000000000000e+02,2.167968789076640534e-01,0.000000000000000000e+00
4.340000000000000000e+02,1.139140347473270448e-01,0.000000000000000000e+00
4.350000000000000000e+02,3.074590438009378590e-01,0.000000000000000000e+00
4.360000000000000000e+02,2.742340695111324389e-01,0.000000000000000000e+00
4.370000000000000000e+02,3.847617150546963072e-01,0.000000000000000000e+00
4.380000000000000000e+02,-7.902924258905978661e-02,0.000000000000000000e+00
4.390000000000000000e+02,-6.287452345286914310e-03,0.000000000000000000e+00
4.400000000000000000e+02,-2.700206472694291482e-01,0.000000000000000000e+00
4.410000000000000000e+02,1.689394614694332275e-01,0.000000000000000000e+00
4.420000000000000000e+02,-6.512566345063763862e-01,0.000000000000000000e+00
4.430000000000000000e+02,1.317957448239190921e+00,0.000000000000000000e+00
4.440000000000000000e+02,4.917229742906610745e+00,0.000000000000000000e+00
4.450000000000000000e+02,1.294298516267251564e+00,1.000000000000000000e+00
4.460000000000000000e+02,-7.188983041572005739e-01,0.000000000000000000e+00
4.470000000000000000e+02,-1.152220876841571151e+00,0.000000000000000000e+00
4.480000000000000000e+02,-1.000258110506608844e+00,0.000000000000000000e+00
4.490000000000000000e+02,-1.086337734300677260e+00,0.000000000000000000e+00
4.500000000000000000e+02,-7.586469152250838732e-01,0.000000000000000000e+00
4.510000000000000000e+02,-9.181155721360592104e-01,0.000000000000000000e+00
4.520000000000000000e+02,-8.470993890407472193e-01,0.000000000000000000e+00
4.530000000000000000e+02,-6.821381641637787041e-01,0.000000000000000000e+00
4.540000000000000000e+02,-5.736285249090455896e-01,0.000000000000000000e+00
4.550000000000000000e+02,-5.852323784471344936e-01,0.000000000000000000e+00
4.560000000000000000e+02,-5.098076941457301281e-01,0.000000000000000000e+00
4.570000000000000000e+02,-3.691838598502870106e-01,0.000000000000000000e+00
4.580000000000000000e+02,-4.284550235107594252e-01,0.000000000000000000e+00
4.590000000000000000e+02,-3.179495510717404438e-01,0.000000000000000000e+00
4.600000000000000000e+02,-3.018319967251578695e-01,0.000000000000000000e+00
4.610000000000000000e+02,-3.747893269003844674e-01,0.000000000000000000e+00
4.620000000000000000e+02,-1.902360526256860473e-01,0.000000000000000000e+00
4.630000000000000000e+02,-2.270843703867458652e-01,0.000000000000000000e+00
4.640000000000000000e+02,-1.820667847760450986e-01,0.000000000000000000e+00
4.650000000000000000e+02,-7.733413569149261146e-02,0.000000000000000000e+00
4.660000000000000000e+02,-9.465856004229347698e-02,0.000000000000000000e+00
4.670000000000000000e+02,-4.160585705019502478e-02,0.000000000000000000e+00
4.680000000000000000e+02,7.723150976678744631e-03,0.000000000000000000e+00
4.690000000000000000e+02,-3.580453577691836142e-02,0.000000000000000000e+00
4.700000000000000000e+02,3.658373690850941218e-02,0.000000000000000000e+00
4.710000000000000000e+02,1.048184413406834242e-01,0.000000000000000000e+00
4.720000000000000000e+02,2.234911451062193410e-01,0.000000000000000000e+00
4.730000000000000000e+02,1.632531334193973727e-01,0.000000000000000000e+00
4.740000000000000000e+02,2.121801388421672707e-01,0.000000000000000000e+00
4.750000000000000000e+02,2.398279911839633627e-01,0.000000000000000000e+00
4.760000000000000000e+02,1.310780401170658638e-01,0.000000000000000000e+00
4.770000000000000000e+02,1.694036098118878453e-01,0.000000000000000000e+00
4.780000000000000000e+02,6.312425869861167105e-02,0.000000000000000000e+00
4.790000000000000000e+02,6.700493263835012592e-02,0.000000000000000000e+00
4.800000000000000000e+02,-2.359513383000450687e-02,0.000000000000000000e+00
4.810000000000000000e+02,5.656125502717118669e-02,0.000000000000000000e+00
4.820000000000000000e+02,-1.103905106310185298e-02,0.000000000000000000e+00
4.830000000000000000e+02,-1.080821814222796134e-01,0.000000000000000000e+00
4.840000000000000000e+02,2.522839959831438619e-02,0.000000000000000000e+00
4.850000000000000000e+02,5.829963778550214387e-02,0.000000000000000000e+00
4.860000000000000000e+02,1.105875921986422677e-01,0.000000000000000000e+00
4.870000000000000000e+02,1.829752069266132319e-01,0.000000000000000000e+00
4.880000000000000000e+02,2.633711403241995597e-01,0.000000000000000000e+00
4.890000000000000000e+02,-5.735456122817846752e-02,0.000000000000000000e+00
4.900000000000000000e+02,-1.305458320275413309e-01,0.000000000000000000e+00
4.910000000000000000e+02,-2.517209570053542400e-01,0.000000000000000000e+00
4.920000000000000000e+02,-5.650750764685832928e-02,0.000000000000000000e+00
4.930000000000000000e+02,-5.664719808383972266e-01,0.000000000000000000e+00
4.940000000000000000e+02,7.735676816010076395e-01,0.000000000000000000e+00
4.950000000000000000e+02,5.355142004768504549e+00,0.000000000000000000e+00
4.960000000000000000e+02,2.151925055641993545e+00,1.000000000000000000e+00
4.970000000000000000e+02,-8.407142825460692803e-01,0.000000000000000000e+00
4.980000000000000000e+02,-1.186340649002498582e+00,0.000000000000000000e+00
4.990000000000000000e+02,-1.220231202479605370e+00,0.000000000000000000e+00
5.000000000000000000e+02,-1.130999699221476140e+00,0.000000000000000000e+00
5.010000000000000000e+02,-1.084823207929236588e+00,0.000000000000000000e+00
5.020000000000000000e+02,-9.022162908752170418e-01,0.000000000000000000e+00
5.030000000000000000e+02,-8.438493263218220797e-01,0.000000000000000000e+00
5.040000000000000000e+02,-7.282868034568392712e-01,0.000000000000000000e+00
5.050000000000000000e+02,-6.796524710307589867e-01,0.000000000000000000e+00
5.060000000000000000e+02,-5.335952060458581947e-01,0.000000000000000000e+00
5.070000000000000000e+02,-5.048938138173773016e-01,0.000000000000000000e+00
5.080000000000000000e+02,-4.300074291562260842e-01,0.000000000000000000e+00
5.090000000000000000e+02,-4.063352309871631207e-01,0.000000000000000000e+00
5.100000000000000000e+02,-2.821090427039698589e-01,0.000000000000000000e+00
5.110000000000000000e+02,-3.302914668906641316e-01,0.000000000000000000e+00
5.120000000000000000e+02,-2.884332131353846140e-01,0.000000000000000000e+00
5.130000000000000000e+02,-2.892639843483074680e-01,0.000000000000000000e+00
5.140000000000000000e+02,-1.025195252986120936e-01,0.000000000000000000e+00
5.150000000000000000e+02,-1.281855858224580091e-01,0.000000000000000000e+00
5.160000000000000000e+02,-7.616584152214470223e-03,0.000000000000000000e+00
5.170000000000000000e+02,-1.051405654963981084e-01,0.000000000000000000e+00
5.180000000000000000e+02,1.948688344284515983e-02,0.000000000000000000e+00
5.190000000000000000e+02,8.583102458953682790e-03,0.000000000000000000e+00
5.200000000000000000e+02,2.056157915999590538e-02,0.000000000000000000e+00
5.210000000000000000e+02,1.439044615949242600e-01,0.000000000000000000e+00
5.220000000000000000e+02,1.281282619237509302e-01,0.000000000000000000e+00
5.230000000000000000e+02,1.714459486096752416e-01,0.000000000000000000e+00
5.240000000000000000e+02,2.582550522249512093e-01,0.000000000000000000e+00
5.250000000000000000e+02,3.419647384283492908e-01,0.000000000000000000e+00
5.260000000000000000e+02,2.574821687382278790e-01,0.000000000000000000e+00
5.270000000000000000e+02,2.657925834345835070e-01,0.000000000000000000e+00
5.280000000000000000e+02,2.119360903674242513e-01,0.000000000000000000e+00
5.290000000000000000e+02,1.448287310089184932e-01,0.000000000000000000e+00
5.300000000000000000e+02,2.042010923496936359e-01,0.000000000000000000e+00
5.310000000000000000e+02,9.356280486142411201e-02,0.000000000000000000e+00
5.320000000000000000e+02,2.017156684062059169e-01,0.000000000000000000e+00
5.330000000000000000e+02,1.287285056923514193e-01,0.000000000000000000e+00
5.340000000000000000e+02,8.450812536905352723e-02,0.000000000000000000e+00
5.350000000000000000e+02,1.654295034136374909e-01,0.000000000000000000e+00
5.360000000000000000e+02,1.610564751907932468e-01,0.000000000000000000e+00
5.370000000000000000e+02,2.683585413694780097e-01,0.000000000000000000e+00
5.380000000000000000e+02,4.051452832974289375e-01,0.000000000000000000e+00
5.390000000000000000e+02,2.501299345994319467e-01,0.000000000000000000e+00
5.400000000000000000e+02,5.081323979924271678e-02,0.000000000000000000e+00
5.410000000000000000e+02,5.899594889220756248e-03,0.000000000000000000e+00
5.420000000000000000e+02,-1.452506219680695654e-01,0.000000000000000000e+00
5.430000000000000000e+02,-2.978062314398650240e-02,0.000000000000000000e+00
5.440000000000000000e+02,-4.437377437314006245e-01,0.000000000000000000e+00
5.450000000000000000e+02,3.689475397308580318e-01,0.000000000000000000e+00
5.460000000000000000e+02,5.813184486058217360e+00,0.000000000000000000e+00
5.470000000000000000e+02,3.322110291390253600e+00,1.000000000000000000e+00
5.480000000000000000e+02,-6.279915163227607344e-01,0.000000000000000000e+00
5.490000000000000000e+02,-1.249531787498073143e+00,0.000000000000000000e+00
5.500000000000000000e+02,-1.421820609943311275e+00,0.000000000000000000e+00
5.510000000000000000e+02,-1.205714150754966463e+00,0.000000000000000000e+00
5.520000000000000000e+02,-1.184672385439579756e+00,0.000000000000000000e+00
5.530000000000000000e+02,-1.041086651253032791e+00,0.000000000000000000e+00
5.540000000000000000e+02,-1.016668936952751290e+00,0.000000000000000000e+00
5.550000000000000000e+02,-7.631188282536484069e-01,0.000000000000000000e+00
5.560000000000000000e+02,-8.000377414521790964e-01,0.000000000000000000e+00
5.570000000000000000e+02,-7.311471198604094779e-01,0.000000000000000000e+00
5.580000000000000000e+02,-6.032344691090769651e-01,0.000000000000000000e+00
5.590000000000000000e+02,-5.785829489907874379e-01,0.000000000000000000e+00
5.600000000000000000e+02,-3.586715756429291746e-01,0.000000000000000000e+00
5.610000000000000000e+02,-4.328690400685646367e-01,0.000000000000000000e+00
5.620000000000000000e+02,-4.087175694281519056e-01,0.000000000000000000e+00
5.630000000000000000e+02,-3.250440374308294911e-01,0.000000000000000000e+00
5.640000000000000000e+02,-3.340863970749019529e-01,0.000000000000000000e+00
5.650000000000000000e+02,-1.160770260340230065e-01,0.000000000000000000e+00
5.660000000000000000e+02,-3.770372188823246928e-02,0.000000000000000000e+00
5.670000000000000000e+02,-5.860795356805061779e-02,0.000000000000000000e+00
5.680000000000000000e+02,4.339855601818620734e-02,0.000000000000000000e+00
5.690000000000000000e+02,6.358434720213607116e-02,0.000000000000000000e+00
5.700000000000000000e+02,4.676386990582176439e-02,0.000000000000000000e+00
5.710000000000000000e+02,7.779873721461734448e-02,0.000000000000000000e+00
5.720000000000000000e+02,2.927635650696842201e-02,0.000000000000000000e+00
5.730000000000000000e+02,1.944443949944784367e-01,0.000000000000000000e+00
5.740000000000000000e+02,2.001398984864009023e-01,0.000000000000000000e+00
5.750000000000000000e+02,2.265617642442647184e-01,0.000000000000000000e+00
5.760000000000000000e+02,3.226809579727697996e-01,0.000000000000000000e+00
5.770000000000000000e+02,2.396018964017633535e-01,0.000000000000000000e+00
5.780000000000000000e+02,2.913423546452179047e-01,0.000000000000000000e+00
5.790000000000000000e+02,2.508551441752139288e-01,0.000000000000000000e+00
5.800000000000000000e+02,1.992972596505407090e-01,0.000000000000000000e+00
5.810000000000000000e+02,2.157463946409841349e-01,0.000000000000000000e+00
5.820000000000000000e+02,1.624084576912797062e-01,0.000000000000000000e+00
5.830000000000000000e+02,1.618781244033347666e-01,0.000000000000000000e+00
5.840000000000000000e+02,1.318273039053406981e-01,0.000000000000000000e+00
5.850000000000000000e+02,1.677199697677476675e-01,0.000000000000000000e+00
5.860000000000000000e+02,1.589315842964385550e-01,0.000000000000000000e+00
5.870000000000000000e+02,8.469990788093709200e-02,0.000000000000000000e+00
5.880000000000000000e+02,2.493142199529408964e-01,0.000000000000000000e+00
5.890000000000000000e+02,2.275047196299798680e-01,0.000000000000000000e+00
5.900000000000000000e+02,4.420923073815048454e-01,0.000000000000000000e+00
5.910000000000000000e+02,3.186539025289518157e-01,0.000000000000000000e+00
5.920000000000000000e+02,1.306054133237267434e-01,0.000000000000000000e+00
5.930000000000000000e+02,-1.274588405938459623e-01,0.000000000000000000e+00
5.940000000000000000e+02,-5.621812368117841407e-02,0.000000000000000000e+00
5.950000000000000000e+02,-2.129760229996358056e-01,0.000000000000000000e+00
5.960000000000000000e+02,-1.258573129356279352e-01,0.000000000000000000e+00
5.970000000000000000e+02,-2.413069023651818190e-01,0.000000000000000000e+00
5.980000000000000000e+02,5.728017066423575443e+00,0.000000000000000000e+00
5.990000000000000000e+02,4.147024841195659839e+00,1.000000000000000000e+00
6.000000000000000000e+02,-5.362074743608280514e-01,0.000000000000000000e+00
6.010000000000000000e+02,-1.151555883162404870e+00,0.000000000000000000e+00
6.020000000000000000e+02,-1.509107112138680318e+00,0.000000000000000000e+00
6.030000000000000000e+02,-1.219518308240362225e+00,0.000000000000000000e+00
6.040000000000000000e+02,-1.307947894479103201e+00,0.000000000000000000e+00
6.050000000000000000e+02,-9.910928438675186136e-01,0.000000000000000000e+00
6.060000000000000000e+02,-1.089464466154034250e+00,0.000000000000000000e+00
6.070000000000000000e+02,-7.714844843836859978e-01,0.000000000000000000e+00
6.080000000000000000e+02,-9.646672519113274058e-01,0.000000000000000000e+00
6.090000000000000000e+02,-6.420019000013120758e-01,0.000000000000000000e+00
6.100000000000000000e+02,-6.577753041614647911e-01,0.000000000000000000e+00
6.110000000000000000e+02,-4.312030535492131778e-01,0.000000000000000000e+00
6.120000000000000000e+02,-4.613407804861423545e-01,0.000000000000000000e+00
6.130000000000000000e+02,-3.346426979491277098e-01,0.000000000000000000e+00
6.140000000000000000e+02,-4.379990107695035384e-01,0.000000000000000000e+00
6.150000000000000000e+02,-2.718482152443630895e-01,0.000000000000000000e+00
6.160000000000000000e+02,-3.292252672644496170e-01,0.000000000000000000e+00
6.170000000000000000e+02,-1.548312836265472170e-01,0.000000000000000000e+00
6.180000000000000000e+02,-8.365208195785331369e-02,0.000000000000000000e+00
6.190000000000000000e+02,4.012277460089822695e-02,0.000000000000000000e+00
6.200000000000000000e+02,2.088035782220860198e-02,0.000000000000000000e+00
6.210000000000000000e+02,1.297642516640084842e-01,0.000000000000000000e+00
6.220000000000000000e+02,4.673611931430912692e-02,0.000000000000000000e+00
6.230000000000000000e+02,4.995299449396291974e-02,0.000000000000000000e+00
6.240000000000000000e+02,2.296045737031557343e-01,0.000000000000000000e+00
6.250000000000000000e+02,2.863196591005002789e-01,0.000000000000000000e+00
6.260000000000000000e+02,2.629812293942213053e-01,0.000000000000000000e+00
6.270000000000000000e+02,4.016450367097681995e-01,0.000000000000000000e+00
6.280000000000000000e+02,2.482396949665018893e-01,0.000000000000000000e+00
6.290000000000000000e+02,3.983266681557104949e-01,0.000000000000000000e+00
6.300000000000000000e+02,2.487870409061946064e-01,0.000000000000000000e+00
6.310000000000000000e+02,3.360546251032819898e-01,0.000000000000000000e+00
6.320000000000000000e+02,2.124099936090687868e-01,0.000000000000000000e+00
6.330000000000000000e+02,1.999045272955811414e-01,0.000000000000000000e+00
6.340000000000000000e+02,1.752725818834064975e-01,0.000000000000000000e+00
6.350000000000000000e+02,1.807052000825575266e-01,0.000000000000000000e+00
6.360000000000000000e+02,1.939607606144072294e-01,0.000000000000000000e+00
6.370000000000000000e+02,2.573849047081962493e-01,0.000000000000000000e+00
6.380000000000000000e+02,7.887234082459601558e-02,0.000000000000000000e+00
6.390000000000000000e+02,1.810718330659839004e-01,0.000000000000000000e+00
6.400000000000000000e+02,4.990903438896233946e-02,0.000000000000000000e+00
6.410000000000000000e+02,2.485355500413467811e-01,0.000000000000000000e+00
6.420000000000000000e+02,2.722115137221821080e-01,0.000000000000000000e+00
6.430000000000000000e+02,4.507476017316570660e-01,0.000000000000000000e+00
6.440000000000000000e+02,3.116055004826543406e-01,0.000000000000000000e+00
6.450000000000000000e+02,1.184540187207954870e-01,0.000000000000000000e+00
6.460000000000000000e+02,-1.192227817361455194e-01,0.000000000000000000e+00
6.470000000000000000e+02,5.895025340154996102e-02,0.000000000000000000e+00
6.480000000000000000e+02,-2.200239188345072261e-01,0.000000000000000000e+00
6.490000000000000000e+02,7.131448995130504342e-02,0.000000000000000000e+00
6.500000000000000000e+02,-6.206726511973816862e-01,0.000000000000000000e+00
6.510000000000000000e+02,5.407961168997405643e+00,0.000000000000000000e+00
6.520000000000000000e+02,4.696914043633444003e+00,0.000000000000000000e+00
6.530000000000000000e+02,-3.861894839459115714e-01,1.000000000000000000e+00
6.540000000000000000e+02,-1.132630760570324524e+00,0.000000000000000000e+00
6.550000000000000000e+02,-1.488296642462840991e+00,0.000000000000000000e+00
6.560000000000000000e+02,-1.334238331822796608e+00,0.000000000000000000e+00
6.570000000000000000e+02,-1.269041621060046587e+00,0.000000000000000000e+00
6.580000000000000000e+02,-1.028400145233734131e+00,0.000000000000000000e+00
6.590000000000000000e+02,-1.091331543122767478e+00,0.000000000000000000e+00
6.600000000000000000e+02,-8.514052254891286697e-01,0.000000000000000000e+00
6.610000000000000000e+02,-8.623524925452322742e-01,0.000000000000000000e+00
6.620000000000000000e+02,-6.108193671589874363e-01,0.000000000000000000e+00
6.630000000000000000e+02,-6.539323427283179058e-01,0.000000000000000000e+00
6.640000000000000000e+02,-4.923835236815768956e-01,0.000000000000000000e+00
6.650000000000000000e+02,-5.468791005897697399e-01,0.000000000000000000e+00
6.660000000000000000e+02,-3.380889496513954096e-01,0.000000000000000000e+00
6.670000000000000000e+02,-4.062323024188642662e-01,0.000000000000000000e+00
6.680000000000000000e+02,-2.668495879471857180e-01,0.000000000000000000e+00
6.690000000000000000e+02,-3.650046187116780527e-01,0.000000000000000000e+00
6.700000000000000000e+02,-2.298459095695366272e-01,0.000000000000000000e+00
6.710000000000000000e+02,-6.901748886692134211e-02,0.000000000000000000e+00
6.720000000000000000e+02,-9.689162949784253798e-02,0.000000000000000000e+00
6.730000000000000000e+02,2.667513559924403199e-02,0.000000000000000000e+00
6.740000000000000000e+02,-1.079853605496718452e-02,0.000000000000000000e+00
6.750000000000000000e+02,1.032709212830155432e-01,0.000000000000000000e+00
6.760000000000000000e+02,2.873414779113503056e-02,0.000000000000000000e+00
6.770000000000000000e+02,1.680029095277307261e-01,0.000000000000000000e+00
6.780000000000000000e+02,1.702709977440234335e-01,0.000000000000000000e+00
6.790000000000000000e+02,2.575909970065467514e-01,0.000000000000000000e+00
6.800000000000000000e+02,2.688635610492425831e-01,0.000000000000000000e+00
6.810000000000000000e+02,2.540156972804150648e-01,0.000000000000000000e+00
6.820000000000000000e+02,2.593183133490077896e-01,0.000000000000000000e+00
6.830000000000000000e+02,1.981533119724475656e-01,0.000000000000000000e+00
6.840000000000000000e+02,1.402542431445043813e-01,0.000000000000000000e+00
6.850000000000000000e+02,1.183599448060289605e-01,0.000000000000000000e+00
6.860000000000000000e+02,9.431137744705611614e-02,0.000000000000000000e+00
6.870000000000000000e+02,5.424958684432801964e-02,0.000000000000000000e+00
6.880000000000000000e+02,1.156897842054121772e-01,0.000000000000000000e+00
6.890000000000000000e+02,-1.470473637274715339e-03,0.000000000000000000e+00
6.900000000000000000e+02,3.756421706063566360e-03,0.000000000000000000e+00
6.910000000000000000e+02,1.629168594581794152e-02,0.000000000000000000e+00
6.920000000000000000e+02,-8.423042390064246210e-02,0.000000000000000000e+00
6.930000000000000000e+02,9.926526411492649082e-02,0.000000000000000000e+00
6.940000000000000000e+02,3.276752761139731934e-02,0.000000000000000000e+00
6.950000000000000000e+02,1.491271635104101101e-01,0.000000000000000000e+00
6.960000000000000000e+02,7.924290001467357292e-02,0.000000000000000000e+00
6.970000000000000000e+02,7.881773051715405820e-02,0.000000000000000000e+00
6.980000000000000000e+02,-3.395092994462443614e-01,0.000000000000000000e+00
6.990000000000000000e+02,-1.872393514665964820e-01,0.000000000000000000e+00
7.000000000000000000e+02,-3.662740556032228478e-01,0.000000000000000000e+00
7.010000000000000000e+02,-1.129590819124465656e-01,0.000000000000000000e+00
7.020000000000000000e+02,-9.181190578752796982e-01,0.000000000000000000e+00
7.030000000000000000e+02,1.136611095451761200e+00,0.000000000000000000e+00
7.040000000000000000e+02,5.502595371445503147e+00,0.000000000000000000e+00
7.050000000000000000e+02,1.187559809304839176e+00,1.000000000000000000e+00
7.060000000000000000e+02,-8.869222345439109478e-01,0.000000000000000000e+00
7.070000000000000000e+02,-1.302183705555948867e+00,0.000000000000000000e+00
7.080000000000000000e+02,-1.141192216378596580e+00,0.000000000000000000e+00
7.090000000000000000e+02,-1.144534182774877396e+00,0.000000000000000000e+00
7.100000000000000000e+02,-8.738129656829968228e-01,0.000000000000000000e+00
7.110000000000000000e+02,-8.838010679009797865e-01,0.000000000000000000e+00
7.120000000000000000e+02,-6.936309534379044850e-01,0.000000000000000000e+00
7.130000000000000000e+02,-7.374085408869535119e-01,0.000000000000000000e+00
7.140000000000000000e+02,-5.713105627676097198e-01,0.000000000000000000e+00
7.150000000000000000e+02,-4.061470223172913285e-01,0.000000000000000000e+00
7.160000000000000000e+02,-3.626591084030459378e-01,0.000000000000000000e+00
7.170000000000000000e+02,-3.175451245653477250e-01,0.000000000000000000e+00
7.180000000000000000e+02,-2.104737887904701843e-01,0.000000000000000000e+00
7.190000000000000000e+02,-2.119687924513641852e-01,0.000000000000000000e+00
7.200000000000000000e+02,-1.074619800058078251e-01,0.000000000000000000e+00
7.210000000000000000e+02,-1.205338563751111869e-01,0.000000000000000000e+00
7.220000000000000000e+02,-3.319513507906683702e-02,0.000000000000000000e+00
7.230000000000000000e+02,-1.200515748243038278e-01,0.000000000000000000e+00
7.240000000000000000e+02,1.246439638000338135e-01,0.000000000000000000e+00
7.250000000000000000e+02,1.126992876315946746e-01,0.000000000000000000e+00
7.260000000000000000e+02,4.903775111511964740e-02,0.000000000000000000e+00
7.270000000000000000e+02,1.517926652544760932e-02,0.000000000000000000e+00
7.280000000000000000e+02,1.872884923100293919e-01,0.000000000000000000e+00
7.290000000000000000e+02,1.034354054743960860e-01,0.000000000000000000e+00
7.300000000000000000e+02,3.891014653530290857e-01,0.000000000000000000e+00
7.310000000000000000e+02,3.115441151235238681e-01,0.000000000000000000e+00
7.320000000000000000e+02,3.495859405171727330e-01,0.000000000000000000e+00
7.330000000000000000e+02,3.486276217414542855e-01,0.000000000000000000e+00
7.340000000000000000e+02,3.819358186433037816e-01,0.000000000000000000e+00
7.350000000000000000e+02,2.545991707456689568e-01,0.000000000000000000e+00
7.360000000000000000e+02,3.680432401920750163e-01,0.000000000000000000e+00
7.370000000000000000e+02,1.633014843479986544e-01,0.000000000000000000e+00
7.380000000000000000e+02,2.159605717458344676e-01,0.000000000000000000e+00
7.390000000000000000e+02,1.812086643567086819e-01,0.000000000000000000e+00
7.400000000000000000e+02,1.425808974775308324e-01,0.000000000000000000e+00
7.410000000000000000e+02,1.174692712757324786e-01,0.000000000000000000e+00
7.420000000000000000e+02,1.577123926683704214e-01,0.000000000000000000e+00
7.430000000000000000e+02,8.419557205443048420e-02,0.000000000000000000e+00
7.440000000000000000e+02,9.639231958488284069e-02,0.000000000000000000e+00
7.450000000000000000e+02,1.159466237501637215e-01,0.000000000000000000e+00
7.460000000000000000e+02,9.924529388670448593e-02,0.000000000000000000e+00
7.470000000000000000e+02,9.471767110732594308e-02,0.000000000000000000e+00
7.480000000000000000e+02,3.662898899797988328e-01,0.000000000000000000e+00
7.490000000000000000e+02,2.710569073823919095e-01,0.000000000000000000e+00
7.500000000000000000e+02,3.313401818606867000e-01,0.000000000000000000e+00
7.510000000000000000e+02,-1.021069361458090546e-01,0.000000000000000000e+00
7.520000000000000000e+02,-9.597152793484999347e-03,0.000000000000000000e+00
7.530000000000000000e+02,-1.393881446639794186e-01,0.000000000000000000e+00
7.540000000000000000e+02,5.324445206286296250e-02,0.000000000000000000e+00
7.550000000000000000e+02,-6.456417999171240041e-01,0.000000000000000000e+00
7.560000000000000000e+02,1.045780014545840242e+00,0.000000000000000000e+00
7.570000000000000000e+02,5.228655509929939882e+00,0.000000000000000000e+00
7.580000000000000000e+02,1.432084106047447625e+00,1.000000000000000000e+00
7.590000000000000000e+02,-7.152942218286809650e-01,0.000000000000000000e+00
7.600000000000000000e+02,-1.084969163094792410e+00,0.000000000000000000e+00
7.610000000000000000e+02,-1.031290649036783247e+00,0.000000000000000000e+00
7.620000000000000000e+02,-1.051261096453018906e+00,0.000000000000000000e+00
7.630000000000000000e+02,-8.883614701567537075e-01,0.000000000000000000e+00
7.640000000000000000e+02,-7.672777261049702480e-01,0.000000000000000000e+00
7.650000000000000000e+02,-6.888123255617971674e-01,0.000000000000000000e+00
7.660000000000000000e+02,-7.136844826160043676e-01,0.000000000000000000e+00
7.670000000000000000e+02,-6.106774874925360308e-01,0.000000000000000000e+00
7.680000000000000000e+02,-4.999544836312814211e-01,0.000000000000000000e+00
7.690000000000000000e+02,-4.058256994469831014e-01,0.000000000000000000e+00
7.700000000000000000e+02,-3.416234703933649364e-01,0.000000000000000000e+00
7.710000000000000000e+02,-4.058173740775910532e-01,0.000000000000000000e+00
7.720000000000000000e+02,-3.353054180574946419e-01,0.000000000000000000e+00
7.730000000000000000e+02,-2.355597221467515823e-01,0.000000000000000000e+00
7.740000000000000000e+02,-2.365020730155784900e-01,0.000000000000000000e+00
7.750000000000000000e+02,-2.628710912676143763e-01,0.000000000000000000e+00
7.760000000000000000e+02,-1.591379046141432052e-01,0.000000000000000000e+00
7.770000000000000000e+02,-1.258974344810942780e-01,0.000000000000000000e+00
7.780000000000000000e+02,-8.932887455467436455e-02,0.000000000000000000e+00
7.790000000000000000e+02,-6.698182489120914351e-02,0.000000000000000000e+00
7.800000000000000000e+02,-2.791747930298422303e-02,0.000000000000000000e+00
7.810000000000000000e+02,-1.764153368051211632e-02,0.000000000000000000e+00
7.820000000000000000e+02,-7.040651511451886946e-02,0.000000000000000000e+00
7.830000000000000000e+02,7.706065517506527351e-02,0.000000000000000000e+00
7.840000000000000000e+02,4.735584904154217789e-02,0.000000000000000000e+00
7.850000000000000000e+02,3.248156447484909504e-01,0.000000000000000000e+00
7.860000000000000000e+02,2.775477021668392719e-01,0.000000000000000000e+00
7.870000000000000000e+02,2.249537484019217826e-01,0.000000000000000000e+00
7.880000000000000000e+02,2.742496992875358974e-01,0.000000000000000000e+00
7.890000000000000000e+02,2.408058502793593292e-01,0.000000000000000000e+00
7.900000000000000000e+02,2.368036402717821898e-01,0.000000000000000000e+00
7.910000000000000000e+02,6.414322766989478952e-02,0.000000000000000000e+00
7.920000000000000000e+02,1.584428723630929570e-01,0.000000000000000000e+00
7.930000000000000000e+02,4.951061953435026983e-04,0.000000000000000000e+00
7.940000000000000000e+02,1.530968416320963310e-01,0.000000000000000000e+00
7.950000000000000000e+02,8.411608791364962034e-02,0.000000000000000000e+00
7.960000000000000000e+02,4.282491215520065064e-02,0.000000000000000000e+00
7.970000000000000000e+02,4.410672129939063185e-02,0.000000000000000000e+00
7.980000000000000000e+02,5.428851476051976127e-02,0.000000000000000000e+00
7.990000000000000000e+02,7.349576666041382489e-02,0.000000000000000000e+00
8.000000000000000000e+02,1.617312905840525838e-01,0.000000000000000000e+00
8.010000000000000000e+02,2.374548122148532892e-01,0.000000000000000000e+00
8.020000000000000000e+02,2.796946512991184131e-01,0.000000000000000000e+00
8.030000000000000000e+02,2.384678008281176653e-01,0.000000000000000000e+00
8.040000000000000000e+02,-6.535229513951421043e-02,0.000000000000000000e+00
8.050000000000000000e+02,5.556689656082001993e-02,0.000000000000000000e+00
8.060000000000000000e+02,-1.295414815501441941e-01,0.000000000000000000e+00
8.070000000000000000e+02,6.516947712142175109e-02,0.000000000000000000e+00
8.080000000000000000e+02,-6.025635358098921923e-01,0.000000000000000000e+00
8.090000000000000000e+02,8.572925591343538709e-01,0.000000000000000000e+00
8.100000000000000000e+02,5.528725965415260291e+00,0.000000000000000000e+00
8.110000000000000000e+02,2.091370858388458931e+00,1.000000000000000000e+00
8.120000000000000000e+02,-7.467606117608663885e-01,0.000000000000000000e+00
8.130000000000000000e+02,-1.088055546273808849e+00,0.000000000000000000e+00
8.140000000000000000e+02,-1.237690151118342463e+00,0.000000000000000000e+00
8.150000000000000000e+02,-9.223235174010344650e-01,0.000000000000000000e+00
8.160000000000000000e+02,-8.878206431474693350e-01,0.000000000000000000e+00
8.170000000000000000e+02,-8.548180336232940046e-01,0.000000000000000000e+00
8.180000000000000000e+02,-7.780426687466733826e-01,0.000000000000000000e+00
8.190000000000000000e+02,-6.469512663294690880e-01,0.000000000000000000e+00
8.200000000000000000e+02,-5.505005962943588793e-01,0.000000000000000000e+00
8.210000000000000000e+02,-5.375193798908023401e-01,0.000000000000000000e+00
8.220000000000000000e+02,-3.630393357369871010e-01,0.000000000000000000e+00
8.230000000000000000e+02,-4.211012476774375624e-01,0.000000000000000000e+00
8.240000000000000000e+02,-3.272051889586595208e-01,0.000000000000000000e+00
8.250000000000000000e+02,-2.420932501441071527e-01,0.000000000000000000e+00
8.260000000000000000e+02,-1.990538403909944687e-01,0.000000000000000000e+00
8.270000000000000000e+02,-1.469432092119608568e-01,0.000000000000000000e+00
8.280000000000000000e+02,-1.535897908570157677e-01,0.000000000000000000e+00
8.290000000000000000e+02,-1.346415541799246829e-01,0.000000000000000000e+00
8.300000000000000000e+02,-1.285845878173352656e-02,0.000000000000000000e+00
8.310000000000000000e+02,-3.918442079549751267e-02,0.000000000000000000e+00
8.320000000000000000e+02,-6.895914012962968409e-02,0.000000000000000000e+00
8.330000000000000000e+02,-4.890173498395072177e-02,0.000000000000000000e+00
8.340000000000000000e+02,1.378208856183075169e-02,0.000000000000000000e+00
8.350000000000000000e+02,-2.249663331726217338e-02,0.000000000000000000e+00
8.360000000000000000e+02,2.710561383879498201e-02,0.000000000000000000e+00
8.370000000000000000e+02,1.854112746209478010e-02,0.000000000000000000e+00
8.380000000000000000e+02,1.263703831606258488e-01,0.000000000000000000e+00
8.390000000000000000e+02,2.108978172503298276e-01,0.000000000000000000e+00
8.400000000000000000e+02,2.488848045324889291e-01,0.000000000000000000e+00
8.410000000000000000e+02,1.198607136867526624e-01,0.000000000000000000e+00
8.420000000000000000e+02,2.305442189116071183e-01,0.000000000000000000e+00
8.430000000000000000e+02,7.936661644559858675e-02,0.000000000000000000e+00
8.440000000000000000e+02,1.255515964141765972e-01,0.000000000000000000e+00
8.450000000000000000e+02,5.499997878846370897e-02,0.000000000000000000e+00
8.460000000000000000e+02,8.489750265041055843e-02,0.000000000000000000e+00
8.470000000000000000e+02,-1.413972389056432702e-02,0.000000000000000000e+00
8.480000000000000000e+02,8.227009787167864630e-02,0.000000000000000000e+00
8.490000000000000000e+02,3.551532714061791246e-02,0.000000000000000000e+00
8.500000000000000000e+02,4.705308395695821655e-02,0.000000000000000000e+00
8.510000000000000000e+02,4.353759313766511485e-02,0.000000000000000000e+00
8.520000000000000000e+02,2.077182234298038249e-02,0.000000000000000000e+00
8.530000000000000000e+02,3.971766959506529276e-02,0.000000000000000000e+00
8.540000000000000000e+02,6.894536021412550619e-02,0.000000000000000000e+00
8.550000000000000000e+02,1.675282050337989492e-01,0.000000000000000000e+00
8.560000000000000000e+02,2.831398279873205137e-01,0.000000000000000000e+00
8.570000000000000000e+02,2.737483958544104090e-01,0.000000000000000000e+00
8.580000000000000000e+02,-5.991331443988943267e-02,0.000000000000000000e+00
8.590000000000000000e+02,-1.269797028441803644e-01,0.000000000000000000e+00
8.600000000000000000e+02,-1.712464636004687180e-01,0.000000000000000000e+00
8.610000000000000000e+02,-1.055605374248967249e-01,0.000000000000000000e+00
8.620000000000000000e+02,-4.245322299561208323e-01,0.000000000000000000e+00
8.630000000000000000e+02,4.214459805826936689e-01,0.000000000000000000e+00
8.640000000000000000e+02,5.928389816306252946e+00,0.000000000000000000e+00
8.650000000000000000e+02,3.091587675534884117e+00,1.000000000000000000e+00
8.660000000000000000e+02,-6.832953149755701672e-01,0.000000000000000000e+00
8.670000000000000000e+02,-1.202602319503784933e+00,0.000000000000000000e+00
8.680000000000000000e+02,-1.409136731172648149e+00,0.000000000000000000e+00
8.690000000000000000e+02,-1.266136607240263778e+00,0.000000000000000000e+00
8.700000000000000000e+02,-1.183080062174190150e+00,0.000000000000000000e+00
8.710000000000000000e+02,-1.025041959797990287e+00,0.000000000000000000e+00
8.720000000000000000e+02,-9.356237913318455890e-01,0.000000000000000000e+00
8.730000000000000000e+02,-8.127455952381990034e-01,0.000000000000000000e+00
8.740000000000000000e+02,-7.328760180704056992e-01,0.000000000000000000e+00
8.750000000000000000e+02,-7.154582004717238153e-01,0.000000000000000000e+00
8.760000000000000000e+02,-5.149794983538279469e-01,0.000000000000000000e+00
8.770000000000000000e+02,-5.056485962375415477e-01,0.000000000000000000e+00
8.780000000000000000e+02,-2.893853775371396098e-01,0.000000000000000000e+00
8.790000000000000000e+02,-3.545028740251360277e-01,0.000000000000000000e+00
8.800000000000000000e+02,-1.355139803666713938e-01,0.000000000000000000e+00
8.810000000000000000e+02,-2.747752863676810597e-01,0.000000000000000000e+00
8.820000000000000000e+02,-8.441108726304306920e-02,0.000000000000000000e+00
8.830000000000000000e+02,-9.858556144531273324e-02,0.000000000000000000e+00
8.840000000000000000e+02,1.450007983051311913e-02,0.000000000000000000e+00
8.850000000000000000e+02,-3.520946502836917041e-02,0.000000000000000000e+00
8.860000000000000000e+02,1.709004132596529113e-01,0.000000000000000000e+00
8.870000000000000000e+02,1.175597570268776260e-01,0.000000000000000000e+00
8.880000000000000000e+02,1.587906255107234821e-01,0.000000000000000000e+00
8.890000000000000000e+02,3.845304007874373459e-02,0.000000000000000000e+00
8.900000000000000000e+02,9.081238858771983891e-02,0.000000000000000000e+00
8.910000000000000000e+02,2.336441389191113924e-02,0.000000000000000000e+00
8.920000000000000000e+02,8.091662176365226056e-02,0.000000000000000000e+00
8.930000000000000000e+02,4.516442078994710452e-02,0.000000000000000000e+00
8.940000000000000000e+02,1.170552211647119117e-01,0.000000000000000000e+00
8.950000000000000000e+02,1.428301598900910407e-01,0.000000000000000000e+00
8.960000000000000000e+02,1.361988698414938748e-01,0.000000000000000000e+00
8.970000000000000000e+02,3.721869673569108000e-02,0.000000000000000000e+00
8.980000000000000000e+02,5.906771233431378637e-02,0.000000000000000000e+00
8.990000000000000000e+02,5.241558529072307127e-03,0.000000000000000000e+00
9.000000000000000000e+02,5.398631099477373130e-02,0.000000000000000000e+00
9.010000000000000000e+02,-3.513383978301969079e-02,0.000000000000000000e+00
9.020000000000000000e+02,8.197979486072527744e-02,0.000000000000000000e+00
9.030000000000000000e+02,-2.545098099991744203e-02,0.000000000000000000e+00
9.040000000000000000e+02,1.462580543701805513e-01,0.000000000000000000e+00
9.050000000000000000e+02,-5.345469421953091826e-02,0.000000000000000000e+00
9.060000000000000000e+02,5.883101858395530653e-02,0.000000000000000000e+00
9.070000000000000000e+02,3.064131622104161734e-02,0.000000000000000000e+00
9.080000000000000000e+02,2.220874687119951951e-01,0.000000000000000000e+00
9.090000000000000000e+02,1.225476230030038138e-01,0.000000000000000000e+00
9.100000000000000000e+02,4.960537483397560177e-01,0.000000000000000000e+00
9.110000000000000000e+02,2.818077456122762281e-01,0.000000000000000000e+00
9.120000000000000000e+02,1.584335809308417553e-01,0.000000000000000000e+00
9.130000000000000000e+02,-1.758986831813388330e-01,0.000000000000000000e+00
9.140000000000000000e+02,6.074686108118816652e-02,0.000000000000000000e+00
9.150000000000000000e+02,-1.776571434304244634e-01,0.000000000000000000e+00
9.160000000000000000e+02,3.707648582334632792e-02,0.000000000000000000e+00
9.170000000000000000e+02,-4.319395814141444578e-01,0.000000000000000000e+00
9.180000000000000000e+02,5.255246744039347107e+00,0.000000000000000000e+00
9.190000000000000000e+02,4.563158094460940895e+00,0.000000000000000000e+00
9.200000000000000000e+02,-3.302799132126235104e-01,1.000000000000000000e+00
9.210000000000000000e+02,-1.113900047948089389e+00,0.000000000000000000e+00
9.220000000000000000e+02,-1.506070291823094820e+00,0.000000000000000000e+00
9.230000000000000000e+02,-1.276104988006267149e+00,0.000000000000000000e+00
9.240000000000000000e+02,-1.205784500618249933e+00,0.000000000000000000e+00
9.250000000000000000e+02,-9.906612217634459538e-01,0.000000000000000000e+00
9.260000000000000000e+02,-9.887164803581494077e-01,0.000000000000000000e+00
9.270000000000000000e+02,-8.475513910159080400e-01,0.000000000000000000e+00
9.280000000000000000e+02,-8.144577531472649845e-01,0.000000000000000000e+00
9.290000000000000000e+02,-6.663131201874622489e-01,0.000000000000000000e+00
9.300000000000000000e+02,-6.896466734307822311e-01,0.000000000000000000e+00
9.310000000000000000e+02,-4.283285628102684317e-01,0.000000000000000000e+00
9.320000000000000000e+02,-4.282759900104517459e-01,0.000000000000000000e+00
9.330000000000000000e+02,-2.498835714015483489e-01,0.000000000000000000e+00
9.340000000000000000e+02,-3.810859837248335991e-01,0.000000000000000000e+00
9.350000000000000000e+02,-2.600381649848884646e-01,0.000000000000000000e+00
9.360000000000000000e+02,-2.750861064320285210e-01,0.000000000000000000e+00
9.370000000000000000e+02,-1.663344240506902383e-01,0.000000000000000000e+00
9.380000000000000000e+02,4.149535509399216587e-03,0.000000000000000000e+00
9.390000000000000000e+02,5.418293162744514113e-02,0.000000000000000000e+00
9.400000000000000000e+02,5.731274094723911618e-03,0.000000000000000000e+00
9.410000000000000000e+02,1.833743098568509089e-01,0.000000000000000000e+00
9.420000000000000000e+02,6.321543511778290880e-02,0.000000000000000000e+00
9.430000000000000000e+02,1.806128112010444708e-01,0.000000000000000000e+00
9.440000000000000000e+02,1.440615422982625682e-01,0.000000000000000000e+00
9.450000000000000000e+02,2.298048995770452796e-01,0.000000000000000000e+00
9.460000000000000000e+02,2.461506077958842131e-01,0.000000000000000000e+00
9.470000000000000000e+02,3.073100387074430007e-01,0.000000000000000000e+00
9.480000000000000000e+02,2.759102835434266154e-01,0.000000000000000000e+00
9.490000000000000000e+02,3.706906179038738647e-01,0.000000000000000000e+00
9.500000000000000000e+02,3.056873283963186805e-01,0.000000000000000000e+00
9.510000000000000000e+02,2.252458780399163862e-01,0.000000000000000000e+00
9.520000000000000000e+02,2.444733009430307691e-01,0.000000000000000000e+00
9.530000000000000000e+02,1.234482989434452505e-01,0.000000000000000000e+00
9.540000000000000000e+02,1.820575754468580221e-01,0.000000000000000000e+00
9.550000000000000000e+02,1.964405189722683576e-01,0.000000000000000000e+00
9.560000000000000000e+02,2.170679696247963808e-01,0.000000000000000000e+00
9.570000000000000000e+02,1.603048201227004477e-01,0.000000000000000000e+00
9.580000000000000000e+02,1.968679333510421903e-01,0.000000000000000000e+00
9.590000000000000000e+02,6.189344349959804287e-02,0.000000000000000000e+00
9.600000000000000000e+02,1.730743769892098272e-01,0.000000000000000000e+00
9.610000000000000000e+02,4.399419351068301759e-02,0.000000000000000000e+00
9.620000000000000000e+02,1.884574160276921984e-01,0.000000000000000000e+00
9.630000000000000000e+02,3.151572150089904656e-01,0.000000000000000000e+00
9.640000000000000000e+02,4.043645297839140174e-01,0.000000000000000000e+00
9.650000000000000000e+02,3.794540760244337618e-01,0.000000000000000000e+00
9.660000000000000000e+02,2.860990688649247549e-01,0.000000000000000000e+00
9.670000000000000000e+02,-1.144365868212949000e-01,0.000000000000000000e+00
9.680000000000000000e+02,6.851493011400668076e-02,0.000000000000000000e+00
9.690000000000000000e+02,-2.709291610492194913e-01,0.000000000000000000e+00
9.700000000000000000e+02,2.036367357162080227e-01,0.000000000000000000e+00
9.710000000000000000e+02,-9.479239368430704138e-01,0.000000000000000000e+00
9.720000000000000000e+02,3.944874201833984184e+00,0.000000000000000000e+00
9.730000000000000000e+02,5.991002400070019718e+00,0.000000000000000000e+00
9.740000000000000000e+02,4.028044068390392307e-01,1.000000000000000000e+00
9.750000000000000000e+02,-1.053569586437506533e+00,0.000000000000000000e+00
9.760000000000000000e+02,-1.619125283095058432e+00,0.000000000000000000e+00
9.770000000000000000e+02,-1.272467604406176234e+00,0.000000000000000000e+00
9.780000000000000000e+02,-1.277186782462162551e+00,0.000000000000000000e+00
9.790000000000000000e+02,-9.808374460766923209e-01,0.000000000000000000e+00
9.800000000000000000e+02,-1.103819235253124642e+00,0.000000000000000000e+00
9.810000000000000000e+02,-7.749181983550023078e-01,0.000000000000000000e+00
9.820000000000000000e+02,-8.787447107083441455e-01,0.000000000000000000e+00
9.830000000000000000e+02,-6.792499647868034396e-01,0.000000000000000000e+00
9.840000000000000000e+02,-5.913630314760384143e-01,0.000000000000000000e+00
9.850000000000000000e+02,-4.921918356277041329e-01,0.000000000000000000e+00
9.860000000000000000e+02,-4.281906896596335277e-01,0.000000000000000000e+00
9.870000000000000000e+02,-3.575696948333648151e-01,0.000000000000000000e+00
9.880000000000000000e+02,-3.962202999206821952e-01,0.000000000000000000e+00
9.890000000000000000e+02,-2.878291924248160827e-01,0.000000000000000000e+00
9.900000000000000000e+02,-2.669822834245200727e-01,0.000000000000000000e+00
9.910000000000000000e+02,-1.934577029172008383e-02,0.000000000000000000e+00
9.920000000000000000e+02,1.711906799350156397e-02,0.000000000000000000e+00
9.930000000000000000e+02,1.875835956635621138e-01,0.000000000000000000e+00
9.940000000000000000e+02,1.328996990525664335e-01,0.000000000000000000e+00
9.950000000000000000e+02,1.832900844319879929e-01,0.000000000000000000e+00
9.960000000000000000e+02,9.666620274322483553e-02,0.000000000000000000e+00
9.970000000000000000e+02,2.527196051420418921e-01,0.000000000000000000e+00
9.980000000000000000e+02,8.251690331440959814e-02,0.000000000000000000e+00
9.990000000000000000e+02,4.388156601770633325e-02,0.000000000000000000e+00
1.000000000000000000e+03,6.634975557164413118e-02,0.000000000000000000e+00
1.001000000000000000e+03,2.602508309075184188e-03,0.000000000000000000e+00
1.002000000000000000e+03,-1.619117844643000112e-02,0.000000000000000000e+00
1.003000000000000000e+03,-5.493204721316475442e-02,0.000000000000000000e+00
1.004000000000000000e+03,-1.990155058969050872e-01,0.000000000000000000e+00
1.005000000000000000e+03,-1.146717377387288794e-01,0.000000000000000000e+00
1.006000000000000000e+03,-2.469844999303218158e-01,0.000000000000000000e+00
1.007000000000000000e+03,-2.254207073599868993e-01,0.000000000000000000e+00
1.008000000000000000e+03,-3.096526237703282058e-01,0.000000000000000000e+00
1.009000000000000000e+03,-2.011663132459610981e-01,0.000000000000000000e+00
1.010000000000000000e+03,-3.531374627803797184e-01,0.000000000000000000e+00
1.011000000000000000e+03,-1.455746534100490486e-01,0.000000000000000000e+00
1.012000000000000000e+03,-1.890724328636496920e-01,0.000000000000000000e+00
1.013000000000000000e+03,-1.812242612512472983e-01,0.000000000000000000e+00
1.014000000000000000e+03,-2.185876165700578744e-01,0.000000000000000000e+00
1.015000000000000000e+03,-8.725018566419588673e-02,0.000000000000000000e+00
1.016000000000000000e+03,-1.593888958272897394e-01,0.000000000000000000e+00
1.017000000000000000e+03,-6.312163200833442733e-02,0.000000000000000000e+00
1.018000000000000000e+03,9.107814034588494756e-02,0.000000000000000000e+00
1.019000000000000000e+03,2.826399635676741795e-01,0.000000000000000000e+00
1.020000000000000000e+03,2.210715663784399987e-01,0.000000000000000000e+00
1.021000000000000000e+03,8.894820821550881995e-02,0.000000000000000000e+00
1.022000000000000000e+03,-2.367639265501216561e-01,0.000000000000000000e+00
1.023000000000000000e+03,-6.828408518072219546e-02,0.000000000000000000e+00
1.024000000000000000e+03,-1.842999799121148863e-01,0.000000000000000000e+00
1.025000000000000000e+03,-4.698620301882682621e-02,0.000000000000000000e+00
1.026000000000000000e+03,-6.622135186191819844e-01,0.000000000000000000e+00
1.027000000000000000e+03,5.348197124445386308e+00,0.000000000000000000e+00
1.028000000000000000e+03,4.164647678897245520e+00,1.000000000000000000e+00
1.029000000000000000e+03,-4.256684347452900918e-01,0.000000000000000000e+00
1.030000000000000000e+03,-9.816720845075588286e-01,0.000000000000000000e+00
1.031000000000000000e+03,-1.216433703872807248e+00,0.000000000000000000e+00
1.032000000000000000e+03,-9.291685669042492046e-01,0.000000000000000000e+00
1.033000000000000000e+03,-1.103097774396190056e+00,0.000000000000000000e+00
1.034000000000000000e+03,-7.824360665387035674e-01,0.000000000000000000e+00
1.035000000000000000e+03,-8.168637873450591558e-01,0.000000000000000000e+00
1.036000000000000000e+03,-5.769320036008247499e-01,0.000000000000000000e+00
1.037000000000000000e+03,-5.386865720515066069e-01,0.000000000000000000e+00
1.038000000000000000e+03,-4.458554531467748827e-01,0.000000000000000000e+00
1.039000000000000000e+03,-3.589533577552260213e-01,0.000000000000000000e+00
1.040000000000000000e+03,-2.362508500787172949e-01,0.000000000000000000e+00
1.041000000000000000e+03,-2.428157108516390272e-01,0.000000000000000000e+00
1.042000000000000000e+03,-1.062005020964484764e-01,0.000000000000000000e+00
1.043000000000000000e+03,-1.719998565753723396e-01,0.000000000000000000e+00
1.044000000000000000e+03,-4.093835724727746400e-02,0.000000000000000000e+00
1.045000000000000000e+03,-1.928661948649261770e-01,0.000000000000000000e+00
1.046000000000000000e+03,1.582484228627798958e-02,0.000000000000000000e+00
1.047000000000000000e+03,6.299737547240255586e-02,0.000000000000000000e+00
1.048000000000000000e+03,8.530951974880779387e-02,0.000000000000000000e+00
1.049000000000000000e+03,3.756468380332691342e-02,0.000000000000000000e+00
1.050000000000000000e+03,7.650520722406983776e-02,0.000000000000000000e+00
1.051000000000000000e+03,1.622104086799727729e-01,0.000000000000000000e+00
1.052000000000000000e+03,2.751210268518634039e-01,0.000000000000000000e+00
1.053000000000000000e+03,2.489735420967178758e-01,0.000000000000000000e+00
1.054000000000000000e+03,3.351817393121677147e-01,0.000000000000000000e+00
1.055000000000000000e+03,2.237637821813231731e-01,0.000000000000000000e+00
1.056000000000000000e+03,3.207554843521996935e-01,0.000000000000000000e+00
1.057000000000000000e+03,2.465707289755653397e-01,0.000000000000000000e+00
1.058000000000000000e+03,2.526791356772583597e-01,0.000000000000000000e+00
1.059000000000000000e+03,1.857998768267354883e-01,0.000000000000000000e+00
1.060000000000000000e+03,1.836202025017708572e-01,0.000000000000000000e+00
1.061000000000000000e+03,4.446250503288221717e-02,0.000000000000000000e+00
1.062000000000000000e+03,1.669584002264832556e-01,0.000000000000000000e+00
1.063000000000000000e+03,7.423505846822447962e-02,0.000000000000000000e+00
1.064000000000000000e+03,1.140497258837283451e-01,0.000000000000000000e+00
1.065000000000000000e+03,8.820975848158868482e-02,0.000000000000000000e+00
1.066000000000000000e+03,1.512471223088949213e-01,0.000000000000000000e+00
1.067000000000000000e+03,2.849758981050822676e-02,0.000000000000000000e+00
1.068000000000000000e+03,1.970811219423830307e-01,0.000000000000000000e+00
1.069000000000000000e+03,1.394958086560733612e-01,0.000000000000000000e+00
1.070000000000000000e+03,2.010156563115635675e-01,0.000000000000000000e+00
1.071000000000000000e+03,1.680465374210866614e-01,0.000000000000000000e+00
1.072000000000000000e+03,3.858543183867612081e-01,0.000000000000000000e+00
1.073000000000000000e+03,3.235501341678617138e-01,0.000000000000000000e+00
1.074000000000000000e+03,3.773655385789734251e-01,0.000000000000000000e+00
1.075000000000000000e+03,3.154609667296965486e-02,0.000000000000000000e+00
1.076000000000000000e+03,6.456625215898076364e-02,0.000000000000000000e+00
1.077000000000000000e+03,-1.939067453066480318e-01,0.000000000000000000e+00
1.078000000000000000e+03,1.454005561032599980e-01,0.000000000000000000e+00
1.079000000000000000e+03,-6.048214039630651628e-01,0.000000000000000000e+00
1.080000000000000000e+03,1.021449348972109927e+00,0.000000000000000000e+00
1.081000000000000000e+03,5.594324228190582282e+00,0.000000000000000000e+00
1.082000000000000000e+03,1.739137199382215337e+00,1.000000000000000000e+00
1.083000000000000000e+03,-7.925390984381437409e-01,0.000000000000000000e+00
1.084000000000000000e+03,-1.134463249553394393e+00,0.000000000000000000e+00
1.085000000000000000e+03,-1.056222398036018806e+00,0.000000000000000000e+00
1.086000000000000000e+03,-1.040943931466032701e+00,0.000000000000000000e+00
1.087000000000000000e+03,-8.688613067699187953e-01,0.000000000000000000e+00
1.088000000000000000e+03,-8.629856029415997609e-01,0.000000000000000000e+00
1.089000000000000000e+03,-8.625625663019812484e-01,0.000000000000000000e+00
1.090000000000000000e+03,-6.337193753900770554e-01,0.000000000000000000e+00
1.091000000000000000e+03,-6.772468179618673645e-01,0.000000000000000000e+00
1.092000000000000000e+03,-6.433928501808922062e-01,0.000000000000000000e+00
1.093000000000000000e+03,-5.266138279171114212e-01,0.000000000000000000e+00
1.094000000000000000e+03,-5.987790570284604597e-01,0.000000000000000000e+00
1.095000000000000000e+03,-4.807180184264217560e-01,0.000000000000000000e+00
1.096000000000000000e+03,-4.158806199466350551e-01,0.000000000000000000e+00
1.097000000000000000e+03,-4.267125430415616427e-01,0.000000000000000000e+00
1.098000000000000000e+03,-5.056933583438761870e-01,0.000000000000000000e+00
1.099000000000000000e+03,-4.372631365186699925e-01,0.000000000000000000e+00
1.100000000000000000e+03,-2.990309357320982686e-01,0.000000000000000000e+00
1.101000000000000000e+03,-2.445252646642735728e-01,0.000000000000000000e+00
1.102000000000000000e+03,-2.047135199549541262e-01,0.000000000000000000e+00
1.103000000000000000e+03,-1.410598864921206175e-01,0.000000000000000000e+00
1.104000000000000000e+03,-1.847043804647664211e-01,0.000000000000000000e+00
1.105000000000000000e+03,-1.962004620459349979e-01,0.000000000000000000e+00
1.106000000000000000e+03,-3.610191689488340128e-02,0.000000000000000000e+00
1.107000000000000000e+03,4.799491295868516666e-02,0.000000000000000000e+00
1.108000000000000000e+03,1.208869134884986152e-01,0.000000000000000000e+00
1.109000000000000000e+03,1.631459999292289853e-01,0.000000000000000000e+00
1.110000000000000000e+03,1.490665156222256704e-01,0.000000000000000000e+00
1.111000000000000000e+03,1.589225660272728657e-01,0.000000000000000000e+00
1.112000000000000000e+03,1.913122360769052566e-01,0.000000000000000000e+00
1.113000000000000000e+03,8.531994410491981762e-02,0.000000000000000000e+00
1.114000000000000000e+03,1.445345291922685016e-01,0.000000000000000000e+00
1.115000000000000000e+03,-1.018706230158396286e-02,0.000000000000000000e+00
1.116000000000000000e+03,1.357902384784695216e-01,0.000000000000000000e+00
1.117000000000000000e+03,-2.271956890474939247e-02,0.000000000000000000e+00
1.118000000000000000e+03,7.494497142926340172e-02,0.000000000000000000e+00
1.119000000000000000e+03,9.751937436237126389e-02,0.000000000000000000e+00
1.120000000000000000e+03,-4.823709844634619520e-02,0.000000000000000000e+00
1.121000000000000000e+03,8.235419773637578378e-03,0.000000000000000000e+00
1.122000000000000000e+03,1.063230272164031043e-01,0.000000000000000000e+00
1.123000000000000000e+03,-2.768187123740668831e-02,0.000000000000000000e+00
1.124000000000000000e+03,1.258582523905497075e-01,0.000000000000000000e+00
1.125000000000000000e+03,1.009035451298517655e-01,0.000000000000000000e+00
1.126000000000000000e+03,3.187191639093935325e-01,0.000000000000000000e+00
1.127000000000000000e+03,2.212553734038769926e-01,0.000000000000000000e+00
1.128000000000000000e+03,3.599143661456526977e-01,0.000000000000000000e+00
1.129000000000000000e+03,-5.025764682835925923e-02,0.000000000000000000e+00
1.130000000000000000e+03,6.039333899211264678e-02,0.000000000000000000e+00
1.131000000000000000e+03,-2.730765327308092849e-01,0.000000000000000000e+00
1.132000000000000000e+03,2.510319411100731535e-01,0.000000000000000000e+00
1.133000000000000000e+03,-8.258567533229874691e-01,0.000000000000000000e+00
1.134000000000000000e+03,2.205687154519472060e+00,0.000000000000000000e+00
1.135000000000000000e+03,5.582158506929073560e+00,0.000000000000000000e+00
1.136000000000000000e+03,9.962582266554114163e-01,1.000000000000000000e+00
1.137000000000000000e+03,-7.319266671288364723e-01,0.000000000000000000e+00
1.138000000000000000e+03,-1.259453912122459052e+00,0.000000000000000000e+00
1.139000000000000000e+03,-9.356085702153753569e-01,0.000000000000000000e+00
1.140000000000000000e+03,-9.928611504098651119e-01,0.000000000000000000e+00
1.141000000000000000e+03,-7.411244097579787748e-01,0.000000000000000000e+00
1.142000000000000000e+03,-8.517890940429093671e-01,0.000000000000000000e+00
1.143000000000000000e+03,-6.807619242389539860e-01,0.000000000000000000e+00
1.144000000000000000e+03,-5.557536966053102656e-01,0.000000000000000000e+00
1.145000000000000000e+03,-4.960872377198888850e-01,0.000000000000000000e+00
1.146000000000000000e+03,-3.499146257493541690e-01,0.000000000000000000e+00
1.147000000000000000e+03,-2.804688451892646817e-01,0.000000000000000000e+00
1.148000000000000000e+03,-3.671428504007347993e-01,0.000000000000000000e+00
1.149000000000000000e+03,-1.068355052895597485e-01,0.000000000000000000e+00
1.150000000000000000e+03,-1.515858414121529496e-01,0.000000000000000000e+00
1.151000000000000000e+03,-1.657603103877486328e-01,0.000000000000000000e+00
1.152000000000000000e+03,-4.607308833916780311e-02,0.000000000000000000e+00
1.153000000000000000e+03,-1.175535824869449741e-01,0.000000000000000000e+00
1.154000000000000000e+03,-9.572477064862405793e-02,0.000000000000000000e+00
1.155000000000000000e+03,2.759877422761312926e-02,0.000000000000000000e+00
1.156000000000000000e+03,4.701581455051522668e-02,0.000000000000000000e+00
1.157000000000000000e+03,1.311301058912586193e-01,0.000000000000000000e+00
1.158000000000000000e+03,6.090627439442801438e-02,0.000000000000000000e+00
1.159000000000000000e+03,3.984490897971734724e-02,0.000000000000000000e+00
1.160000000000000000e+03,1.273300926707852387e-01,0.000000000000000000e+00
1.161000000000000000e+03,2.222648428152726452e-01,0.000000000000000000e+00
1.162000000000000000e+03,2.097331955008317206e-01,0.000000000000000000e+00
1.163000000000000000e+03,3.632289534981647527e-01,0.000000000000000000e+00
1.164000000000000000e+03,2.873189538835390078e-01,0.000000000000000000e+00
1.165000000000000000e+03,3.271849895547673248e-01,0.000000000000000000e+00
1.166000000000000000e+03,3.494442580958720956e-01,0.000000000000000000e+00
1.167000000000000000e+03,2.706182410156737772e-01,0.000000000000000000e+00
1.168000000000000000e+03,2.604715685263144231e-01,0.000000000000000000e+00
1.169000000000000000e+03,2.091832586807580163e-01,0.000000000000000000e+00
1.170000000000000000e+03,1.507608089283947739e-01,0.000000000000000000e+00
1.171000000000000000e+03,1.368190449548670196e-01,0.000000000000000000e+00
1.172000000000000000e+03,1.224410962741163122e-01,0.000000000000000000e+00
1.173000000000000000e+03,8.697369666052820469e-02,0.000000000000000000e+00
1.174000000000000000e+03,1.471150000270927960e-01,0.000000000000000000e+00
1.175000000000000000e+03,-1.445332077026959330e-02,0.000000000000000000e+00
1.176000000000000000e+03,8.567310704376290831e-02,0.000000000000000000e+00
1.177000000000000000e+03,7.171554610076373570e-02,0.000000000000000000e+00
1.178000000000000000e+03,1.219083332879603854e-01,0.000000000000000000e+00
1.179000000000000000e+03,1.558039807328689130e-01,0.000000000000000000e+00
1.180000000000000000e+03,3.117613388698753929e-01,0.000000000000000000e+00
1.181000000000000000e+03,2.508890899526147189e-01,0.000000000000000000e+00
1.182000000000000000e+03,2.287223359674685486e-01,0.000000000000000000e+00
1.183000000000000000e+03,-2.017396276552387568e-01,0.000000000000000000e+00
1.184000000000000000e+03,5.799376856846148037e-02,0.000000000000000000e+00
1.185000000000000000e+03,-3.282245475216139519e-01,0.000000000000000000e+00
1.186000000000000000e+03,9.190244008438820666e-02,0.000000000000000000e+00
1.187000000000000000e+03,-7.840478329062362528e-01,0.000000000000000000e+00
1.188000000000000000e+03,3.934930761769822372e+00,0.000000000000000000e+00
1.189000000000000000e+03,5.325642081233792346e+00,0.000000000000000000e+00
1.190000000000000000e+03,3.135630452534102219e-01,1.000000000000000000e+00
1.191000000000000000e+03,-1.173590382689907674e+00,0.000000000000000000e+00
1.192000000000000000e+03,-1.523880700972159774e+00,0.000000000000000000e+00
1.193000000000000000e+03,-1.268761197938019336e+00,0.000000000000000000e+00
1.194000000000000000e+03,-1.322427777808169891e+00,0.000000000000000000e+00
1.195000000000000000e+03,-1.172098075169295761e+00,0.000000000000000000e+00
1.196000000000000000e+03,-1.122413121408452286e+00,0.000000000000000000e+00
1.197000000000000000e+03,-9.572672891996515387e-01,0.000000000000000000e+00
1.198000000000000000e+03,-9.636690977774305944e-01,0.000000000000000000e+00
1.199000000000000000e+03,-7.660783903008678841e-01,0.000000000000000000e+00
1.200000000000000000e+03,-8.464183706798977802e-01,0.000000000000000000e+00
1.201000000000000000e+03,-6.326942888295045142e-01,0.000000000000000000e+00
1.202000000000000000e+03,-6.417530085387096461e-01,0.000000000000000000e+00
1.203000000000000000e+03,-4.611074887192000427e-01,0.000000000000000000e+00
1.204000000000000000e+03,-5.666630964148265948e-01,0.000000000000000000e+00
1.205000000000000000e+03,-4.407947179251796577e-01,0.000000000000000000e+00
1.206000000000000000e+03,-4.790628131206690066e-01,0.000000000000000000e+00
1.207000000000000000e+03,-2.215687281308450218e-01,0.000000000000000000e+00
1.208000000000000000e+03,-2.043702149168135640e-01,0.000000000000000000e+00
1.209000000000000000e+03,-1.543622134907933208e-01,0.000000000000000000e+00
1.210000000000000000e+03,-1.024922717792687427e-01,0.000000000000000000e+00
1.211000000000000000e+03,-1.246725818600949720e-01,0.000000000000000000e+00
1.212000000000000000e+03,-1.619904423782493053e-01,0.000000000000000000e+00
1.213000000000000000e+03,-2.922640174999316474e-03,0.000000000000000000e+00
1.214000000000000000e+03,-5.110211386549826790e-02,0.000000000000000000e+00
1.215000000000000000e+03,-8.748234122161637275e-03,0.000000000000000000e+00
1.216000000000000000e+03,5.250059589614331640e-02,0.000000000000000000e+00
1.217000000000000000e+03,1.299124075798241129e-01,0.000000000000000000e+00
1.218000000000000000e+03,9.068443294334535554e-02,0.000000000000000000e+00
1.219000000000000000e+03,2.547679483654613497e-01,0.000000000000000000e+00
1.220000000000000000e+03,1.174763940953074959e-01,0.000000000000000000e+00
1.221000000000000000e+03,2.228515776364780598e-01,0.000000000000000000e+00
1.222000000000000000e+03,2.046006301852132669e-01,0.000000000000000000e+00
1.223000000000000000e+03,1.808936987202848234e-01,0.000000000000000000e+00
1.224000000000000000e+03,1.077274076968329046e-02,0.000000000000000000e+00
1.225000000000000000e+03,1.852198350296747897e-01,0.000000000000000000e+00
1.226000000000000000e+03,8.768565395621615022e-02,0.000000000000000000e+00
1.227000000000000000e+03,1.653312034426162591e-01,0.000000000000000000e+00
1.228000000000000000e+03,7.660048173058586762e-02,0.000000000000000000e+00
1.229000000000000000e+03,1.286793358866689385e-01,0.000000000000000000e+00
1.230000000000000000e+03,7.963774370133665237e-02,0.000000000000000000e+00
1.231000000000000000e+03,1.827738766860635966e-01,0.000000000000000000e+00
1.232000000000000000e+03,2.051382929879446981e-01,0.000000000000000000e+00
1.233000000000000000e+03,4.566333786509702009e-01,0.000000000000000000e+00
1.234000000000000000e+03,2.894355653190192612e-01,0.000000000000000000e+00
1.235000000000000000e+03,4.254297569259001266e-01,0.000000000000000000e+00
1.236000000000000000e+03,-1.236839728639497482e-01,0.000000000000000000e+00
1.237000000000000000e+03,8.229470161600412059e-02,0.000000000000000000e+00
1.238000000000000000e+03,-2.086391027859841318e-01,0.000000000000000000e+00
1.239000000000000000e+03,2.384687935219797772e-01,0.000000000000000000e+00
1.240000000000000000e+03,-8.695858076365209355e-01,0.000000000000000000e+00
1.241000000000000000e+03,3.163763114327864834e+00,0.000000000000000000e+00
1.242000000000000000e+03,6.423202828717101909e+00,0.000000000000000000e+00
1.243000000000000000e+03,1.036704781893770244e+00,1.000000000000000000e+00
1.244000000000000000e+03,-9.883111473686431170e-01,0.000000000000000000e+00
1.245000000000000000e+03,-1.446389986100154568e+00,0.000000000000000000e+00
1.246000000000000000e+03,-1.307620151132286468e+00,0.000000000000000000e+00
1.247000000000000000e+03,-1.346566285442841293e+00,0.000000000000000000e+00
1.248000000000000000e+03,-1.085375253674921270e+00,0.000000000000000000e+00
1.249000000000000000e+03,-1.086346321552974725e+00,0.000000000000000000e+00
1.250000000000000000e+03,-8.665170219710088828e-01,0.000000000000000000e+00
1.251000000000000000e+03,-8.928525367702671023e-01,0.000000000000000000e+00
1.252000000000000000e+03,-6.954862438792041024e-01,0.000000000000000000e+00
1.253000000000000000e+03,-6.787400542182812080e-01,0.000000000000000000e+00
1.254000000000000000e+03,-4.645127631941032287e-01,0.000000000000000000e+00
1.255000000000000000e+03,-5.339480877853531871e-01,0.000000000000000000e+00
1.256000000000000000e+03,-3.391208343970371075e-01,0.000000000000000000e+00
1.257000000000000000e+03,-4.669864257486792680e-01,0.000000000000000000e+00
1.258000000000000000e+03,-2.328376365415912308e-01,0.000000000000000000e+00
1.259000000000000000e+03,-2.559968278136618980e-01,0.000000000000000000e+00
1.260000000000000000e+03,-1.958189197443521989e-01,0.000000000000000000e+00
1.261000000000000000e+03,-1.159250336184486641e-01,0.000000000000000000e+00
1.262000000000000000e+03,8.909839481357853530e-02,0.000000000000000000e+00
1.263000000000000000e+03,3.888255959220779812e-03,0.000000000000000000e+00
1.264000000000000000e+03,1.089616041666223861e-01,0.000000000000000000e+00
1.265000000000000000e+03,7.606326585526679285e-02,0.000000000000000000e+00
1.266000000000000000e+03,1.525925343484646757e-01,0.000000000000000000e+00
1.267000000000000000e+03,1.618400378382712501e-01,0.000000000000000000e+00
1.268000000000000000e+03,2.466875471697496380e-01,0.000000000000000000e+00
1.269000000000000000e+03,2.863874723930561750e-01,0.000000000000000000e+00
1.270000000000000000e+03,2.954842882538150084e-01,0.000000000000000000e+00
1.271000000000000000e+03,3.911002505559423303e-01,0.000000000000000000e+00
1.272000000000000000e+03,3.231818256242992016e-01,0.000000000000000000e+00
1.273000000000000000e+03,3.078961016650098026e-01,0.000000000000000000e+00
1.274000000000000000e+03,3.543382863874229849e-01,0.000000000000000000e+00
1.275000000000000000e+03,2.494401004734907445e-01,0.000000000000000000e+00
1.276000000000000000e+03,2.262813902775566710e-01,0.000000000000000000e+00
1.277000000000000000e+03,1.062184358924542771e-01,0.000000000000000000e+00
1.278000000000000000e+03,1.922824954585902191e-01,0.000000000000000000e+00
1.279000000000000000e+03,1.464295608452413078e-01,0.000000000000000000e+00
1.280000000000000000e+03,1.312036175589489650e-01,0.000000000000000000e+00
1.281000000000000000e+03,5.436272417591456879e-02,0.000000000000000000e+00
1.282000000000000000e+03,1.697300306141515391e-01,0.000000000000000000e+00
1.283000000000000000e+03,3.418689055011518013e-02,0.000000000000000000e+00
1.284000000000000000e+03,2.552210187320694823e-01,0.000000000000000000e+00
1.285000000000000000e+03,1.619608325513445801e-01,0.000000000000000000e+00
1.286000000000000000e+03,4.700887390010810019e-01,0.000000000000000000e+00
1.287000000000000000e+03,2.496334092031874119e-01,0.000000000000000000e+00
1.288000000000000000e+03,2.106311877140915334e-01,0.000000000000000000e+00
1.289000000000000000e+03,-2.234889362925110701e-01,0.000000000000000000e+00
1.290000000000000000e+03,6.769237315543920330e-02,0.000000000000000000e+00
1.291000000000000000e+03,-2.672614794287868079e-01,0.000000000000000000e+00
1.292000000000000000e+03,8.967690176166079330e-02,0.000000000000000000e+00
1.293000000000000000e+03,-1.030251616665774916e+00,0.000000000000000000e+00
1.294000000000000000e+03,4.143635562494178082e+00,0.000000000000000000e+00
1.295000000000000000e+03,6.017205470557690283e+00,0.000000000000000000e+00
1.296000000000000000e+03,1.525882840483273883e-01,1.000000000000000000e+00
1.297000000000000000e+03,-1.090263192302781015e+00,0.000000000000000000e+00
1.298000000000000000e+03,-1.662761344081070458e+00,0.000000000000000000e+00
1.299000000000000000e+03,-1.323127055430393328e+00,0.000000000000000000e+00
1.300000000000000000e+03,-1.441219702168776262e+00,0.000000000000000000e+00
1.301000000000000000e+03,-1.106399834692460171e+00,0.000000000000000000e+00
1.302000000000000000e+03,-1.109668964069865593e+00,0.000000000000000000e+00
1.303000000000000000e+03,-8.707281157873166810e-01,0.000000000000000000e+00
1.304000000000000000e+03,-9.933467597663556692e-01,0.000000000000000000e+00
1.305000000000000000e+03,-7.387041002971850290e-01,0.000000000000000000e+00
1.306000000000000000e+03,-7.579472854903460677e-01,0.000000000000000000e+00
1.307000000000000000e+03,-5.276865203329534904e-01,0.000000000000000000e+00
1.308000000000000000e+03,-5.591310077756316277e-01,0.000000000000000000e+00
1.309000000000000000e+03,-4.038165088974900452e-01,0.000000000000000000e+00
1.310000000000000000e+03,-5.094944081935413038e-01,0.000000000000000000e+00
1.311000000000000000e+03,-4.446903585816357474e-01,0.000000000000000000e+00
1.312000000000000000e+03,-4.125308390062723540e-01,0.000000000000000000e+00
1.313000000000000000e+03,-1.712878055218709783e-01,0.000000000000000000e+00
1.314000000000000000e+03,-1.450086086667039809e-01,0.000000000000000000e+00
1.315000000000000000e+03,3.985857799524910455e-03,0.000000000000000000e+00
1.316000000000000000e+03,-1.937461900848259921e-02,0.000000000000000000e+00
1.317000000000000000e+03,-6.161294000214469213e-02,0.000000000000000000e+00
1.318000000000000000e+03,1.484721889489551590e-02,0.000000000000000000e+00
1.319000000000000000e+03,-2.497358076381933200e-03,0.000000000000000000e+00
1.320000000000000000e+03,1.767056072240207054e-01,0.000000000000000000e+00
1.321000000000000000e+03,2.255994696576787695e-01,0.000000000000000000e+00
1.322000000000000000e+03,1.970811191114803795e-01,0.000000000000000000e+00
1.323000000000000000e+03,2.251441139587622986e-01,0.000000000000000000e+00
1.324000000000000000e+03,1.568746694314364643e-01,0.000000000000000000e+00
1.325000000000000000e+03,7.350520652430776736e-02,0.000000000000000000e+00
1.326000000000000000e+03,2.168997248415870938e-01,0.000000000000000000e+00
1.327000000000000000e+03,1.395449111184218216e-01,0.000000000000000000e+00
1.328000000000000000e+03,1.130376197096687879e-01,0.000000000000000000e+00
1.329000000000000000e+03,2.984061931327837425e-02,0.000000000000000000e+00
1.330000000000000000e+03,3.582427834810255479e-02,0.000000000000000000e+00
1.331000000000000000e+03,1.318518262356337400e-01,0.000000000000000000e+00
1.332000000000000000e+03,8.736588702083605829e-02,0.000000000000000000e+00
1.333000000000000000e+03,7.589691467019296645e-02,0.000000000000000000e+00
1.334000000000000000e+03,9.802632415063983196e-02,0.000000000000000000e+00
1.335000000000000000e+03,3.998401432952452053e-03,0.000000000000000000e+00
1.336000000000000000e+03,2.081667717050816879e-01,0.000000000000000000e+00
1.337000000000000000e+03,1.491682428246187408e-01,0.000000000000000000e+00
1.338000000000000000e+03,4.090499345067924453e-01,0.000000000000000000e+00
1.339000000000000000e+03,3.983089428931738119e-01,0.000000000000000000e+00
1.340000000000000000e+03,1.936582889759419501e-01,0.000000000000000000e+00
1.341000000000000000e+03,-9.669633185039065715e-02,0.000000000000000000e+00
1.342000000000000000e+03,3.632674201900599337e-02,0.000000000000000000e+00
1.343000000000000000e+03,-2.094325107527829632e-01,0.000000000000000000e+00
1.344000000000000000e+03,1.771084525453103797e-01,0.000000000000000000e+00
1.345000000000000000e+03,-9.589764701731521290e-01,0.000000000000000000e+00
1.346000000000000000e+03,2.679729192248267555e+00,0.000000000000000000e+00
1.347000000000000000e+03,6.606698675061305259e+00,0.000000000000000000e+00
1.348000000000000000e+03,8.659408902226414240e-01,1.000000000000000000e+00
1.349000000000000000e+03,-8.175689604353535422e-01,0.000000000000000000e+00
1.350000000000000000e+03,-1.544921708063838883e+00,0.000000000000000000e+00
1.351000000000000000e+03,-1.162229627141249999e+00,0.000000000000000000e+00
1.352000000000000000e+03,-1.284537286186488991e+00,0.000000000000000000e+00
1.353000000000000000e+03,-1.038821652900174586e+00,0.000000000000000000e+00
1.354000000000000000e+03,-1.074803523038654118e+00,0.000000000000000000e+00
1.355000000000000000e+03,-7.449426457257004586e-01,0.000000000000000000e+00
1.356000000000000000e+03,-9.294748939791804832e-01,0.000000000000000000e+00
1.357000000000000000e+03,-5.828979625845019941e-01,0.000000000000000000e+00
1.358000000000000000e+03,-6.835240752970943579e-01,0.000000000000000000e+00
1.359000000000000000e+03,-3.892693481917766096e-01,0.000000000000000000e+00
1.360000000000000000e+03,-5.233046125854985409e-01,0.000000000000000000e+00
1.361000000000000000e+03,-2.214025967845432707e-01,0.000000000000000000e+00
1.362000000000000000e+03,-4.038430919945147912e-01,0.000000000000000000e+00
1.363000000000000000e+03,-2.938292798156830199e-01,0.000000000000000000e+00
1.364000000000000000e+03,-2.627084818997716953e-01,0.000000000000000000e+00
1.365000000000000000e+03,-1.672700310765425913e-01,0.000000000000000000e+00
1.366000000000000000e+03,-1.444406512965219491e-01,0.000000000000000000e+00
1.367000000000000000e+03,6.103994800461402803e-02,0.000000000000000000e+00
1.368000000000000000e+03,-4.171595059642378006e-02,0.000000000000000000e+00
1.369000000000000000e+03,1.119206693591635188e-01,0.000000000000000000e+00
1.370000000000000000e+03,-7.716857265343572692e-02,0.000000000000000000e+00
1.371000000000000000e+03,2.318486166749397503e-01,0.000000000000000000e+00
1.372000000000000000e+03,1.657503401897735817e-01,0.000000000000000000e+00
1.373000000000000000e+03,3.435649127940355041e-01,0.000000000000000000e+00
1.374000000000000000e+03,2.360832937782477714e-01,0.000000000000000000e+00
1.375000000000000000e+03,3.734149507303425319e-01,0.000000000000000000e+00
1.376000000000000000e+03,2.717264320712186598e-01,0.000000000000000000e+00
1.377000000000000000e+03,2.775670457778809941e-01,0.000000000000000000e+00
1.378000000000000000e+03,1.787155415108411805e-01,0.000000000000000000e+00
1.379000000000000000e+03,2.629367247166764510e-01,0.000000000000000000e+00
1.380000000000000000e+03,1.548335676378358450e-01,0.000000000000000000e+00
1.381000000000000000e+03,1.699046810725540202e-01,0.000000000000000000e+00
1.382000000000000000e+03,8.551797297998607605e-02,0.000000000000000000e+00
1.383000000000000000e+03,1.155003631090087829e-01,0.000000000000000000e+00
1.384000000000000000e+03,7.048111045835939170e-02,0.000000000000000000e+00
1.385000000000000000e+03,1.337331710069674662e-01,0.000000000000000000e+00
1.386000000000000000e+03,1.502417186571580465e-01,0.000000000000000000e+00
1.387000000000000000e+03,3.156900417396018010e-01,0.000000000000000000e+00
1.388000000000000000e+03,5.994470879344737657e-02,0.000000000000000000e+00
1.389000000000000000e+03,4.406464563217538100e-01,0.000000000000000000e+00
1.390000000000000000e+03,3.046211209149453647e-01,0.000000000000000000e+00
1.391000000000000000e+03,3.651185134828217049e-01,0.000000000000000000e+00
1.392000000000000000e+03,-1.489066215399437731e-01,0.000000000000000000e+00
1.393000000000000000e+03,5.622811600533172971e-02,0.000000000000000000e+00
1.394000000000000000e+03,-3.141493134365798690e-01,0.000000000000000000e+00
1.395000000000000000e+03,3.105010935323351262e-01,0.000000000000000000e+00
1.396000000000000000e+03,-8.531820231557076806e-01,0.000000000000000000e+00
1.397000000000000000e+03,2.215966002108856525e+00,0.000000000000000000e+00
1.398000000000000000e+03,5.506571720561409755e+00,0.000000000000000000e+00
1.399000000000000000e+03,8.385765110839139558e-01,1.000000000000000000e+00
1.400000000000000000e+03,-8.083483498923990096e-01,0.000000000000000000e+00
1.401000000000000000e+03,-1.234333485999500768e+00,0.000000000000000000e+00
1.402000000000000000e+03,-1.144566617508269379e+00,0.000000000000000000e+00
1.403000000000000000e+03,-1.072422470290503416e+00,0.000000000000000000e+00
1.404000000000000000e+03,-9.409769401209832074e-01,0.000000000000000000e+00
1.405000000000000000e+03,-9.011805664832120977e-01,0.000000000000000000e+00
1.406000000000000000e+03,-7.446937851233683681e-01,0.000000000000000000e+00
1.407000000000000000e+03,-7.464271523685790388e-01,0.000000000000000000e+00
1.408000000000000000e+03,-5.564555329028494368e-01,0.000000000000000000e+00
1.409000000000000000e+03,-6.374094721580279010e-01,0.000000000000000000e+00
1.410000000000000000e+03,-4.133454653843767201e-01,0.000000000000000000e+00
1.411000000000000000e+03,-4.683981805942974419e-01,0.000000000000000000e+00
1.412000000000000000e+03,-2.969320247114202171e-01,0.000000000000000000e+00
1.413000000000000000e+03,-3.381013678812707646e-01,0.000000000000000000e+00
1.414000000000000000e+03,-2.509512368458757248e-01,0.000000000000000000e+00
1.415000000000000000e+03,-3.590304470640109935e-01,0.000000000000000000e+00
1.416000000000000000e+03,-2.319975956831873687e-01,0.000000000000000000e+00
1.417000000000000000e+03,-2.354101167736439015e-01,0.000000000000000000e+00
1.418000000000000000e+03,-2.272636081514939621e-01,0.000000000000000000e+00
1.419000000000000000e+03,-1.266312090706551985e-01,0.000000000000000000e+00
1.420000000000000000e+03,-1.444157516562045163e-01,0.000000000000000000e+00
1.421000000000000000e+03,-1.787108813243790395e-01,0.000000000000000000e+00
1.422000000000000000e+03,-1.309034636164875254e-01,0.000000000000000000e+00
1.423000000000000000e+03,3.644718127390445678e-02,0.000000000000000000e+00
1.424000000000000000e+03,3.306015072586181852e-02,0.000000000000000000e+00
1.425000000000000000e+03,2.524773274829130165e-01,0.000000000000000000e+00
1.426000000000000000e+03,1.106805803807429933e-01,0.000000000000000000e+00
1.427000000000000000e+03,2.141236725399436047e-01,0.000000000000000000e+00
1.428000000000000000e+03,2.229135375645116823e-01,0.000000000000000000e+00
1.429000000000000000e+03,1.882512861274633076e-01,0.000000000000000000e+00
1.430000000000000000e+03,2.113753194575817007e-01,0.000000000000000000e+00
1.431000000000000000e+03,1.207456049645480312e-01,0.000000000000000000e+00
1.432000000000000000e+03,8.751345475421189180e-02,0.000000000000000000e+00
1.433000000000000000e+03,5.234370741386207976e-02,0.000000000000000000e+00
1.434000000000000000e+03,1.023462572650234575e-01,0.000000000000000000e+00
1.435000000000000000e+03,4.501393247174136775e-02,0.000000000000000000e+00
1.436000000000000000e+03,6.904075898777858877e-02,0.000000000000000000e+00
1.437000000000000000e+03,1.579225888893243390e-01,0.000000000000000000e+00
1.438000000000000000e+03,4.140383478628560480e-03,0.000000000000000000e+00
1.439000000000000000e+03,1.866254316503724031e-01,0.000000000000000000e+00
1.440000000000000000e+03,5.099649004908678174e-02,0.000000000000000000e+00
1.441000000000000000e+03,2.509333592182951822e-01,0.000000000000000000e+00
1.442000000000000000e+03,3.162382950198888709e-01,0.000000000000000000e+00
1.443000000000000000e+03,2.903106963462292467e-01,0.000000000000000000e+00
1.444000000000000000e+03,-3.122336510888806815e-02,0.000000000000000000e+00
1.445000000000000000e+03,2.457157643168523392e-02,0.000000000000000000e+00
1.446000000000000000e+03,-8.198569906854905054e-02,0.000000000000000000e+00
1.447000000000000000e+03,-4.074295110959163212e-03,0.000000000000000000e+00
1.448000000000000000e+03,-3.575394781462094551e-01,0.000000000000000000e+00
1.449000000000000000e+03,4.236383677277737458e-01,0.000000000000000000e+00
1.450000000000000000e+03,4.799948773097953314e+00,0.000000000000000000e+00
1.451000000000000000e+03,2.233096592824683313e+00,1.000000000000000000e+00
1.452000000000000000e+03,-6.371932110366963498e-01,0.000000000000000000e+00
1.453000000000000000e+03,-8.779150331761551573e-01,0.000000000000000000e+00
1.454000000000000000e+03,-9.559338036509754666e-01,0.000000000000000000e+00
1.455000000000000000e+03,-8.222986592356995583e-01,0.000000000000000000e+00
1.456000000000000000e+03,-8.454249884000163417e-01,0.000000000000000000e+00
1.457000000000000000e+03,-6.818540514605325731e-01,0.000000000000000000e+00
1.458000000000000000e+03,-7.098209285155561155e-01,0.000000000000000000e+00
1.459000000000000000e+03,-5.563964449461366035e-01,0.000000000000000000e+00
1.460000000000000000e+03,-4.729516515062386905e-01,0.000000000000000000e+00
1.461000000000000000e+03,-4.234371009614659176e-01,0.000000000000000000e+00
1.462000000000000000e+03,-4.635311804179981787e-01,0.000000000000000000e+00
1.463000000000000000e+03,-1.518290708713991854e-01,0.000000000000000000e+00
1.464000000000000000e+03,-2.695005546006114527e-01,0.000000000000000000e+00
1.465000000000000000e+03,-2.551832045990244380e-01,0.000000000000000000e+00
1.466000000000000000e+03,-1.734609565666495046e-01,0.000000000000000000e+00
1.467000000000000000e+03,-1.951165874576509807e-01,0.000000000000000000e+00
1.468000000000000000e+03,-1.578721549235972688e-01,0.000000000000000000e+00
1.469000000000000000e+03,-5.232896134367943236e-02,0.000000000000000000e+00
1.470000000000000000e+03,2.217481596147653777e-02,0.000000000000000000e+00
1.471000000000000000e+03,8.056476325079085787e-02,0.000000000000000000e+00
1.472000000000000000e+03,2.349402303408995585e-02,0.000000000000000000e+00
1.473000000000000000e+03,8.240193221948648172e-02,0.000000000000000000e+00
1.474000000000000000e+03,6.034155721496661795e-02,0.000000000000000000e+00
1.475000000000000000e+03,2.128174594384931936e-02,0.000000000000000000e+00
1.476000000000000000e+03,9.342448154444468744e-02,0.000000000000000000e+00
1.477000000000000000e+03,2.248088078469303586e-01,0.000000000000000000e+00
1.478000000000000000e+03,2.882048852538711681e-01,0.000000000000000000e+00
1.479000000000000000e+03,3.236568909044985065e-01,0.000000000000000000e+00
1.480000000000000000e+03,2.689860088347429956e-01,0.000000000000000000e+00
1.481000000000000000e+03,4.187241552725906590e-01,0.000000000000000000e+00
1.482000000000000000e+03,2.634076269281464544e-01,0.000000000000000000e+00
1.483000000000000000e+03,2.844401011661800704e-01,0.000000000000000000e+00
1.484000000000000000e+03,2.112346883926621566e-01,0.000000000000000000e+00
1.485000000000000000e+03,1.489164880560545356e-01,0.000000000000000000e+00
1.486000000000000000e+03,1.278824659595018953e-01,0.000000000000000000e+00
1.487000000000000000e+03,9.304617109933707719e-02,0.000000000000000000e+00
1.488000000000000000e+03,3.702037869824331695e-02,0.000000000000000000e+00
1.489000000000000000e+03,1.208726317309493786e-01,0.000000000000000000e+00
1.490000000000000000e+03,3.716441992719590748e-02,0.000000000000000000e+00
1.491000000000000000e+03,2.268548234069488884e-02,0.000000000000000000e+00
1.492000000000000000e+03,1.537998185223136971e-01,0.000000000000000000e+00
1.493000000000000000e+03,7.435040360483408106e-02,0.000000000000000000e+00
1.494000000000000000e+03,2.342712770476026718e-01,0.000000000000000000e+00
1.495000000000000000e+03,3.367417228239903415e-01,0.000000000000000000e+00
1.496000000000000000e+03,1.760694361287297727e-01,0.000000000000000000e+00
1.497000000000000000e+03,-1.039329063613365044e-02,0.000000000000000000e+00
1.498000000000000000e+03,-1.130826709461686119e-01,0.000000000000000000e+00
1.499000000000000000e+03,-1.925233435390182879e-01,0.000000000000000000e+00
1.500000000000000000e+03,3.227431342030523398e-02,0.000000000000000000e+00
1.501000000000000000e+03,-5.239157726353617095e-01,0.000000000000000000e+00
1.502000000000000000e+03,7.733257809029411289e-01,0.000000000000000000e+00
1.503000000000000000e+03,5.131626871950367708e+00,0.000000000000000000e+00
1.504000000000000000e+03,1.907779932105252874e+00,1.000000000000000000e+00
1.505000000000000000e+03,-6.640617958142535082e-01,0.000000000000000000e+00
1.506000000000000000e+03,-1.100146844824580583e+00,0.000000000000000000e+00
1.507000000000000000e+03,-1.067250729455324842e+00,0.000000000000000000e+00
1.508000000000000000e+03,-1.042463630357577165e+00,0.000000000000000000e+00
1.509000000000000000e+03,-9.054181592561352243e-01,0.000000000000000000e+00
1.510000000000000000e+03,-8.853553882855191848e-01,0.000000000000000000e+00
1.511000000000000000e+03,-6.941980061587005313e-01,0.000000000000000000e+00
1.512000000000000000e+03,-6.444233302325934609e-01,0.000000000000000000e+00
1.513000000000000000e+03,-5.590296207817847529e-01,0.000000000000000000e+00
1.514000000000000000e+03,-5.152926068823800998e-01,0.000000000000000000e+00
1.515000000000000000e+03,-2.912450964381314567e-01,0.000000000000000000e+00
1.516000000000000000e+03,-2.988523287603891410e-01,0.000000000000000000e+00
1.517000000000000000e+03,-2.899063719826737162e-01,0.000000000000000000e+00
1.518000000000000000e+03,-3.035269287602863630e-01,0.000000000000000000e+00
1.519000000000000000e+03,-1.534906983362239463e-01,0.000000000000000000e+00
1.520000000000000000e+03,-2.952213582798153269e-01,0.000000000000000000e+00
1.521000000000000000e+03,-2.337556476082959522e-01,0.000000000000000000e+00
1.522000000000000000e+03,-3.288653579659744364e-01,0.000000000000000000e+00
1.523000000000000000e+03,-2.003174827731297458e-01,0.000000000000000000e+00
1.524000000000000000e+03,-2.554780325540852437e-01,0.000000000000000000e+00
1.525000000000000000e+03,-1.800995133744772714e-01,0.000000000000000000e+00
1.526000000000000000e+03,-3.222826475950908431e-01,0.000000000000000000e+00
1.527000000000000000e+03,-1.582642916064395666e-01,0.000000000000000000e+00
1.528000000000000000e+03,-1.791771008395337261e-01,0.000000000000000000e+00
1.529000000000000000e+03,-2.384970937989477624e-01,0.000000000000000000e+00
1.530000000000000000e+03,-1.169444772941042737e-01,0.000000000000000000e+00
1.531000000000000000e+03,5.289161854722554575e-03,0.000000000000000000e+00
1.532000000000000000e+03,-4.577992133721700552e-02,0.000000000000000000e+00
1.533000000000000000e+03,1.525364735774094871e-01,0.000000000000000000e+00
1.534000000000000000e+03,-5.469524768893422456e-02,0.000000000000000000e+00
1.535000000000000000e+03,1.548129341763016531e-01,0.000000000000000000e+00
1.536000000000000000e+03,-1.521267259798816593e-02,0.000000000000000000e+00
1.537000000000000000e+03,5.411650247927903001e-02,0.000000000000000000e+00
1.538000000000000000e+03,-8.743495390558363167e-02,0.000000000000000000e+00
1.539000000000000000e+03,7.868111346982367693e-02,0.000000000000000000e+00
1.540000000000000000e+03,-4.971122549572010163e-02,0.000000000000000000e+00
1.541000000000000000e+03,4.482516669171372758e-02,0.000000000000000000e+00
1.542000000000000000e+03,-2.903728278000466609e-02,0.000000000000000000e+00
1.543000000000000000e+03,1.316842616561298696e-01,0.000000000000000000e+00
1.544000000000000000e+03,-1.146538433852606516e-02,0.000000000000000000e+00
1.545000000000000000e+03,2.200138228459358747e-01,0.000000000000000000e+00
1.546000000000000000e+03,-1.111368443890307402e-02,0.000000000000000000e+00
1.547000000000000000e+03,4.254211731610467728e-01,0.000000000000000000e+00
1.548000000000000000e+03,1.974999484794607851e-01,0.000000000000000000e+00
1.549000000000000000e+03,4.327451221687584337e-01,0.000000000000000000e+00
1.550000000000000000e+03,-8.896651305100256035e-02,0.000000000000000000e+00
1.551000000000000000e+03,8.674509940130457897e-02,0.000000000000000000e+00
1.552000000000000000e+03,-3.168639056972736845e-01,0.000000000000000000e+00
1.553000000000000000e+03,1.248225182426979801e-01,0.000000000000000000e+00
1.554000000000000000e+03,-7.561670541529418310e-01,0.000000000000000000e+00
1.555000000000000000e+03,2.247238640096841600e+00,0.000000000000000000e+00
1.556000000000000000e+03,5.828842468898624674e+00,0.000000000000000000e+00
1.557000000000000000e+03,1.221047489203138880e+00,1.000000000000000000e+00
1.558000000000000000e+03,-9.111754481129257233e-01,0.000000000000000000e+00
1.559000000000000000e+03,-1.276145969927265922e+00,0.000000000000000000e+00
1.560000000000000000e+03,-1.251092110487574516e+00,0.000000000000000000e+00
1.561000000000000000e+03,-1.168985898865325446e+00,0.000000000000000000e+00
1.562000000000000000e+03,-1.014609356521509298e+00,0.000000000000000000e+00
1.563000000000000000e+03,-9.347029157295534407e-01,0.000000000000000000e+00
1.564000000000000000e+03,-7.347811740900499489e-01,0.000000000000000000e+00
1.565000000000000000e+03,-6.937479877598596856e-01,0.000000000000000000e+00
1.566000000000000000e+03,-7.112546997687723138e-01,0.000000000000000000e+00
1.567000000000000000e+03,-5.636461155509759902e-01,0.000000000000000000e+00
1.568000000000000000e+03,-4.019894071267622326e-01,0.000000000000000000e+00
1.569000000000000000e+03,-3.788851568669156511e-01,0.000000000000000000e+00
1.570000000000000000e+03,-3.013616352708713420e-01,0.000000000000000000e+00
1.571000000000000000e+03,-2.433163914010711693e-01,0.000000000000000000e+00
1.572000000000000000e+03,-1.760665898397884843e-01,0.000000000000000000e+00
1.573000000000000000e+03,-1.742296476768859237e-01,0.000000000000000000e+00
1.574000000000000000e+03,-1.645856014871859008e-01,0.000000000000000000e+00
1.575000000000000000e+03,-2.724573693813844150e-02,0.000000000000000000e+00
1.576000000000000000e+03,-2.397381916190005624e-02,0.000000000000000000e+00
1.577000000000000000e+03,1.116876138690107850e-01,0.000000000000000000e+00
1.578000000000000000e+03,9.422395864264841714e-02,0.000000000000000000e+00
1.579000000000000000e+03,7.323436165560709421e-02,0.000000000000000000e+00
1.580000000000000000e+03,9.665491371612761062e-02,0.000000000000000000e+00
1.581000000000000000e+03,1.031043648813258773e-01,0.000000000000000000e+00
1.582000000000000000e+03,1.591319367991773370e-01,0.000000000000000000e+00
1.583000000000000000e+03,2.509069343466219237e-01,0.000000000000000000e+00
1.584000000000000000e+03,2.294412116461664042e-01,0.000000000000000000e+00
1.585000000000000000e+03,2.587563527778570793e-01,0.000000000000000000e+00
1.586000000000000000e+03,3.324897435449221117e-01,0.000000000000000000e+00
1.587000000000000000e+03,4.218078098381231045e-01,0.000000000000000000e+00
1.588000000000000000e+03,2.506643797902131099e-01,0.000000000000000000e+00
