timestamp,ecg_measurement,qrs_detected
0.000000000000000000e+00,-4.850072760160488716e-01,0.000000000000000000e+00
1.000000000000000000e+00,-4.968040017476477721e-01,0.000000000000000000e+00
2.000000000000000000e+00,-3.423425265026142084e-01,0.000000000000000000e+00
3.000000000000000000e+00,-1.224342893405387100e-01,0.000000000000000000e+00
4.000000000000000000e+00,6.350876516458400442e-03,0.000000000000000000e+00
5.000000000000000000e+00,5.005772929249079350e-01,0.000000000000000000e+00
6.000000000000000000e+00,6.858997603349430427e-01,0.000000000000000000e+00
7.000000000000000000e+00,7.313017118003991568e-01,0.000000000000000000e+00
8.000000000000000000e+00,7.292255822671782628e-01,0.000000000000000000e+00
9.000000000000000000e+00,4.661586507493673537e-01,0.000000000000000000e+00
1.000000000000000000e+01,-1.086679189316589189e-01,0.000000000000000000e+00
1.100000000000000000e+01,-8.006560989505329129e-01,1.000000000000000000e+00
1.200000000000000000e+01,-1.331611761165843122e+00,0.000000000000000000e+00
1.300000000000000000e+01,-1.458185458796462219e+00,0.000000000000000000e+00
1.400000000000000000e+01,-1.336784198249064914e+00,0.000000000000000000e+00
1.500000000000000000e+01,-1.290602107166608725e+00,0.000000000000000000e+00
1.600000000000000000e+01,-1.051050453253271622e+00,0.000000000000000000e+00
1.700000000000000000e+01,-1.024615116354411493e+00,0.000000000000000000e+00
1.800000000000000000e+01,-9.662246162076926215e-01,0.000000000000000000e+00
1.900000000000000000e+01,-8.605790615412727274e-01,0.000000000000000000e+00
2.000000000000000000e+01,-6.565055573618532314e-01,0.000000000000000000e+00
2.100000000000000000e+01,-5.199909887395123276e-01,0.000000000000000000e+00
2.200000000000000000e+01,-4.470912142499803288e-01,0.000000000000000000e+00
2.300000000000000000e+01,-3.421953026389538688e-01,0.000000000000000000e+00
2.400000000000000000e+01,-2.621826120267673477e-01,0.000000000000000000e+00
2.500000000000000000e+01,-2.832611893569665917e-01,0.000000000000000000e+00
2.600000000000000000e+01,-1.175507389960290111e-01,0.000000000000000000e+00
2.700000000000000000e+01,-5.788765992049452885e-02,0.000000000000000000e+00
2.800000000000000000e+01,-1.157480802899827216e-01,0.000000000000000000e+00
2.900000000000000000e+01,-1.102214524584875554e-03,0.000000000000000000e+00
3.000000000000000000e+01,-9.004600630878004108e-03,0.000000000000000000e+00
3.100000000000000000e+01,1.346570964703081297e-01,0.000000000000000000e+00
3.200000000000000000e+01,1.109490919413128052e-01,0.000000000000000000e+00
3.300000000000000000e+01,1.302972550703365151e-01,0.000000000000000000e+00
3.400000000000000000e+01,9.889035269459436894e-02,0.000000000000000000e+00
3.500000000000000000e+01,1.999768163003142474e-01,0.000000000000000000e+00
3.600000000000000000e+01,3.567763101498032108e-01,0.000000000000000000e+00
3.700000000000000000e+01,2.550322737982282373e-01,0.000000000000000000e+00
3.800000000000000000e+01,3.414688305345056074e-01,0.000000000000000000e+00
3.900000000000000000e+01,3.274127278538694341e-01,0.000000000000000000e+00
4.000000000000000000e+01,4.833663850132602358e-01,0.000000000000000000e+00
4.100000000000000000e+01,3.177534034120563788e-01,0.000000000000000000e+00
4.200000000000000000e+01,6.089689918325678075e-01,0.000000000000000000e+00
4.300000000000000000e+01,5.549466442719748205e-01,0.000000000000000000e+00
4.400000000000000000e+01,6.824510700942137964e-01,0.000000000000000000e+00
4.500000000000000000e+01,5.021701913544590612e-01,0.000000000000000000e+00
4.600000000000000000e+01,5.247397251500011267e-02,0.000000000000000000e+00
4.700000000000000000e+01,2.609668844437729174e-01,0.000000000000000000e+00
4.800000000000000000e+01,1.851655609537607716e-01,0.000000000000000000e+00
4.900000000000000000e+01,1.061098477988885597e-01,0.000000000000000000e+00
5.000000000000000000e+01,3.315184633179463769e-01,0.000000000000000000e+00
5.100000000000000000e+01,-3.110529579882533313e-01,0.000000000000000000e+00
5.200000000000000000e+01,1.850481680816171259e+00,0.000000000000000000e+00
5.300000000000000000e+01,5.712054450909707093e+00,0.000000000000000000e+00
5.400000000000000000e+01,1.480359821636486162e+00,1.000000000000000000e+00
5.500000000000000000e+01,-3.716609279937120314e-01,0.000000000000000000e+00
5.600000000000000000e+01,-5.475660850109033140e-01,0.000000000000000000e+00
5.700000000000000000e+01,-7.637088264609133148e-01,0.000000000000000000e+00
5.800000000000000000e+01,-5.226526060358323011e-01,0.000000000000000000e+00
5.900000000000000000e+01,-6.448974149102530973e-01,0.000000000000000000e+00
6.000000000000000000e+01,-3.648763313426687804e-01,0.000000000000000000e+00
6.100000000000000000e+01,-3.802910715791138485e-01,0.000000000000000000e+00
6.200000000000000000e+01,-3.020712690071989948e-01,0.000000000000000000e+00
6.300000000000000000e+01,-2.947665873862914121e-01,0.000000000000000000e+00
6.400000000000000000e+01,-1.340722204679510865e-01,0.000000000000000000e+00
6.500000000000000000e+01,1.364715359960241500e-02,0.000000000000000000e+00
6.600000000000000000e+01,2.516416294254559261e-01,0.000000000000000000e+00
6.700000000000000000e+01,4.105933206474182695e-01,0.000000000000000000e+00
6.800000000000000000e+01,7.826814809392971251e-01,0.000000000000000000e+00
6.900000000000000000e+01,7.220817898058801143e-01,0.000000000000000000e+00
7.000000000000000000e+01,8.073343104758865518e-01,0.000000000000000000e+00
7.100000000000000000e+01,5.345229922584726623e-01,0.000000000000000000e+00
7.200000000000000000e+01,-1.303493383630558063e-02,0.000000000000000000e+00
7.300000000000000000e+01,-7.307748648921392753e-01,0.000000000000000000e+00
7.400000000000000000e+01,-1.183533086876660922e+00,0.000000000000000000e+00
7.500000000000000000e+01,-1.422099262497530381e+00,0.000000000000000000e+00
7.600000000000000000e+01,-1.281056000259700900e+00,0.000000000000000000e+00
7.700000000000000000e+01,-1.115658921404005355e+00,0.000000000000000000e+00
7.800000000000000000e+01,-9.792513078096355406e-01,0.000000000000000000e+00
7.900000000000000000e+01,-9.354950643566077861e-01,0.000000000000000000e+00
8.000000000000000000e+01,-7.964689345228777029e-01,0.000000000000000000e+00
8.100000000000000000e+01,-6.597912466123996289e-01,0.000000000000000000e+00
8.200000000000000000e+01,-5.601432064033778913e-01,0.000000000000000000e+00
8.300000000000000000e+01,-4.693949538714213277e-01,0.000000000000000000e+00
8.400000000000000000e+01,-3.588691925288737261e-01,0.000000000000000000e+00
8.500000000000000000e+01,-3.386126964254095872e-01,0.000000000000000000e+00
8.600000000000000000e+01,-3.224533840597174073e-01,0.000000000000000000e+00
8.700000000000000000e+01,-2.054490028409181046e-01,0.000000000000000000e+00
8.800000000000000000e+01,-2.615770725562657217e-01,0.000000000000000000e+00
8.900000000000000000e+01,-1.692024521375323498e-01,0.000000000000000000e+00
9.000000000000000000e+01,-2.054139122824447106e-01,0.000000000000000000e+00
9.100000000000000000e+01,-2.416302372738403093e-01,0.000000000000000000e+00
9.200000000000000000e+01,-1.493205822443733656e-02,0.000000000000000000e+00
9.300000000000000000e+01,-5.445211728354183017e-02,0.000000000000000000e+00
9.400000000000000000e+01,-1.767348227494647261e-02,0.000000000000000000e+00
9.500000000000000000e+01,-3.547567393088509741e-02,0.000000000000000000e+00
9.600000000000000000e+01,7.149244445703463458e-02,0.000000000000000000e+00
9.700000000000000000e+01,2.250565160772412601e-02,0.000000000000000000e+00
9.800000000000000000e+01,2.543016200515517133e-01,0.000000000000000000e+00
9.900000000000000000e+01,1.022865001943715907e-01,0.000000000000000000e+00
1.000000000000000000e+02,1.556954643976203034e-01,0.000000000000000000e+00
1.010000000000000000e+02,2.381769118733106094e-01,0.000000000000000000e+00
1.020000000000000000e+02,1.494385071263347464e-01,0.000000000000000000e+00
1.030000000000000000e+02,4.094880564368998943e-01,0.000000000000000000e+00
1.040000000000000000e+02,2.708030976674176693e-01,0.000000000000000000e+00
1.050000000000000000e+02,3.414836885775711095e-01,0.000000000000000000e+00
1.060000000000000000e+02,5.785649095529122876e-01,0.000000000000000000e+00
1.070000000000000000e+02,5.957730770443867563e-01,0.000000000000000000e+00
1.080000000000000000e+02,5.333633059251385866e-01,0.000000000000000000e+00
1.090000000000000000e+02,1.168631049998064692e-01,0.000000000000000000e+00
1.100000000000000000e+02,1.425425420032670927e-02,0.000000000000000000e+00
1.110000000000000000e+02,8.488589882317501556e-02,0.000000000000000000e+00
1.120000000000000000e+02,7.958673698180893097e-02,0.000000000000000000e+00
1.130000000000000000e+02,-6.038932169443628900e-02,0.000000000000000000e+00
1.140000000000000000e+02,-1.076707606926134431e-01,0.000000000000000000e+00
1.150000000000000000e+02,1.159374698509700208e+00,0.000000000000000000e+00
1.160000000000000000e+02,6.256092155011697464e+00,0.000000000000000000e+00
1.170000000000000000e+02,2.669970215178142148e+00,1.000000000000000000e+00
1.180000000000000000e+02,-4.346532785491467044e-01,0.000000000000000000e+00
1.190000000000000000e+02,-8.796277470432309897e-01,0.000000000000000000e+00
1.200000000000000000e+02,-9.541027102544119565e-01,0.000000000000000000e+00
1.210000000000000000e+02,-8.942314304791232349e-01,0.000000000000000000e+00
1.220000000000000000e+02,-9.432196796705359931e-01,0.000000000000000000e+00
1.230000000000000000e+02,-7.814491819605035028e-01,0.000000000000000000e+00
1.240000000000000000e+02,-7.301872146801332564e-01,0.000000000000000000e+00
1.250000000000000000e+02,-5.683930973682659316e-01,0.000000000000000000e+00
1.260000000000000000e+02,-3.971149588037000688e-01,0.000000000000000000e+00
1.270000000000000000e+02,-2.940368384081405440e-01,0.000000000000000000e+00
1.280000000000000000e+02,-2.645624261930231147e-01,0.000000000000000000e+00
1.290000000000000000e+02,6.517202482532825913e-02,0.000000000000000000e+00
1.300000000000000000e+02,2.437496568128335872e-01,0.000000000000000000e+00
1.310000000000000000e+02,6.992077626182183758e-01,0.000000000000000000e+00
1.320000000000000000e+02,6.168588858855962309e-01,0.000000000000000000e+00
1.330000000000000000e+02,7.363099496218389328e-01,0.000000000000000000e+00
1.340000000000000000e+02,3.002337626478828736e-01,0.000000000000000000e+00
1.350000000000000000e+02,1.641749851819557793e-01,0.000000000000000000e+00
1.360000000000000000e+02,-5.294785555230370200e-01,0.000000000000000000e+00
1.370000000000000000e+02,-9.789916375602242260e-01,0.000000000000000000e+00
1.380000000000000000e+02,-1.145647851104784065e+00,0.000000000000000000e+00
1.390000000000000000e+02,-1.140737952879878003e+00,0.000000000000000000e+00
1.400000000000000000e+02,-1.098929768846839794e+00,0.000000000000000000e+00
1.410000000000000000e+02,-9.075220756551783952e-01,0.000000000000000000e+00
1.420000000000000000e+02,-7.741146929224745898e-01,0.000000000000000000e+00
1.430000000000000000e+02,-8.893764969927360209e-01,0.000000000000000000e+00
1.440000000000000000e+02,-5.969237785938854568e-01,0.000000000000000000e+00
1.450000000000000000e+02,-4.919039700436713125e-01,0.000000000000000000e+00
1.460000000000000000e+02,-5.191433194799842665e-01,0.000000000000000000e+00
1.470000000000000000e+02,-3.192027993171008271e-01,0.000000000000000000e+00
1.480000000000000000e+02,-2.425612566901165223e-01,0.000000000000000000e+00
1.490000000000000000e+02,-2.502611833375463224e-01,0.000000000000000000e+00
1.500000000000000000e+02,-8.673754807703486225e-02,0.000000000000000000e+00
1.510000000000000000e+02,-2.539737486136040001e-01,0.000000000000000000e+00
1.520000000000000000e+02,-3.825196242568693061e-02,0.000000000000000000e+00
1.530000000000000000e+02,7.568742027743104173e-02,0.000000000000000000e+00
1.540000000000000000e+02,-3.507754489133120546e-02,0.000000000000000000e+00
1.550000000000000000e+02,1.485648678244609888e-01,0.000000000000000000e+00
1.560000000000000000e+02,1.194976267904465650e-01,0.000000000000000000e+00
1.570000000000000000e+02,1.812873646764605051e-01,0.000000000000000000e+00
1.580000000000000000e+02,1.646774014095874761e-01,0.000000000000000000e+00
1.590000000000000000e+02,2.638943297993447956e-01,0.000000000000000000e+00
1.600000000000000000e+02,2.535976038687763889e-01,0.000000000000000000e+00
1.610000000000000000e+02,3.324834078504413926e-01,0.000000000000000000e+00
1.620000000000000000e+02,3.186583122772601584e-01,0.000000000000000000e+00
1.630000000000000000e+02,2.124212770184581989e-01,0.000000000000000000e+00
1.640000000000000000e+02,3.004575938431771065e-01,0.000000000000000000e+00
1.650000000000000000e+02,3.611086952015151175e-01,0.000000000000000000e+00
1.660000000000000000e+02,4.233633274090941589e-01,0.000000000000000000e+00
1.670000000000000000e+02,3.677995028607353722e-01,0.000000000000000000e+00
1.680000000000000000e+02,2.184191658106703349e-01,0.000000000000000000e+00
1.690000000000000000e+02,2.392137397787923170e-01,0.000000000000000000e+00
1.700000000000000000e+02,5.551969294875407357e-01,0.000000000000000000e+00
1.710000000000000000e+02,3.615420474108134719e-01,0.000000000000000000e+00
1.720000000000000000e+02,5.083473927935351355e-01,0.000000000000000000e+00
1.730000000000000000e+02,6.334034180262890779e-01,0.000000000000000000e+00
1.740000000000000000e+02,6.592533329803896835e-01,0.000000000000000000e+00
1.750000000000000000e+02,7.900526214756638244e-02,0.000000000000000000e+00
1.760000000000000000e+02,1.122821916535820530e-01,0.000000000000000000e+00
1.770000000000000000e+02,-6.879278484950224204e-02,0.000000000000000000e+00
1.780000000000000000e+02,-2.663188367088113739e-02,0.000000000000000000e+00
1.790000000000000000e+02,9.904414569192601658e-02,0.000000000000000000e+00
1.800000000000000000e+02,8.143038739031010012e-03,0.000000000000000000e+00
1.810000000000000000e+02,-3.498620528685157383e-01,0.000000000000000000e+00
1.820000000000000000e+02,3.672963331328718883e+00,0.000000000000000000e+00
1.830000000000000000e+02,5.806726156186954313e+00,0.000000000000000000e+00
1.840000000000000000e+02,4.154643359485066800e-01,1.000000000000000000e+00
1.850000000000000000e+02,-3.993669166025302086e-01,0.000000000000000000e+00
1.860000000000000000e+02,-1.273056502435019999e+00,0.000000000000000000e+00
1.870000000000000000e+02,-1.015432394902233026e+00,0.000000000000000000e+00
1.880000000000000000e+02,-1.005328999213538577e+00,0.000000000000000000e+00
1.890000000000000000e+02,-7.798315086978346855e-01,0.000000000000000000e+00
1.900000000000000000e+02,-7.968381198070918492e-01,0.000000000000000000e+00
1.910000000000000000e+02,-7.233478096660230783e-01,0.000000000000000000e+00
1.920000000000000000e+02,-6.010698620800135616e-01,0.000000000000000000e+00
1.930000000000000000e+02,-3.970605916881471686e-01,0.000000000000000000e+00
1.940000000000000000e+02,-3.492951307515622661e-01,0.000000000000000000e+00
1.950000000000000000e+02,-1.589926119640972801e-01,0.000000000000000000e+00
1.960000000000000000e+02,2.291867350649091917e-02,0.000000000000000000e+00
1.970000000000000000e+02,4.677669864619329321e-01,0.000000000000000000e+00
1.980000000000000000e+02,5.168936227426329522e-01,0.000000000000000000e+00
1.990000000000000000e+02,7.978487008901572475e-01,0.000000000000000000e+00
2.000000000000000000e+02,6.256179149274622153e-01,0.000000000000000000e+00
2.010000000000000000e+02,3.990006260639628599e-01,0.000000000000000000e+00
2.020000000000000000e+02,-4.262697627576200188e-01,0.000000000000000000e+00
2.030000000000000000e+02,-7.198024430221056091e-01,0.000000000000000000e+00
2.040000000000000000e+02,-1.391943360657714512e+00,0.000000000000000000e+00
2.050000000000000000e+02,-1.234472133566590912e+00,0.000000000000000000e+00
2.060000000000000000e+02,-1.211549960737517084e+00,0.000000000000000000e+00
2.070000000000000000e+02,-1.053790786935914436e+00,0.000000000000000000e+00
2.080000000000000000e+02,-1.042352125925574580e+00,0.000000000000000000e+00
2.090000000000000000e+02,-9.314235068650053018e-01,0.000000000000000000e+00
2.100000000000000000e+02,-8.115455896699675931e-01,0.000000000000000000e+00
2.110000000000000000e+02,-6.558003171055063474e-01,0.000000000000000000e+00
2.120000000000000000e+02,-6.560135624995728776e-01,0.000000000000000000e+00
2.130000000000000000e+02,-6.797549930901439774e-01,0.000000000000000000e+00
2.140000000000000000e+02,-3.919749222410915945e-01,0.000000000000000000e+00
2.150000000000000000e+02,-3.332399727588215566e-01,0.000000000000000000e+00
2.160000000000000000e+02,-2.539732321144998473e-01,0.000000000000000000e+00
2.170000000000000000e+02,-3.110783385538076207e-01,0.000000000000000000e+00
2.180000000000000000e+02,-2.159483855139071595e-01,0.000000000000000000e+00
2.190000000000000000e+02,-1.458261245622044233e-01,0.000000000000000000e+00
2.200000000000000000e+02,-7.822437612540031338e-02,0.000000000000000000e+00
2.210000000000000000e+02,2.458649332133514692e-02,0.000000000000000000e+00
2.220000000000000000e+02,-4.676980008824549451e-02,0.000000000000000000e+00
2.230000000000000000e+02,-1.312848574384382905e-02,0.000000000000000000e+00
2.240000000000000000e+02,5.836598969398062824e-03,0.000000000000000000e+00
2.250000000000000000e+02,2.362715586875020479e-01,0.000000000000000000e+00
2.260000000000000000e+02,8.505746943058355158e-02,0.000000000000000000e+00
2.270000000000000000e+02,2.469087847446048423e-01,0.000000000000000000e+00
2.280000000000000000e+02,1.126243176221761316e-01,0.000000000000000000e+00
2.290000000000000000e+02,3.467899033334800873e-01,0.000000000000000000e+00
2.300000000000000000e+02,2.688723807463401227e-01,0.000000000000000000e+00
2.310000000000000000e+02,3.183753692255631984e-01,0.000000000000000000e+00
2.320000000000000000e+02,2.559562156257138565e-01,0.000000000000000000e+00
2.330000000000000000e+02,2.833072824088169739e-01,0.000000000000000000e+00
2.340000000000000000e+02,2.624672259504414740e-01,0.000000000000000000e+00
2.350000000000000000e+02,3.770093841204744112e-01,0.000000000000000000e+00
2.360000000000000000e+02,3.378770208009651554e-01,0.000000000000000000e+00
2.370000000000000000e+02,4.029381710448616261e-01,0.000000000000000000e+00
2.380000000000000000e+02,4.583324044745392678e-01,0.000000000000000000e+00
2.390000000000000000e+02,5.481815572473444087e-01,0.000000000000000000e+00
2.400000000000000000e+02,6.076621737292358105e-01,0.000000000000000000e+00
2.410000000000000000e+02,7.932949932478726707e-01,0.000000000000000000e+00
2.420000000000000000e+02,2.397304435547648327e-01,0.000000000000000000e+00
2.430000000000000000e+02,1.185027353531170335e-01,0.000000000000000000e+00
2.440000000000000000e+02,1.737753735623878346e-02,0.000000000000000000e+00
2.450000000000000000e+02,9.546109436806839155e-02,0.000000000000000000e+00
2.460000000000000000e+02,8.079012382585555596e-02,0.000000000000000000e+00
2.470000000000000000e+02,2.002677586509216401e-01,0.000000000000000000e+00
2.480000000000000000e+02,-3.308243673501201076e-01,0.000000000000000000e+00
2.490000000000000000e+02,2.466349065301376875e+00,0.000000000000000000e+00
2.500000000000000000e+02,6.321421912365093654e+00,0.000000000000000000e+00
2.510000000000000000e+02,1.227553108970270479e+00,1.000000000000000000e+00
2.520000000000000000e+02,-4.300778131908395419e-01,0.000000000000000000e+00
2.530000000000000000e+02,-9.599938482287109220e-01,0.000000000000000000e+00
2.540000000000000000e+02,-9.908485128499521233e-01,0.000000000000000000e+00
2.550000000000000000e+02,-1.003974967942395047e+00,0.000000000000000000e+00
2.560000000000000000e+02,-8.531693872860646177e-01,0.000000000000000000e+00
2.570000000000000000e+02,-7.583766374973307522e-01,0.000000000000000000e+00
2.580000000000000000e+02,-6.708260488368235075e-01,0.000000000000000000e+00
2.590000000000000000e+02,-4.653036785082412807e-01,0.000000000000000000e+00
2.600000000000000000e+02,-2.774015622540657033e-01,0.000000000000000000e+00
2.610000000000000000e+02,-3.118435441187202284e-01,0.000000000000000000e+00
2.620000000000000000e+02,-2.731125075018344880e-02,0.000000000000000000e+00
2.630000000000000000e+02,1.255574424420196067e-01,0.000000000000000000e+00
2.640000000000000000e+02,4.358401955799078298e-01,0.000000000000000000e+00
2.650000000000000000e+02,7.860031741115316439e-01,0.000000000000000000e+00
2.660000000000000000e+02,8.010412220393681171e-01,0.000000000000000000e+00
2.670000000000000000e+02,7.156227168470263855e-01,0.000000000000000000e+00
2.680000000000000000e+02,5.623614390936819696e-01,0.000000000000000000e+00
2.690000000000000000e+02,8.487552886249649653e-02,0.000000000000000000e+00
2.700000000000000000e+02,-7.190783130555312708e-01,0.000000000000000000e+00
2.710000000000000000e+02,-1.222810594881046375e+00,0.000000000000000000e+00
2.720000000000000000e+02,-1.334823072549883083e+00,0.000000000000000000e+00
2.730000000000000000e+02,-1.278504987122936587e+00,0.000000000000000000e+00
2.740000000000000000e+02,-1.142308457162310109e+00,0.000000000000000000e+00
2.750000000000000000e+02,-1.164340959715956414e+00,0.000000000000000000e+00
2.760000000000000000e+02,-8.662125067052882654e-01,0.000000000000000000e+00
2.770000000000000000e+02,-8.420549201881216694e-01,0.000000000000000000e+00
2.780000000000000000e+02,-7.416693591122547335e-01,0.000000000000000000e+00
2.790000000000000000e+02,-5.947062161857912255e-01,0.000000000000000000e+00
2.800000000000000000e+02,-5.969981003520563601e-01,0.000000000000000000e+00
2.810000000000000000e+02,-3.415304328423447444e-01,0.000000000000000000e+00
2.820000000000000000e+02,-3.577229612305945494e-01,0.000000000000000000e+00
2.830000000000000000e+02,-3.453682265319773514e-01,0.000000000000000000e+00
2.840000000000000000e+02,-2.603165452573960037e-01,0.000000000000000000e+00
2.850000000000000000e+02,-1.647981962277276502e-01,0.000000000000000000e+00
2.860000000000000000e+02,-2.437277331513276746e-01,0.000000000000000000e+00
2.870000000000000000e+02,-2.166135812147230999e-02,0.000000000000000000e+00
2.880000000000000000e+02,-5.026240152469205191e-02,0.000000000000000000e+00
2.890000000000000000e+02,2.584872453292804892e-02,0.000000000000000000e+00
2.900000000000000000e+02,4.426232677645246250e-02,0.000000000000000000e+00
2.910000000000000000e+02,6.394390655413685620e-02,0.000000000000000000e+00
2.920000000000000000e+02,7.162769470869460864e-02,0.000000000000000000e+00
2.930000000000000000e+02,1.386260408799814270e-01,0.000000000000000000e+00
2.940000000000000000e+02,1.228345326957823724e-01,0.000000000000000000e+00
2.950000000000000000e+02,2.430269238480392557e-01,0.000000000000000000e+00
2.960000000000000000e+02,1.479772432451709196e-01,0.000000000000000000e+00
2.970000000000000000e+02,4.470868517462789904e-01,0.000000000000000000e+00
2.980000000000000000e+02,4.076007562069600132e-02,0.000000000000000000e+00
2.990000000000000000e+02,2.192740558140296447e-01,0.000000000000000000e+00
3.000000000000000000e+02,3.245498540912363783e-01,0.000000000000000000e+00
3.010000000000000000e+02,3.573084454034102797e-01,0.000000000000000000e+00
3.020000000000000000e+02,4.113642229897898073e-01,0.000000000000000000e+00
3.030000000000000000e+02,5.435756650161543968e-01,0.000000000000000000e+00
3.040000000000000000e+02,5.444665024648074336e-01,0.000000000000000000e+00
3.050000000000000000e+02,4.471186864595166344e-01,0.000000000000000000e+00
3.060000000000000000e+02,2.225499627167115343e-02,0.000000000000000000e+00
3.070000000000000000e+02,1.911416869200293911e-01,0.000000000000000000e+00
3.080000000000000000e+02,-9.210143493346520382e-02,0.000000000000000000e+00
3.090000000000000000e+02,2.139193073051058602e-01,0.000000000000000000e+00
3.100000000000000000e+02,2.592047832288327247e-02,0.000000000000000000e+00
3.110000000000000000e+02,-1.987395691969113254e-01,0.000000000000000000e+00
3.120000000000000000e+02,9.111928811726508481e-01,0.000000000000000000e+00
3.130000000000000000e+02,5.649452640062718523e+00,0.000000000000000000e+00
3.140000000000000000e+02,2.690324290225210024e+00,1.000000000000000000e+00
3.150000000000000000e+02,-6.469891399349203542e-01,0.000000000000000000e+00
3.160000000000000000e+02,-4.878788058094878366e-01,0.000000000000000000e+00
3.170000000000000000e+02,-1.046436812808490657e+00,0.000000000000000000e+00
3.180000000000000000e+02,-7.219964127487096262e-01,0.000000000000000000e+00
3.190000000000000000e+02,-8.938421506502751690e-01,0.000000000000000000e+00
3.200000000000000000e+02,-5.382146498755076003e-01,0.000000000000000000e+00
3.210000000000000000e+02,-5.184267093942952487e-01,0.000000000000000000e+00
3.220000000000000000e+02,-2.813202062784478374e-01,0.000000000000000000e+00
3.230000000000000000e+02,-4.872860519707858384e-01,0.000000000000000000e+00
3.240000000000000000e+02,-1.359707383299885719e-01,0.000000000000000000e+00
3.250000000000000000e+02,-1.173264160574543843e-02,0.000000000000000000e+00
3.260000000000000000e+02,7.129167189869803356e-02,0.000000000000000000e+00
3.270000000000000000e+02,3.797898800729247459e-01,0.000000000000000000e+00
3.280000000000000000e+02,7.620627839604027232e-01,0.000000000000000000e+00
3.290000000000000000e+02,6.673513739118965837e-01,0.000000000000000000e+00
3.300000000000000000e+02,9.271942550105894965e-01,0.000000000000000000e+00
3.310000000000000000e+02,6.262972952234198143e-01,0.000000000000000000e+00
3.320000000000000000e+02,1.847725812260331002e-01,0.000000000000000000e+00
3.330000000000000000e+02,-4.433510283981865752e-01,0.000000000000000000e+00
3.340000000000000000e+02,-1.077638213081424823e+00,0.000000000000000000e+00
3.350000000000000000e+02,-1.131480814917853461e+00,0.000000000000000000e+00
3.360000000000000000e+02,-1.183855789665597902e+00,0.000000000000000000e+00
3.370000000000000000e+02,-1.124894770262855781e+00,0.000000000000000000e+00
3.380000000000000000e+02,-9.594302729563879417e-01,0.000000000000000000e+00
3.390000000000000000e+02,-9.432317914922473401e-01,0.000000000000000000e+00
3.400000000000000000e+02,-8.674350694587404931e-01,0.000000000000000000e+00
3.410000000000000000e+02,-5.378065829405425102e-01,0.000000000000000000e+00
3.420000000000000000e+02,-6.214526702094845811e-01,0.000000000000000000e+00
3.430000000000000000e+02,-4.288802508565479066e-01,0.000000000000000000e+00
3.440000000000000000e+02,-3.573969330816281764e-01,0.000000000000000000e+00
3.450000000000000000e+02,-4.004970101263455873e-01,0.000000000000000000e+00
3.460000000000000000e+02,-2.151322916617155467e-01,0.000000000000000000e+00
3.470000000000000000e+02,-1.418187575700743108e-01,0.000000000000000000e+00
3.480000000000000000e+02,-1.717913434238283188e-01,0.000000000000000000e+00
3.490000000000000000e+02,-1.889340834289317261e-01,0.000000000000000000e+00
3.500000000000000000e+02,-4.534244409977755685e-02,0.000000000000000000e+00
3.510000000000000000e+02,2.986777375023392384e-02,0.000000000000000000e+00
3.520000000000000000e+02,-1.034156356514730202e-01,0.000000000000000000e+00
3.530000000000000000e+02,9.218251337036488524e-02,0.000000000000000000e+00
3.540000000000000000e+02,1.357316751353608575e-01,0.000000000000000000e+00
3.550000000000000000e+02,5.966381284927448070e-02,0.000000000000000000e+00
3.560000000000000000e+02,1.466478909080374052e-02,0.000000000000000000e+00
3.570000000000000000e+02,2.948665766294411572e-01,0.000000000000000000e+00
3.580000000000000000e+02,1.338695253290418108e-01,0.000000000000000000e+00
3.590000000000000000e+02,3.678090527294066159e-01,0.000000000000000000e+00
3.600000000000000000e+02,1.795790775472787537e-01,0.000000000000000000e+00
3.610000000000000000e+02,2.361329142817888416e-01,0.000000000000000000e+00
3.620000000000000000e+02,2.924768019145885245e-01,0.000000000000000000e+00
3.630000000000000000e+02,3.451074540934631618e-01,0.000000000000000000e+00
3.640000000000000000e+02,2.546911187488107298e-01,0.000000000000000000e+00
3.650000000000000000e+02,3.118293060141870687e-01,0.000000000000000000e+00
3.660000000000000000e+02,3.808384538034641498e-01,0.000000000000000000e+00
3.670000000000000000e+02,6.533959055099228808e-01,0.000000000000000000e+00
3.680000000000000000e+02,4.221268613707720996e-01,0.000000000000000000e+00
3.690000000000000000e+02,6.779169602686446749e-01,0.000000000000000000e+00
3.700000000000000000e+02,-1.788075304598291115e-03,0.000000000000000000e+00
3.710000000000000000e+02,1.886746459547099589e-02,0.000000000000000000e+00
3.720000000000000000e+02,-3.016973385735313706e-02,0.000000000000000000e+00
3.730000000000000000e+02,2.496803669544520390e-02,0.000000000000000000e+00
3.740000000000000000e+02,-3.920562086033824167e-02,0.000000000000000000e+00
3.750000000000000000e+02,1.371490175389710083e-02,0.000000000000000000e+00
3.760000000000000000e+02,-2.717006332045100447e-01,0.000000000000000000e+00
3.770000000000000000e+02,4.231082935016487134e+00,0.000000000000000000e+00
3.780000000000000000e+02,5.306656552365238255e+00,0.000000000000000000e+00
3.790000000000000000e+02,1.624460231311116443e-01,1.000000000000000000e+00
3.800000000000000000e+02,-4.674209059706201930e-01,0.000000000000000000e+00
3.810000000000000000e+02,-1.210974088539263693e+00,0.000000000000000000e+00
3.820000000000000000e+02,-7.835085965930977947e-01,0.000000000000000000e+00
3.830000000000000000e+02,-1.002500148225875298e+00,0.000000000000000000e+00
3.840000000000000000e+02,-7.262179520842022562e-01,0.000000000000000000e+00
3.850000000000000000e+02,-7.689788045001880734e-01,0.000000000000000000e+00
3.860000000000000000e+02,-4.826743340528661941e-01,0.000000000000000000e+00
3.870000000000000000e+02,-5.661612720841053825e-01,0.000000000000000000e+00
3.880000000000000000e+02,-3.289932409392580248e-01,0.000000000000000000e+00
3.890000000000000000e+02,-2.207684999165328843e-01,0.000000000000000000e+00
3.900000000000000000e+02,-9.042375252014277220e-02,0.000000000000000000e+00
3.910000000000000000e+02,1.603601579097805041e-01,0.000000000000000000e+00
3.920000000000000000e+02,6.204916108246500972e-01,0.000000000000000000e+00
3.930000000000000000e+02,4.899812886505041654e-01,0.000000000000000000e+00
3.940000000000000000e+02,7.838401567708088713e-01,0.000000000000000000e+00
3.950000000000000000e+02,5.845561541960591079e-01,0.000000000000000000e+00
3.960000000000000000e+02,4.336705972243743434e-01,0.000000000000000000e+00
3.970000000000000000e+02,-2.793096996998963855e-01,0.000000000000000000e+00
3.980000000000000000e+02,-7.296683045582753602e-01,0.000000000000000000e+00
3.990000000000000000e+02,-1.281896262910467543e+00,0.000000000000000000e+00
4.000000000000000000e+02,-1.083491590012242156e+00,0.000000000000000000e+00
4.010000000000000000e+02,-1.173669620465749075e+00,0.000000000000000000e+00
4.020000000000000000e+02,-8.959626800030383587e-01,0.000000000000000000e+00
4.030000000000000000e+02,-8.630788239511688609e-01,0.000000000000000000e+00
4.040000000000000000e+02,-8.260194368619774297e-01,0.000000000000000000e+00
4.050000000000000000e+02,-6.312603894984658570e-01,0.000000000000000000e+00
4.060000000000000000e+02,-6.283760448033217649e-01,0.000000000000000000e+00
4.070000000000000000e+02,-5.598652425998389415e-01,0.000000000000000000e+00
4.080000000000000000e+02,-4.117222606468296520e-01,0.000000000000000000e+00
4.090000000000000000e+02,-4.321241710493463062e-01,0.000000000000000000e+00
4.100000000000000000e+02,-3.442420597708262253e-01,0.000000000000000000e+00
4.110000000000000000e+02,-5.301488069446756018e-02,0.000000000000000000e+00
4.120000000000000000e+02,-2.207484213248889215e-01,0.000000000000000000e+00
4.130000000000000000e+02,-1.590915704142980558e-01,0.000000000000000000e+00
4.140000000000000000e+02,-1.586571099440081400e-01,0.000000000000000000e+00
4.150000000000000000e+02,-4.546368407064444589e-02,0.000000000000000000e+00
4.160000000000000000e+02,-3.517979424025715479e-02,0.000000000000000000e+00
4.170000000000000000e+02,9.467487776052609105e-02,0.000000000000000000e+00
4.180000000000000000e+02,1.067217655034684021e-01,0.000000000000000000e+00
4.190000000000000000e+02,1.227525505427086577e-01,0.000000000000000000e+00
4.200000000000000000e+02,8.493689460205471053e-02,0.000000000000000000e+00
4.210000000000000000e+02,2.316077324360709122e-01,0.000000000000000000e+00
4.220000000000000000e+02,1.655022832989501702e-01,0.000000000000000000e+00
4.230000000000000000e+02,4.002920764312877244e-01,0.000000000000000000e+00
4.240000000000000000e+02,2.883490257180498784e-01,0.000000000000000000e+00
4.250000000000000000e+02,4.037898079258205875e-01,0.000000000000000000e+00
4.260000000000000000e+02,1.770332577480633052e-01,0.000000000000000000e+00
4.270000000000000000e+02,2.566644801916938001e-01,0.000000000000000000e+00
4.280000000000000000e+02,2.820360014801654991e-01,0.000000000000000000e+00
4.290000000000000000e+02,3.855643950833573808e-01,0.000000000000000000e+00
4.300000000000000000e+02,2.607225049193327981e-01,0.000000000000000000e+00
4.310000000000000000e+02,5.628082747011553533e-01,0.000000000000000000e+00
4.320000000000000000e+02,6.035598231699231819e-01,0.000000000000000000e+00
4.330000000000000000e+02,6.498457715778240829e-01,0.000000000000000000e+00
4.340000000000000000e+02,3.520552331999897144e-01,0.000000000000000000e+00
4.350000000000000000e+02,3.627183763299269420e-02,0.000000000000000000e+00
4.360000000000000000e+02,-2.965577068919346415e-02,0.000000000000000000e+00
4.370000000000000000e+02,-8.577589211909975725e-03,0.000000000000000000e+00
4.380000000000000000e+02,-9.189763200134321020e-02,0.000000000000000000e+00
4.390000000000000000e+02,-1.026198442490015711e-01,0.000000000000000000e+00
4.400000000000000000e+02,-2.562773949863306755e-01,0.000000000000000000e+00
4.410000000000000000e+02,1.896280433614643046e+00,0.000000000000000000e+00
4.420000000000000000e+02,6.312155488773429468e+00,0.000000000000000000e+00
4.430000000000000000e+02,2.027932962430798014e+00,1.000000000000000000e+00
4.440000000000000000e+02,-5.901387636551063132e-01,0.000000000000000000e+00
4.450000000000000000e+02,-9.181483642388922339e-01,0.000000000000000000e+00
4.460000000000000000e+02,-1.148727157660086595e+00,0.000000000000000000e+00
4.470000000000000000e+02,-9.751840407189285020e-01,0.000000000000000000e+00
4.480000000000000000e+02,-8.178559405549103989e-01,0.000000000000000000e+00
4.490000000000000000e+02,-8.971917637068268503e-01,0.000000000000000000e+00
4.500000000000000000e+02,-6.997624323236217858e-01,0.000000000000000000e+00
4.510000000000000000e+02,-5.287881049036077252e-01,0.000000000000000000e+00
4.520000000000000000e+02,-4.827927864202817831e-01,0.000000000000000000e+00
4.530000000000000000e+02,-3.596845082590321430e-01,0.000000000000000000e+00
4.540000000000000000e+02,-9.928223374285154168e-02,0.000000000000000000e+00
4.550000000000000000e+02,6.315708630056154904e-02,0.000000000000000000e+00
4.560000000000000000e+02,3.518574187594776248e-01,0.000000000000000000e+00
4.570000000000000000e+02,5.517209183973639242e-01,0.000000000000000000e+00
4.580000000000000000e+02,6.350926664982046166e-01,0.000000000000000000e+00
4.590000000000000000e+02,7.263993110511884899e-01,0.000000000000000000e+00
4.600000000000000000e+02,4.604388687820553661e-01,0.000000000000000000e+00
4.610000000000000000e+02,2.065085864519412839e-01,0.000000000000000000e+00
4.620000000000000000e+02,-6.054025527994620903e-01,0.000000000000000000e+00
4.630000000000000000e+02,-1.148294327744703969e+00,0.000000000000000000e+00
4.640000000000000000e+02,-1.286209079273528566e+00,0.000000000000000000e+00
4.650000000000000000e+02,-1.281651057679797034e+00,0.000000000000000000e+00
4.660000000000000000e+02,-1.123346045487990441e+00,0.000000000000000000e+00
4.670000000000000000e+02,-9.299053464570210537e-01,0.000000000000000000e+00
4.680000000000000000e+02,-1.050470453957742523e+00,0.000000000000000000e+00
4.690000000000000000e+02,-9.149522601197351834e-01,0.000000000000000000e+00
4.700000000000000000e+02,-6.864749288662610471e-01,0.000000000000000000e+00
4.710000000000000000e+02,-6.671973832194831866e-01,0.000000000000000000e+00
4.720000000000000000e+02,-5.332460662829312525e-01,0.000000000000000000e+00
4.730000000000000000e+02,-3.627630386709477794e-01,0.000000000000000000e+00
4.740000000000000000e+02,-2.419746515344469162e-01,0.000000000000000000e+00
4.750000000000000000e+02,-3.115044323093560941e-01,0.000000000000000000e+00
4.760000000000000000e+02,-1.255058132057179088e-01,0.000000000000000000e+00
4.770000000000000000e+02,-1.149863796226025803e-01,0.000000000000000000e+00
4.780000000000000000e+02,-1.409905058306857584e-01,0.000000000000000000e+00
4.790000000000000000e+02,-1.301811267520385784e-01,0.000000000000000000e+00
4.800000000000000000e+02,-2.847868182292660408e-02,0.000000000000000000e+00
4.810000000000000000e+02,1.040621035852711262e-01,0.000000000000000000e+00
4.820000000000000000e+02,8.734947945645536727e-02,0.000000000000000000e+00
4.830000000000000000e+02,2.221753943610990378e-01,0.000000000000000000e+00
4.840000000000000000e+02,1.836596847951072198e-01,0.000000000000000000e+00
4.850000000000000000e+02,2.314130659285458802e-01,0.000000000000000000e+00
4.860000000000000000e+02,2.262018596789620861e-01,0.000000000000000000e+00
4.870000000000000000e+02,2.701900284526601026e-01,0.000000000000000000e+00
4.880000000000000000e+02,3.679876887178419875e-01,0.000000000000000000e+00
4.890000000000000000e+02,2.995307853864676573e-01,0.000000000000000000e+00
4.900000000000000000e+02,2.798326622366944516e-01,0.000000000000000000e+00
4.910000000000000000e+02,3.163785830096737528e-01,0.000000000000000000e+00
4.920000000000000000e+02,3.531008087617665270e-01,0.000000000000000000e+00
4.930000000000000000e+02,2.752376466179629610e-01,0.000000000000000000e+00
4.940000000000000000e+02,4.185141019827466891e-01,0.000000000000000000e+00
4.950000000000000000e+02,4.741158304556571945e-01,0.000000000000000000e+00
4.960000000000000000e+02,5.155205270515000882e-01,0.000000000000000000e+00
4.970000000000000000e+02,6.742196558470366918e-01,0.000000000000000000e+00
4.980000000000000000e+02,4.308943842159566606e-01,0.000000000000000000e+00
4.990000000000000000e+02,2.899503141999651423e-02,0.000000000000000000e+00
5.000000000000000000e+02,1.471206720872317297e-01,0.000000000000000000e+00
5.010000000000000000e+02,-8.454532958055303860e-02,0.000000000000000000e+00
5.020000000000000000e+02,1.608519250540203505e-01,0.000000000000000000e+00
5.030000000000000000e+02,-7.283309414425066797e-02,0.000000000000000000e+00
5.040000000000000000e+02,-1.519303248961400843e-01,0.000000000000000000e+00
5.050000000000000000e+02,8.282700532860257647e-01,0.000000000000000000e+00
5.060000000000000000e+02,5.939179360073791436e+00,0.000000000000000000e+00
5.070000000000000000e+02,3.085977377751639938e+00,1.000000000000000000e+00
5.080000000000000000e+02,-4.874146653416465136e-01,0.000000000000000000e+00
5.090000000000000000e+02,-7.742660171307715888e-01,0.000000000000000000e+00
5.100000000000000000e+02,-1.084211514038622148e+00,0.000000000000000000e+00
5.110000000000000000e+02,-8.278267992408062659e-01,0.000000000000000000e+00
5.120000000000000000e+02,-1.058693525101141342e+00,0.000000000000000000e+00
5.130000000000000000e+02,-6.402871470853568336e-01,0.000000000000000000e+00
5.140000000000000000e+02,-7.699552618912764990e-01,0.000000000000000000e+00
5.150000000000000000e+02,-4.256998725579882459e-01,0.000000000000000000e+00
5.160000000000000000e+02,-5.958778062019767230e-01,0.000000000000000000e+00
5.170000000000000000e+02,-3.633942882219577952e-01,0.000000000000000000e+00
5.180000000000000000e+02,-3.104816698081322990e-01,0.000000000000000000e+00
5.190000000000000000e+02,9.446837457529717874e-02,0.000000000000000000e+00
5.200000000000000000e+02,3.221390786722492794e-01,0.000000000000000000e+00
5.210000000000000000e+02,4.823001150926903846e-01,0.000000000000000000e+00
5.220000000000000000e+02,6.949369503134698034e-01,0.000000000000000000e+00
5.230000000000000000e+02,7.603983970571711604e-01,0.000000000000000000e+00
5.240000000000000000e+02,5.568270887200316155e-01,0.000000000000000000e+00
5.250000000000000000e+02,1.484106268287562203e-01,0.000000000000000000e+00
5.260000000000000000e+02,-6.401923538861695739e-01,0.000000000000000000e+00
5.270000000000000000e+02,-1.033410439192378183e+00,0.000000000000000000e+00
5.280000000000000000e+02,-1.342529034837982582e+00,0.000000000000000000e+00
5.290000000000000000e+02,-1.313261866847535542e+00,0.000000000000000000e+00
5.300000000000000000e+02,-1.390067069333352778e+00,0.000000000000000000e+00
5.310000000000000000e+02,-1.043126562231185384e+00,0.000000000000000000e+00
5.320000000000000000e+02,-9.809998808496612765e-01,0.000000000000000000e+00
5.330000000000000000e+02,-7.124709432409958021e-01,0.000000000000000000e+00
5.340000000000000000e+02,-8.922261363711349036e-01,0.000000000000000000e+00
5.350000000000000000e+02,-6.544690685464148450e-01,0.000000000000000000e+00
5.360000000000000000e+02,-4.460827783578219519e-01,0.000000000000000000e+00
5.370000000000000000e+02,-4.323030102319669887e-01,0.000000000000000000e+00
5.380000000000000000e+02,-3.134998701736343985e-01,0.000000000000000000e+00
5.390000000000000000e+02,-3.542140189458919397e-01,0.000000000000000000e+00
5.400000000000000000e+02,-1.971323471618078305e-01,0.000000000000000000e+00
5.410000000000000000e+02,-1.501687614955164174e-01,0.000000000000000000e+00
5.420000000000000000e+02,-5.165261432699504857e-02,0.000000000000000000e+00
5.430000000000000000e+02,-2.222355474867643288e-02,0.000000000000000000e+00
5.440000000000000000e+02,1.779362735457305777e-02,0.000000000000000000e+00
5.450000000000000000e+02,8.707182010986462550e-02,0.000000000000000000e+00
5.460000000000000000e+02,7.452561138992847001e-02,0.000000000000000000e+00
5.470000000000000000e+02,3.478707501575283856e-01,0.000000000000000000e+00
5.480000000000000000e+02,7.731772891487549704e-02,0.000000000000000000e+00
5.490000000000000000e+02,2.430737528889067300e-01,0.000000000000000000e+00
5.500000000000000000e+02,2.669391949520795171e-01,0.000000000000000000e+00
5.510000000000000000e+02,3.507822061172767292e-01,0.000000000000000000e+00
5.520000000000000000e+02,3.073579076695472923e-01,0.000000000000000000e+00
5.530000000000000000e+02,2.751171100545939940e-01,0.000000000000000000e+00
5.540000000000000000e+02,2.800626815267144853e-01,0.000000000000000000e+00
5.550000000000000000e+02,5.836944373961722166e-01,0.000000000000000000e+00
5.560000000000000000e+02,4.198805715697230823e-01,0.000000000000000000e+00
5.570000000000000000e+02,6.371321792963220432e-01,0.000000000000000000e+00
5.580000000000000000e+02,4.995036451935679356e-01,0.000000000000000000e+00
5.590000000000000000e+02,7.210775418711441453e-01,0.000000000000000000e+00
5.600000000000000000e+02,3.660623906767432878e-01,0.000000000000000000e+00
5.610000000000000000e+02,2.969095042288487085e-01,0.000000000000000000e+00
5.620000000000000000e+02,2.019312679551302503e-01,0.000000000000000000e+00
5.630000000000000000e+02,-1.911801189449290408e-02,0.000000000000000000e+00
5.640000000000000000e+02,2.034551393119346241e-01,0.000000000000000000e+00
5.650000000000000000e+02,9.816540093094824893e-02,0.000000000000000000e+00
5.660000000000000000e+02,-1.185432338599166635e-01,0.000000000000000000e+00
5.670000000000000000e+02,2.007614588257244925e+00,0.000000000000000000e+00
5.680000000000000000e+02,5.831752793046270256e+00,0.000000000000000000e+00
5.690000000000000000e+02,1.714840062008709420e+00,1.000000000000000000e+00
5.700000000000000000e+02,-6.396392457684685340e-01,0.000000000000000000e+00
5.710000000000000000e+02,-5.972860021309220890e-01,0.000000000000000000e+00
5.720000000000000000e+02,-9.034036919604406801e-01,0.000000000000000000e+00
5.730000000000000000e+02,-7.058477592926922783e-01,0.000000000000000000e+00
5.740000000000000000e+02,-7.922037867895360685e-01,0.000000000000000000e+00
5.750000000000000000e+02,-3.701032746949634022e-01,0.000000000000000000e+00
5.760000000000000000e+02,-4.885034760447115598e-01,0.000000000000000000e+00
5.770000000000000000e+02,-2.830573332323751967e-01,0.000000000000000000e+00
5.780000000000000000e+02,-1.771968883783519577e-01,0.000000000000000000e+00
5.790000000000000000e+02,-1.566907135458920630e-01,0.000000000000000000e+00
5.800000000000000000e+02,-8.821258873166884507e-02,0.000000000000000000e+00
5.810000000000000000e+02,2.774212247007256105e-01,0.000000000000000000e+00
5.820000000000000000e+02,5.262789558323176520e-01,0.000000000000000000e+00
5.830000000000000000e+02,7.055089928639365349e-01,0.000000000000000000e+00
5.840000000000000000e+02,8.546026071277480485e-01,0.000000000000000000e+00
5.850000000000000000e+02,7.078103338180579129e-01,0.000000000000000000e+00
5.860000000000000000e+02,6.540802181294876894e-01,0.000000000000000000e+00
5.870000000000000000e+02,-6.225254533400157581e-02,0.000000000000000000e+00
5.880000000000000000e+02,-7.643548480004102030e-01,0.000000000000000000e+00
5.890000000000000000e+02,-1.135789489192906565e+00,0.000000000000000000e+00
5.900000000000000000e+02,-1.382237550091358402e+00,0.000000000000000000e+00
5.910000000000000000e+02,-1.320764466895763878e+00,0.000000000000000000e+00
5.920000000000000000e+02,-1.290849502998487885e+00,0.000000000000000000e+00
5.930000000000000000e+02,-1.059913696189691779e+00,0.000000000000000000e+00
5.940000000000000000e+02,-9.986698186622757767e-01,0.000000000000000000e+00
5.950000000000000000e+02,-7.083290306180154428e-01,0.000000000000000000e+00
5.960000000000000000e+02,-7.898710242379436419e-01,0.000000000000000000e+00
5.970000000000000000e+02,-6.778068108622438137e-01,0.000000000000000000e+00
5.980000000000000000e+02,-4.531289848159290035e-01,0.000000000000000000e+00
5.990000000000000000e+02,-3.165179782275255316e-01,0.000000000000000000e+00
6.000000000000000000e+02,-4.492183277021145615e-01,0.000000000000000000e+00
6.010000000000000000e+02,-2.865005179810618530e-01,0.000000000000000000e+00
6.020000000000000000e+02,-3.159166380164225574e-01,0.000000000000000000e+00
6.030000000000000000e+02,-2.557294520727120823e-01,0.000000000000000000e+00
6.040000000000000000e+02,-7.644427721603558323e-02,0.000000000000000000e+00
6.050000000000000000e+02,-1.269630052963010292e-01,0.000000000000000000e+00
6.060000000000000000e+02,-1.708952825169141598e-01,0.000000000000000000e+00
6.070000000000000000e+02,2.059006368237784879e-01,0.000000000000000000e+00
6.080000000000000000e+02,-1.012703926674375365e-01,0.000000000000000000e+00
6.090000000000000000e+02,1.360124974692775990e-01,0.000000000000000000e+00
6.100000000000000000e+02,1.341128972142507404e-02,0.000000000000000000e+00
6.110000000000000000e+02,2.304293699258304351e-01,0.000000000000000000e+00
6.120000000000000000e+02,8.889377852475636999e-02,0.000000000000000000e+00
6.130000000000000000e+02,1.381818587621881644e-01,0.000000000000000000e+00
6.140000000000000000e+02,3.063873077013074542e-01,0.000000000000000000e+00
6.150000000000000000e+02,8.833077774253506043e-02,0.000000000000000000e+00
6.160000000000000000e+02,3.069273745579426671e-01,0.000000000000000000e+00
6.170000000000000000e+02,2.991738008779336599e-01,0.000000000000000000e+00
6.180000000000000000e+02,1.661493903305918673e-01,0.000000000000000000e+00
6.190000000000000000e+02,4.677447382760117622e-01,0.000000000000000000e+00
6.200000000000000000e+02,3.598942898953016445e-01,0.000000000000000000e+00
6.210000000000000000e+02,5.648868244115393678e-01,0.000000000000000000e+00
6.220000000000000000e+02,5.448886938487281784e-01,0.000000000000000000e+00
6.230000000000000000e+02,6.576750234377776172e-01,0.000000000000000000e+00
6.240000000000000000e+02,3.187226589470514293e-01,0.000000000000000000e+00
6.250000000000000000e+02,4.565628392602196634e-02,0.000000000000000000e+00
6.260000000000000000e+02,1.039116492256721563e-01,0.000000000000000000e+00
6.270000000000000000e+02,1.287155723530475915e-01,0.000000000000000000e+00
6.280000000000000000e+02,-1.757979387285689421e-02,0.000000000000000000e+00
6.290000000000000000e+02,1.740902452247922727e-01,0.000000000000000000e+00
6.300000000000000000e+02,-4.893665358492624295e-01,0.000000000000000000e+00
6.310000000000000000e+02,2.653924123945593294e+00,0.000000000000000000e+00
6.320000000000000000e+02,6.236904474065892323e+00,0.000000000000000000e+00
6.330000000000000000e+02,1.418287517989799795e+00,1.000000000000000000e+00
6.340000000000000000e+02,-5.431119134446049657e-01,0.000000000000000000e+00
6.350000000000000000e+02,-1.059965796531928683e+00,0.000000000000000000e+00
6.360000000000000000e+02,-1.021181843031408132e+00,0.000000000000000000e+00
6.370000000000000000e+02,-9.574038662376701536e-01,0.000000000000000000e+00
6.380000000000000000e+02,-9.324826564772445980e-01,0.000000000000000000e+00
6.390000000000000000e+02,-7.436743986609132273e-01,0.000000000000000000e+00
6.400000000000000000e+02,-7.600742394430237692e-01,0.000000000000000000e+00
6.410000000000000000e+02,-6.546308565472920282e-01,0.000000000000000000e+00
6.420000000000000000e+02,-3.586299936476924910e-01,0.000000000000000000e+00
6.430000000000000000e+02,-3.399332822169711665e-01,0.000000000000000000e+00
6.440000000000000000e+02,-1.748067002412957704e-01,0.000000000000000000e+00
6.450000000000000000e+02,-1.420426653923929569e-02,0.000000000000000000e+00
6.460000000000000000e+02,3.394102460295171930e-01,0.000000000000000000e+00
6.470000000000000000e+02,6.876487864480246293e-01,0.000000000000000000e+00
6.480000000000000000e+02,6.617865747142136490e-01,0.000000000000000000e+00
6.490000000000000000e+02,9.084654943510804825e-01,0.000000000000000000e+00
6.500000000000000000e+02,5.133482928934628431e-01,0.000000000000000000e+00
6.510000000000000000e+02,-2.023360284373334761e-01,0.000000000000000000e+00
6.520000000000000000e+02,-7.258058528449798930e-01,0.000000000000000000e+00
6.530000000000000000e+02,-1.015734188703555807e+00,0.000000000000000000e+00
6.540000000000000000e+02,-1.279690139849380959e+00,0.000000000000000000e+00
6.550000000000000000e+02,-1.187501637119932285e+00,0.000000000000000000e+00
6.560000000000000000e+02,-1.160243970180933726e+00,0.000000000000000000e+00
6.570000000000000000e+02,-1.003481887583590471e+00,0.000000000000000000e+00
6.580000000000000000e+02,-8.954720979759051014e-01,0.000000000000000000e+00
6.590000000000000000e+02,-7.262251754307397222e-01,0.000000000000000000e+00
6.600000000000000000e+02,-6.814422655606627854e-01,0.000000000000000000e+00
6.610000000000000000e+02,-5.226842554124956353e-01,0.000000000000000000e+00
6.620000000000000000e+02,-6.059177663735737518e-01,0.000000000000000000e+00
6.630000000000000000e+02,-4.378230797830625631e-01,0.000000000000000000e+00
6.640000000000000000e+02,-3.140369668797338698e-01,0.000000000000000000e+00
6.650000000000000000e+02,-2.680226666464118890e-01,0.000000000000000000e+00
6.660000000000000000e+02,-2.778605459009402812e-01,0.000000000000000000e+00
6.670000000000000000e+02,-8.397629130057729374e-02,0.000000000000000000e+00
6.680000000000000000e+02,-1.669388677090071979e-02,0.000000000000000000e+00
6.690000000000000000e+02,-1.100462381658782601e-01,0.000000000000000000e+00
6.700000000000000000e+02,1.385766947963184594e-03,0.000000000000000000e+00
6.710000000000000000e+02,3.074923466244041184e-02,0.000000000000000000e+00
6.720000000000000000e+02,-1.746744103436447329e-02,0.000000000000000000e+00
6.730000000000000000e+02,1.537303831846666413e-01,0.000000000000000000e+00
6.740000000000000000e+02,8.873095583424979449e-03,0.000000000000000000e+00
6.750000000000000000e+02,2.403697419407903324e-01,0.000000000000000000e+00
6.760000000000000000e+02,2.151811192722851707e-01,0.000000000000000000e+00
6.770000000000000000e+02,1.846309121305432233e-01,0.000000000000000000e+00
6.780000000000000000e+02,3.440209078042097413e-01,0.000000000000000000e+00
6.790000000000000000e+02,2.763096303833776357e-01,0.000000000000000000e+00
6.800000000000000000e+02,1.731833548089885544e-01,0.000000000000000000e+00
6.810000000000000000e+02,4.314863362583669648e-01,0.000000000000000000e+00
6.820000000000000000e+02,2.162448352377062122e-01,0.000000000000000000e+00
6.830000000000000000e+02,2.817696205881516369e-01,0.000000000000000000e+00
6.840000000000000000e+02,4.030252220691456500e-01,0.000000000000000000e+00
6.850000000000000000e+02,3.813943269375425493e-01,0.000000000000000000e+00
6.860000000000000000e+02,2.939662605930594697e-01,0.000000000000000000e+00
6.870000000000000000e+02,7.015384756952538492e-01,0.000000000000000000e+00
6.880000000000000000e+02,7.156235967942470300e-01,0.000000000000000000e+00
6.890000000000000000e+02,7.442629925016821524e-01,0.000000000000000000e+00
6.900000000000000000e+02,3.058461356845634804e-01,0.000000000000000000e+00
6.910000000000000000e+02,6.074948873141108874e-02,0.000000000000000000e+00
6.920000000000000000e+02,2.631793153554412568e-03,0.000000000000000000e+00
6.930000000000000000e+02,2.450545769014519093e-01,0.000000000000000000e+00
6.940000000000000000e+02,-1.613266095832626146e-01,0.000000000000000000e+00
6.950000000000000000e+02,1.146010500789270553e-01,0.000000000000000000e+00
6.960000000000000000e+02,-2.740914917303665654e-01,0.000000000000000000e+00
6.970000000000000000e+02,4.265547485210920087e+00,0.000000000000000000e+00
6.980000000000000000e+02,5.755133868744831460e+00,0.000000000000000000e+00
6.990000000000000000e+02,3.754572805351430453e-01,1.000000000000000000e+00
7.000000000000000000e+02,-5.060865573639993231e-01,0.000000000000000000e+00
7.010000000000000000e+02,-1.231931803936379355e+00,0.000000000000000000e+00
7.020000000000000000e+02,-8.660548745305327589e-01,0.000000000000000000e+00
7.030000000000000000e+02,-9.414807192414736958e-01,0.000000000000000000e+00
7.040000000000000000e+02,-8.247373198683566331e-01,0.000000000000000000e+00
7.050000000000000000e+02,-8.241261576373530851e-01,0.000000000000000000e+00
7.060000000000000000e+02,-6.331941104496717765e-01,0.000000000000000000e+00
7.070000000000000000e+02,-5.106053096765517108e-01,0.000000000000000000e+00
7.080000000000000000e+02,-2.988073018744700216e-01,0.000000000000000000e+00
7.090000000000000000e+02,-4.231126129297200777e-01,0.000000000000000000e+00
7.100000000000000000e+02,4.726717498279393859e-02,0.000000000000000000e+00
7.110000000000000000e+02,-6.318451715827497206e-02,0.000000000000000000e+00
7.120000000000000000e+02,4.656769118560022958e-01,0.000000000000000000e+00
7.130000000000000000e+02,5.749185591162832010e-01,0.000000000000000000e+00
7.140000000000000000e+02,6.623682458403449269e-01,0.000000000000000000e+00
7.150000000000000000e+02,6.834803357964939208e-01,0.000000000000000000e+00
7.160000000000000000e+02,3.346045929930623886e-01,0.000000000000000000e+00
7.170000000000000000e+02,-1.655216533265165824e-01,0.000000000000000000e+00
7.180000000000000000e+02,-9.666196965692620546e-01,0.000000000000000000e+00
7.190000000000000000e+02,-1.182995334363114992e+00,0.000000000000000000e+00
7.200000000000000000e+02,-1.363411963735424948e+00,0.000000000000000000e+00
7.210000000000000000e+02,-1.278546038926796413e+00,0.000000000000000000e+00
7.220000000000000000e+02,-1.080818997527448033e+00,0.000000000000000000e+00
7.230000000000000000e+02,-1.077984049319269610e+00,0.000000000000000000e+00
7.240000000000000000e+02,-9.127557587643485570e-01,0.000000000000000000e+00
7.250000000000000000e+02,-9.350564456829726367e-01,0.000000000000000000e+00
7.260000000000000000e+02,-5.899825342758402424e-01,0.000000000000000000e+00
7.270000000000000000e+02,-6.860513065270484878e-01,0.000000000000000000e+00
7.280000000000000000e+02,-4.482532124771510529e-01,0.000000000000000000e+00
7.290000000000000000e+02,-4.112171513648754106e-01,0.000000000000000000e+00
7.300000000000000000e+02,-2.764505065914357185e-01,0.000000000000000000e+00
7.310000000000000000e+02,-2.901884586958008438e-01,0.000000000000000000e+00
7.320000000000000000e+02,-1.320402069422114688e-01,0.000000000000000000e+00
7.330000000000000000e+02,-1.944406747162438776e-01,0.000000000000000000e+00
7.340000000000000000e+02,-1.501924308536929098e-01,0.000000000000000000e+00
7.350000000000000000e+02,-4.592894057911933031e-02,0.000000000000000000e+00
7.360000000000000000e+02,5.147683392100110833e-02,0.000000000000000000e+00
7.370000000000000000e+02,1.545096221667807135e-01,0.000000000000000000e+00
7.380000000000000000e+02,-1.278977671502572015e-03,0.000000000000000000e+00
7.390000000000000000e+02,8.763941318298736072e-02,0.000000000000000000e+00
7.400000000000000000e+02,1.322140756205130718e-01,0.000000000000000000e+00
7.410000000000000000e+02,3.024834480849684093e-01,0.000000000000000000e+00
7.420000000000000000e+02,1.142663625434741786e-01,0.000000000000000000e+00
7.430000000000000000e+02,3.194464843973593426e-01,0.000000000000000000e+00
7.440000000000000000e+02,2.270886437589779427e-01,0.000000000000000000e+00
7.450000000000000000e+02,1.830028961637863161e-01,0.000000000000000000e+00
7.460000000000000000e+02,3.576927859572341384e-01,0.000000000000000000e+00
7.470000000000000000e+02,3.938522596082801863e-01,0.000000000000000000e+00
7.480000000000000000e+02,3.054528995966713789e-01,0.000000000000000000e+00
7.490000000000000000e+02,3.561483298398429587e-01,0.000000000000000000e+00
7.500000000000000000e+02,4.269822968038000655e-01,0.000000000000000000e+00
7.510000000000000000e+02,3.977664080742769892e-01,0.000000000000000000e+00
7.520000000000000000e+02,4.582131910809439934e-01,0.000000000000000000e+00
7.530000000000000000e+02,5.586484808498536347e-01,0.000000000000000000e+00
7.540000000000000000e+02,6.026751144229356427e-01,0.000000000000000000e+00
7.550000000000000000e+02,7.178034392392249607e-01,0.000000000000000000e+00
7.560000000000000000e+02,4.226582740555973605e-01,0.000000000000000000e+00
7.570000000000000000e+02,6.148978317943041422e-02,0.000000000000000000e+00
7.580000000000000000e+02,-4.703260519747381324e-02,0.000000000000000000e+00
7.590000000000000000e+02,1.398790610286217428e-01,0.000000000000000000e+00
7.600000000000000000e+02,-1.705577880758029491e-02,0.000000000000000000e+00
7.610000000000000000e+02,-5.238404779584047814e-03,0.000000000000000000e+00
7.620000000000000000e+02,-3.744505306266006084e-01,0.000000000000000000e+00
7.630000000000000000e+02,2.489816165822484439e+00,0.000000000000000000e+00
7.640000000000000000e+02,6.349474480627429251e+00,0.000000000000000000e+00
7.650000000000000000e+02,1.367073124852870025e+00,1.000000000000000000e+00
7.660000000000000000e+02,-4.709436912321879332e-01,0.000000000000000000e+00
7.670000000000000000e+02,-1.055550811991264437e+00,0.000000000000000000e+00
7.680000000000000000e+02,-1.089572745149779864e+00,0.000000000000000000e+00
7.690000000000000000e+02,-1.089866704898427185e+00,0.000000000000000000e+00
7.700000000000000000e+02,-8.960917061118047755e-01,0.000000000000000000e+00
7.710000000000000000e+02,-7.910697439230558459e-01,0.000000000000000000e+00
7.720000000000000000e+02,-6.591317248962534903e-01,0.000000000000000000e+00
7.730000000000000000e+02,-5.664519314632698865e-01,0.000000000000000000e+00
7.740000000000000000e+02,-4.272814167376025041e-01,0.000000000000000000e+00
7.750000000000000000e+02,-4.193585414687895918e-01,0.000000000000000000e+00
7.760000000000000000e+02,3.830243676170570766e-02,0.000000000000000000e+00
7.770000000000000000e+02,1.201367649433150164e-01,0.000000000000000000e+00
7.780000000000000000e+02,4.961237383814774971e-01,0.000000000000000000e+00
7.790000000000000000e+02,7.145922967182249952e-01,0.000000000000000000e+00
7.800000000000000000e+02,7.581413029500297940e-01,0.000000000000000000e+00
7.810000000000000000e+02,7.407167962118554883e-01,0.000000000000000000e+00
7.820000000000000000e+02,4.517171958111932395e-01,0.000000000000000000e+00
7.830000000000000000e+02,-4.313284717388163325e-02,0.000000000000000000e+00
7.840000000000000000e+02,-6.921143054091724034e-01,0.000000000000000000e+00
7.850000000000000000e+02,-1.189196783586350392e+00,0.000000000000000000e+00
7.860000000000000000e+02,-1.346963338141438538e+00,0.000000000000000000e+00
7.870000000000000000e+02,-1.420730224802915664e+00,0.000000000000000000e+00
7.880000000000000000e+02,-1.154554139790093359e+00,0.000000000000000000e+00
7.890000000000000000e+02,-1.147717240272566830e+00,0.000000000000000000e+00
7.900000000000000000e+02,-9.786698506570336020e-01,0.000000000000000000e+00
7.910000000000000000e+02,-9.060108007730751645e-01,0.000000000000000000e+00
7.920000000000000000e+02,-7.709953095390248423e-01,0.000000000000000000e+00
7.930000000000000000e+02,-8.886229250339290342e-01,0.000000000000000000e+00
7.940000000000000000e+02,-4.313013385881639961e-01,0.000000000000000000e+00
7.950000000000000000e+02,-4.795738942360390777e-01,0.000000000000000000e+00
7.960000000000000000e+02,-3.230512735793028556e-01,0.000000000000000000e+00
7.970000000000000000e+02,-3.194054955272276897e-01,0.000000000000000000e+00
7.980000000000000000e+02,-2.330094108391238261e-01,0.000000000000000000e+00
7.990000000000000000e+02,-2.156038716767082475e-01,0.000000000000000000e+00
8.000000000000000000e+02,-1.572327629761937906e-01,0.000000000000000000e+00
8.010000000000000000e+02,-8.738009971557239575e-02,0.000000000000000000e+00
8.020000000000000000e+02,-6.630888666908967000e-02,0.000000000000000000e+00
8.030000000000000000e+02,7.530423652580707852e-03,0.000000000000000000e+00
8.040000000000000000e+02,1.108639788425462430e-01,0.000000000000000000e+00
8.050000000000000000e+02,1.205835440906381263e-02,0.000000000000000000e+00
8.060000000000000000e+02,1.600649800821079272e-01,0.000000000000000000e+00
8.070000000000000000e+02,2.808647332681530329e-01,0.000000000000000000e+00
8.080000000000000000e+02,2.043317998396554369e-01,0.000000000000000000e+00
8.090000000000000000e+02,3.483900997728542337e-01,0.000000000000000000e+00
8.100000000000000000e+02,2.303900617828886499e-01,0.000000000000000000e+00
8.110000000000000000e+02,3.041364823027453701e-01,0.000000000000000000e+00
8.120000000000000000e+02,2.088953567181505988e-01,0.000000000000000000e+00
8.130000000000000000e+02,4.223329353517960016e-01,0.000000000000000000e+00
8.140000000000000000e+02,3.429238415409249230e-01,0.000000000000000000e+00
8.150000000000000000e+02,3.789656291097752150e-01,0.000000000000000000e+00
8.160000000000000000e+02,4.412949770689488238e-01,0.000000000000000000e+00
8.170000000000000000e+02,5.515984765819670343e-01,0.000000000000000000e+00
8.180000000000000000e+02,5.825277768171341908e-01,0.000000000000000000e+00
8.190000000000000000e+02,7.817098653590603963e-01,0.000000000000000000e+00
8.200000000000000000e+02,3.907194969075792890e-01,0.000000000000000000e+00
8.210000000000000000e+02,1.220479682292518603e-01,0.000000000000000000e+00
8.220000000000000000e+02,8.354035833871534256e-02,0.000000000000000000e+00
8.230000000000000000e+02,-6.112426363004330038e-02,0.000000000000000000e+00
8.240000000000000000e+02,1.411825328520025236e-01,0.000000000000000000e+00
8.250000000000000000e+02,1.319067616840272072e-01,0.000000000000000000e+00
8.260000000000000000e+02,-2.665510944107721825e-01,0.000000000000000000e+00
8.270000000000000000e+02,2.322565409585997553e+00,0.000000000000000000e+00
8.280000000000000000e+02,6.529382705912984974e+00,0.000000000000000000e+00
8.290000000000000000e+02,1.635131579237303567e+00,1.000000000000000000e+00
8.300000000000000000e+02,-5.084482679006490091e-01,0.000000000000000000e+00
8.310000000000000000e+02,-9.268235488922927923e-01,0.000000000000000000e+00
8.320000000000000000e+02,-1.062751274217373920e+00,0.000000000000000000e+00
8.330000000000000000e+02,-8.413692680220222764e-01,0.000000000000000000e+00
8.340000000000000000e+02,-8.312781154152267815e-01,0.000000000000000000e+00
8.350000000000000000e+02,-6.826518800452290314e-01,0.000000000000000000e+00
8.360000000000000000e+02,-6.737650294497985470e-01,0.000000000000000000e+00
8.370000000000000000e+02,-5.848849599691013923e-01,0.000000000000000000e+00
8.380000000000000000e+02,-2.849891139978960042e-01,0.000000000000000000e+00
8.390000000000000000e+02,-3.148995874043141741e-01,0.000000000000000000e+00
8.400000000000000000e+02,-7.739352798523550792e-02,0.000000000000000000e+00
8.410000000000000000e+02,9.408377507843858345e-02,0.000000000000000000e+00
8.420000000000000000e+02,3.862797869030563658e-01,0.000000000000000000e+00
8.430000000000000000e+02,5.149403550959835707e-01,0.000000000000000000e+00
8.440000000000000000e+02,7.083824788113908255e-01,0.000000000000000000e+00
8.450000000000000000e+02,7.635439880922805234e-01,0.000000000000000000e+00
8.460000000000000000e+02,5.921299551476768563e-01,0.000000000000000000e+00
8.470000000000000000e+02,-1.357171564906379246e-01,0.000000000000000000e+00
8.480000000000000000e+02,-6.440731511937244358e-01,0.000000000000000000e+00
8.490000000000000000e+02,-1.160753162496457325e+00,0.000000000000000000e+00
8.500000000000000000e+02,-1.387486639557963475e+00,0.000000000000000000e+00
8.510000000000000000e+02,-1.242119824452656784e+00,0.000000000000000000e+00
8.520000000000000000e+02,-1.205344366488517949e+00,0.000000000000000000e+00
8.530000000000000000e+02,-9.527019025831890975e-01,0.000000000000000000e+00
8.540000000000000000e+02,-1.068186641082307542e+00,0.000000000000000000e+00
8.550000000000000000e+02,-7.749855403308313351e-01,0.000000000000000000e+00
8.560000000000000000e+02,-7.519641403907023625e-01,0.000000000000000000e+00
8.570000000000000000e+02,-6.176277781090975250e-01,0.000000000000000000e+00
8.580000000000000000e+02,-4.783197123959668784e-01,0.000000000000000000e+00
8.590000000000000000e+02,-4.029367932683357023e-01,0.000000000000000000e+00
8.600000000000000000e+02,-2.311826892964366775e-01,0.000000000000000000e+00
8.610000000000000000e+02,-2.460199543965414792e-01,0.000000000000000000e+00
8.620000000000000000e+02,-2.122612392708536910e-01,0.000000000000000000e+00
8.630000000000000000e+02,-3.011581670017942636e-01,0.000000000000000000e+00
8.640000000000000000e+02,-1.523909403936999328e-02,0.000000000000000000e+00
8.650000000000000000e+02,-1.423558422519808353e-01,0.000000000000000000e+00
8.660000000000000000e+02,1.187570793086747305e-03,0.000000000000000000e+00
8.670000000000000000e+02,9.413477018410063577e-04,0.000000000000000000e+00
8.680000000000000000e+02,7.535120751266881356e-02,0.000000000000000000e+00
8.690000000000000000e+02,5.903426242114965389e-02,0.000000000000000000e+00
8.700000000000000000e+02,5.019009384768759185e-02,0.000000000000000000e+00
8.710000000000000000e+02,2.155481477094918774e-01,0.000000000000000000e+00
8.720000000000000000e+02,2.294452725789849490e-01,0.000000000000000000e+00
8.730000000000000000e+02,1.606004727689473999e-01,0.000000000000000000e+00
8.740000000000000000e+02,2.674002552236602881e-01,0.000000000000000000e+00
8.750000000000000000e+02,2.204543222822046011e-01,0.000000000000000000e+00
8.760000000000000000e+02,2.897279484090496404e-01,0.000000000000000000e+00
8.770000000000000000e+02,3.667054068061682548e-01,0.000000000000000000e+00
8.780000000000000000e+02,4.027398378107314714e-01,0.000000000000000000e+00
8.790000000000000000e+02,1.717230948108714184e-01,0.000000000000000000e+00
8.800000000000000000e+02,5.730355857082074511e-01,0.000000000000000000e+00
8.810000000000000000e+02,3.168678952049673869e-01,0.000000000000000000e+00
8.820000000000000000e+02,7.166877710300743054e-01,0.000000000000000000e+00
8.830000000000000000e+02,5.760141532324334346e-01,0.000000000000000000e+00
8.840000000000000000e+02,8.098409583602919071e-01,0.000000000000000000e+00
8.850000000000000000e+02,1.682744412584224192e-01,0.000000000000000000e+00
8.860000000000000000e+02,7.740492390393706457e-02,0.000000000000000000e+00
8.870000000000000000e+02,3.494167096312796733e-02,0.000000000000000000e+00
8.880000000000000000e+02,8.363165512384114486e-02,0.000000000000000000e+00
8.890000000000000000e+02,-7.417282508524859763e-02,0.000000000000000000e+00
8.900000000000000000e+02,1.651180077355156872e-01,0.000000000000000000e+00
8.910000000000000000e+02,-4.678662108977761358e-01,0.000000000000000000e+00
8.920000000000000000e+02,2.599444333208875690e+00,0.000000000000000000e+00
8.930000000000000000e+02,6.442518362842195145e+00,0.000000000000000000e+00
8.940000000000000000e+02,1.424809802171271844e+00,1.000000000000000000e+00
8.950000000000000000e+02,-5.900598936030719832e-01,0.000000000000000000e+00
8.960000000000000000e+02,-9.812345110006779336e-01,0.000000000000000000e+00
8.970000000000000000e+02,-1.034939297459252616e+00,0.000000000000000000e+00
8.980000000000000000e+02,-8.721579917585977615e-01,0.000000000000000000e+00
8.990000000000000000e+02,-8.352098857809353571e-01,0.000000000000000000e+00
9.000000000000000000e+02,-6.603110442925758106e-01,0.000000000000000000e+00
9.010000000000000000e+02,-8.094395846322215426e-01,0.000000000000000000e+00
9.020000000000000000e+02,-3.606761000767491065e-01,0.000000000000000000e+00
9.030000000000000000e+02,-4.829303139638322917e-01,0.000000000000000000e+00
9.040000000000000000e+02,-1.638755634444124254e-01,0.000000000000000000e+00
9.050000000000000000e+02,-1.886488069593853234e-01,0.000000000000000000e+00
9.060000000000000000e+02,1.605973795794274350e-01,0.000000000000000000e+00
9.070000000000000000e+02,5.607023096121402927e-01,0.000000000000000000e+00
9.080000000000000000e+02,6.531995316340077906e-01,0.000000000000000000e+00
9.090000000000000000e+02,8.618383916917981002e-01,0.000000000000000000e+00
9.100000000000000000e+02,6.880857687025936364e-01,0.000000000000000000e+00
9.110000000000000000e+02,6.198054804987357391e-01,0.000000000000000000e+00
9.120000000000000000e+02,-1.531861962500600804e-01,0.000000000000000000e+00
9.130000000000000000e+02,-7.606757306581706235e-01,0.000000000000000000e+00
9.140000000000000000e+02,-1.158641546505648989e+00,0.000000000000000000e+00
9.150000000000000000e+02,-1.303580083885726548e+00,0.000000000000000000e+00
9.160000000000000000e+02,-1.350381887803508985e+00,0.000000000000000000e+00
9.170000000000000000e+02,-1.309500401970489891e+00,0.000000000000000000e+00
9.180000000000000000e+02,-9.704396888049066083e-01,0.000000000000000000e+00
9.190000000000000000e+02,-1.015594641395936693e+00,0.000000000000000000e+00
9.200000000000000000e+02,-8.975491738848339063e-01,0.000000000000000000e+00
9.210000000000000000e+02,-6.461507985964811684e-01,0.000000000000000000e+00
9.220000000000000000e+02,-6.404786803575451826e-01,0.000000000000000000e+00
9.230000000000000000e+02,-5.551454153328404528e-01,0.000000000000000000e+00
9.240000000000000000e+02,-5.837981269360126291e-01,0.000000000000000000e+00
9.250000000000000000e+02,-3.319515464556566653e-01,0.000000000000000000e+00
9.260000000000000000e+02,-3.111105012754553645e-01,0.000000000000000000e+00
9.270000000000000000e+02,-2.921755175237970570e-01,0.000000000000000000e+00
9.280000000000000000e+02,-1.976353709609222908e-01,0.000000000000000000e+00
9.290000000000000000e+02,-7.306611882453196982e-02,0.000000000000000000e+00
9.300000000000000000e+02,-1.167946586265744824e-01,0.000000000000000000e+00
9.310000000000000000e+02,-2.054120106668694962e-02,0.000000000000000000e+00
9.320000000000000000e+02,-1.297500380930842745e-01,0.000000000000000000e+00
9.330000000000000000e+02,1.941333412529158697e-01,0.000000000000000000e+00
9.340000000000000000e+02,2.115384256364454506e-03,0.000000000000000000e+00
9.350000000000000000e+02,2.416797448300941065e-01,0.000000000000000000e+00
9.360000000000000000e+02,1.305896889897994184e-01,0.000000000000000000e+00
9.370000000000000000e+02,3.368912649512985635e-01,0.000000000000000000e+00
9.380000000000000000e+02,9.564010005566933592e-02,0.000000000000000000e+00
9.390000000000000000e+02,3.728897626203644400e-01,0.000000000000000000e+00
9.400000000000000000e+02,3.258466689152560436e-01,0.000000000000000000e+00
9.410000000000000000e+02,4.214326732603250192e-01,0.000000000000000000e+00
9.420000000000000000e+02,1.612031738198765329e-01,0.000000000000000000e+00
9.430000000000000000e+02,3.937303309638220949e-01,0.000000000000000000e+00
9.440000000000000000e+02,3.483114280506012239e-01,0.000000000000000000e+00
9.450000000000000000e+02,6.215443629789483282e-01,0.000000000000000000e+00
9.460000000000000000e+02,5.832515426283518822e-01,0.000000000000000000e+00
9.470000000000000000e+02,5.522289568465885701e-01,0.000000000000000000e+00
9.480000000000000000e+02,-2.714333924445654425e-02,0.000000000000000000e+00
9.490000000000000000e+02,1.181002977817205701e-01,0.000000000000000000e+00
9.500000000000000000e+02,8.478530316397848987e-02,0.000000000000000000e+00
9.510000000000000000e+02,1.300533588964876142e-01,0.000000000000000000e+00
9.520000000000000000e+02,3.478852251588608613e-02,0.000000000000000000e+00
9.530000000000000000e+02,4.015675056869852377e-02,0.000000000000000000e+00
9.540000000000000000e+02,-3.477029797710169401e-01,0.000000000000000000e+00
9.550000000000000000e+02,4.189401047095547170e+00,0.000000000000000000e+00
9.560000000000000000e+02,5.004775852847757278e+00,0.000000000000000000e+00
9.570000000000000000e+02,-1.969709107341882648e-01,1.000000000000000000e+00
9.580000000000000000e+02,-4.932253963015860720e-01,0.000000000000000000e+00
9.590000000000000000e+02,-9.597213659409316033e-01,0.000000000000000000e+00
9.600000000000000000e+02,-8.117035682421445131e-01,0.000000000000000000e+00
9.610000000000000000e+02,-9.600902671157443002e-01,0.000000000000000000e+00
9.620000000000000000e+02,-5.403870014669895916e-01,0.000000000000000000e+00
9.630000000000000000e+02,-5.427871004973455760e-01,0.000000000000000000e+00
9.640000000000000000e+02,-5.010304590217681264e-01,0.000000000000000000e+00
9.650000000000000000e+02,-5.661296410901321963e-01,0.000000000000000000e+00
9.660000000000000000e+02,-1.002104810191971063e-01,0.000000000000000000e+00
9.670000000000000000e+02,-2.004931936979368612e-01,0.000000000000000000e+00
9.680000000000000000e+02,1.890058547850672344e-01,0.000000000000000000e+00
9.690000000000000000e+02,2.687865016233625393e-01,0.000000000000000000e+00
9.700000000000000000e+02,6.068615284682699063e-01,0.000000000000000000e+00
9.710000000000000000e+02,8.411922470949986241e-01,0.000000000000000000e+00
9.720000000000000000e+02,8.936364754036464353e-01,0.000000000000000000e+00
9.730000000000000000e+02,7.812163184022057338e-01,0.000000000000000000e+00
9.740000000000000000e+02,4.067113355310640888e-01,0.000000000000000000e+00
9.750000000000000000e+02,-2.888154151423392713e-01,0.000000000000000000e+00
9.760000000000000000e+02,-7.380034178975662940e-01,0.000000000000000000e+00
9.770000000000000000e+02,-1.212427932392557084e+00,0.000000000000000000e+00
9.780000000000000000e+02,-1.106198652855861164e+00,0.000000000000000000e+00
9.790000000000000000e+02,-1.268920255388344076e+00,0.000000000000000000e+00
9.800000000000000000e+02,-1.079471507287020016e+00,0.000000000000000000e+00
9.810000000000000000e+02,-9.308560786051747193e-01,0.000000000000000000e+00
9.820000000000000000e+02,-7.619545029870902209e-01,0.000000000000000000e+00
9.830000000000000000e+02,-7.266277628459522075e-01,0.000000000000000000e+00
9.840000000000000000e+02,-5.755470066829376785e-01,0.000000000000000000e+00
9.850000000000000000e+02,-5.657479956464824822e-01,0.000000000000000000e+00
9.860000000000000000e+02,-3.857071717535706656e-01,0.000000000000000000e+00
9.870000000000000000e+02,-2.400019743687801521e-01,0.000000000000000000e+00
9.880000000000000000e+02,-3.060127022028747978e-01,0.000000000000000000e+00
9.890000000000000000e+02,-2.465048101480828147e-01,0.000000000000000000e+00
9.900000000000000000e+02,-1.689346562920109041e-01,0.000000000000000000e+00
9.910000000000000000e+02,-2.043227203302878103e-01,0.000000000000000000e+00
9.920000000000000000e+02,-2.586358646618332549e-02,0.000000000000000000e+00
9.930000000000000000e+02,-1.909731815870135616e-02,0.000000000000000000e+00
9.940000000000000000e+02,-5.391667771537524134e-02,0.000000000000000000e+00
9.950000000000000000e+02,-1.081913767674778093e-01,0.000000000000000000e+00
9.960000000000000000e+02,-2.860729572799229625e-02,0.000000000000000000e+00
9.970000000000000000e+02,1.136123724631395576e-01,0.000000000000000000e+00
9.980000000000000000e+02,1.653349423044262190e-01,0.000000000000000000e+00
9.990000000000000000e+02,1.190775332421433047e-01,0.000000000000000000e+00
1.000000000000000000e+03,2.370387932963569366e-01,0.000000000000000000e+00
1.001000000000000000e+03,1.170776292972954824e-01,0.000000000000000000e+00
1.002000000000000000e+03,2.577078691110581410e-01,0.000000000000000000e+00
1.003000000000000000e+03,3.705278110643031586e-01,0.000000000000000000e+00
1.004000000000000000e+03,2.707414752872204788e-01,0.000000000000000000e+00
1.005000000000000000e+03,3.344466786030455552e-01,0.000000000000000000e+00
1.006000000000000000e+03,2.347128750932286345e-01,0.000000000000000000e+00
1.007000000000000000e+03,3.015958786242695644e-01,0.000000000000000000e+00
1.008000000000000000e+03,4.672065505181590694e-01,0.000000000000000000e+00
1.009000000000000000e+03,4.039405722231661500e-01,0.000000000000000000e+00
1.010000000000000000e+03,6.422645906705630736e-01,0.000000000000000000e+00
1.011000000000000000e+03,5.457648016973560834e-01,0.000000000000000000e+00
1.012000000000000000e+03,5.874138803863470093e-01,0.000000000000000000e+00
1.013000000000000000e+03,3.037975515586083808e-01,0.000000000000000000e+00
1.014000000000000000e+03,1.438389300292506057e-01,0.000000000000000000e+00
1.015000000000000000e+03,-8.436768625121482401e-02,0.000000000000000000e+00
1.016000000000000000e+03,1.376433230046210654e-01,0.000000000000000000e+00
1.017000000000000000e+03,-9.234198542276497723e-02,0.000000000000000000e+00
1.018000000000000000e+03,1.759823476865379419e-02,0.000000000000000000e+00
1.019000000000000000e+03,-2.267858359998261297e-01,0.000000000000000000e+00
1.020000000000000000e+03,3.264122049900205269e+00,0.000000000000000000e+00
1.021000000000000000e+03,6.115026072607899543e+00,0.000000000000000000e+00
1.022000000000000000e+03,7.490270343676854736e-01,1.000000000000000000e+00
1.023000000000000000e+03,-4.314728064725459888e-01,0.000000000000000000e+00
1.024000000000000000e+03,-1.293841597167135982e+00,0.000000000000000000e+00
1.025000000000000000e+03,-9.565263744421345082e-01,0.000000000000000000e+00
1.026000000000000000e+03,-1.123124537779315091e+00,0.000000000000000000e+00
1.027000000000000000e+03,-7.853099196993174047e-01,0.000000000000000000e+00
1.028000000000000000e+03,-7.933164252657644022e-01,0.000000000000000000e+00
1.029000000000000000e+03,-6.732929111009591239e-01,0.000000000000000000e+00
1.030000000000000000e+03,-6.999771263693013168e-01,0.000000000000000000e+00
1.031000000000000000e+03,-4.857612910496663661e-01,0.000000000000000000e+00
1.032000000000000000e+03,-3.054776127635163152e-01,0.000000000000000000e+00
1.033000000000000000e+03,-1.014552622246884528e-01,0.000000000000000000e+00
1.034000000000000000e+03,1.045217713938294685e-01,0.000000000000000000e+00
1.035000000000000000e+03,3.082371307602009280e-01,0.000000000000000000e+00
1.036000000000000000e+03,5.880366593482436732e-01,0.000000000000000000e+00
1.037000000000000000e+03,5.473249043153797233e-01,0.000000000000000000e+00
1.038000000000000000e+03,7.439848987254327195e-01,0.000000000000000000e+00
1.039000000000000000e+03,5.002301316869184333e-01,0.000000000000000000e+00
1.040000000000000000e+03,-2.580069421289966081e-01,0.000000000000000000e+00
1.041000000000000000e+03,-6.939855516757638121e-01,0.000000000000000000e+00
1.042000000000000000e+03,-1.185860678242000033e+00,0.000000000000000000e+00
1.043000000000000000e+03,-1.217264583288245605e+00,0.000000000000000000e+00
1.044000000000000000e+03,-1.322757013414350258e+00,0.000000000000000000e+00
1.045000000000000000e+03,-9.704869106994690187e-01,0.000000000000000000e+00
1.046000000000000000e+03,-1.090805840627635748e+00,0.000000000000000000e+00
1.047000000000000000e+03,-8.261134705445639659e-01,0.000000000000000000e+00
1.048000000000000000e+03,-7.827175178035091774e-01,0.000000000000000000e+00
1.049000000000000000e+03,-6.048093610281852772e-01,0.000000000000000000e+00
1.050000000000000000e+03,-5.490705069809536099e-01,0.000000000000000000e+00
1.051000000000000000e+03,-6.189078102008900295e-01,0.000000000000000000e+00
1.052000000000000000e+03,-2.158786947028301928e-01,0.000000000000000000e+00
1.053000000000000000e+03,-2.270653397904404402e-01,0.000000000000000000e+00
1.054000000000000000e+03,-2.488166043434945351e-01,0.000000000000000000e+00
1.055000000000000000e+03,-1.797069443266004762e-01,0.000000000000000000e+00
1.056000000000000000e+03,-1.702352212842312695e-01,0.000000000000000000e+00
1.057000000000000000e+03,-2.275706697263344125e-01,0.000000000000000000e+00
1.058000000000000000e+03,-1.145117903779271050e-02,0.000000000000000000e+00
1.059000000000000000e+03,-9.917815664551837829e-02,0.000000000000000000e+00
1.060000000000000000e+03,6.053296972762694378e-02,0.000000000000000000e+00
1.061000000000000000e+03,1.518657914443422852e-01,0.000000000000000000e+00
1.062000000000000000e+03,3.426865019177730703e-02,0.000000000000000000e+00
1.063000000000000000e+03,1.433355439790390262e-01,0.000000000000000000e+00
1.064000000000000000e+03,1.793239597868968027e-01,0.000000000000000000e+00
1.065000000000000000e+03,2.676546838358625502e-01,0.000000000000000000e+00
1.066000000000000000e+03,5.073501024319562736e-02,0.000000000000000000e+00
1.067000000000000000e+03,3.404910980013269861e-01,0.000000000000000000e+00
1.068000000000000000e+03,2.136996831540300401e-01,0.000000000000000000e+00
1.069000000000000000e+03,3.183074268353102143e-01,0.000000000000000000e+00
1.070000000000000000e+03,1.981094959665043176e-01,0.000000000000000000e+00
1.071000000000000000e+03,3.350702576932346743e-01,0.000000000000000000e+00
1.072000000000000000e+03,2.390509943316088404e-01,0.000000000000000000e+00
1.073000000000000000e+03,3.560839659629634890e-01,0.000000000000000000e+00
1.074000000000000000e+03,3.428746086398650750e-01,0.000000000000000000e+00
1.075000000000000000e+03,3.225401476873013262e-01,0.000000000000000000e+00
1.076000000000000000e+03,4.208020882600922441e-01,0.000000000000000000e+00
1.077000000000000000e+03,5.393800990478639923e-01,0.000000000000000000e+00
1.078000000000000000e+03,5.740880925079613339e-01,0.000000000000000000e+00
1.079000000000000000e+03,4.975725103667935079e-01,0.000000000000000000e+00
1.080000000000000000e+03,6.524930550347182723e-02,0.000000000000000000e+00
1.081000000000000000e+03,1.753666695402571196e-01,0.000000000000000000e+00
1.082000000000000000e+03,-8.327743763108765018e-02,0.000000000000000000e+00
1.083000000000000000e+03,1.374220827821084345e-01,0.000000000000000000e+00
1.084000000000000000e+03,4.137069686249567751e-03,0.000000000000000000e+00
1.085000000000000000e+03,-1.778789814732658833e-02,0.000000000000000000e+00
1.086000000000000000e+03,3.018372350048748043e-01,0.000000000000000000e+00
1.087000000000000000e+03,5.531664266565679000e+00,0.000000000000000000e+00
1.088000000000000000e+03,4.426937662097881976e+00,1.000000000000000000e+00
1.089000000000000000e+03,-2.408343534018069776e-01,0.000000000000000000e+00
1.090000000000000000e+03,-5.696736415559182642e-01,0.000000000000000000e+00
1.091000000000000000e+03,-1.278237419502198602e+00,0.000000000000000000e+00
1.092000000000000000e+03,-8.597699805122354100e-01,0.000000000000000000e+00
1.093000000000000000e+03,-9.502356027668519278e-01,0.000000000000000000e+00
1.094000000000000000e+03,-7.855250532875569514e-01,0.000000000000000000e+00
1.095000000000000000e+03,-7.247157496566798418e-01,0.000000000000000000e+00
1.096000000000000000e+03,-6.306537949195968329e-01,0.000000000000000000e+00
1.097000000000000000e+03,-4.803959280974912649e-01,0.000000000000000000e+00
1.098000000000000000e+03,-3.612856168938295420e-01,0.000000000000000000e+00
1.099000000000000000e+03,-3.822875969288447862e-01,0.000000000000000000e+00
1.100000000000000000e+03,2.699291444412093774e-02,0.000000000000000000e+00
1.101000000000000000e+03,3.277794792114541722e-01,0.000000000000000000e+00
1.102000000000000000e+03,4.212785703391895287e-01,0.000000000000000000e+00
1.103000000000000000e+03,7.534320920362443941e-01,0.000000000000000000e+00
1.104000000000000000e+03,7.241678139677130144e-01,0.000000000000000000e+00
1.105000000000000000e+03,6.605358626682850121e-01,0.000000000000000000e+00
1.106000000000000000e+03,2.203568466742474308e-01,0.000000000000000000e+00
1.107000000000000000e+03,-3.829132425608763879e-01,0.000000000000000000e+00
1.108000000000000000e+03,-1.043871904237649861e+00,0.000000000000000000e+00
1.109000000000000000e+03,-1.302454525084813408e+00,0.000000000000000000e+00
1.110000000000000000e+03,-1.288451979634325228e+00,0.000000000000000000e+00
1.111000000000000000e+03,-1.141137420193430119e+00,0.000000000000000000e+00
1.112000000000000000e+03,-1.167902981301846443e+00,0.000000000000000000e+00
1.113000000000000000e+03,-9.674583196098616167e-01,0.000000000000000000e+00
1.114000000000000000e+03,-9.790773072077729733e-01,0.000000000000000000e+00
1.115000000000000000e+03,-7.435234404248668438e-01,0.000000000000000000e+00
1.116000000000000000e+03,-7.289821713939758085e-01,0.000000000000000000e+00
1.117000000000000000e+03,-5.343485744360815248e-01,0.000000000000000000e+00
1.118000000000000000e+03,-6.038795702104305940e-01,0.000000000000000000e+00
1.119000000000000000e+03,-3.381067695954867447e-01,0.000000000000000000e+00
1.120000000000000000e+03,-4.100354090329097478e-01,0.000000000000000000e+00
1.121000000000000000e+03,-1.532468506578937295e-01,0.000000000000000000e+00
1.122000000000000000e+03,-2.614999557139641162e-01,0.000000000000000000e+00
1.123000000000000000e+03,-1.002270756828904513e-01,0.000000000000000000e+00
1.124000000000000000e+03,-1.793730738168079486e-01,0.000000000000000000e+00
1.125000000000000000e+03,-3.847835987327522227e-03,0.000000000000000000e+00
1.126000000000000000e+03,-7.343304217539074752e-02,0.000000000000000000e+00
1.127000000000000000e+03,2.850619223615696168e-02,0.000000000000000000e+00
1.128000000000000000e+03,-3.341914580775669219e-02,0.000000000000000000e+00
1.129000000000000000e+03,6.586297811047646389e-02,0.000000000000000000e+00
1.130000000000000000e+03,9.351944872146626675e-02,0.000000000000000000e+00
1.131000000000000000e+03,1.624816178376453923e-01,0.000000000000000000e+00
1.132000000000000000e+03,2.256548888683860277e-01,0.000000000000000000e+00
1.133000000000000000e+03,3.000771658003579256e-01,0.000000000000000000e+00
1.134000000000000000e+03,1.939366997104697288e-01,0.000000000000000000e+00
1.135000000000000000e+03,1.285365386255775400e-01,0.000000000000000000e+00
1.136000000000000000e+03,4.981317960084429286e-01,0.000000000000000000e+00
1.137000000000000000e+03,3.414289553905608399e-01,0.000000000000000000e+00
1.138000000000000000e+03,2.701418609090877054e-01,0.000000000000000000e+00
1.139000000000000000e+03,2.610779558128508704e-01,0.000000000000000000e+00
1.140000000000000000e+03,3.492459091785103387e-01,0.000000000000000000e+00
1.141000000000000000e+03,4.411232052763239819e-01,0.000000000000000000e+00
1.142000000000000000e+03,4.873664776824263578e-01,0.000000000000000000e+00
1.143000000000000000e+03,5.852605239978523333e-01,0.000000000000000000e+00
1.144000000000000000e+03,6.648498363490608076e-01,0.000000000000000000e+00
1.145000000000000000e+03,7.542859927804713704e-01,0.000000000000000000e+00
1.146000000000000000e+03,2.978129608857807420e-01,0.000000000000000000e+00
1.147000000000000000e+03,1.727477432628249099e-01,0.000000000000000000e+00
1.148000000000000000e+03,1.479974470477993242e-02,0.000000000000000000e+00
1.149000000000000000e+03,1.814016356742746694e-01,0.000000000000000000e+00
1.150000000000000000e+03,-7.535632970762917715e-02,0.000000000000000000e+00
1.151000000000000000e+03,1.237691089476349871e-01,0.000000000000000000e+00
1.152000000000000000e+03,-2.540776514667970609e-01,0.000000000000000000e+00
1.153000000000000000e+03,3.431427985601517960e+00,0.000000000000000000e+00
1.154000000000000000e+03,6.062816750532547871e+00,0.000000000000000000e+00
1.155000000000000000e+03,9.905819734385787889e-01,1.000000000000000000e+00
1.156000000000000000e+03,-4.860950282773758846e-01,0.000000000000000000e+00
1.157000000000000000e+03,-1.051143477227246992e+00,0.000000000000000000e+00
1.158000000000000000e+03,-9.443390048840761830e-01,0.000000000000000000e+00
1.159000000000000000e+03,-1.106729349592890932e+00,0.000000000000000000e+00
1.160000000000000000e+03,-8.581722593720300107e-01,0.000000000000000000e+00
1.161000000000000000e+03,-7.879244510883826047e-01,0.000000000000000000e+00
1.162000000000000000e+03,-5.187027260378819227e-01,0.000000000000000000e+00
1.163000000000000000e+03,-6.476901270534008992e-01,0.000000000000000000e+00
1.164000000000000000e+03,-2.955086553126474169e-01,0.000000000000000000e+00
1.165000000000000000e+03,-3.587832046635021643e-01,0.000000000000000000e+00
1.166000000000000000e+03,-1.757720580551334344e-01,0.000000000000000000e+00
1.167000000000000000e+03,2.061536678971887249e-01,0.000000000000000000e+00
1.168000000000000000e+03,5.064645728677094061e-01,0.000000000000000000e+00
1.169000000000000000e+03,6.900601355423223726e-01,0.000000000000000000e+00
1.170000000000000000e+03,8.214032524102581334e-01,0.000000000000000000e+00
1.171000000000000000e+03,6.001310620240394300e-01,0.000000000000000000e+00
1.172000000000000000e+03,5.126441886601472708e-01,0.000000000000000000e+00
1.173000000000000000e+03,-2.383257350873754232e-01,0.000000000000000000e+00
1.174000000000000000e+03,-7.338749312864615293e-01,0.000000000000000000e+00
1.175000000000000000e+03,-1.321633830393819986e+00,0.000000000000000000e+00
1.176000000000000000e+03,-1.408702270623973796e+00,0.000000000000000000e+00
1.177000000000000000e+03,-1.318272275828963558e+00,0.000000000000000000e+00
1.178000000000000000e+03,-1.363501632944499775e+00,0.000000000000000000e+00
1.179000000000000000e+03,-1.048310254464323465e+00,0.000000000000000000e+00
1.180000000000000000e+03,-9.294351278444829001e-01,0.000000000000000000e+00
1.181000000000000000e+03,-8.788358937284329597e-01,0.000000000000000000e+00
1.182000000000000000e+03,-7.370743345708485883e-01,0.000000000000000000e+00
1.183000000000000000e+03,-6.296694289237647624e-01,0.000000000000000000e+00
1.184000000000000000e+03,-5.909496397948427182e-01,0.000000000000000000e+00
1.185000000000000000e+03,-3.880263033566728748e-01,0.000000000000000000e+00
1.186000000000000000e+03,-2.513172363328439740e-01,0.000000000000000000e+00
1.187000000000000000e+03,-2.812302921973742209e-01,0.000000000000000000e+00
1.188000000000000000e+03,-2.185803804430824782e-01,0.000000000000000000e+00
1.189000000000000000e+03,-3.133699806300468960e-01,0.000000000000000000e+00
1.190000000000000000e+03,-9.850084413712666132e-02,0.000000000000000000e+00
1.191000000000000000e+03,-6.677917298042590488e-02,0.000000000000000000e+00
1.192000000000000000e+03,7.979505487004938391e-02,0.000000000000000000e+00
1.193000000000000000e+03,4.702586214363292660e-02,0.000000000000000000e+00
1.194000000000000000e+03,2.681436928819175836e-01,0.000000000000000000e+00
1.195000000000000000e+03,4.282120399883065226e-02,0.000000000000000000e+00
1.196000000000000000e+03,2.716070940511302045e-01,0.000000000000000000e+00
1.197000000000000000e+03,3.623059209372124778e-01,0.000000000000000000e+00
1.198000000000000000e+03,2.398157338848445341e-01,0.000000000000000000e+00
1.199000000000000000e+03,2.459866678725414757e-01,0.000000000000000000e+00
1.200000000000000000e+03,2.753658492280312564e-01,0.000000000000000000e+00
1.201000000000000000e+03,2.999957320808633865e-01,0.000000000000000000e+00
1.202000000000000000e+03,3.864156338440977723e-01,0.000000000000000000e+00
1.203000000000000000e+03,3.853590365683972618e-01,0.000000000000000000e+00
1.204000000000000000e+03,3.964231727170551833e-01,0.000000000000000000e+00
1.205000000000000000e+03,2.963147669427257935e-01,0.000000000000000000e+00
1.206000000000000000e+03,5.185767390668941657e-01,0.000000000000000000e+00
1.207000000000000000e+03,5.869360371873590942e-01,0.000000000000000000e+00
1.208000000000000000e+03,6.704128232653602248e-01,0.000000000000000000e+00
1.209000000000000000e+03,5.801697060220223356e-01,0.000000000000000000e+00
1.210000000000000000e+03,9.735251976209710612e-02,0.000000000000000000e+00
1.211000000000000000e+03,2.635088173426552646e-02,0.000000000000000000e+00
1.212000000000000000e+03,-7.205770325915918095e-02,0.000000000000000000e+00
1.213000000000000000e+03,3.324843826993265083e-01,0.000000000000000000e+00
1.214000000000000000e+03,-2.585958956542272480e-02,0.000000000000000000e+00
1.215000000000000000e+03,1.439234236168118186e-01,0.000000000000000000e+00
1.216000000000000000e+03,-1.632915368936670858e-02,0.000000000000000000e+00
1.217000000000000000e+03,4.545450523105784235e+00,0.000000000000000000e+00
1.218000000000000000e+03,4.255178751068843468e+00,0.000000000000000000e+00
1.219000000000000000e+03,-5.581887727999536031e-01,1.000000000000000000e+00
1.220000000000000000e+03,-3.162093574577685140e-01,0.000000000000000000e+00
1.221000000000000000e+03,-9.078001884783970521e-01,0.000000000000000000e+00
1.222000000000000000e+03,-6.755203055604527274e-01,0.000000000000000000e+00
1.223000000000000000e+03,-8.133746306070986920e-01,0.000000000000000000e+00
1.224000000000000000e+03,-5.867471980977985169e-01,0.000000000000000000e+00
1.225000000000000000e+03,-7.894000685434779951e-01,0.000000000000000000e+00
1.226000000000000000e+03,-2.345832813618513313e-01,0.000000000000000000e+00
1.227000000000000000e+03,-3.493561219805849660e-01,0.000000000000000000e+00
1.228000000000000000e+03,-1.530292141561213348e-01,0.000000000000000000e+00
1.229000000000000000e+03,-1.507615244796181864e-01,0.000000000000000000e+00
1.230000000000000000e+03,1.115596971114889147e-01,0.000000000000000000e+00
1.231000000000000000e+03,2.270638067632552159e-01,0.000000000000000000e+00
1.232000000000000000e+03,6.032197866280788467e-01,0.000000000000000000e+00
1.233000000000000000e+03,7.276156255900821934e-01,0.000000000000000000e+00
1.234000000000000000e+03,7.337900498429554830e-01,0.000000000000000000e+00
1.235000000000000000e+03,4.916288037726603277e-01,0.000000000000000000e+00
1.236000000000000000e+03,3.830028686837080865e-01,0.000000000000000000e+00
1.237000000000000000e+03,-4.801032423955385875e-01,0.000000000000000000e+00
1.238000000000000000e+03,-9.863718173709766779e-01,0.000000000000000000e+00
1.239000000000000000e+03,-1.325738747488253155e+00,0.000000000000000000e+00
1.240000000000000000e+03,-1.307121884089882391e+00,0.000000000000000000e+00
1.241000000000000000e+03,-1.405764328999430601e+00,0.000000000000000000e+00
1.242000000000000000e+03,-1.227019749524014269e+00,0.000000000000000000e+00
1.243000000000000000e+03,-1.014492126361637325e+00,0.000000000000000000e+00
1.244000000000000000e+03,-9.454096253479987721e-01,0.000000000000000000e+00
1.245000000000000000e+03,-7.925367231561414316e-01,0.000000000000000000e+00
1.246000000000000000e+03,-6.971362642915081009e-01,0.000000000000000000e+00
1.247000000000000000e+03,-6.487126287531799207e-01,0.000000000000000000e+00
1.248000000000000000e+03,-3.909282307681205548e-01,0.000000000000000000e+00
1.249000000000000000e+03,-3.794768342076287881e-01,0.000000000000000000e+00
1.250000000000000000e+03,-3.273062340610860543e-01,0.000000000000000000e+00
1.251000000000000000e+03,-3.770956530968221365e-01,0.000000000000000000e+00
1.252000000000000000e+03,-3.207033242835048981e-01,0.000000000000000000e+00
1.253000000000000000e+03,-1.567321842217083427e-01,0.000000000000000000e+00
1.254000000000000000e+03,-1.606850259787176161e-01,0.000000000000000000e+00
1.255000000000000000e+03,-1.878369361866139287e-01,0.000000000000000000e+00
1.256000000000000000e+03,2.685627742422950007e-02,0.000000000000000000e+00
1.257000000000000000e+03,-2.754794399869254368e-02,0.000000000000000000e+00
1.258000000000000000e+03,-1.067369495773513588e-01,0.000000000000000000e+00
1.259000000000000000e+03,1.616561306474910975e-01,0.000000000000000000e+00
1.260000000000000000e+03,1.356861881585001151e-01,0.000000000000000000e+00
1.261000000000000000e+03,7.930476227268482003e-02,0.000000000000000000e+00
1.262000000000000000e+03,2.138387045454314128e-01,0.000000000000000000e+00
1.263000000000000000e+03,1.623437106462425616e-01,0.000000000000000000e+00
1.264000000000000000e+03,4.043349060557029917e-01,0.000000000000000000e+00
1.265000000000000000e+03,2.963561726899724968e-01,0.000000000000000000e+00
1.266000000000000000e+03,5.067352605605769389e-01,0.000000000000000000e+00
1.267000000000000000e+03,5.286843097396337621e-01,0.000000000000000000e+00
1.268000000000000000e+03,5.591612991311866177e-01,0.000000000000000000e+00
1.269000000000000000e+03,5.762861156493722659e-01,0.000000000000000000e+00
1.270000000000000000e+03,9.539409151723612923e-02,0.000000000000000000e+00
1.271000000000000000e+03,2.095370409667623446e-01,0.000000000000000000e+00
1.272000000000000000e+03,1.851983496073268676e-01,0.000000000000000000e+00
1.273000000000000000e+03,5.396325997672152264e-02,0.000000000000000000e+00
1.274000000000000000e+03,1.369122464853151921e-01,0.000000000000000000e+00
1.275000000000000000e+03,-6.181858267900199044e-02,0.000000000000000000e+00
1.276000000000000000e+03,8.754500093807213723e-01,0.000000000000000000e+00
1.277000000000000000e+03,5.703130915182616612e+00,0.000000000000000000e+00
1.278000000000000000e+03,2.850907426116750187e+00,1.000000000000000000e+00
1.279000000000000000e+03,-4.091747256702926161e-01,0.000000000000000000e+00
1.280000000000000000e+03,-5.077419943801319002e-01,0.000000000000000000e+00
1.281000000000000000e+03,-9.468745652791803469e-01,0.000000000000000000e+00
1.282000000000000000e+03,-5.883563861372076431e-01,0.000000000000000000e+00
1.283000000000000000e+03,-9.012795636414987488e-01,0.000000000000000000e+00
1.284000000000000000e+03,-2.357626282023597697e-01,0.000000000000000000e+00
1.285000000000000000e+03,-4.673224067879077070e-01,0.000000000000000000e+00
1.286000000000000000e+03,-3.592266533782557669e-01,0.000000000000000000e+00
1.287000000000000000e+03,-2.026262672638669271e-01,0.000000000000000000e+00
1.288000000000000000e+03,-1.114386968463313143e-01,0.000000000000000000e+00
1.289000000000000000e+03,4.984858138966927893e-02,0.000000000000000000e+00
1.290000000000000000e+03,3.306322137485739887e-01,0.000000000000000000e+00
1.291000000000000000e+03,2.492406469167088578e-01,0.000000000000000000e+00
1.292000000000000000e+03,8.525818937311446799e-01,0.000000000000000000e+00
1.293000000000000000e+03,7.407538241306153015e-01,0.000000000000000000e+00
1.294000000000000000e+03,8.340196893675855261e-01,0.000000000000000000e+00
1.295000000000000000e+03,5.835165008513193419e-01,0.000000000000000000e+00
1.296000000000000000e+03,1.546225392470600701e-01,0.000000000000000000e+00
1.297000000000000000e+03,-5.081369416667030903e-01,0.000000000000000000e+00
1.298000000000000000e+03,-9.747808455593137689e-01,0.000000000000000000e+00
1.299000000000000000e+03,-1.315249125726223989e+00,0.000000000000000000e+00
1.300000000000000000e+03,-9.331356688502856489e-01,0.000000000000000000e+00
1.301000000000000000e+03,-1.321578863637627554e+00,0.000000000000000000e+00
1.302000000000000000e+03,-9.815178290515594872e-01,0.000000000000000000e+00
1.303000000000000000e+03,-9.410984075354640321e-01,0.000000000000000000e+00
1.304000000000000000e+03,-6.632189561901977726e-01,0.000000000000000000e+00
1.305000000000000000e+03,-7.236001975907015993e-01,0.000000000000000000e+00
1.306000000000000000e+03,-5.023261220066066457e-01,0.000000000000000000e+00
1.307000000000000000e+03,-5.659028430748420657e-01,0.000000000000000000e+00
1.308000000000000000e+03,-3.151033663317193145e-01,0.000000000000000000e+00
1.309000000000000000e+03,-2.823471191312336703e-01,0.000000000000000000e+00
1.310000000000000000e+03,-1.825090994200063155e-01,0.000000000000000000e+00
1.311000000000000000e+03,-1.743870251017543560e-01,0.000000000000000000e+00
1.312000000000000000e+03,-8.751748534122137657e-02,0.000000000000000000e+00
1.313000000000000000e+03,-1.625663340409570778e-01,0.000000000000000000e+00
1.314000000000000000e+03,-2.561828150579074925e-02,0.000000000000000000e+00
1.315000000000000000e+03,-6.720146722570211062e-02,0.000000000000000000e+00
1.316000000000000000e+03,3.146555413267405205e-02,0.000000000000000000e+00
1.317000000000000000e+03,1.001747384110950462e-01,0.000000000000000000e+00
1.318000000000000000e+03,1.002356748411587090e-01,0.000000000000000000e+00
1.319000000000000000e+03,1.774447216979961328e-01,0.000000000000000000e+00
1.320000000000000000e+03,1.129368202961643364e-01,0.000000000000000000e+00
1.321000000000000000e+03,1.946600967112115388e-01,0.000000000000000000e+00
1.322000000000000000e+03,2.438757702476016254e-01,0.000000000000000000e+00
1.323000000000000000e+03,1.016974740511210062e-01,0.000000000000000000e+00
1.324000000000000000e+03,3.161488423783264112e-01,0.000000000000000000e+00
1.325000000000000000e+03,2.366393003566938380e-01,0.000000000000000000e+00
1.326000000000000000e+03,4.044634922197595794e-01,0.000000000000000000e+00
1.327000000000000000e+03,1.779507366270746405e-01,0.000000000000000000e+00
1.328000000000000000e+03,4.487370140129158802e-01,0.000000000000000000e+00
1.329000000000000000e+03,3.259861010594177766e-01,0.000000000000000000e+00
1.330000000000000000e+03,3.140030348262033977e-01,0.000000000000000000e+00
1.331000000000000000e+03,7.002401230927653986e-01,0.000000000000000000e+00
1.332000000000000000e+03,5.617797059224759471e-01,0.000000000000000000e+00
1.333000000000000000e+03,4.145950835317263605e-01,0.000000000000000000e+00
1.334000000000000000e+03,4.324219455198026474e-02,0.000000000000000000e+00
1.335000000000000000e+03,-1.695090859225072480e-02,0.000000000000000000e+00
1.336000000000000000e+03,4.500418351074951528e-02,0.000000000000000000e+00
1.337000000000000000e+03,-3.560289567774667374e-02,0.000000000000000000e+00
1.338000000000000000e+03,-6.066914812819229619e-02,0.000000000000000000e+00
1.339000000000000000e+03,-2.584409079813270727e-01,0.000000000000000000e+00
1.340000000000000000e+03,1.812432552232280614e+00,0.000000000000000000e+00
1.341000000000000000e+03,6.483377501105953122e+00,0.000000000000000000e+00
1.342000000000000000e+03,1.912221235416190268e+00,1.000000000000000000e+00
1.343000000000000000e+03,-6.085189085096115447e-01,0.000000000000000000e+00
1.344000000000000000e+03,-8.769636168212527894e-01,0.000000000000000000e+00
1.345000000000000000e+03,-1.332605960153989688e+00,0.000000000000000000e+00
1.346000000000000000e+03,-9.543267547629726844e-01,0.000000000000000000e+00
1.347000000000000000e+03,-1.048009996873112248e+00,0.000000000000000000e+00
1.348000000000000000e+03,-7.100780831345666622e-01,0.000000000000000000e+00
1.349000000000000000e+03,-8.970311640030047551e-01,0.000000000000000000e+00
1.350000000000000000e+03,-5.255183556941084300e-01,0.000000000000000000e+00
1.351000000000000000e+03,-6.104788403173133648e-01,0.000000000000000000e+00
1.352000000000000000e+03,-3.031041195854678461e-01,0.000000000000000000e+00
1.353000000000000000e+03,-2.383683733812755612e-01,0.000000000000000000e+00
1.354000000000000000e+03,-1.596403356423031772e-02,0.000000000000000000e+00
1.355000000000000000e+03,2.018406549389090976e-01,0.000000000000000000e+00
1.356000000000000000e+03,5.123186846260721072e-01,0.000000000000000000e+00
1.357000000000000000e+03,7.270271478302007262e-01,0.000000000000000000e+00
1.358000000000000000e+03,6.915345024092752757e-01,0.000000000000000000e+00
1.359000000000000000e+03,4.796206073725973740e-01,0.000000000000000000e+00
1.360000000000000000e+03,-3.127891920219204314e-02,0.000000000000000000e+00
1.361000000000000000e+03,-7.265077328144079472e-01,0.000000000000000000e+00
1.362000000000000000e+03,-1.154949529520246765e+00,0.000000000000000000e+00
1.363000000000000000e+03,-1.176620805543520110e+00,0.000000000000000000e+00
1.364000000000000000e+03,-1.240958304173213511e+00,0.000000000000000000e+00
1.365000000000000000e+03,-1.228999948570606460e+00,0.000000000000000000e+00
1.366000000000000000e+03,-8.831843423640705071e-01,0.000000000000000000e+00
1.367000000000000000e+03,-9.689269950225460892e-01,0.000000000000000000e+00
1.368000000000000000e+03,-8.205349902956923236e-01,0.000000000000000000e+00
1.369000000000000000e+03,-6.413425799613519107e-01,0.000000000000000000e+00
1.370000000000000000e+03,-5.031774810393474517e-01,0.000000000000000000e+00
1.371000000000000000e+03,-4.935947532812946514e-01,0.000000000000000000e+00
1.372000000000000000e+03,-4.363650668087933893e-01,0.000000000000000000e+00
1.373000000000000000e+03,-4.273173474550740480e-01,0.000000000000000000e+00
1.374000000000000000e+03,-1.853656085055780389e-01,0.000000000000000000e+00
1.375000000000000000e+03,-2.606717566242171547e-01,0.000000000000000000e+00
1.376000000000000000e+03,-1.322434309624831716e-01,0.000000000000000000e+00
1.377000000000000000e+03,-1.012184281490617899e-01,0.000000000000000000e+00
1.378000000000000000e+03,-6.288373794618905277e-02,0.000000000000000000e+00
1.379000000000000000e+03,5.670093144823473708e-02,0.000000000000000000e+00
1.380000000000000000e+03,6.521952381159297485e-02,0.000000000000000000e+00
1.381000000000000000e+03,1.830366779104377617e-01,0.000000000000000000e+00
1.382000000000000000e+03,5.131589791176330989e-02,0.000000000000000000e+00
1.383000000000000000e+03,1.182287359949573124e-01,0.000000000000000000e+00
1.384000000000000000e+03,1.742800245959199024e-01,0.000000000000000000e+00
1.385000000000000000e+03,2.095451628208304939e-01,0.000000000000000000e+00
1.386000000000000000e+03,4.590771361548500185e-01,0.000000000000000000e+00
1.387000000000000000e+03,1.653432976863084547e-01,0.000000000000000000e+00
1.388000000000000000e+03,3.416505744570855763e-01,0.000000000000000000e+00
1.389000000000000000e+03,2.957247538786824115e-01,0.000000000000000000e+00
1.390000000000000000e+03,4.066174907582056908e-01,0.000000000000000000e+00
1.391000000000000000e+03,4.452121545672401148e-01,0.000000000000000000e+00
1.392000000000000000e+03,4.408250278295646196e-01,0.000000000000000000e+00
1.393000000000000000e+03,5.015044595641544589e-01,0.000000000000000000e+00
1.394000000000000000e+03,4.782955525938855645e-01,0.000000000000000000e+00
1.395000000000000000e+03,7.302226850640815004e-01,0.000000000000000000e+00
1.396000000000000000e+03,7.916360688617096741e-01,0.000000000000000000e+00
1.397000000000000000e+03,5.333904609354830351e-01,0.000000000000000000e+00
1.398000000000000000e+03,9.638050059513257606e-02,0.000000000000000000e+00
1.399000000000000000e+03,2.992601540000630056e-01,0.000000000000000000e+00
1.400000000000000000e+03,-4.378417424677441550e-02,0.000000000000000000e+00
1.401000000000000000e+03,2.710205284787881030e-01,0.000000000000000000e+00
1.402000000000000000e+03,2.428730258639777984e-01,0.000000000000000000e+00
1.403000000000000000e+03,-2.316946767064588172e-02,0.000000000000000000e+00
1.404000000000000000e+03,7.331784595115951042e-01,0.000000000000000000e+00
1.405000000000000000e+03,6.119070130526321094e+00,0.000000000000000000e+00
1.406000000000000000e+03,3.576010933026354977e+00,1.000000000000000000e+00
1.407000000000000000e+03,-3.628464847518735326e-01,0.000000000000000000e+00
1.408000000000000000e+03,-7.594015076998911207e-01,0.000000000000000000e+00
1.409000000000000000e+03,-1.159862714213282020e+00,0.000000000000000000e+00
1.410000000000000000e+03,-8.970285225920613392e-01,0.000000000000000000e+00
1.411000000000000000e+03,-1.141608662756698145e+00,0.000000000000000000e+00
1.412000000000000000e+03,-6.145496863671470189e-01,0.000000000000000000e+00
1.413000000000000000e+03,-8.306283315386203681e-01,0.000000000000000000e+00
1.414000000000000000e+03,-5.014578975969438135e-01,0.000000000000000000e+00
1.415000000000000000e+03,-7.038853405321447987e-01,0.000000000000000000e+00
1.416000000000000000e+03,-3.819707994610809232e-01,0.000000000000000000e+00
1.417000000000000000e+03,-2.451047729375568085e-01,0.000000000000000000e+00
1.418000000000000000e+03,-2.621861241492905517e-02,0.000000000000000000e+00
1.419000000000000000e+03,2.720784177379259039e-01,0.000000000000000000e+00
1.420000000000000000e+03,4.999278061702395748e-01,0.000000000000000000e+00
1.421000000000000000e+03,5.104949861229327590e-01,0.000000000000000000e+00
1.422000000000000000e+03,7.877057450175014575e-01,0.000000000000000000e+00
1.423000000000000000e+03,5.633633220867716451e-01,0.000000000000000000e+00
1.424000000000000000e+03,2.039475246738698400e-01,0.000000000000000000e+00
1.425000000000000000e+03,-6.464556234700391535e-01,0.000000000000000000e+00
1.426000000000000000e+03,-9.742810472297008806e-01,0.000000000000000000e+00
1.427000000000000000e+03,-1.555563106253584182e+00,0.000000000000000000e+00
1.428000000000000000e+03,-1.238074729722250966e+00,0.000000000000000000e+00
1.429000000000000000e+03,-1.170070679177634743e+00,0.000000000000000000e+00
1.430000000000000000e+03,-1.027911150978048749e+00,0.000000000000000000e+00
1.431000000000000000e+03,-1.083115901019755523e+00,0.000000000000000000e+00
1.432000000000000000e+03,-8.219310093358832559e-01,0.000000000000000000e+00
1.433000000000000000e+03,-8.883487102983066430e-01,0.000000000000000000e+00
1.434000000000000000e+03,-7.029812151777846685e-01,0.000000000000000000e+00
1.435000000000000000e+03,-5.858348038126338642e-01,0.000000000000000000e+00
1.436000000000000000e+03,-5.490388728348426506e-01,0.000000000000000000e+00
1.437000000000000000e+03,-4.160532456045430982e-01,0.000000000000000000e+00
1.438000000000000000e+03,-1.751864439062935375e-01,0.000000000000000000e+00
1.439000000000000000e+03,-3.747742453579012145e-01,0.000000000000000000e+00
1.440000000000000000e+03,-1.461239834143327476e-01,0.000000000000000000e+00
1.441000000000000000e+03,-1.398967149755970807e-01,0.000000000000000000e+00
1.442000000000000000e+03,-2.252376540345050193e-01,0.000000000000000000e+00
1.443000000000000000e+03,-6.233526991532376688e-02,0.000000000000000000e+00
1.444000000000000000e+03,3.217142154997516129e-02,0.000000000000000000e+00
1.445000000000000000e+03,-1.211544926904406655e-01,0.000000000000000000e+00
1.446000000000000000e+03,2.230642498227221049e-01,0.000000000000000000e+00
1.447000000000000000e+03,7.475871092579559896e-02,0.000000000000000000e+00
1.448000000000000000e+03,2.701901725015766198e-01,0.000000000000000000e+00
1.449000000000000000e+03,1.092316753404361240e-01,0.000000000000000000e+00
1.450000000000000000e+03,3.044296055966493331e-01,0.000000000000000000e+00
1.451000000000000000e+03,2.128105654880185493e-01,0.000000000000000000e+00
1.452000000000000000e+03,3.860806103282372059e-01,0.000000000000000000e+00
1.453000000000000000e+03,2.874124691930018405e-01,0.000000000000000000e+00
1.454000000000000000e+03,3.220496005010288210e-01,0.000000000000000000e+00
1.455000000000000000e+03,5.498939228480985708e-01,0.000000000000000000e+00
1.456000000000000000e+03,4.275825823968524841e-01,0.000000000000000000e+00
1.457000000000000000e+03,7.114320686252519899e-01,0.000000000000000000e+00
1.458000000000000000e+03,4.595361846751117585e-01,0.000000000000000000e+00
1.459000000000000000e+03,4.787466426768292177e-02,0.000000000000000000e+00
1.460000000000000000e+03,1.230111652034632241e-01,0.000000000000000000e+00
1.461000000000000000e+03,7.137446056511495551e-02,0.000000000000000000e+00
1.462000000000000000e+03,1.066386970298289355e-01,0.000000000000000000e+00
1.463000000000000000e+03,1.436463161938338617e-01,0.000000000000000000e+00
1.464000000000000000e+03,-9.517882844543920640e-02,0.000000000000000000e+00
1.465000000000000000e+03,9.864249341764090850e-01,0.000000000000000000e+00
1.466000000000000000e+03,5.830316258106627458e+00,0.000000000000000000e+00
1.467000000000000000e+03,2.207806755937375520e+00,1.000000000000000000e+00
1.468000000000000000e+03,-4.279318662159631304e-01,0.000000000000000000e+00
1.469000000000000000e+03,-5.358847901912693334e-01,0.000000000000000000e+00
1.470000000000000000e+03,-7.681530728469926350e-01,0.000000000000000000e+00
1.471000000000000000e+03,-5.857746834053673135e-01,0.000000000000000000e+00
1.472000000000000000e+03,-5.775638267655607283e-01,0.000000000000000000e+00
1.473000000000000000e+03,-4.527662506535684028e-01,0.000000000000000000e+00
1.474000000000000000e+03,-3.490379556853814291e-01,0.000000000000000000e+00
1.475000000000000000e+03,-4.124561225732283343e-01,0.000000000000000000e+00
1.476000000000000000e+03,-2.637300972672714794e-01,0.000000000000000000e+00
1.477000000000000000e+03,-3.935653230323525598e-02,0.000000000000000000e+00
1.478000000000000000e+03,8.903216349116813838e-03,0.000000000000000000e+00
1.479000000000000000e+03,2.571067192856702488e-01,0.000000000000000000e+00
1.480000000000000000e+03,4.995706239007420280e-01,0.000000000000000000e+00
1.481000000000000000e+03,6.505821002590069790e-01,0.000000000000000000e+00
1.482000000000000000e+03,9.229381143745927218e-01,0.000000000000000000e+00
1.483000000000000000e+03,7.154420446593402483e-01,0.000000000000000000e+00
1.484000000000000000e+03,6.677856359002869446e-01,0.000000000000000000e+00
1.485000000000000000e+03,1.229478781569048329e-01,0.000000000000000000e+00
1.486000000000000000e+03,-5.847822502400099598e-01,0.000000000000000000e+00
1.487000000000000000e+03,-1.033929461350923340e+00,0.000000000000000000e+00
1.488000000000000000e+03,-1.295050641434656535e+00,0.000000000000000000e+00
1.489000000000000000e+03,-1.321606450125773824e+00,0.000000000000000000e+00
1.490000000000000000e+03,-1.113784679627933816e+00,0.000000000000000000e+00
1.491000000000000000e+03,-9.726948064133416061e-01,0.000000000000000000e+00
1.492000000000000000e+03,-1.000437312441752491e+00,0.000000000000000000e+00
1.493000000000000000e+03,-8.628855884885893168e-01,0.000000000000000000e+00
1.494000000000000000e+03,-6.350868034611613089e-01,0.000000000000000000e+00
1.495000000000000000e+03,-6.724522418757010733e-01,0.000000000000000000e+00
1.496000000000000000e+03,-4.932117794086085527e-01,0.000000000000000000e+00
1.497000000000000000e+03,-3.895251291699376450e-01,0.000000000000000000e+00
1.498000000000000000e+03,-4.252599037443378083e-01,0.000000000000000000e+00
1.499000000000000000e+03,-2.834160947444336331e-01,0.000000000000000000e+00
1.500000000000000000e+03,-2.633067254323543938e-01,0.000000000000000000e+00
1.501000000000000000e+03,-2.330116175090921060e-01,0.000000000000000000e+00
1.502000000000000000e+03,-3.257868182846348493e-01,0.000000000000000000e+00
1.503000000000000000e+03,-6.835547384708660738e-03,0.000000000000000000e+00
1.504000000000000000e+03,-9.047419471449934247e-02,0.000000000000000000e+00
1.505000000000000000e+03,4.180147694615545667e-02,0.000000000000000000e+00
1.506000000000000000e+03,1.244574825070956098e-01,0.000000000000000000e+00
1.507000000000000000e+03,-3.020376420561519601e-02,0.000000000000000000e+00
1.508000000000000000e+03,1.763889078091699925e-01,0.000000000000000000e+00
1.509000000000000000e+03,1.564669820361041519e-01,0.000000000000000000e+00
1.510000000000000000e+03,1.005953611723528068e-01,0.000000000000000000e+00
1.511000000000000000e+03,3.856202674253290663e-01,0.000000000000000000e+00
1.512000000000000000e+03,2.893598436943650154e-01,0.000000000000000000e+00
1.513000000000000000e+03,1.502624856630502548e-01,0.000000000000000000e+00
1.514000000000000000e+03,2.585810567277461169e-01,0.000000000000000000e+00
1.515000000000000000e+03,4.020619902668537415e-01,0.000000000000000000e+00
1.516000000000000000e+03,2.477431520371448093e-01,0.000000000000000000e+00
1.517000000000000000e+03,4.521319636087702820e-01,0.000000000000000000e+00
1.518000000000000000e+03,6.375327960934347171e-01,0.000000000000000000e+00
1.519000000000000000e+03,5.667804602192032526e-01,0.000000000000000000e+00
1.520000000000000000e+03,2.527614845040244140e-01,0.000000000000000000e+00
1.521000000000000000e+03,7.347771367258547348e-02,0.000000000000000000e+00
1.522000000000000000e+03,-2.313438071439992763e-02,0.000000000000000000e+00
1.523000000000000000e+03,6.506258377295662254e-02,0.000000000000000000e+00
1.524000000000000000e+03,7.532909260726115830e-02,0.000000000000000000e+00
1.525000000000000000e+03,-6.310697761971408026e-02,0.000000000000000000e+00
1.526000000000000000e+03,-1.823895543315229850e-01,0.000000000000000000e+00
1.527000000000000000e+03,2.553191496034511232e+00,0.000000000000000000e+00
1.528000000000000000e+03,6.156786042477358833e+00,0.000000000000000000e+00
1.529000000000000000e+03,1.372737515293029675e+00,1.000000000000000000e+00
1.530000000000000000e+03,-3.734913823176815306e-01,0.000000000000000000e+00
1.531000000000000000e+03,-9.946235835981825923e-01,0.000000000000000000e+00
1.532000000000000000e+03,-1.098694349644648405e+00,0.000000000000000000e+00
1.533000000000000000e+03,-9.499605229900486281e-01,0.000000000000000000e+00
1.534000000000000000e+03,-7.265575075972824370e-01,0.000000000000000000e+00
1.535000000000000000e+03,-7.394172712436040129e-01,0.000000000000000000e+00
1.536000000000000000e+03,-6.329872483075301703e-01,0.000000000000000000e+00
1.537000000000000000e+03,-4.772884039021876301e-01,0.000000000000000000e+00
1.538000000000000000e+03,-3.573305987888505397e-01,0.000000000000000000e+00
1.539000000000000000e+03,-3.115215324857232848e-01,0.000000000000000000e+00
1.540000000000000000e+03,8.047567042862146386e-03,0.000000000000000000e+00
1.541000000000000000e+03,9.372373777415159146e-02,0.000000000000000000e+00
1.542000000000000000e+03,4.255799657958889148e-01,0.000000000000000000e+00
1.543000000000000000e+03,6.758547731279858084e-01,0.000000000000000000e+00
1.544000000000000000e+03,7.345487897584895842e-01,0.000000000000000000e+00
1.545000000000000000e+03,8.064997420104585979e-01,0.000000000000000000e+00
1.546000000000000000e+03,5.244523777052735314e-01,0.000000000000000000e+00
1.547000000000000000e+03,-7.742039113655467542e-02,0.000000000000000000e+00
1.548000000000000000e+03,-6.750629570864445927e-01,0.000000000000000000e+00
1.549000000000000000e+03,-1.186858496344813219e+00,0.000000000000000000e+00
1.550000000000000000e+03,-1.156789023342549960e+00,0.000000000000000000e+00
1.551000000000000000e+03,-1.262077744644771071e+00,0.000000000000000000e+00
1.552000000000000000e+03,-9.247457674525692006e-01,0.000000000000000000e+00
1.553000000000000000e+03,-1.023069149035874759e+00,0.000000000000000000e+00
1.554000000000000000e+03,-8.630626582968200511e-01,0.000000000000000000e+00
1.555000000000000000e+03,-8.352855940482494246e-01,0.000000000000000000e+00
1.556000000000000000e+03,-5.938333179519761362e-01,0.000000000000000000e+00
1.557000000000000000e+03,-7.279451960129843524e-01,0.000000000000000000e+00
1.558000000000000000e+03,-5.222793072196617592e-01,0.000000000000000000e+00
1.559000000000000000e+03,-3.552696335338599298e-01,0.000000000000000000e+00
1.560000000000000000e+03,-2.528630889612699661e-01,0.000000000000000000e+00
1.561000000000000000e+03,-1.521362484467234377e-01,0.000000000000000000e+00
1.562000000000000000e+03,-3.220568333940354022e-01,0.000000000000000000e+00
1.563000000000000000e+03,-4.101529468515813931e-02,0.000000000000000000e+00
1.564000000000000000e+03,-6.656437183446939354e-02,0.000000000000000000e+00
1.565000000000000000e+03,-7.168770525276284278e-02,0.000000000000000000e+00
1.566000000000000000e+03,1.145439527576895128e-01,0.000000000000000000e+00
1.567000000000000000e+03,-4.673836926985238532e-02,0.000000000000000000e+00
1.568000000000000000e+03,1.467481783923025584e-01,0.000000000000000000e+00
1.569000000000000000e+03,2.116577935145598777e-01,0.000000000000000000e+00
1.570000000000000000e+03,7.232200372047678516e-02,0.000000000000000000e+00
1.571000000000000000e+03,2.289478444835294779e-01,0.000000000000000000e+00
1.572000000000000000e+03,1.687363189772645433e-01,0.000000000000000000e+00
1.573000000000000000e+03,1.719428073733161588e-01,0.000000000000000000e+00
1.574000000000000000e+03,3.243721489160689697e-01,0.000000000000000000e+00
1.575000000000000000e+03,3.089611511651081388e-01,0.000000000000000000e+00
1.576000000000000000e+03,3.144938048151775800e-01,0.000000000000000000e+00
1.577000000000000000e+03,1.470198740848119856e-01,0.000000000000000000e+00
1.578000000000000000e+03,5.099226677351109682e-01,0.000000000000000000e+00
1.579000000000000000e+03,2.790907847490403659e-01,0.000000000000000000e+00
1.580000000000000000e+03,6.658483280257271320e-01,0.000000000000000000e+00
1.581000000000000000e+03,7.309229386062995326e-01,0.000000000000000000e+00
1.582000000000000000e+03,6.761367792679529032e-01,0.000000000000000000e+00
1.583000000000000000e+03,1.623900364860093315e-01,0.000000000000000000e+00
1.584000000000000000e+03,1.961033454283195032e-01,0.000000000000000000e+00
1.585000000000000000e+03,-1.245984719419021836e-01,0.000000000000000000e+00
1.586000000000000000e+03,2.694195144064815972e-01,0.000000000000000000e+00
1.587000000000000000e+03,1.421219305453379211e-02,0.000000000000000000e+00
