timestamp,ecg_measurement,qrs_detected
0.000000000000000000e+00,2.324775803002222307e+00,0.000000000000000000e+00
1.000000000000000000e+00,5.228983695491010053e+00,0.000000000000000000e+00
2.000000000000000000e+00,-1.796405933553479439e+00,0.000000000000000000e+00
3.000000000000000000e+00,-2.314023675356281728e+00,0.000000000000000000e+00
4.000000000000000000e+00,-9.620743646825073991e-01,0.000000000000000000e+00
5.000000000000000000e+00,-4.715280300145640452e-02,0.000000000000000000e+00
6.000000000000000000e+00,-2.489132819677375708e-01,0.000000000000000000e+00
7.000000000000000000e+00,1.594522911238901441e-01,0.000000000000000000e+00
8.000000000000000000e+00,1.201925362189805013e-03,0.000000000000000000e+00
9.000000000000000000e+00,2.002776495995916006e-01,0.000000000000000000e+00
1.000000000000000000e+01,2.691705843639812246e-01,0.000000000000000000e+00
1.100000000000000000e+01,4.432433544853034979e-01,0.000000000000000000e+00
1.200000000000000000e+01,4.993901990038859817e-01,0.000000000000000000e+00
1.300000000000000000e+01,6.116385439343570152e-01,0.000000000000000000e+00
1.400000000000000000e+01,9.031985130193510569e-01,0.000000000000000000e+00
1.500000000000000000e+01,9.827739981670530200e-01,0.000000000000000000e+00
1.600000000000000000e+01,8.512024890822359469e-01,0.000000000000000000e+00
1.700000000000000000e+01,7.352355455114236715e-01,0.000000000000000000e+00
1.800000000000000000e+01,-5.544758255438139933e-04,0.000000000000000000e+00
1.900000000000000000e+01,-3.835529094228365965e-01,1.000000000000000000e+00
2.000000000000000000e+01,-1.060071197619711469e+00,0.000000000000000000e+00
2.100000000000000000e+01,-1.094989894073152614e+00,0.000000000000000000e+00
2.200000000000000000e+01,-1.138649305474318529e+00,0.000000000000000000e+00
2.300000000000000000e+01,-1.072307124141117063e+00,0.000000000000000000e+00
2.400000000000000000e+01,-9.356347102596673793e-01,0.000000000000000000e+00
2.500000000000000000e+01,-1.047131152582943425e+00,0.000000000000000000e+00
2.600000000000000000e+01,-8.795558718451120805e-01,0.000000000000000000e+00
2.700000000000000000e+01,-6.051913048449394372e-01,0.000000000000000000e+00
2.800000000000000000e+01,-5.914616222032590409e-01,0.000000000000000000e+00
2.900000000000000000e+01,-5.652385326492126438e-01,0.000000000000000000e+00
3.000000000000000000e+01,-3.083763704326357713e-01,0.000000000000000000e+00
3.100000000000000000e+01,-3.762008755627903600e-01,0.000000000000000000e+00
3.200000000000000000e+01,-3.724322652861219440e-01,0.000000000000000000e+00
3.300000000000000000e+01,-3.047038729262198098e-01,0.000000000000000000e+00
3.400000000000000000e+01,-2.150414103726706327e-01,0.000000000000000000e+00
3.500000000000000000e+01,-2.986968535754660481e-01,0.000000000000000000e+00
3.600000000000000000e+01,-1.749833445872933102e-01,0.000000000000000000e+00
3.700000000000000000e+01,-1.697795392381839241e-01,0.000000000000000000e+00
3.800000000000000000e+01,-1.341261628803103456e-01,0.000000000000000000e+00
3.900000000000000000e+01,2.375768491699520660e-02,0.000000000000000000e+00
4.000000000000000000e+01,-5.401246576089248352e-02,0.000000000000000000e+00
4.100000000000000000e+01,3.854610959704610988e-03,0.000000000000000000e+00
4.200000000000000000e+01,-3.819707580873410446e-02,0.000000000000000000e+00
4.300000000000000000e+01,1.158413175660339377e-02,0.000000000000000000e+00
4.400000000000000000e+01,2.502582266682323864e-01,0.000000000000000000e+00
4.500000000000000000e+01,6.142425098323632537e-02,0.000000000000000000e+00
4.600000000000000000e+01,-6.864939803564711757e-03,0.000000000000000000e+00
4.700000000000000000e+01,2.318541020769560868e-01,0.000000000000000000e+00
4.800000000000000000e+01,4.116554677790513345e-02,0.000000000000000000e+00
4.900000000000000000e+01,3.167566233260745157e-01,0.000000000000000000e+00
5.000000000000000000e+01,2.064201849343823836e-01,0.000000000000000000e+00
5.100000000000000000e+01,3.279136663179947897e-01,0.000000000000000000e+00
5.200000000000000000e+01,4.350636268287392250e-01,0.000000000000000000e+00
5.300000000000000000e+01,5.771318637024618337e-01,0.000000000000000000e+00
5.400000000000000000e+01,5.445465026572562373e-01,0.000000000000000000e+00
5.500000000000000000e+01,5.223621076678023473e-02,0.000000000000000000e+00
5.600000000000000000e+01,2.339946444472578158e-01,0.000000000000000000e+00
5.700000000000000000e+01,6.665159316186855532e-02,0.000000000000000000e+00
5.800000000000000000e+01,4.143791403690855191e-02,0.000000000000000000e+00
5.900000000000000000e+01,1.075191371696064373e-02,0.000000000000000000e+00
6.000000000000000000e+01,6.192145658961890897e-02,0.000000000000000000e+00
6.100000000000000000e+01,4.600777440856452793e-01,0.000000000000000000e+00
6.200000000000000000e+01,5.224824275365159032e+00,0.000000000000000000e+00
6.300000000000000000e+01,7.122446160219829681e-01,1.000000000000000000e+00
6.400000000000000000e+01,-3.031063131797536947e+00,0.000000000000000000e+00
6.500000000000000000e+01,-1.151537443003930461e+00,0.000000000000000000e+00
6.600000000000000000e+01,-5.205307891645420959e-01,0.000000000000000000e+00
6.700000000000000000e+01,1.439843669591127084e-01,0.000000000000000000e+00
6.800000000000000000e+01,-1.077498993753508300e-01,0.000000000000000000e+00
6.900000000000000000e+01,3.475691982975443461e-01,0.000000000000000000e+00
7.000000000000000000e+01,7.100623042354844809e-03,0.000000000000000000e+00
7.100000000000000000e+01,4.338632337133142558e-01,0.000000000000000000e+00
7.200000000000000000e+01,2.443297072631154809e-01,0.000000000000000000e+00
7.300000000000000000e+01,5.478726952894900082e-01,0.000000000000000000e+00
7.400000000000000000e+01,6.780127745879053203e-01,0.000000000000000000e+00
7.500000000000000000e+01,9.084049454383710254e-01,0.000000000000000000e+00
7.600000000000000000e+01,9.084418071989931454e-01,0.000000000000000000e+00
7.700000000000000000e+01,1.005406845822518935e+00,0.000000000000000000e+00
7.800000000000000000e+01,6.026615848752793214e-01,0.000000000000000000e+00
7.900000000000000000e+01,5.388534344778685981e-01,0.000000000000000000e+00
8.000000000000000000e+01,-2.848896979514060623e-01,0.000000000000000000e+00
8.100000000000000000e+01,-8.959972883278922717e-01,0.000000000000000000e+00
8.200000000000000000e+01,-1.021040050238071872e+00,0.000000000000000000e+00
8.300000000000000000e+01,-1.028637272664644442e+00,0.000000000000000000e+00
8.400000000000000000e+01,-1.149527405673240299e+00,0.000000000000000000e+00
8.500000000000000000e+01,-1.062237040118086950e+00,0.000000000000000000e+00
8.600000000000000000e+01,-1.025861991152324348e+00,0.000000000000000000e+00
8.700000000000000000e+01,-5.709967557883353084e-01,0.000000000000000000e+00
8.800000000000000000e+01,-7.477050084477058212e-01,0.000000000000000000e+00
8.900000000000000000e+01,-6.030822870578994577e-01,0.000000000000000000e+00
9.000000000000000000e+01,-5.405553062160852740e-01,0.000000000000000000e+00
9.100000000000000000e+01,-3.161777528896989597e-01,0.000000000000000000e+00
9.200000000000000000e+01,-2.796601023381420359e-01,0.000000000000000000e+00
9.300000000000000000e+01,-3.389753771052717579e-01,0.000000000000000000e+00
9.400000000000000000e+01,-3.457871431888412950e-01,0.000000000000000000e+00
9.500000000000000000e+01,-2.887699503255493072e-01,0.000000000000000000e+00
9.600000000000000000e+01,-1.923764289608451694e-01,0.000000000000000000e+00
9.700000000000000000e+01,-8.320340444340904029e-02,0.000000000000000000e+00
9.800000000000000000e+01,-2.212217359749150403e-01,0.000000000000000000e+00
9.900000000000000000e+01,-9.723709261088717137e-03,0.000000000000000000e+00
1.000000000000000000e+02,-9.212655738167810360e-02,0.000000000000000000e+00
1.010000000000000000e+02,1.530393113041250697e-02,0.000000000000000000e+00
1.020000000000000000e+02,-8.926661401652970229e-02,0.000000000000000000e+00
1.030000000000000000e+02,1.293764191749701420e-01,0.000000000000000000e+00
1.040000000000000000e+02,-7.865040126980865631e-02,0.000000000000000000e+00
1.050000000000000000e+02,1.590934716858095621e-01,0.000000000000000000e+00
1.060000000000000000e+02,-1.696272990355273194e-02,0.000000000000000000e+00
1.070000000000000000e+02,2.430237486262010194e-01,0.000000000000000000e+00
1.080000000000000000e+02,2.002902227322922446e-01,0.000000000000000000e+00
1.090000000000000000e+02,1.736557836295058443e-01,0.000000000000000000e+00
1.100000000000000000e+02,1.961757186654253804e-01,0.000000000000000000e+00
1.110000000000000000e+02,3.076137793642070850e-01,0.000000000000000000e+00
1.120000000000000000e+02,1.452205958660377216e-01,0.000000000000000000e+00
1.130000000000000000e+02,4.716264189740365098e-01,0.000000000000000000e+00
1.140000000000000000e+02,4.803344720847583793e-01,0.000000000000000000e+00
1.150000000000000000e+02,8.740443147648671030e-01,0.000000000000000000e+00
1.160000000000000000e+02,3.205752979361701782e-01,0.000000000000000000e+00
1.170000000000000000e+02,3.097649979011953270e-01,0.000000000000000000e+00
1.180000000000000000e+02,-4.773761020079723277e-02,0.000000000000000000e+00
1.190000000000000000e+02,3.136214181097568554e-01,0.000000000000000000e+00
1.200000000000000000e+02,-1.254031340704349906e-01,0.000000000000000000e+00
1.210000000000000000e+02,3.275980821118222863e-01,0.000000000000000000e+00
1.220000000000000000e+02,-4.769507589775160428e-01,0.000000000000000000e+00
1.230000000000000000e+02,2.567633398238773790e+00,0.000000000000000000e+00
1.240000000000000000e+02,5.004908866539157231e+00,0.000000000000000000e+00
1.250000000000000000e+02,-1.958983976049532005e+00,1.000000000000000000e+00
1.260000000000000000e+02,-2.426652871335037709e+00,0.000000000000000000e+00
1.270000000000000000e+02,-9.175647095508479012e-01,0.000000000000000000e+00
1.280000000000000000e+02,-1.697457272338506740e-01,0.000000000000000000e+00
1.290000000000000000e+02,-6.428023606458005412e-02,0.000000000000000000e+00
1.300000000000000000e+02,1.571349697658071948e-02,0.000000000000000000e+00
1.310000000000000000e+02,1.069510070563171322e-01,0.000000000000000000e+00
1.320000000000000000e+02,2.176859816272527226e-01,0.000000000000000000e+00
1.330000000000000000e+02,1.103679830680207724e-01,0.000000000000000000e+00
1.340000000000000000e+02,4.885935971741916517e-01,0.000000000000000000e+00
1.350000000000000000e+02,4.371032471291796950e-01,0.000000000000000000e+00
1.360000000000000000e+02,8.731059766038072878e-01,0.000000000000000000e+00
1.370000000000000000e+02,7.939474462876827676e-01,0.000000000000000000e+00
1.380000000000000000e+02,9.236803026710850295e-01,0.000000000000000000e+00
1.390000000000000000e+02,1.009789241320880437e+00,0.000000000000000000e+00
1.400000000000000000e+02,7.002337832476062118e-01,0.000000000000000000e+00
1.410000000000000000e+02,1.051269063677030408e-01,0.000000000000000000e+00
1.420000000000000000e+02,-7.624023387428849885e-01,0.000000000000000000e+00
1.430000000000000000e+02,-7.912753426991597783e-01,0.000000000000000000e+00
1.440000000000000000e+02,-1.167677400954217903e+00,0.000000000000000000e+00
1.450000000000000000e+02,-1.216205463788132990e+00,0.000000000000000000e+00
1.460000000000000000e+02,-1.099839338626320329e+00,0.000000000000000000e+00
1.470000000000000000e+02,-9.705836168773164241e-01,0.000000000000000000e+00
1.480000000000000000e+02,-1.076672566651390772e+00,0.000000000000000000e+00
1.490000000000000000e+02,-7.021767452637170948e-01,0.000000000000000000e+00
1.500000000000000000e+02,-5.939252356400098742e-01,0.000000000000000000e+00
1.510000000000000000e+02,-8.249752984913765186e-01,0.000000000000000000e+00
1.520000000000000000e+02,-3.730144389888791490e-01,0.000000000000000000e+00
1.530000000000000000e+02,-4.015704201438720089e-01,0.000000000000000000e+00
1.540000000000000000e+02,-3.166359464466484419e-01,0.000000000000000000e+00
1.550000000000000000e+02,-4.716259236475886518e-01,0.000000000000000000e+00
1.560000000000000000e+02,-2.474201788694281312e-01,0.000000000000000000e+00
1.570000000000000000e+02,-1.796290159830708499e-01,0.000000000000000000e+00
1.580000000000000000e+02,-2.195320014946560983e-01,0.000000000000000000e+00
1.590000000000000000e+02,-2.545380073010459210e-01,0.000000000000000000e+00
1.600000000000000000e+02,-1.247722473216205941e-01,0.000000000000000000e+00
1.610000000000000000e+02,-9.580822123389691469e-02,0.000000000000000000e+00
1.620000000000000000e+02,-3.368869086666716195e-02,0.000000000000000000e+00
1.630000000000000000e+02,-8.125865439347756958e-02,0.000000000000000000e+00
1.640000000000000000e+02,6.435195413015924737e-02,0.000000000000000000e+00
1.650000000000000000e+02,3.144835496113160267e-02,0.000000000000000000e+00
1.660000000000000000e+02,7.213379402843073107e-02,0.000000000000000000e+00
1.670000000000000000e+02,9.173836009772835809e-02,0.000000000000000000e+00
1.680000000000000000e+02,1.388358900937400331e-01,0.000000000000000000e+00
1.690000000000000000e+02,1.261333722926066270e-01,0.000000000000000000e+00
1.700000000000000000e+02,1.215032861014712362e-01,0.000000000000000000e+00
1.710000000000000000e+02,2.781746748303418615e-01,0.000000000000000000e+00
1.720000000000000000e+02,2.448180998464758451e-01,0.000000000000000000e+00
1.730000000000000000e+02,2.228918254599817905e-01,0.000000000000000000e+00
1.740000000000000000e+02,3.169774413684562919e-01,0.000000000000000000e+00
1.750000000000000000e+02,4.305685765629039263e-01,0.000000000000000000e+00
1.760000000000000000e+02,3.672585439850030165e-01,0.000000000000000000e+00
1.770000000000000000e+02,7.858984337723908808e-01,0.000000000000000000e+00
1.780000000000000000e+02,1.862826832820905221e-01,0.000000000000000000e+00
1.790000000000000000e+02,2.512918399250326784e-01,0.000000000000000000e+00
1.800000000000000000e+02,4.758174884213594441e-02,0.000000000000000000e+00
1.810000000000000000e+02,2.766740852731054412e-01,0.000000000000000000e+00
1.820000000000000000e+02,-1.992015797420804979e-01,0.000000000000000000e+00
1.830000000000000000e+02,4.452728799410500260e-01,0.000000000000000000e+00
1.840000000000000000e+02,-2.509042799215430164e-01,0.000000000000000000e+00
1.850000000000000000e+02,4.576354372532426495e+00,0.000000000000000000e+00
1.860000000000000000e+02,2.611742813998049417e+00,1.000000000000000000e+00
1.870000000000000000e+02,-3.128446670685566477e+00,0.000000000000000000e+00
1.880000000000000000e+02,-1.413778409333738217e+00,0.000000000000000000e+00
1.890000000000000000e+02,-7.368818743765425117e-01,0.000000000000000000e+00
1.900000000000000000e+02,6.687966715173850052e-02,0.000000000000000000e+00
1.910000000000000000e+02,-2.784446167555306578e-02,0.000000000000000000e+00
1.920000000000000000e+02,7.272298662087302301e-02,0.000000000000000000e+00
1.930000000000000000e+02,6.843855904031605208e-02,0.000000000000000000e+00
1.940000000000000000e+02,2.683189417090315332e-01,0.000000000000000000e+00
1.950000000000000000e+02,1.490968058161953047e-01,0.000000000000000000e+00
1.960000000000000000e+02,5.586735602266633682e-01,0.000000000000000000e+00
1.970000000000000000e+02,5.755930340807769996e-01,0.000000000000000000e+00
1.980000000000000000e+02,7.757101548841093264e-01,0.000000000000000000e+00
1.990000000000000000e+02,9.734839410927880188e-01,0.000000000000000000e+00
2.000000000000000000e+02,1.026072375975390027e+00,0.000000000000000000e+00
2.010000000000000000e+02,7.680162056408431637e-01,0.000000000000000000e+00
2.020000000000000000e+02,4.058905315590269902e-01,0.000000000000000000e+00
2.030000000000000000e+02,-2.944942261170214182e-01,0.000000000000000000e+00
2.040000000000000000e+02,-6.582419292929519994e-01,0.000000000000000000e+00
2.050000000000000000e+02,-1.180873443071703166e+00,0.000000000000000000e+00
2.060000000000000000e+02,-1.101027886865366456e+00,0.000000000000000000e+00
2.070000000000000000e+02,-1.005163166823892729e+00,0.000000000000000000e+00
2.080000000000000000e+02,-1.040662632159890855e+00,0.000000000000000000e+00
2.090000000000000000e+02,-1.119611543375197860e+00,0.000000000000000000e+00
2.100000000000000000e+02,-9.213571987117746831e-01,0.000000000000000000e+00
2.110000000000000000e+02,-6.783267044068638230e-01,0.000000000000000000e+00
2.120000000000000000e+02,-5.647851860149811776e-01,0.000000000000000000e+00
2.130000000000000000e+02,-5.441617538463993098e-01,0.000000000000000000e+00
2.140000000000000000e+02,-5.589658785143484243e-01,0.000000000000000000e+00
2.150000000000000000e+02,-3.465948958017215920e-01,0.000000000000000000e+00
2.160000000000000000e+02,-3.062514351212431429e-01,0.000000000000000000e+00
2.170000000000000000e+02,-3.317340897000878308e-01,0.000000000000000000e+00
2.180000000000000000e+02,-2.312335995924527654e-01,0.000000000000000000e+00
2.190000000000000000e+02,-1.916799232387765284e-01,0.000000000000000000e+00
2.200000000000000000e+02,-4.059242540514151343e-01,0.000000000000000000e+00
2.210000000000000000e+02,2.885269638720621560e-02,0.000000000000000000e+00
2.220000000000000000e+02,-2.004028264797650394e-01,0.000000000000000000e+00
2.230000000000000000e+02,-1.910419055545457823e-02,0.000000000000000000e+00
2.240000000000000000e+02,-2.160212730805690651e-01,0.000000000000000000e+00
2.250000000000000000e+02,1.106460181830642153e-01,0.000000000000000000e+00
2.260000000000000000e+02,1.182015288592753594e-01,0.000000000000000000e+00
2.270000000000000000e+02,-2.874641001808465879e-02,0.000000000000000000e+00
2.280000000000000000e+02,1.780459246020631436e-01,0.000000000000000000e+00
2.290000000000000000e+02,2.960122012899740404e-02,0.000000000000000000e+00
2.300000000000000000e+02,1.416571014933089845e-01,0.000000000000000000e+00
2.310000000000000000e+02,6.876647695493566526e-02,0.000000000000000000e+00
2.320000000000000000e+02,3.626857160340248853e-01,0.000000000000000000e+00
2.330000000000000000e+02,2.138860028590990892e-01,0.000000000000000000e+00
2.340000000000000000e+02,3.793680768759079003e-01,0.000000000000000000e+00
2.350000000000000000e+02,3.055551758971026821e-01,0.000000000000000000e+00
2.360000000000000000e+02,7.187860120728755131e-01,0.000000000000000000e+00
2.370000000000000000e+02,6.317593193261525908e-01,0.000000000000000000e+00
2.380000000000000000e+02,1.533945270924157167e-01,0.000000000000000000e+00
2.390000000000000000e+02,1.271051709474718405e-01,0.000000000000000000e+00
2.400000000000000000e+02,1.088768372336256507e-01,0.000000000000000000e+00
2.410000000000000000e+02,2.600533810094719511e-01,0.000000000000000000e+00
2.420000000000000000e+02,-1.163471383906371642e-01,0.000000000000000000e+00
2.430000000000000000e+02,1.636662865036214165e-01,0.000000000000000000e+00
2.440000000000000000e+02,5.710845006769273979e-01,0.000000000000000000e+00
2.450000000000000000e+02,4.945300425945209355e+00,0.000000000000000000e+00
2.460000000000000000e+02,5.631373423146782686e-01,1.000000000000000000e+00
2.470000000000000000e+02,-2.895633442379573985e+00,0.000000000000000000e+00
2.480000000000000000e+02,-1.249132596853637311e+00,0.000000000000000000e+00
2.490000000000000000e+02,-3.170883293442953166e-01,0.000000000000000000e+00
2.500000000000000000e+02,1.376145513668270981e-01,0.000000000000000000e+00
2.510000000000000000e+02,-1.002769318400191859e-02,0.000000000000000000e+00
2.520000000000000000e+02,2.957476455135957250e-01,0.000000000000000000e+00
2.530000000000000000e+02,9.659701053976427199e-02,0.000000000000000000e+00
2.540000000000000000e+02,3.875757355142573912e-01,0.000000000000000000e+00
2.550000000000000000e+02,4.545421075589957116e-01,0.000000000000000000e+00
2.560000000000000000e+02,5.562632976461091561e-01,0.000000000000000000e+00
2.570000000000000000e+02,6.052875043201578764e-01,0.000000000000000000e+00
2.580000000000000000e+02,8.298469093221446657e-01,0.000000000000000000e+00
2.590000000000000000e+02,1.003855580753884702e+00,0.000000000000000000e+00
2.600000000000000000e+02,7.849890924232565403e-01,0.000000000000000000e+00
2.610000000000000000e+02,8.469532178198697636e-01,0.000000000000000000e+00
2.620000000000000000e+02,4.019602983973832866e-01,0.000000000000000000e+00
2.630000000000000000e+02,-3.502570713597425445e-01,0.000000000000000000e+00
2.640000000000000000e+02,-9.647324444805663868e-01,0.000000000000000000e+00
2.650000000000000000e+02,-9.980251981631473868e-01,0.000000000000000000e+00
2.660000000000000000e+02,-1.079992547555998827e+00,0.000000000000000000e+00
2.670000000000000000e+02,-1.045448488012077348e+00,0.000000000000000000e+00
2.680000000000000000e+02,-9.701213026919331961e-01,0.000000000000000000e+00
2.690000000000000000e+02,-1.004168468610594278e+00,0.000000000000000000e+00
2.700000000000000000e+02,-8.165916452559977001e-01,0.000000000000000000e+00
2.710000000000000000e+02,-5.643278828022180171e-01,0.000000000000000000e+00
2.720000000000000000e+02,-5.653164461999855561e-01,0.000000000000000000e+00
2.730000000000000000e+02,-4.995000971116033694e-01,0.000000000000000000e+00
2.740000000000000000e+02,-4.057218402674100943e-01,0.000000000000000000e+00
2.750000000000000000e+02,-3.222968434977388497e-01,0.000000000000000000e+00
2.760000000000000000e+02,-3.970624512793557992e-01,0.000000000000000000e+00
2.770000000000000000e+02,-2.706273506989798072e-01,0.000000000000000000e+00
2.780000000000000000e+02,-1.546604190963091208e-01,0.000000000000000000e+00
2.790000000000000000e+02,-2.770834347265561104e-01,0.000000000000000000e+00
2.800000000000000000e+02,-1.719747277222721527e-01,0.000000000000000000e+00
2.810000000000000000e+02,-2.020938789548087089e-01,0.000000000000000000e+00
2.820000000000000000e+02,-5.067479504866995166e-02,0.000000000000000000e+00
2.830000000000000000e+02,-1.738821951915571484e-01,0.000000000000000000e+00
2.840000000000000000e+02,1.051270297040419327e-01,0.000000000000000000e+00
2.850000000000000000e+02,-1.487231996797903355e-01,0.000000000000000000e+00
2.860000000000000000e+02,2.434828339854312740e-01,0.000000000000000000e+00
2.870000000000000000e+02,-2.043491707462367635e-01,0.000000000000000000e+00
2.880000000000000000e+02,2.588734285295037907e-01,0.000000000000000000e+00
2.890000000000000000e+02,8.255444324593669281e-02,0.000000000000000000e+00
2.900000000000000000e+02,2.908638220388661821e-01,0.000000000000000000e+00
2.910000000000000000e+02,5.397720533036447915e-02,0.000000000000000000e+00
2.920000000000000000e+02,2.062300105733581579e-01,0.000000000000000000e+00
2.930000000000000000e+02,1.775370284361418305e-01,0.000000000000000000e+00
2.940000000000000000e+02,6.766263570081207934e-01,0.000000000000000000e+00
2.950000000000000000e+02,1.917781422709046724e-01,0.000000000000000000e+00
2.960000000000000000e+02,8.054131498623363639e-01,0.000000000000000000e+00
2.970000000000000000e+02,2.338815495434958536e-01,0.000000000000000000e+00
2.980000000000000000e+02,4.279741740865808386e-01,0.000000000000000000e+00
2.990000000000000000e+02,-1.018044231297754454e-01,0.000000000000000000e+00
3.000000000000000000e+02,2.556781440253141358e-01,0.000000000000000000e+00
3.010000000000000000e+02,-1.154220532214417921e-01,0.000000000000000000e+00
3.020000000000000000e+02,2.559332221025876208e-01,0.000000000000000000e+00
3.030000000000000000e+02,-2.554648547662029534e-01,0.000000000000000000e+00
3.040000000000000000e+02,3.631454387185076627e+00,0.000000000000000000e+00
3.050000000000000000e+02,3.584746441933965855e+00,0.000000000000000000e+00
3.060000000000000000e+02,-2.810601544484292447e+00,1.000000000000000000e+00
3.070000000000000000e+02,-1.935904540688597297e+00,0.000000000000000000e+00
3.080000000000000000e+02,-5.624233320257218116e-01,0.000000000000000000e+00
3.090000000000000000e+02,1.825783344665318220e-01,0.000000000000000000e+00
3.100000000000000000e+02,-2.228199705729302926e-01,0.000000000000000000e+00
3.110000000000000000e+02,2.043214527187204310e-01,0.000000000000000000e+00
3.120000000000000000e+02,-1.083720196997929180e-01,0.000000000000000000e+00
3.130000000000000000e+02,4.961336197012551907e-01,0.000000000000000000e+00
3.140000000000000000e+02,1.651596181998528090e-01,0.000000000000000000e+00
3.150000000000000000e+02,6.657204122734595719e-01,0.000000000000000000e+00
3.160000000000000000e+02,4.259083294351615478e-01,0.000000000000000000e+00
3.170000000000000000e+02,7.774920014109236721e-01,0.000000000000000000e+00
3.180000000000000000e+02,8.911249022868688030e-01,0.000000000000000000e+00
3.190000000000000000e+02,1.065190982963919675e+00,0.000000000000000000e+00
3.200000000000000000e+02,9.265810275996100298e-01,0.000000000000000000e+00
3.210000000000000000e+02,4.382784439488221495e-01,0.000000000000000000e+00
3.220000000000000000e+02,-3.809419526844679688e-02,0.000000000000000000e+00
3.230000000000000000e+02,-7.155841926438080147e-01,0.000000000000000000e+00
3.240000000000000000e+02,-8.527487642881685925e-01,0.000000000000000000e+00
3.250000000000000000e+02,-1.079081140698239460e+00,0.000000000000000000e+00
3.260000000000000000e+02,-1.200169695184108098e+00,0.000000000000000000e+00
3.270000000000000000e+02,-9.292406841889930824e-01,0.000000000000000000e+00
3.280000000000000000e+02,-9.551053977575097997e-01,0.000000000000000000e+00
3.290000000000000000e+02,-8.373345487183222469e-01,0.000000000000000000e+00
3.300000000000000000e+02,-7.416336357406796420e-01,0.000000000000000000e+00
3.310000000000000000e+02,-6.514508506804099763e-01,0.000000000000000000e+00
3.320000000000000000e+02,-4.097596465587586834e-01,0.000000000000000000e+00
3.330000000000000000e+02,-3.788521028759678777e-01,0.000000000000000000e+00
3.340000000000000000e+02,-3.972751346260229299e-01,0.000000000000000000e+00
3.350000000000000000e+02,-2.726253412990168323e-01,0.000000000000000000e+00
3.360000000000000000e+02,-2.778025266216901379e-01,0.000000000000000000e+00
3.370000000000000000e+02,-3.363514043949313304e-01,0.000000000000000000e+00
3.380000000000000000e+02,-2.817189245820529431e-01,0.000000000000000000e+00
3.390000000000000000e+02,-2.130368040497826188e-01,0.000000000000000000e+00
3.400000000000000000e+02,-1.108880191634447204e-01,0.000000000000000000e+00
3.410000000000000000e+02,-2.298481854940804259e-01,0.000000000000000000e+00
3.420000000000000000e+02,-3.842454484812915516e-02,0.000000000000000000e+00
3.430000000000000000e+02,-2.471507062131091670e-01,0.000000000000000000e+00
3.440000000000000000e+02,6.601939131434916841e-02,0.000000000000000000e+00
3.450000000000000000e+02,-8.063260497001565816e-03,0.000000000000000000e+00
3.460000000000000000e+02,-1.436211484369411678e-02,0.000000000000000000e+00
3.470000000000000000e+02,2.346011369158173404e-02,0.000000000000000000e+00
3.480000000000000000e+02,2.005552844480672503e-01,0.000000000000000000e+00
3.490000000000000000e+02,1.808423388055497780e-02,0.000000000000000000e+00
3.500000000000000000e+02,-1.911600186072655305e-02,0.000000000000000000e+00
3.510000000000000000e+02,1.499153989390559216e-01,0.000000000000000000e+00
3.520000000000000000e+02,4.719012543307281038e-01,0.000000000000000000e+00
3.530000000000000000e+02,1.495146593693036374e-01,0.000000000000000000e+00
3.540000000000000000e+02,3.462719032946663389e-01,0.000000000000000000e+00
3.550000000000000000e+02,3.869481508514252543e-01,0.000000000000000000e+00
3.560000000000000000e+02,7.746923738881831278e-01,0.000000000000000000e+00
3.570000000000000000e+02,3.234115520778407804e-01,0.000000000000000000e+00
3.580000000000000000e+02,1.246568149580187385e-01,0.000000000000000000e+00
3.590000000000000000e+02,-1.506337391452790969e-02,0.000000000000000000e+00
3.600000000000000000e+02,2.722622297689363258e-01,0.000000000000000000e+00
3.610000000000000000e+02,-3.181729313146557381e-01,0.000000000000000000e+00
3.620000000000000000e+02,5.221176482559900522e-01,0.000000000000000000e+00
3.630000000000000000e+02,-4.049896003120999621e-01,0.000000000000000000e+00
3.640000000000000000e+02,4.668952745987054342e+00,0.000000000000000000e+00
3.650000000000000000e+02,2.806291018476704924e+00,0.000000000000000000e+00
3.660000000000000000e+02,-3.166059939911122001e+00,1.000000000000000000e+00
3.670000000000000000e+02,-1.564933909882463725e+00,0.000000000000000000e+00
3.680000000000000000e+02,-5.327919522634007032e-01,0.000000000000000000e+00
3.690000000000000000e+02,4.632414727264108634e-02,0.000000000000000000e+00
3.700000000000000000e+02,-1.894590129855067417e-01,0.000000000000000000e+00
3.710000000000000000e+02,1.520304425417131622e-01,0.000000000000000000e+00
3.720000000000000000e+02,-4.345748273854132399e-02,0.000000000000000000e+00
3.730000000000000000e+02,3.945648619603254192e-01,0.000000000000000000e+00
3.740000000000000000e+02,3.351154130954688282e-01,0.000000000000000000e+00
3.750000000000000000e+02,4.946697951075178512e-01,0.000000000000000000e+00
3.760000000000000000e+02,4.340331341908262308e-01,0.000000000000000000e+00
3.770000000000000000e+02,8.342199609076712541e-01,0.000000000000000000e+00
3.780000000000000000e+02,9.443844298707920748e-01,0.000000000000000000e+00
3.790000000000000000e+02,1.145678349839987842e+00,0.000000000000000000e+00
3.800000000000000000e+02,7.440119175286217246e-01,0.000000000000000000e+00
3.810000000000000000e+02,5.849088207268930972e-01,0.000000000000000000e+00
3.820000000000000000e+02,-3.085277539450547168e-01,0.000000000000000000e+00
3.830000000000000000e+02,-5.595763438604238749e-01,0.000000000000000000e+00
3.840000000000000000e+02,-1.188680713463006189e+00,0.000000000000000000e+00
3.850000000000000000e+02,-1.181460321793914581e+00,0.000000000000000000e+00
3.860000000000000000e+02,-1.072580587562280918e+00,0.000000000000000000e+00
3.870000000000000000e+02,-1.160585881438796818e+00,0.000000000000000000e+00
3.880000000000000000e+02,-8.567228897413978750e-01,0.000000000000000000e+00
3.890000000000000000e+02,-8.525166151102440137e-01,0.000000000000000000e+00
3.900000000000000000e+02,-6.961755758274292827e-01,0.000000000000000000e+00
3.910000000000000000e+02,-7.061472013529033198e-01,0.000000000000000000e+00
3.920000000000000000e+02,-4.970454258954969951e-01,0.000000000000000000e+00
3.930000000000000000e+02,-3.484879514336893247e-01,0.000000000000000000e+00
3.940000000000000000e+02,-4.965215862929973634e-01,0.000000000000000000e+00
3.950000000000000000e+02,-3.096710943727215559e-01,0.000000000000000000e+00
3.960000000000000000e+02,-4.627062201725927193e-01,0.000000000000000000e+00
3.970000000000000000e+02,-7.577248624461183080e-02,0.000000000000000000e+00
3.980000000000000000e+02,-1.612809815474756103e-01,0.000000000000000000e+00
3.990000000000000000e+02,-2.987650450644646627e-01,0.000000000000000000e+00
4.000000000000000000e+02,-9.348356085501485779e-02,0.000000000000000000e+00
4.010000000000000000e+02,-1.750755778529911599e-01,0.000000000000000000e+00
4.020000000000000000e+02,2.906289902020232213e-02,0.000000000000000000e+00
4.030000000000000000e+02,-1.718605394214374749e-01,0.000000000000000000e+00
4.040000000000000000e+02,-5.324620605235365345e-02,0.000000000000000000e+00
4.050000000000000000e+02,1.897194786041225267e-01,0.000000000000000000e+00
4.060000000000000000e+02,-8.191636585388854808e-02,0.000000000000000000e+00
4.070000000000000000e+02,1.399359765458275950e-01,0.000000000000000000e+00
4.080000000000000000e+02,3.869495574028203322e-02,0.000000000000000000e+00
4.090000000000000000e+02,2.490827624215603830e-01,0.000000000000000000e+00
4.100000000000000000e+02,1.705344923335458951e-01,0.000000000000000000e+00
4.110000000000000000e+02,4.306608240220855671e-02,0.000000000000000000e+00
4.120000000000000000e+02,3.047656022424102829e-01,0.000000000000000000e+00
4.130000000000000000e+02,3.271427532784196845e-01,0.000000000000000000e+00
4.140000000000000000e+02,5.575818405016352841e-01,0.000000000000000000e+00
4.150000000000000000e+02,4.059627386787457715e-01,0.000000000000000000e+00
4.160000000000000000e+02,5.196501239359274660e-01,0.000000000000000000e+00
4.170000000000000000e+02,4.544126247200917512e-01,0.000000000000000000e+00
4.180000000000000000e+02,5.998644530204795544e-02,0.000000000000000000e+00
4.190000000000000000e+02,7.550932560502024438e-02,0.000000000000000000e+00
4.200000000000000000e+02,1.188640173045412557e-01,0.000000000000000000e+00
4.210000000000000000e+02,2.142261398755201385e-01,0.000000000000000000e+00
4.220000000000000000e+02,6.947018564247962489e-04,0.000000000000000000e+00
4.230000000000000000e+02,6.185596330278327892e-01,0.000000000000000000e+00
4.240000000000000000e+02,5.254937520213107227e+00,0.000000000000000000e+00
4.250000000000000000e+02,4.058546660165084918e-01,1.000000000000000000e+00
4.260000000000000000e+02,-2.917316459772450798e+00,0.000000000000000000e+00
4.270000000000000000e+02,-1.118229527241968224e+00,0.000000000000000000e+00
4.280000000000000000e+02,-4.139325978492309765e-01,0.000000000000000000e+00
4.290000000000000000e+02,1.922050874516091634e-01,0.000000000000000000e+00
4.300000000000000000e+02,-1.155625688177945865e-01,0.000000000000000000e+00
4.310000000000000000e+02,2.515771534173517621e-01,0.000000000000000000e+00
4.320000000000000000e+02,8.159243868050115867e-02,0.000000000000000000e+00
4.330000000000000000e+02,5.002484630043049219e-01,0.000000000000000000e+00
4.340000000000000000e+02,2.106425654637237299e-01,0.000000000000000000e+00
4.350000000000000000e+02,6.413075504546890127e-01,0.000000000000000000e+00
4.360000000000000000e+02,5.543117430129713696e-01,0.000000000000000000e+00
4.370000000000000000e+02,1.052612487891198656e+00,0.000000000000000000e+00
4.380000000000000000e+02,7.937639864579468796e-01,0.000000000000000000e+00
4.390000000000000000e+02,1.079239033612001020e+00,0.000000000000000000e+00
4.400000000000000000e+02,5.969505268456170022e-01,0.000000000000000000e+00
4.410000000000000000e+02,2.679916717261521253e-01,0.000000000000000000e+00
4.420000000000000000e+02,-2.854971576888028495e-01,0.000000000000000000e+00
4.430000000000000000e+02,-6.763763323990176213e-01,0.000000000000000000e+00
4.440000000000000000e+02,-1.090355598881610044e+00,0.000000000000000000e+00
4.450000000000000000e+02,-1.194859661823936658e+00,0.000000000000000000e+00
4.460000000000000000e+02,-1.082833367142380876e+00,0.000000000000000000e+00
4.470000000000000000e+02,-9.172062831863199150e-01,0.000000000000000000e+00
4.480000000000000000e+02,-9.537583941513164687e-01,0.000000000000000000e+00
4.490000000000000000e+02,-7.710717466313190549e-01,0.000000000000000000e+00
4.500000000000000000e+02,-6.511042719168547155e-01,0.000000000000000000e+00
4.510000000000000000e+02,-6.201968915698731211e-01,0.000000000000000000e+00
4.520000000000000000e+02,-4.574953828256219657e-01,0.000000000000000000e+00
4.530000000000000000e+02,-3.223016215627156345e-01,0.000000000000000000e+00
4.540000000000000000e+02,-4.040669969610007350e-01,0.000000000000000000e+00
4.550000000000000000e+02,-2.042467557825435320e-01,0.000000000000000000e+00
4.560000000000000000e+02,-3.290907202645179108e-01,0.000000000000000000e+00
4.570000000000000000e+02,-1.743091879068748296e-01,0.000000000000000000e+00
4.580000000000000000e+02,-3.034224977324109229e-01,0.000000000000000000e+00
4.590000000000000000e+02,-8.891814585825712214e-02,0.000000000000000000e+00
4.600000000000000000e+02,-3.462041709270093914e-01,0.000000000000000000e+00
4.610000000000000000e+02,-1.654250355662855235e-02,0.000000000000000000e+00
4.620000000000000000e+02,-3.335879993244099395e-02,0.000000000000000000e+00
4.630000000000000000e+02,-4.972283231398934994e-02,0.000000000000000000e+00
4.640000000000000000e+02,4.034417805803725693e-02,0.000000000000000000e+00
4.650000000000000000e+02,1.912260320062005720e-02,0.000000000000000000e+00
4.660000000000000000e+02,1.838320704144994627e-02,0.000000000000000000e+00
4.670000000000000000e+02,2.041531116147654035e-01,0.000000000000000000e+00
4.680000000000000000e+02,6.232971565190491975e-02,0.000000000000000000e+00
4.690000000000000000e+02,2.071441545462955891e-01,0.000000000000000000e+00
4.700000000000000000e+02,9.899817481147631104e-02,0.000000000000000000e+00
4.710000000000000000e+02,2.683265593990046272e-01,0.000000000000000000e+00
4.720000000000000000e+02,1.805201426686237065e-01,0.000000000000000000e+00
4.730000000000000000e+02,3.384139466161531495e-01,0.000000000000000000e+00
4.740000000000000000e+02,4.580358339323262751e-01,0.000000000000000000e+00
4.750000000000000000e+02,7.069720602671100140e-01,0.000000000000000000e+00
4.760000000000000000e+02,3.284834323540594681e-01,0.000000000000000000e+00
4.770000000000000000e+02,2.179040408060076428e-01,0.000000000000000000e+00
4.780000000000000000e+02,4.904837326667995170e-03,0.000000000000000000e+00
4.790000000000000000e+02,2.798466388167915597e-01,0.000000000000000000e+00
4.800000000000000000e+02,-2.330013452661722217e-01,0.000000000000000000e+00
4.810000000000000000e+02,3.400473068418144451e-01,0.000000000000000000e+00
4.820000000000000000e+02,-3.484007133596879746e-01,0.000000000000000000e+00
4.830000000000000000e+02,3.757598902865693979e+00,0.000000000000000000e+00
4.840000000000000000e+02,3.772871723376915121e+00,0.000000000000000000e+00
4.850000000000000000e+02,-2.873106591218372863e+00,1.000000000000000000e+00
4.860000000000000000e+02,-1.856068023870816930e+00,0.000000000000000000e+00
4.870000000000000000e+02,-6.228193436139777273e-01,0.000000000000000000e+00
4.880000000000000000e+02,2.164258727274247923e-02,0.000000000000000000e+00
4.890000000000000000e+02,-1.417907048068330067e-01,0.000000000000000000e+00
4.900000000000000000e+02,1.902293390405774554e-01,0.000000000000000000e+00
4.910000000000000000e+02,1.367903182544000784e-01,0.000000000000000000e+00
4.920000000000000000e+02,2.237748696369717960e-01,0.000000000000000000e+00
4.930000000000000000e+02,2.853967548524801723e-01,0.000000000000000000e+00
4.940000000000000000e+02,4.355423964341879062e-01,0.000000000000000000e+00
4.950000000000000000e+02,6.392351545001458968e-01,0.000000000000000000e+00
4.960000000000000000e+02,7.895315324408370694e-01,0.000000000000000000e+00
4.970000000000000000e+02,8.047883396895658681e-01,0.000000000000000000e+00
4.980000000000000000e+02,1.012954946424570402e+00,0.000000000000000000e+00
4.990000000000000000e+02,9.611743892975191939e-01,0.000000000000000000e+00
5.000000000000000000e+02,5.337185300470782545e-01,0.000000000000000000e+00
5.010000000000000000e+02,1.395123288656454925e-04,0.000000000000000000e+00
5.020000000000000000e+02,-7.627362083717907915e-01,0.000000000000000000e+00
5.030000000000000000e+02,-1.058951116774552670e+00,0.000000000000000000e+00
5.040000000000000000e+02,-1.033343281940263703e+00,0.000000000000000000e+00
5.050000000000000000e+02,-1.192774737594603840e+00,0.000000000000000000e+00
5.060000000000000000e+02,-9.724418800495562287e-01,0.000000000000000000e+00
5.070000000000000000e+02,-1.107459577896037439e+00,0.000000000000000000e+00
5.080000000000000000e+02,-6.394044593453683811e-01,0.000000000000000000e+00
5.090000000000000000e+02,-8.179983002283982563e-01,0.000000000000000000e+00
5.100000000000000000e+02,-6.824744004658394037e-01,0.000000000000000000e+00
5.110000000000000000e+02,-5.156124361924122601e-01,0.000000000000000000e+00
5.120000000000000000e+02,-3.107480667474652458e-01,0.000000000000000000e+00
5.130000000000000000e+02,-5.378295467371769778e-01,0.000000000000000000e+00
5.140000000000000000e+02,-2.773384512602052321e-01,0.000000000000000000e+00
5.150000000000000000e+02,-2.043818676469560669e-01,0.000000000000000000e+00
5.160000000000000000e+02,-3.659942829988941937e-01,0.000000000000000000e+00
5.170000000000000000e+02,-1.034013057857731260e-01,0.000000000000000000e+00
5.180000000000000000e+02,-2.937884040120793405e-01,0.000000000000000000e+00
5.190000000000000000e+02,-9.413743666128608634e-02,0.000000000000000000e+00
5.200000000000000000e+02,-1.737487394275001873e-01,0.000000000000000000e+00
5.210000000000000000e+02,-2.675561949244550583e-02,0.000000000000000000e+00
5.220000000000000000e+02,-3.689370144882459304e-03,0.000000000000000000e+00
5.230000000000000000e+02,-1.141359451744620723e-01,0.000000000000000000e+00
5.240000000000000000e+02,-1.024438133055097233e-02,0.000000000000000000e+00
5.250000000000000000e+02,6.611910997704817383e-02,0.000000000000000000e+00
5.260000000000000000e+02,9.701489357491380194e-02,0.000000000000000000e+00
5.270000000000000000e+02,9.461692005749690326e-02,0.000000000000000000e+00
5.280000000000000000e+02,2.074016337937615861e-01,0.000000000000000000e+00
5.290000000000000000e+02,6.091791932245083779e-02,0.000000000000000000e+00
5.300000000000000000e+02,1.314874614916908546e-01,0.000000000000000000e+00
5.310000000000000000e+02,1.337210823628280920e-01,0.000000000000000000e+00
5.320000000000000000e+02,3.537955647509208879e-01,0.000000000000000000e+00
5.330000000000000000e+02,1.861894854308528136e-01,0.000000000000000000e+00
5.340000000000000000e+02,5.065764754056256702e-01,0.000000000000000000e+00
5.350000000000000000e+02,3.845795591295438909e-01,0.000000000000000000e+00
5.360000000000000000e+02,7.625916773145540173e-01,0.000000000000000000e+00
5.370000000000000000e+02,1.814462451825455402e-01,0.000000000000000000e+00
5.380000000000000000e+02,2.057841868484189263e-01,0.000000000000000000e+00
5.390000000000000000e+02,-8.235032266613936947e-02,0.000000000000000000e+00
5.400000000000000000e+02,2.579609039824442562e-01,0.000000000000000000e+00
5.410000000000000000e+02,-1.592608477558123958e-01,0.000000000000000000e+00
5.420000000000000000e+02,2.562041377074456006e-01,0.000000000000000000e+00
5.430000000000000000e+02,-5.637991113473306282e-02,0.000000000000000000e+00
5.440000000000000000e+02,5.384742308069076167e+00,0.000000000000000000e+00
5.450000000000000000e+02,1.346836715290288256e+00,1.000000000000000000e+00
5.460000000000000000e+02,-3.045022855000679929e+00,0.000000000000000000e+00
5.470000000000000000e+02,-1.323143431618506893e+00,0.000000000000000000e+00
5.480000000000000000e+02,-5.296317032210406950e-01,0.000000000000000000e+00
5.490000000000000000e+02,4.503688148575359790e-02,0.000000000000000000e+00
5.500000000000000000e+02,-2.387993494329705702e-01,0.000000000000000000e+00
5.510000000000000000e+02,8.235536396911366519e-02,0.000000000000000000e+00
5.520000000000000000e+02,1.557456283395583507e-01,0.000000000000000000e+00
5.530000000000000000e+02,2.839379543972891384e-01,0.000000000000000000e+00
5.540000000000000000e+02,2.252152762240365591e-01,0.000000000000000000e+00
5.550000000000000000e+02,4.172078823512971324e-01,0.000000000000000000e+00
5.560000000000000000e+02,5.574383581335633497e-01,0.000000000000000000e+00
5.570000000000000000e+02,9.317821202531720859e-01,0.000000000000000000e+00
5.580000000000000000e+02,7.717338623606901926e-01,0.000000000000000000e+00
5.590000000000000000e+02,1.090598631656390483e+00,0.000000000000000000e+00
5.600000000000000000e+02,6.682068019004173687e-01,0.000000000000000000e+00
5.610000000000000000e+02,4.677999684990745144e-01,0.000000000000000000e+00
5.620000000000000000e+02,-3.580694205966063470e-01,0.000000000000000000e+00
5.630000000000000000e+02,-7.228090259664150530e-01,0.000000000000000000e+00
5.640000000000000000e+02,-1.025271240606044687e+00,0.000000000000000000e+00
5.650000000000000000e+02,-1.087554233669622450e+00,0.000000000000000000e+00
5.660000000000000000e+02,-1.212728849038144707e+00,0.000000000000000000e+00
5.670000000000000000e+02,-1.099716412234700513e+00,0.000000000000000000e+00
5.680000000000000000e+02,-9.342641696376421390e-01,0.000000000000000000e+00
5.690000000000000000e+02,-7.315742903456742274e-01,0.000000000000000000e+00
5.700000000000000000e+02,-7.684604899824299951e-01,0.000000000000000000e+00
5.710000000000000000e+02,-5.603239515314804020e-01,0.000000000000000000e+00
5.720000000000000000e+02,-5.321509852440456934e-01,0.000000000000000000e+00
5.730000000000000000e+02,-3.248540681757336457e-01,0.000000000000000000e+00
5.740000000000000000e+02,-3.717147005502915436e-01,0.000000000000000000e+00
5.750000000000000000e+02,-3.558217708011843228e-01,0.000000000000000000e+00
5.760000000000000000e+02,-3.488692371042779183e-01,0.000000000000000000e+00
5.770000000000000000e+02,-6.295874567686791934e-02,0.000000000000000000e+00
5.780000000000000000e+02,-4.176109248840321198e-01,0.000000000000000000e+00
5.790000000000000000e+02,-1.794248688939739933e-01,0.000000000000000000e+00
5.800000000000000000e+02,-1.938454866210404803e-01,0.000000000000000000e+00
5.810000000000000000e+02,4.740930350948756311e-02,0.000000000000000000e+00
5.820000000000000000e+02,-9.597916984531457141e-02,0.000000000000000000e+00
5.830000000000000000e+02,-1.157884318351232039e-01,0.000000000000000000e+00
5.840000000000000000e+02,-9.194204035168615508e-02,0.000000000000000000e+00
5.850000000000000000e+02,1.478576788192057789e-01,0.000000000000000000e+00
5.860000000000000000e+02,-6.913079684546812043e-02,0.000000000000000000e+00
5.870000000000000000e+02,1.037008496064760893e-01,0.000000000000000000e+00
5.880000000000000000e+02,7.164238147605898888e-02,0.000000000000000000e+00
5.890000000000000000e+02,3.753714553679876609e-01,0.000000000000000000e+00
5.900000000000000000e+02,-6.208328499077903767e-02,0.000000000000000000e+00
5.910000000000000000e+02,3.205462483445300492e-01,0.000000000000000000e+00
5.920000000000000000e+02,-3.316275865118798599e-02,0.000000000000000000e+00
5.930000000000000000e+02,5.448098956777319701e-01,0.000000000000000000e+00
5.940000000000000000e+02,1.754007576433123106e-01,0.000000000000000000e+00
5.950000000000000000e+02,4.351906873459077119e-01,0.000000000000000000e+00
5.960000000000000000e+02,3.860241169121880200e-01,0.000000000000000000e+00
5.970000000000000000e+02,6.806317065635895114e-01,0.000000000000000000e+00
5.980000000000000000e+02,2.713812232083994136e-01,0.000000000000000000e+00
5.990000000000000000e+02,3.734117691944479067e-01,0.000000000000000000e+00
6.000000000000000000e+02,-6.987601949567712190e-02,0.000000000000000000e+00
6.010000000000000000e+02,3.209687596165317069e-01,0.000000000000000000e+00
6.020000000000000000e+02,-2.214119951581675072e-01,0.000000000000000000e+00
6.030000000000000000e+02,4.178573107946761955e-01,0.000000000000000000e+00
6.040000000000000000e+02,-2.976286640203479883e-01,0.000000000000000000e+00
6.050000000000000000e+02,3.967429658192290542e+00,0.000000000000000000e+00
6.060000000000000000e+02,3.235310023735332052e+00,0.000000000000000000e+00
6.070000000000000000e+02,-2.641659065702151921e+00,1.000000000000000000e+00
6.080000000000000000e+02,-1.729311267833387733e+00,0.000000000000000000e+00
6.090000000000000000e+02,-7.840696303490403141e-01,0.000000000000000000e+00
6.100000000000000000e+02,1.474172776172855692e-01,0.000000000000000000e+00
6.110000000000000000e+02,-2.296066611808745828e-01,0.000000000000000000e+00
6.120000000000000000e+02,2.717421471819866929e-01,0.000000000000000000e+00
6.130000000000000000e+02,4.867082351409520585e-02,0.000000000000000000e+00
6.140000000000000000e+02,3.471588248994201265e-01,0.000000000000000000e+00
6.150000000000000000e+02,2.587257578285942494e-01,0.000000000000000000e+00
6.160000000000000000e+02,5.781415495964672413e-01,0.000000000000000000e+00
6.170000000000000000e+02,5.475066466278764032e-01,0.000000000000000000e+00
6.180000000000000000e+02,7.382897413897333561e-01,0.000000000000000000e+00
6.190000000000000000e+02,8.422002780407870093e-01,0.000000000000000000e+00
6.200000000000000000e+02,1.010084916032988334e+00,0.000000000000000000e+00
6.210000000000000000e+02,6.898728859890236320e-01,0.000000000000000000e+00
6.220000000000000000e+02,4.967586972575843696e-01,0.000000000000000000e+00
6.230000000000000000e+02,-5.478975924955248322e-02,0.000000000000000000e+00
6.240000000000000000e+02,-6.318819739744050423e-01,0.000000000000000000e+00
6.250000000000000000e+02,-9.476222939533432976e-01,0.000000000000000000e+00
6.260000000000000000e+02,-1.080128046615118409e+00,0.000000000000000000e+00
6.270000000000000000e+02,-1.213684048592565290e+00,0.000000000000000000e+00
6.280000000000000000e+02,-8.597533192110233813e-01,0.000000000000000000e+00
6.290000000000000000e+02,-1.153714596233611944e+00,0.000000000000000000e+00
6.300000000000000000e+02,-7.587901584860048398e-01,0.000000000000000000e+00
6.310000000000000000e+02,-7.811141239116918822e-01,0.000000000000000000e+00
6.320000000000000000e+02,-6.283485936175963182e-01,0.000000000000000000e+00
6.330000000000000000e+02,-4.988472014180563852e-01,0.000000000000000000e+00
6.340000000000000000e+02,-4.259899644045964107e-01,0.000000000000000000e+00
6.350000000000000000e+02,-3.343337479967831705e-01,0.000000000000000000e+00
6.360000000000000000e+02,-4.040580771818098049e-01,0.000000000000000000e+00
6.370000000000000000e+02,-2.871798180624786090e-01,0.000000000000000000e+00
6.380000000000000000e+02,-1.908236055971870848e-01,0.000000000000000000e+00
6.390000000000000000e+02,-3.024867008759499765e-01,0.000000000000000000e+00
6.400000000000000000e+02,-2.086338709373905531e-01,0.000000000000000000e+00
6.410000000000000000e+02,-3.169182067053062379e-01,0.000000000000000000e+00
6.420000000000000000e+02,-1.384390770694450545e-02,0.000000000000000000e+00
6.430000000000000000e+02,-7.660698579321545236e-03,0.000000000000000000e+00
6.440000000000000000e+02,-1.252827972971641002e-01,0.000000000000000000e+00
6.450000000000000000e+02,-1.510309528768388199e-01,0.000000000000000000e+00
6.460000000000000000e+02,1.346910158567894977e-01,0.000000000000000000e+00
6.470000000000000000e+02,-7.657513810485636063e-02,0.000000000000000000e+00
6.480000000000000000e+02,9.154141523625616839e-02,0.000000000000000000e+00
6.490000000000000000e+02,9.696021995876234756e-02,0.000000000000000000e+00
6.500000000000000000e+02,1.568521678044295375e-01,0.000000000000000000e+00
6.510000000000000000e+02,1.169900938143293712e-01,0.000000000000000000e+00
6.520000000000000000e+02,1.328389976782817783e-01,0.000000000000000000e+00
6.530000000000000000e+02,4.045498719594899928e-01,0.000000000000000000e+00
6.540000000000000000e+02,5.894613462556809180e-01,0.000000000000000000e+00
6.550000000000000000e+02,4.509580270563251503e-01,0.000000000000000000e+00
6.560000000000000000e+02,5.325659973950364057e-01,0.000000000000000000e+00
6.570000000000000000e+02,1.428009910367326885e-02,0.000000000000000000e+00
6.580000000000000000e+02,2.686411913444016197e-01,0.000000000000000000e+00
6.590000000000000000e+02,1.924955390540994751e-02,0.000000000000000000e+00
6.600000000000000000e+02,1.690040045491601195e-01,0.000000000000000000e+00
6.610000000000000000e+02,4.102129874953013185e-03,0.000000000000000000e+00
6.620000000000000000e+02,-6.456097680356692736e-02,0.000000000000000000e+00
6.630000000000000000e+02,2.058402822436692592e+00,0.000000000000000000e+00
6.640000000000000000e+02,4.867498161546701674e+00,0.000000000000000000e+00
6.650000000000000000e+02,-1.800358505766367134e+00,1.000000000000000000e+00
6.660000000000000000e+02,-2.233615548223537139e+00,0.000000000000000000e+00
6.670000000000000000e+02,-7.788960977289500764e-01,0.000000000000000000e+00
6.680000000000000000e+02,-1.287239270045981709e-01,0.000000000000000000e+00
6.690000000000000000e+02,7.888998019044028698e-02,0.000000000000000000e+00
6.700000000000000000e+02,1.892629214444752073e-01,0.000000000000000000e+00
6.710000000000000000e+02,1.413121035429619476e-01,0.000000000000000000e+00
6.720000000000000000e+02,2.228724624954452893e-01,0.000000000000000000e+00
6.730000000000000000e+02,3.083207904401850663e-01,0.000000000000000000e+00
6.740000000000000000e+02,5.533168365469225414e-01,0.000000000000000000e+00
6.750000000000000000e+02,5.191371730219251912e-01,0.000000000000000000e+00
6.760000000000000000e+02,8.249584997488282889e-01,0.000000000000000000e+00
6.770000000000000000e+02,8.681028361221367895e-01,0.000000000000000000e+00
6.780000000000000000e+02,1.060019194397567421e+00,0.000000000000000000e+00
6.790000000000000000e+02,9.839946433184019181e-01,0.000000000000000000e+00
6.800000000000000000e+02,7.073433359785517016e-01,0.000000000000000000e+00
6.810000000000000000e+02,7.990103756696115278e-02,0.000000000000000000e+00
6.820000000000000000e+02,-6.718694657954812355e-01,0.000000000000000000e+00
6.830000000000000000e+02,-8.262112217186253771e-01,0.000000000000000000e+00
6.840000000000000000e+02,-1.094375946011506118e+00,0.000000000000000000e+00
6.850000000000000000e+02,-9.717889215606881903e-01,0.000000000000000000e+00
6.860000000000000000e+02,-9.918848733757200664e-01,0.000000000000000000e+00
6.870000000000000000e+02,-9.912752739936544488e-01,0.000000000000000000e+00
6.880000000000000000e+02,-8.170777489490261836e-01,0.000000000000000000e+00
6.890000000000000000e+02,-6.781487963650996154e-01,0.000000000000000000e+00
6.900000000000000000e+02,-5.926649389667870693e-01,0.000000000000000000e+00
6.910000000000000000e+02,-4.856410975025136079e-01,0.000000000000000000e+00
6.920000000000000000e+02,-4.976933209336938391e-01,0.000000000000000000e+00
6.930000000000000000e+02,-2.946508563495076616e-01,0.000000000000000000e+00
6.940000000000000000e+02,-2.911207538853442522e-01,0.000000000000000000e+00
6.950000000000000000e+02,-1.064194753256874765e-01,0.000000000000000000e+00
6.960000000000000000e+02,-4.094097688079629815e-01,0.000000000000000000e+00
6.970000000000000000e+02,-2.845141871724616855e-01,0.000000000000000000e+00
6.980000000000000000e+02,-2.063694798716453893e-01,0.000000000000000000e+00
6.990000000000000000e+02,-1.015584267839162724e-01,0.000000000000000000e+00
7.000000000000000000e+02,-2.537286779478355458e-01,0.000000000000000000e+00
7.010000000000000000e+02,-3.849399842216054586e-03,0.000000000000000000e+00
7.020000000000000000e+02,-1.845584556340707991e-02,0.000000000000000000e+00
7.030000000000000000e+02,-2.135281487895462210e-02,0.000000000000000000e+00
7.040000000000000000e+02,1.960456869634876753e-01,0.000000000000000000e+00
7.050000000000000000e+02,1.122785561424917006e-01,0.000000000000000000e+00
7.060000000000000000e+02,1.743005844611420982e-02,0.000000000000000000e+00
7.070000000000000000e+02,2.316998044593493108e-02,0.000000000000000000e+00
7.080000000000000000e+02,2.068776675262544995e-01,0.000000000000000000e+00
7.090000000000000000e+02,2.194948153811348557e-01,0.000000000000000000e+00
7.100000000000000000e+02,2.663537309930661956e-01,0.000000000000000000e+00
7.110000000000000000e+02,2.171669715761718189e-01,0.000000000000000000e+00
7.120000000000000000e+02,4.814620966069810826e-01,0.000000000000000000e+00
7.130000000000000000e+02,3.157034728495816678e-01,0.000000000000000000e+00
7.140000000000000000e+02,5.263383840491832055e-01,0.000000000000000000e+00
7.150000000000000000e+02,6.314515439968502175e-01,0.000000000000000000e+00
7.160000000000000000e+02,2.204290892838820515e-01,0.000000000000000000e+00
7.170000000000000000e+02,7.641194615078308883e-02,0.000000000000000000e+00
7.180000000000000000e+02,-2.325212944039329460e-02,0.000000000000000000e+00
7.190000000000000000e+02,6.973606388959894924e-03,0.000000000000000000e+00
7.200000000000000000e+02,2.233904223854466797e-01,0.000000000000000000e+00
7.210000000000000000e+02,-8.519375915783679309e-02,0.000000000000000000e+00
7.220000000000000000e+02,1.156032872799613642e+00,0.000000000000000000e+00
7.230000000000000000e+02,5.465064944699782323e+00,0.000000000000000000e+00
7.240000000000000000e+02,-1.008184000240625267e+00,1.000000000000000000e+00
7.250000000000000000e+02,-2.598778967291157649e+00,0.000000000000000000e+00
7.260000000000000000e+02,-9.840996674295378055e-01,0.000000000000000000e+00
7.270000000000000000e+02,-2.445751198632633572e-01,0.000000000000000000e+00
7.280000000000000000e+02,-3.998898095438653821e-01,0.000000000000000000e+00
7.290000000000000000e+02,1.036274883218650800e-01,0.000000000000000000e+00
7.300000000000000000e+02,1.914483236227132179e-01,0.000000000000000000e+00
7.310000000000000000e+02,1.809621472435189171e-01,0.000000000000000000e+00
7.320000000000000000e+02,1.759050070547572842e-01,0.000000000000000000e+00
7.330000000000000000e+02,1.693723254151617841e-01,0.000000000000000000e+00
7.340000000000000000e+02,5.779150936886646717e-01,0.000000000000000000e+00
7.350000000000000000e+02,5.654490429673512120e-01,0.000000000000000000e+00
7.360000000000000000e+02,7.783464427301624022e-01,0.000000000000000000e+00
7.370000000000000000e+02,8.980306745857467021e-01,0.000000000000000000e+00
7.380000000000000000e+02,9.765774983902973938e-01,0.000000000000000000e+00
7.390000000000000000e+02,6.152957952060391644e-01,0.000000000000000000e+00
7.400000000000000000e+02,2.427350980183569373e-01,0.000000000000000000e+00
7.410000000000000000e+02,-4.483133970017049164e-01,0.000000000000000000e+00
7.420000000000000000e+02,-1.042017627899569643e+00,0.000000000000000000e+00
7.430000000000000000e+02,-1.208025323253740568e+00,0.000000000000000000e+00
7.440000000000000000e+02,-1.119200489340427929e+00,0.000000000000000000e+00
7.450000000000000000e+02,-1.141871846487427122e+00,0.000000000000000000e+00
7.460000000000000000e+02,-9.542799417532819017e-01,0.000000000000000000e+00
7.470000000000000000e+02,-1.270526957912030630e+00,0.000000000000000000e+00
7.480000000000000000e+02,-5.861054919911676819e-01,0.000000000000000000e+00
7.490000000000000000e+02,-6.097711957455695941e-01,0.000000000000000000e+00
7.500000000000000000e+02,-6.686449511891104924e-01,0.000000000000000000e+00
7.510000000000000000e+02,-4.339080140476794800e-01,0.000000000000000000e+00
7.520000000000000000e+02,-3.757112594785552151e-01,0.000000000000000000e+00
7.530000000000000000e+02,-3.129154609773741602e-01,0.000000000000000000e+00
7.540000000000000000e+02,-2.743443643576709556e-01,0.000000000000000000e+00
7.550000000000000000e+02,-5.120675312670013302e-01,0.000000000000000000e+00
7.560000000000000000e+02,-1.402037820756130981e-01,0.000000000000000000e+00
7.570000000000000000e+02,-1.666836480239998475e-01,0.000000000000000000e+00
7.580000000000000000e+02,-2.155265823225283039e-01,0.000000000000000000e+00
7.590000000000000000e+02,-1.708459456388275455e-01,0.000000000000000000e+00
7.600000000000000000e+02,-1.624367214971951801e-01,0.000000000000000000e+00
7.610000000000000000e+02,-4.115926778197365743e-01,0.000000000000000000e+00
7.620000000000000000e+02,3.380017177228517022e-01,0.000000000000000000e+00
7.630000000000000000e+02,-1.711548104733933984e-01,0.000000000000000000e+00
7.640000000000000000e+02,-1.281242668153567965e-01,0.000000000000000000e+00
7.650000000000000000e+02,2.583570898482697234e-02,0.000000000000000000e+00
7.660000000000000000e+02,2.942745715220962954e-01,0.000000000000000000e+00
7.670000000000000000e+02,-2.033951472708246666e-01,0.000000000000000000e+00
7.680000000000000000e+02,3.055834151692058409e-01,0.000000000000000000e+00
7.690000000000000000e+02,-4.039519613730507483e-03,0.000000000000000000e+00
7.700000000000000000e+02,2.317072463787513970e-01,0.000000000000000000e+00
7.710000000000000000e+02,2.747713000488384294e-01,0.000000000000000000e+00
7.720000000000000000e+02,4.279203939572511217e-01,0.000000000000000000e+00
7.730000000000000000e+02,4.949117595072670128e-01,0.000000000000000000e+00
7.740000000000000000e+02,8.037985409688025440e-01,0.000000000000000000e+00
7.750000000000000000e+02,3.493903383834244813e-01,0.000000000000000000e+00
7.760000000000000000e+02,2.324319926166303341e-01,0.000000000000000000e+00
7.770000000000000000e+02,1.483053164098190740e-02,0.000000000000000000e+00
7.780000000000000000e+02,2.734115331332438448e-01,0.000000000000000000e+00
7.790000000000000000e+02,-1.298130413178170406e-01,0.000000000000000000e+00
7.800000000000000000e+02,3.288170071375087211e-01,0.000000000000000000e+00
7.810000000000000000e+02,1.868423986942173987e-01,0.000000000000000000e+00
7.820000000000000000e+02,5.678482717957254344e+00,0.000000000000000000e+00
7.830000000000000000e+02,9.149940770153306424e-01,1.000000000000000000e+00
7.840000000000000000e+02,-3.068723859737644499e+00,0.000000000000000000e+00
7.850000000000000000e+02,-1.004119636245869085e+00,0.000000000000000000e+00
7.860000000000000000e+02,-5.040173326916347341e-01,0.000000000000000000e+00
7.870000000000000000e+02,-7.475980141051986189e-03,0.000000000000000000e+00
7.880000000000000000e+02,-1.910985734462530838e-02,0.000000000000000000e+00
7.890000000000000000e+02,1.571469410677662770e-01,0.000000000000000000e+00
7.900000000000000000e+02,2.478033914475107624e-01,0.000000000000000000e+00
7.910000000000000000e+02,2.862105985037383116e-01,0.000000000000000000e+00
7.920000000000000000e+02,2.316781608936971382e-01,0.000000000000000000e+00
7.930000000000000000e+02,6.944920344116284339e-01,0.000000000000000000e+00
7.940000000000000000e+02,6.139320552929348196e-01,0.000000000000000000e+00
7.950000000000000000e+02,8.571818668865961444e-01,0.000000000000000000e+00
7.960000000000000000e+02,1.073822200889226419e+00,0.000000000000000000e+00
7.970000000000000000e+02,1.070958362049855728e+00,0.000000000000000000e+00
7.980000000000000000e+02,8.016744642648113706e-01,0.000000000000000000e+00
7.990000000000000000e+02,6.004189893151653523e-01,0.000000000000000000e+00
8.000000000000000000e+02,-1.560792193053636701e-01,0.000000000000000000e+00
8.010000000000000000e+02,-1.025259881664168926e+00,0.000000000000000000e+00
8.020000000000000000e+02,-1.187923986194771020e+00,0.000000000000000000e+00
8.030000000000000000e+02,-1.104591123508965600e+00,0.000000000000000000e+00
8.040000000000000000e+02,-1.116819568426343556e+00,0.000000000000000000e+00
8.050000000000000000e+02,-1.048830322579489494e+00,0.000000000000000000e+00
8.060000000000000000e+02,-9.908276423149803280e-01,0.000000000000000000e+00
8.070000000000000000e+02,-8.602098470065978608e-01,0.000000000000000000e+00
8.080000000000000000e+02,-6.598573107254003256e-01,0.000000000000000000e+00
8.090000000000000000e+02,-4.855339417420357351e-01,0.000000000000000000e+00
8.100000000000000000e+02,-5.995679032441638689e-01,0.000000000000000000e+00
8.110000000000000000e+02,-2.861671531744525154e-01,0.000000000000000000e+00
8.120000000000000000e+02,-4.492928392189624032e-01,0.000000000000000000e+00
8.130000000000000000e+02,-1.447219859164825817e-01,0.000000000000000000e+00
8.140000000000000000e+02,-4.397126767665757163e-01,0.000000000000000000e+00
8.150000000000000000e+02,-1.440419458145809628e-01,0.000000000000000000e+00
8.160000000000000000e+02,-2.140426395368617285e-01,0.000000000000000000e+00
8.170000000000000000e+02,-1.813074539983112743e-01,0.000000000000000000e+00
8.180000000000000000e+02,-1.780590840302518352e-01,0.000000000000000000e+00
8.190000000000000000e+02,2.211479373422344658e-02,0.000000000000000000e+00
8.200000000000000000e+02,3.526055500502316836e-02,0.000000000000000000e+00
8.210000000000000000e+02,-1.162296796235479796e-01,0.000000000000000000e+00
8.220000000000000000e+02,-7.151606854592887363e-02,0.000000000000000000e+00
8.230000000000000000e+02,3.400531829403934114e-02,0.000000000000000000e+00
8.240000000000000000e+02,2.791391372056776787e-01,0.000000000000000000e+00
8.250000000000000000e+02,5.414430799729542249e-02,0.000000000000000000e+00
8.260000000000000000e+02,1.750190579401807167e-01,0.000000000000000000e+00
8.270000000000000000e+02,3.049874488150189009e-02,0.000000000000000000e+00
8.280000000000000000e+02,1.332730825861725421e-01,0.000000000000000000e+00
8.290000000000000000e+02,4.959074506219627865e-01,0.000000000000000000e+00
8.300000000000000000e+02,1.644165086968982226e-01,0.000000000000000000e+00
8.310000000000000000e+02,4.921618287549349713e-01,0.000000000000000000e+00
8.320000000000000000e+02,4.316358245044456532e-01,0.000000000000000000e+00
8.330000000000000000e+02,7.470725807509639438e-01,0.000000000000000000e+00
8.340000000000000000e+02,2.202137918517447224e-01,0.000000000000000000e+00
8.350000000000000000e+02,2.958693489572054025e-01,0.000000000000000000e+00
8.360000000000000000e+02,1.450782547526293653e-01,0.000000000000000000e+00
8.370000000000000000e+02,1.322984583725442809e-01,0.000000000000000000e+00
8.380000000000000000e+02,-1.519249079315630191e-01,0.000000000000000000e+00
8.390000000000000000e+02,3.146159223328349741e-01,0.000000000000000000e+00
8.400000000000000000e+02,3.141036713874673092e-01,0.000000000000000000e+00
8.410000000000000000e+02,5.746722926093492667e+00,0.000000000000000000e+00
8.420000000000000000e+02,1.102966354283136718e+00,1.000000000000000000e+00
8.430000000000000000e+02,-3.165360274515351069e+00,0.000000000000000000e+00
8.440000000000000000e+02,-1.224920448742159662e+00,0.000000000000000000e+00
8.450000000000000000e+02,-5.976690937733398767e-01,0.000000000000000000e+00
8.460000000000000000e+02,2.929747219710519546e-01,0.000000000000000000e+00
8.470000000000000000e+02,-2.548416274754131128e-01,0.000000000000000000e+00
8.480000000000000000e+02,4.727988187955329408e-02,0.000000000000000000e+00
8.490000000000000000e+02,1.088646796268264438e-01,0.000000000000000000e+00
8.500000000000000000e+02,2.805485580356171238e-01,0.000000000000000000e+00
8.510000000000000000e+02,4.889372582045418136e-01,0.000000000000000000e+00
8.520000000000000000e+02,3.635679480470224156e-01,0.000000000000000000e+00
8.530000000000000000e+02,5.865547896942223671e-01,0.000000000000000000e+00
8.540000000000000000e+02,1.113572393291904827e+00,0.000000000000000000e+00
8.550000000000000000e+02,9.131108808899409679e-01,0.000000000000000000e+00
8.560000000000000000e+02,9.631526549426270289e-01,0.000000000000000000e+00
8.570000000000000000e+02,8.404918621013586222e-01,0.000000000000000000e+00
8.580000000000000000e+02,4.078581822943798674e-01,0.000000000000000000e+00
8.590000000000000000e+02,-4.613205753615153837e-01,0.000000000000000000e+00
8.600000000000000000e+02,-7.034722724003316108e-01,0.000000000000000000e+00
8.610000000000000000e+02,-1.374343441002139343e+00,0.000000000000000000e+00
8.620000000000000000e+02,-9.971991348317077453e-01,0.000000000000000000e+00
8.630000000000000000e+02,-1.351793694190860595e+00,0.000000000000000000e+00
8.640000000000000000e+02,-9.274651794973809427e-01,0.000000000000000000e+00
8.650000000000000000e+02,-1.142415760314259510e+00,0.000000000000000000e+00
8.660000000000000000e+02,-8.331288800595291200e-01,0.000000000000000000e+00
8.670000000000000000e+02,-8.262668337259913010e-01,0.000000000000000000e+00
8.680000000000000000e+02,-4.900194305486353374e-01,0.000000000000000000e+00
8.690000000000000000e+02,-6.844522235154079093e-01,0.000000000000000000e+00
8.700000000000000000e+02,-5.406687712701571114e-01,0.000000000000000000e+00
8.710000000000000000e+02,-1.888738562159738843e-01,0.000000000000000000e+00
8.720000000000000000e+02,-4.031239907203036377e-01,0.000000000000000000e+00
8.730000000000000000e+02,-3.988196609709323548e-01,0.000000000000000000e+00
8.740000000000000000e+02,-2.605481234505442889e-01,0.000000000000000000e+00
8.750000000000000000e+02,-3.599969731307091636e-01,0.000000000000000000e+00
8.760000000000000000e+02,-5.585825978688517546e-02,0.000000000000000000e+00
8.770000000000000000e+02,-3.328762928963502343e-01,0.000000000000000000e+00
8.780000000000000000e+02,1.050089976089614713e-01,0.000000000000000000e+00
8.790000000000000000e+02,-1.941189220967081963e-01,0.000000000000000000e+00
8.800000000000000000e+02,3.628218612850575564e-02,0.000000000000000000e+00
8.810000000000000000e+02,-1.442183311540148616e-01,0.000000000000000000e+00
8.820000000000000000e+02,-3.533929053302778400e-02,0.000000000000000000e+00
8.830000000000000000e+02,2.300862584100035746e-01,0.000000000000000000e+00
8.840000000000000000e+02,3.002777273341785888e-02,0.000000000000000000e+00
8.850000000000000000e+02,6.638378184612049593e-02,0.000000000000000000e+00
8.860000000000000000e+02,2.054035887224184564e-01,0.000000000000000000e+00
8.870000000000000000e+02,-9.289084150983741017e-02,0.000000000000000000e+00
8.880000000000000000e+02,5.914009745521067174e-01,0.000000000000000000e+00
8.890000000000000000e+02,1.165217342723206956e-01,0.000000000000000000e+00
8.900000000000000000e+02,5.091737143239987162e-01,0.000000000000000000e+00
8.910000000000000000e+02,3.793287689142163521e-01,0.000000000000000000e+00
8.920000000000000000e+02,9.527080472769932085e-01,0.000000000000000000e+00
8.930000000000000000e+02,2.558430184744420188e-01,0.000000000000000000e+00
8.940000000000000000e+02,2.647110374277543698e-01,0.000000000000000000e+00
8.950000000000000000e+02,-1.181442536768727569e-01,0.000000000000000000e+00
8.960000000000000000e+02,9.497124762195015280e-02,0.000000000000000000e+00
8.970000000000000000e+02,-1.468328425729101272e-01,0.000000000000000000e+00
8.980000000000000000e+02,4.826286547314481146e-01,0.000000000000000000e+00
8.990000000000000000e+02,-1.725562674339656821e-01,0.000000000000000000e+00
9.000000000000000000e+02,5.876316210251175676e+00,0.000000000000000000e+00
9.010000000000000000e+02,1.596218591676352938e+00,1.000000000000000000e+00
9.020000000000000000e+02,-3.370202179637881823e+00,0.000000000000000000e+00
9.030000000000000000e+02,-1.463260456042328128e+00,0.000000000000000000e+00
9.040000000000000000e+02,-4.393642733615847895e-01,0.000000000000000000e+00
9.050000000000000000e+02,-5.522782351672830825e-02,0.000000000000000000e+00
9.060000000000000000e+02,-3.659332134332762276e-01,0.000000000000000000e+00
9.070000000000000000e+02,2.112991847682625102e-01,0.000000000000000000e+00
9.080000000000000000e+02,6.807823710856761301e-02,0.000000000000000000e+00
9.090000000000000000e+02,4.083695207533630245e-01,0.000000000000000000e+00
9.100000000000000000e+02,9.938172635723079018e-02,0.000000000000000000e+00
9.110000000000000000e+02,4.891113478406658444e-01,0.000000000000000000e+00
9.120000000000000000e+02,7.759761517473592329e-01,0.000000000000000000e+00
9.130000000000000000e+02,8.859724463294149643e-01,0.000000000000000000e+00
9.140000000000000000e+02,1.098333259753094149e+00,0.000000000000000000e+00
9.150000000000000000e+02,1.058666362484182777e+00,0.000000000000000000e+00
9.160000000000000000e+02,7.375712273161616483e-01,0.000000000000000000e+00
9.170000000000000000e+02,4.815263535248565652e-01,0.000000000000000000e+00
9.180000000000000000e+02,-2.785948692582366215e-01,0.000000000000000000e+00
9.190000000000000000e+02,-7.866571147121195207e-01,0.000000000000000000e+00
9.200000000000000000e+02,-1.238760809885857572e+00,0.000000000000000000e+00
9.210000000000000000e+02,-1.231571749440697472e+00,0.000000000000000000e+00
9.220000000000000000e+02,-1.229351716111787507e+00,0.000000000000000000e+00
9.230000000000000000e+02,-1.118275352561656444e+00,0.000000000000000000e+00
9.240000000000000000e+02,-9.657418026733318728e-01,0.000000000000000000e+00
9.250000000000000000e+02,-8.894275326799158110e-01,0.000000000000000000e+00
9.260000000000000000e+02,-6.951290607084120721e-01,0.000000000000000000e+00
9.270000000000000000e+02,-7.080446264791486755e-01,0.000000000000000000e+00
9.280000000000000000e+02,-5.881601012183574895e-01,0.000000000000000000e+00
9.290000000000000000e+02,-4.806765077067768899e-01,0.000000000000000000e+00
9.300000000000000000e+02,-5.029026588815838084e-01,0.000000000000000000e+00
9.310000000000000000e+02,-4.458347908718565678e-01,0.000000000000000000e+00
9.320000000000000000e+02,-1.611166869869660179e-01,0.000000000000000000e+00
9.330000000000000000e+02,-3.424811491322288237e-01,0.000000000000000000e+00
9.340000000000000000e+02,-2.028037641124562640e-01,0.000000000000000000e+00
9.350000000000000000e+02,-3.867893256064439123e-01,0.000000000000000000e+00
9.360000000000000000e+02,-9.377276056272276783e-02,0.000000000000000000e+00
9.370000000000000000e+02,-2.518186617463636368e-01,0.000000000000000000e+00
9.380000000000000000e+02,-7.315086153863009297e-03,0.000000000000000000e+00
9.390000000000000000e+02,-4.647938165585015907e-02,0.000000000000000000e+00
9.400000000000000000e+02,9.352562883187488796e-02,0.000000000000000000e+00
9.410000000000000000e+02,2.215584103431869276e-02,0.000000000000000000e+00
9.420000000000000000e+02,2.628609556754766263e-01,0.000000000000000000e+00
9.430000000000000000e+02,-9.986681475390674079e-02,0.000000000000000000e+00
9.440000000000000000e+02,2.613711494727777307e-01,0.000000000000000000e+00
9.450000000000000000e+02,1.275064891375481124e-02,0.000000000000000000e+00
9.460000000000000000e+02,3.481146059454144903e-01,0.000000000000000000e+00
9.470000000000000000e+02,9.920539149436075066e-02,0.000000000000000000e+00
9.480000000000000000e+02,5.766158254034615682e-01,0.000000000000000000e+00
9.490000000000000000e+02,5.577434176608787597e-01,0.000000000000000000e+00
9.500000000000000000e+02,7.882702573989500694e-01,0.000000000000000000e+00
9.510000000000000000e+02,5.372516371028567272e-01,0.000000000000000000e+00
9.520000000000000000e+02,6.336744422477696981e-02,0.000000000000000000e+00
9.530000000000000000e+02,9.607366048681381665e-02,0.000000000000000000e+00
9.540000000000000000e+02,4.232202424188644119e-01,0.000000000000000000e+00
9.550000000000000000e+02,-2.087460256279158599e-01,0.000000000000000000e+00
9.560000000000000000e+02,3.504792345478642268e-01,0.000000000000000000e+00
9.570000000000000000e+02,-5.333482891560621386e-01,0.000000000000000000e+00
9.580000000000000000e+02,3.339638849709417379e+00,0.000000000000000000e+00
9.590000000000000000e+02,5.758120064157782991e+00,0.000000000000000000e+00
9.600000000000000000e+02,-2.768510415006245839e+00,1.000000000000000000e+00
9.610000000000000000e+02,-2.450487499735777064e+00,0.000000000000000000e+00
9.620000000000000000e+02,-1.023820035069164858e+00,0.000000000000000000e+00
9.630000000000000000e+02,-3.367308782055786209e-02,0.000000000000000000e+00
9.640000000000000000e+02,-3.087107209994621737e-01,0.000000000000000000e+00
9.650000000000000000e+02,2.329072490183802802e-01,0.000000000000000000e+00
9.660000000000000000e+02,1.404782783800404278e-01,0.000000000000000000e+00
9.670000000000000000e+02,3.395010575811933662e-01,0.000000000000000000e+00
9.680000000000000000e+02,9.568320449637410241e-02,0.000000000000000000e+00
9.690000000000000000e+02,6.428795996053696671e-01,0.000000000000000000e+00
9.700000000000000000e+02,5.364971823846842458e-01,0.000000000000000000e+00
9.710000000000000000e+02,1.013046466738214191e+00,0.000000000000000000e+00
9.720000000000000000e+02,8.735253856876867840e-01,0.000000000000000000e+00
9.730000000000000000e+02,1.217258850160801709e+00,0.000000000000000000e+00
9.740000000000000000e+02,1.007666789639153127e+00,0.000000000000000000e+00
9.750000000000000000e+02,7.239416720695197593e-01,0.000000000000000000e+00
9.760000000000000000e+02,1.076338028396919277e-01,0.000000000000000000e+00
9.770000000000000000e+02,-6.706079575598743459e-01,0.000000000000000000e+00
9.780000000000000000e+02,-1.037934577954200188e+00,0.000000000000000000e+00
9.790000000000000000e+02,-1.198597030750515380e+00,0.000000000000000000e+00
9.800000000000000000e+02,-1.293737247300988713e+00,0.000000000000000000e+00
9.810000000000000000e+02,-9.938805043142867612e-01,0.000000000000000000e+00
9.820000000000000000e+02,-1.049962872912763912e+00,0.000000000000000000e+00
9.830000000000000000e+02,-8.603072529649513633e-01,0.000000000000000000e+00
9.840000000000000000e+02,-9.533788307762944836e-01,0.000000000000000000e+00
9.850000000000000000e+02,-6.580507908429737984e-01,0.000000000000000000e+00
9.860000000000000000e+02,-4.186787697762613392e-01,0.000000000000000000e+00
9.870000000000000000e+02,-5.773226888179836536e-01,0.000000000000000000e+00
9.880000000000000000e+02,-4.175851271034472512e-01,0.000000000000000000e+00
9.890000000000000000e+02,-2.180152361721813259e-01,0.000000000000000000e+00
9.900000000000000000e+02,-5.167971555012003115e-01,0.000000000000000000e+00
9.910000000000000000e+02,-1.641165137014730935e-01,0.000000000000000000e+00
9.920000000000000000e+02,-1.769466841866128293e-01,0.000000000000000000e+00
9.930000000000000000e+02,-6.827441370660393416e-02,0.000000000000000000e+00
9.940000000000000000e+02,-2.834332019138550152e-01,0.000000000000000000e+00
9.950000000000000000e+02,-8.424490594788518194e-02,0.000000000000000000e+00
9.960000000000000000e+02,-2.801291662283468820e-01,0.000000000000000000e+00
9.970000000000000000e+02,1.724430655584815175e-01,0.000000000000000000e+00
9.980000000000000000e+02,-1.539098515384981491e-01,0.000000000000000000e+00
9.990000000000000000e+02,1.946942184719728797e-01,0.000000000000000000e+00
1.000000000000000000e+03,-1.122418279040245243e-01,0.000000000000000000e+00
1.001000000000000000e+03,2.087967659715850022e-01,0.000000000000000000e+00
1.002000000000000000e+03,2.052432258387050790e-01,0.000000000000000000e+00
1.003000000000000000e+03,7.886805378246518339e-02,0.000000000000000000e+00
1.004000000000000000e+03,2.237536241966805173e-01,0.000000000000000000e+00
1.005000000000000000e+03,2.441099956809909544e-01,0.000000000000000000e+00
1.006000000000000000e+03,2.866903109416558681e-01,0.000000000000000000e+00
1.007000000000000000e+03,8.119547758098846213e-01,0.000000000000000000e+00
1.008000000000000000e+03,3.134276484801897245e-01,0.000000000000000000e+00
1.009000000000000000e+03,2.211706146531318418e-01,0.000000000000000000e+00
1.010000000000000000e+03,9.803911478587733208e-02,0.000000000000000000e+00
1.011000000000000000e+03,1.738234205533030485e-01,0.000000000000000000e+00
1.012000000000000000e+03,-1.361632035443626765e-01,0.000000000000000000e+00
1.013000000000000000e+03,1.385950034394584363e-01,0.000000000000000000e+00
1.014000000000000000e+03,-1.590268435104664202e-01,0.000000000000000000e+00
1.015000000000000000e+03,1.628069528836767033e+00,0.000000000000000000e+00
1.016000000000000000e+03,5.464856188762601263e+00,0.000000000000000000e+00
1.017000000000000000e+03,-1.211899205139522540e+00,1.000000000000000000e+00
1.018000000000000000e+03,-2.659561931459495376e+00,0.000000000000000000e+00
1.019000000000000000e+03,-1.351757330927414680e+00,0.000000000000000000e+00
1.020000000000000000e+03,2.093366400122350091e-01,0.000000000000000000e+00
1.021000000000000000e+03,-2.320280788104215619e-01,0.000000000000000000e+00
1.022000000000000000e+03,6.736395977987100214e-02,0.000000000000000000e+00
1.023000000000000000e+03,1.830597210085478377e-01,0.000000000000000000e+00
1.024000000000000000e+03,1.791962191706857332e-01,0.000000000000000000e+00
1.025000000000000000e+03,3.610152962904252805e-01,0.000000000000000000e+00
1.026000000000000000e+03,3.852315558384182270e-01,0.000000000000000000e+00
1.027000000000000000e+03,5.559097485425993357e-01,0.000000000000000000e+00
1.028000000000000000e+03,7.545219339915868462e-01,0.000000000000000000e+00
1.029000000000000000e+03,9.204361951920376761e-01,0.000000000000000000e+00
1.030000000000000000e+03,1.059249370853031724e+00,0.000000000000000000e+00
1.031000000000000000e+03,9.855489977693698833e-01,0.000000000000000000e+00
1.032000000000000000e+03,5.747047575537860276e-01,0.000000000000000000e+00
1.033000000000000000e+03,1.284824643113106624e-01,0.000000000000000000e+00
1.034000000000000000e+03,-3.707453749768427897e-01,0.000000000000000000e+00
1.035000000000000000e+03,-9.099835151818705947e-01,0.000000000000000000e+00
1.036000000000000000e+03,-1.071131606849128115e+00,0.000000000000000000e+00
1.037000000000000000e+03,-1.196201905865990289e+00,0.000000000000000000e+00
1.038000000000000000e+03,-1.206378051743358215e+00,0.000000000000000000e+00
1.039000000000000000e+03,-8.764552964247663835e-01,0.000000000000000000e+00
1.040000000000000000e+03,-8.434845481110282428e-01,0.000000000000000000e+00
1.041000000000000000e+03,-6.754410907720915791e-01,0.000000000000000000e+00
1.042000000000000000e+03,-7.435299274807135594e-01,0.000000000000000000e+00
1.043000000000000000e+03,-5.450393489111402534e-01,0.000000000000000000e+00
1.044000000000000000e+03,-4.605420939604455977e-01,0.000000000000000000e+00
1.045000000000000000e+03,-3.125007568671148150e-01,0.000000000000000000e+00
1.046000000000000000e+03,-2.698738285547041538e-01,0.000000000000000000e+00
1.047000000000000000e+03,-3.858890047161447900e-01,0.000000000000000000e+00
1.048000000000000000e+03,-3.308599942412558392e-01,0.000000000000000000e+00
1.049000000000000000e+03,-2.326196208871482707e-01,0.000000000000000000e+00
1.050000000000000000e+03,-1.873885327711128646e-01,0.000000000000000000e+00
1.051000000000000000e+03,-3.440566657584741561e-01,0.000000000000000000e+00
1.052000000000000000e+03,-8.197997678273247213e-02,0.000000000000000000e+00
1.053000000000000000e+03,-1.851789952703661035e-01,0.000000000000000000e+00
1.054000000000000000e+03,1.956029621940829077e-01,0.000000000000000000e+00
1.055000000000000000e+03,-2.004475684682091030e-01,0.000000000000000000e+00
1.056000000000000000e+03,1.562960902512132780e-02,0.000000000000000000e+00
1.057000000000000000e+03,4.689885968245051384e-02,0.000000000000000000e+00
1.058000000000000000e+03,1.817035796219032273e-01,0.000000000000000000e+00
1.059000000000000000e+03,-3.369074711477833967e-02,0.000000000000000000e+00
1.060000000000000000e+03,2.702852475196891313e-01,0.000000000000000000e+00
1.061000000000000000e+03,2.554332897954205706e-01,0.000000000000000000e+00
1.062000000000000000e+03,3.497539188229185081e-01,0.000000000000000000e+00
1.063000000000000000e+03,4.015021126501301940e-01,0.000000000000000000e+00
1.064000000000000000e+03,8.479392768904751021e-01,0.000000000000000000e+00
1.065000000000000000e+03,4.737280346763933503e-01,0.000000000000000000e+00
1.066000000000000000e+03,2.967842120922377647e-01,0.000000000000000000e+00
1.067000000000000000e+03,-1.317072988471960360e-01,0.000000000000000000e+00
1.068000000000000000e+03,3.538930656963920618e-01,0.000000000000000000e+00
1.069000000000000000e+03,-1.339156322127952048e-01,0.000000000000000000e+00
1.070000000000000000e+03,3.803323342334570256e-01,0.000000000000000000e+00
1.071000000000000000e+03,-2.967373531868533476e-01,0.000000000000000000e+00
1.072000000000000000e+03,4.919442197462303490e+00,0.000000000000000000e+00
1.073000000000000000e+03,2.871744368799900027e+00,1.000000000000000000e+00
1.074000000000000000e+03,-3.266812327103138625e+00,0.000000000000000000e+00
1.075000000000000000e+03,-1.547693028007541161e+00,0.000000000000000000e+00
1.076000000000000000e+03,-6.701430523021306707e-01,0.000000000000000000e+00
1.077000000000000000e+03,2.375206129309882785e-01,0.000000000000000000e+00
1.078000000000000000e+03,-8.118717475047464160e-02,0.000000000000000000e+00
1.079000000000000000e+03,2.261188238035807818e-01,0.000000000000000000e+00
1.080000000000000000e+03,2.777245492807859165e-02,0.000000000000000000e+00
1.081000000000000000e+03,3.553905020589899211e-01,0.000000000000000000e+00
1.082000000000000000e+03,3.112756041566321352e-01,0.000000000000000000e+00
1.083000000000000000e+03,5.916035724751170788e-01,0.000000000000000000e+00
1.084000000000000000e+03,7.050196159878969748e-01,0.000000000000000000e+00
1.085000000000000000e+03,1.014821490994861852e+00,0.000000000000000000e+00
1.086000000000000000e+03,8.672280503187054235e-01,0.000000000000000000e+00
1.087000000000000000e+03,1.176667995399115707e+00,0.000000000000000000e+00
1.088000000000000000e+03,6.715660646875216688e-01,0.000000000000000000e+00
1.089000000000000000e+03,6.747293689819660045e-01,0.000000000000000000e+00
1.090000000000000000e+03,-3.186579239316753021e-01,0.000000000000000000e+00
1.091000000000000000e+03,-7.769715159792934811e-01,0.000000000000000000e+00
1.092000000000000000e+03,-9.691193961382389421e-01,0.000000000000000000e+00
1.093000000000000000e+03,-1.035830925912458733e+00,0.000000000000000000e+00
1.094000000000000000e+03,-1.216421421768780986e+00,0.000000000000000000e+00
1.095000000000000000e+03,-1.023536328134222684e+00,0.000000000000000000e+00
1.096000000000000000e+03,-1.193774213818090013e+00,0.000000000000000000e+00
1.097000000000000000e+03,-6.645401134917833241e-01,0.000000000000000000e+00
1.098000000000000000e+03,-8.078942527827300824e-01,0.000000000000000000e+00
1.099000000000000000e+03,-4.588038471333824031e-01,0.000000000000000000e+00
1.100000000000000000e+03,-6.292452221519653222e-01,0.000000000000000000e+00
1.101000000000000000e+03,-3.998010464333293656e-01,0.000000000000000000e+00
1.102000000000000000e+03,-3.073944234633225747e-01,0.000000000000000000e+00
1.103000000000000000e+03,-3.849309772906807647e-01,0.000000000000000000e+00
1.104000000000000000e+03,-2.487741738424406601e-01,0.000000000000000000e+00
1.105000000000000000e+03,-2.539209292982956834e-01,0.000000000000000000e+00
1.106000000000000000e+03,-3.146748377665369856e-01,0.000000000000000000e+00
1.107000000000000000e+03,-1.870328504183955687e-01,0.000000000000000000e+00
1.108000000000000000e+03,-2.946159711878794107e-01,0.000000000000000000e+00
1.109000000000000000e+03,1.851030470244400053e-02,0.000000000000000000e+00
1.110000000000000000e+03,-5.830190874412662094e-02,0.000000000000000000e+00
1.111000000000000000e+03,4.482353571562127173e-03,0.000000000000000000e+00
1.112000000000000000e+03,-1.216592993209745788e-01,0.000000000000000000e+00
1.113000000000000000e+03,1.668843591609909527e-01,0.000000000000000000e+00
1.114000000000000000e+03,-6.391738841415091354e-02,0.000000000000000000e+00
1.115000000000000000e+03,1.391115672321479035e-01,0.000000000000000000e+00
1.116000000000000000e+03,-1.121603065984438652e-01,0.000000000000000000e+00
1.117000000000000000e+03,4.533340386465947724e-01,0.000000000000000000e+00
1.118000000000000000e+03,9.975250409600701362e-02,0.000000000000000000e+00
1.119000000000000000e+03,4.048632769890275762e-01,0.000000000000000000e+00
1.120000000000000000e+03,1.233061098816277956e-01,0.000000000000000000e+00
1.121000000000000000e+03,9.842698130811941004e-01,0.000000000000000000e+00
1.122000000000000000e+03,2.716386917283635238e-01,0.000000000000000000e+00
1.123000000000000000e+03,4.290448043980040760e-01,0.000000000000000000e+00
1.124000000000000000e+03,-1.196713812991990755e-01,0.000000000000000000e+00
1.125000000000000000e+03,1.428134122416122587e-01,0.000000000000000000e+00
1.126000000000000000e+03,-9.701264759897240686e-02,0.000000000000000000e+00
1.127000000000000000e+03,3.616577997152615742e-01,0.000000000000000000e+00
1.128000000000000000e+03,-4.619312413593423261e-01,0.000000000000000000e+00
1.129000000000000000e+03,3.960667260454676430e+00,0.000000000000000000e+00
1.130000000000000000e+03,4.413494237948900611e+00,0.000000000000000000e+00
1.131000000000000000e+03,-3.102774490506832183e+00,1.000000000000000000e+00
1.132000000000000000e+03,-1.967455039397048466e+00,0.000000000000000000e+00
1.133000000000000000e+03,-6.786022878315078888e-01,0.000000000000000000e+00
1.134000000000000000e+03,-8.830036095215697267e-02,0.000000000000000000e+00
1.135000000000000000e+03,-3.433055279735922061e-01,0.000000000000000000e+00
1.136000000000000000e+03,1.465427048446572011e-01,0.000000000000000000e+00
1.137000000000000000e+03,8.573911555775594329e-02,0.000000000000000000e+00
1.138000000000000000e+03,4.321665880743075228e-01,0.000000000000000000e+00
1.139000000000000000e+03,7.092252844667008838e-02,0.000000000000000000e+00
1.140000000000000000e+03,6.016808890191318593e-01,0.000000000000000000e+00
1.141000000000000000e+03,5.539280022062075259e-01,0.000000000000000000e+00
1.142000000000000000e+03,7.934106814428963927e-01,0.000000000000000000e+00
1.143000000000000000e+03,1.046182681232609157e+00,0.000000000000000000e+00
1.144000000000000000e+03,9.741118671989107414e-01,0.000000000000000000e+00
1.145000000000000000e+03,8.462620288822974013e-01,0.000000000000000000e+00
1.146000000000000000e+03,7.235033918817047605e-01,0.000000000000000000e+00
1.147000000000000000e+03,-3.940334773283343112e-02,0.000000000000000000e+00
1.148000000000000000e+03,-7.073360128094153820e-01,0.000000000000000000e+00
1.149000000000000000e+03,-1.174697815703851012e+00,0.000000000000000000e+00
1.150000000000000000e+03,-1.140034179276983917e+00,0.000000000000000000e+00
1.151000000000000000e+03,-1.140343475079839131e+00,0.000000000000000000e+00
1.152000000000000000e+03,-9.087229342019230716e-01,0.000000000000000000e+00
1.153000000000000000e+03,-1.080508092702763268e+00,0.000000000000000000e+00
1.154000000000000000e+03,-8.350261813114078224e-01,0.000000000000000000e+00
1.155000000000000000e+03,-8.108557175948885032e-01,0.000000000000000000e+00
1.156000000000000000e+03,-5.515803072143332653e-01,0.000000000000000000e+00
1.157000000000000000e+03,-5.474263384494708617e-01,0.000000000000000000e+00
1.158000000000000000e+03,-2.289190962613386893e-01,0.000000000000000000e+00
1.159000000000000000e+03,-5.193216584100729394e-01,0.000000000000000000e+00
1.160000000000000000e+03,-3.425096094990099926e-01,0.000000000000000000e+00
1.161000000000000000e+03,-3.244699862808579360e-01,0.000000000000000000e+00
1.162000000000000000e+03,-1.260732574146415375e-01,0.000000000000000000e+00
1.163000000000000000e+03,-1.862959497326100999e-01,0.000000000000000000e+00
1.164000000000000000e+03,-2.917465712182488180e-01,0.000000000000000000e+00
1.165000000000000000e+03,-1.912762438385882391e-01,0.000000000000000000e+00
1.166000000000000000e+03,-1.003221311231598661e-01,0.000000000000000000e+00
1.167000000000000000e+03,-4.637608910703940740e-03,0.000000000000000000e+00
1.168000000000000000e+03,-9.885342395055294121e-03,0.000000000000000000e+00
1.169000000000000000e+03,-1.613756477965611891e-01,0.000000000000000000e+00
1.170000000000000000e+03,6.816356350487542959e-02,0.000000000000000000e+00
1.171000000000000000e+03,-4.506096099354674200e-02,0.000000000000000000e+00
1.172000000000000000e+03,1.678815607830029810e-01,0.000000000000000000e+00
1.173000000000000000e+03,1.037075269988572274e-01,0.000000000000000000e+00
1.174000000000000000e+03,2.030462327053463856e-01,0.000000000000000000e+00
1.175000000000000000e+03,7.520348053451579584e-02,0.000000000000000000e+00
1.176000000000000000e+03,3.417126881672808980e-01,0.000000000000000000e+00
1.177000000000000000e+03,3.583128527677425512e-01,0.000000000000000000e+00
1.178000000000000000e+03,4.740192741355022110e-01,0.000000000000000000e+00
1.179000000000000000e+03,5.557490456005821367e-01,0.000000000000000000e+00
1.180000000000000000e+03,2.263446599982172625e-01,0.000000000000000000e+00
1.181000000000000000e+03,3.227349495107940114e-01,0.000000000000000000e+00
1.182000000000000000e+03,-1.354921267258403506e-01,0.000000000000000000e+00
1.183000000000000000e+03,2.119246442913665096e-01,0.000000000000000000e+00
1.184000000000000000e+03,-2.119758474347665234e-01,0.000000000000000000e+00
1.185000000000000000e+03,2.364008761166130901e-01,0.000000000000000000e+00
1.186000000000000000e+03,1.681761203781213521e-01,0.000000000000000000e+00
1.187000000000000000e+03,5.576355462071173719e+00,0.000000000000000000e+00
1.188000000000000000e+03,7.952785801801112164e-01,1.000000000000000000e+00
1.189000000000000000e+03,-3.163212605049286363e+00,0.000000000000000000e+00
1.190000000000000000e+03,-1.187796871515251151e+00,0.000000000000000000e+00
1.191000000000000000e+03,-7.571910772829230085e-01,0.000000000000000000e+00
1.192000000000000000e+03,3.580783208019180930e-01,0.000000000000000000e+00
1.193000000000000000e+03,-2.736751961932213373e-01,0.000000000000000000e+00
1.194000000000000000e+03,1.869376372734677383e-01,0.000000000000000000e+00
1.195000000000000000e+03,1.589946543618359909e-01,0.000000000000000000e+00
1.196000000000000000e+03,3.823476762816523378e-01,0.000000000000000000e+00
1.197000000000000000e+03,3.830365655054121521e-01,0.000000000000000000e+00
1.198000000000000000e+03,4.496036028455586697e-01,0.000000000000000000e+00
1.199000000000000000e+03,6.673476726388138935e-01,0.000000000000000000e+00
1.200000000000000000e+03,8.748133775214512742e-01,0.000000000000000000e+00
1.201000000000000000e+03,9.737636490724999039e-01,0.000000000000000000e+00
1.202000000000000000e+03,1.053522486220097365e+00,0.000000000000000000e+00
1.203000000000000000e+03,6.036593438629883623e-01,0.000000000000000000e+00
1.204000000000000000e+03,4.558276296746405776e-01,0.000000000000000000e+00
1.205000000000000000e+03,-3.838260419265092649e-01,0.000000000000000000e+00
1.206000000000000000e+03,-7.254952392328590793e-01,0.000000000000000000e+00
1.207000000000000000e+03,-1.284580082610462082e+00,0.000000000000000000e+00
1.208000000000000000e+03,-1.009598235077357575e+00,0.000000000000000000e+00
1.209000000000000000e+03,-1.090315063471644752e+00,0.000000000000000000e+00
1.210000000000000000e+03,-7.750155799897814335e-01,0.000000000000000000e+00
1.211000000000000000e+03,-9.639382265685889628e-01,0.000000000000000000e+00
1.212000000000000000e+03,-8.528263474067002692e-01,0.000000000000000000e+00
1.213000000000000000e+03,-6.425178526839682158e-01,0.000000000000000000e+00
1.214000000000000000e+03,-4.017785048476679166e-01,0.000000000000000000e+00
1.215000000000000000e+03,-5.559117915200179061e-01,0.000000000000000000e+00
1.216000000000000000e+03,-1.643770463747972477e-01,0.000000000000000000e+00
1.217000000000000000e+03,-4.242862767936914636e-01,0.000000000000000000e+00
1.218000000000000000e+03,-1.690970488389079984e-01,0.000000000000000000e+00
1.219000000000000000e+03,-1.329649593957862308e-01,0.000000000000000000e+00
1.220000000000000000e+03,-2.479542794782400028e-01,0.000000000000000000e+00
1.221000000000000000e+03,-3.320665810413214181e-01,0.000000000000000000e+00
1.222000000000000000e+03,-1.275772349455457921e-01,0.000000000000000000e+00
1.223000000000000000e+03,-1.444006482287535920e-01,0.000000000000000000e+00
1.224000000000000000e+03,1.131010582056462127e-01,0.000000000000000000e+00
1.225000000000000000e+03,-2.616804377171880192e-01,0.000000000000000000e+00
1.226000000000000000e+03,5.751151869471414491e-02,0.000000000000000000e+00
1.227000000000000000e+03,-1.588277078823966543e-02,0.000000000000000000e+00
1.228000000000000000e+03,1.397741028631858673e-01,0.000000000000000000e+00
1.229000000000000000e+03,6.183495397276869004e-02,0.000000000000000000e+00
1.230000000000000000e+03,2.173131317026229248e-01,0.000000000000000000e+00
1.231000000000000000e+03,-1.945120457027560701e-01,0.000000000000000000e+00
1.232000000000000000e+03,3.738725433317043878e-01,0.000000000000000000e+00
1.233000000000000000e+03,2.525528289579280217e-01,0.000000000000000000e+00
1.234000000000000000e+03,2.864090935123144166e-01,0.000000000000000000e+00
1.235000000000000000e+03,4.229742835599380468e-01,0.000000000000000000e+00
1.236000000000000000e+03,6.544090120470756888e-01,0.000000000000000000e+00
1.237000000000000000e+03,5.109585010202094546e-01,0.000000000000000000e+00
1.238000000000000000e+03,3.224000214906282968e-01,0.000000000000000000e+00
1.239000000000000000e+03,4.026086559158723044e-02,0.000000000000000000e+00
1.240000000000000000e+03,2.464709219637136739e-01,0.000000000000000000e+00
1.241000000000000000e+03,-2.812952959984881263e-01,0.000000000000000000e+00
1.242000000000000000e+03,4.841533722394890105e-01,0.000000000000000000e+00
1.243000000000000000e+03,-3.376173045608726331e-01,0.000000000000000000e+00
1.244000000000000000e+03,3.544493024280831683e+00,0.000000000000000000e+00
1.245000000000000000e+03,4.102334323200487631e+00,0.000000000000000000e+00
1.246000000000000000e+03,-2.980532717127321707e+00,1.000000000000000000e+00
1.247000000000000000e+03,-1.733601738086744337e+00,0.000000000000000000e+00
1.248000000000000000e+03,-7.053178843845412382e-01,0.000000000000000000e+00
1.249000000000000000e+03,-1.177467531786991362e-03,0.000000000000000000e+00
1.250000000000000000e+03,-2.019380560613529274e-01,0.000000000000000000e+00
1.251000000000000000e+03,1.554440334908246679e-01,0.000000000000000000e+00
1.252000000000000000e+03,8.738098810940062022e-02,0.000000000000000000e+00
1.253000000000000000e+03,3.770303368303736247e-01,0.000000000000000000e+00
1.254000000000000000e+03,3.152385340590295737e-01,0.000000000000000000e+00
1.255000000000000000e+03,4.915275939027747287e-01,0.000000000000000000e+00
1.256000000000000000e+03,6.345865230965362924e-01,0.000000000000000000e+00
1.257000000000000000e+03,8.069287690752582343e-01,0.000000000000000000e+00
1.258000000000000000e+03,1.016742009214776754e+00,0.000000000000000000e+00
1.259000000000000000e+03,1.045991931535943165e+00,0.000000000000000000e+00
1.260000000000000000e+03,8.647331873884418485e-01,0.000000000000000000e+00
1.261000000000000000e+03,5.533616853264512470e-01,0.000000000000000000e+00
1.262000000000000000e+03,-1.350125856372635380e-01,0.000000000000000000e+00
1.263000000000000000e+03,-7.063839563820066836e-01,0.000000000000000000e+00
1.264000000000000000e+03,-1.141750271630914249e+00,0.000000000000000000e+00
1.265000000000000000e+03,-9.274937445391588930e-01,0.000000000000000000e+00
1.266000000000000000e+03,-1.200342012769715083e+00,0.000000000000000000e+00
1.267000000000000000e+03,-1.050230373935915118e+00,0.000000000000000000e+00
1.268000000000000000e+03,-9.958932609980354345e-01,0.000000000000000000e+00
1.269000000000000000e+03,-8.480265910702434740e-01,0.000000000000000000e+00
1.270000000000000000e+03,-6.772196471038698373e-01,0.000000000000000000e+00
1.271000000000000000e+03,-6.505933078987635731e-01,0.000000000000000000e+00
1.272000000000000000e+03,-5.942552692741049913e-01,0.000000000000000000e+00
1.273000000000000000e+03,-3.904678650739653589e-01,0.000000000000000000e+00
1.274000000000000000e+03,-3.327735164133160395e-01,0.000000000000000000e+00
1.275000000000000000e+03,-3.044368820593620351e-01,0.000000000000000000e+00
1.276000000000000000e+03,-2.931332833912056457e-01,0.000000000000000000e+00
1.277000000000000000e+03,-3.662801505370641975e-01,0.000000000000000000e+00
1.278000000000000000e+03,-3.233849858939886746e-01,0.000000000000000000e+00
1.279000000000000000e+03,-2.289268108977062788e-01,0.000000000000000000e+00
1.280000000000000000e+03,-1.031002559191319251e-01,0.000000000000000000e+00
1.281000000000000000e+03,-2.821365832875364910e-01,0.000000000000000000e+00
1.282000000000000000e+03,-5.249067482408445451e-02,0.000000000000000000e+00
1.283000000000000000e+03,-5.949330553207792145e-03,0.000000000000000000e+00
1.284000000000000000e+03,-7.298645300341367881e-02,0.000000000000000000e+00
1.285000000000000000e+03,-7.298917262449163001e-02,0.000000000000000000e+00
1.286000000000000000e+03,4.084671125675155140e-02,0.000000000000000000e+00
1.287000000000000000e+03,2.611238433588465579e-02,0.000000000000000000e+00
1.288000000000000000e+03,1.673425959949614017e-01,0.000000000000000000e+00
1.289000000000000000e+03,-1.808693486590254307e-02,0.000000000000000000e+00
1.290000000000000000e+03,2.806667315346155767e-01,0.000000000000000000e+00
1.291000000000000000e+03,8.526391329717004919e-02,0.000000000000000000e+00
1.292000000000000000e+03,4.765980747197015033e-01,0.000000000000000000e+00
1.293000000000000000e+03,3.086365573465156276e-01,0.000000000000000000e+00
1.294000000000000000e+03,7.202593004396726784e-01,0.000000000000000000e+00
1.295000000000000000e+03,4.880133488850801338e-01,0.000000000000000000e+00
1.296000000000000000e+03,1.788443362645988077e-01,0.000000000000000000e+00
1.297000000000000000e+03,8.469643459603526381e-02,0.000000000000000000e+00
1.298000000000000000e+03,1.110176857181939120e-01,0.000000000000000000e+00
1.299000000000000000e+03,2.280866144014677237e-03,0.000000000000000000e+00
1.300000000000000000e+03,9.041382480033835489e-02,0.000000000000000000e+00
1.301000000000000000e+03,-3.682450266600241773e-01,0.000000000000000000e+00
1.302000000000000000e+03,2.678941685174819565e+00,0.000000000000000000e+00
1.303000000000000000e+03,5.357842482140844353e+00,0.000000000000000000e+00
1.304000000000000000e+03,-2.110485150415033484e+00,1.000000000000000000e+00
1.305000000000000000e+03,-2.310983029410014211e+00,0.000000000000000000e+00
1.306000000000000000e+03,-9.769657592632954302e-01,0.000000000000000000e+00
1.307000000000000000e+03,4.606572725229478305e-02,0.000000000000000000e+00
1.308000000000000000e+03,-2.784794377222896133e-01,0.000000000000000000e+00
1.309000000000000000e+03,1.544818971865454804e-01,0.000000000000000000e+00
1.310000000000000000e+03,2.889202926152266079e-02,0.000000000000000000e+00
1.311000000000000000e+03,4.561840877279761397e-01,0.000000000000000000e+00
1.312000000000000000e+03,1.204195709257930846e-01,0.000000000000000000e+00
1.313000000000000000e+03,4.567035480980521367e-01,0.000000000000000000e+00
1.314000000000000000e+03,6.209631526048001726e-01,0.000000000000000000e+00
1.315000000000000000e+03,7.811282578391703924e-01,0.000000000000000000e+00
1.316000000000000000e+03,1.009018338759086753e+00,0.000000000000000000e+00
1.317000000000000000e+03,1.145961287364656300e+00,0.000000000000000000e+00
1.318000000000000000e+03,1.039313174790636563e+00,0.000000000000000000e+00
1.319000000000000000e+03,5.931500767378226069e-01,0.000000000000000000e+00
1.320000000000000000e+03,1.535426875178065587e-01,0.000000000000000000e+00
1.321000000000000000e+03,-6.547685596444217104e-01,0.000000000000000000e+00
1.322000000000000000e+03,-1.038113717405613867e+00,0.000000000000000000e+00
1.323000000000000000e+03,-1.158777467864436250e+00,0.000000000000000000e+00
1.324000000000000000e+03,-1.205850772270815385e+00,0.000000000000000000e+00
1.325000000000000000e+03,-1.102439508492762066e+00,0.000000000000000000e+00
1.326000000000000000e+03,-1.061562773899057843e+00,0.000000000000000000e+00
1.327000000000000000e+03,-8.293466052225925145e-01,0.000000000000000000e+00
1.328000000000000000e+03,-9.104409123068374354e-01,0.000000000000000000e+00
1.329000000000000000e+03,-7.269231486819913712e-01,0.000000000000000000e+00
1.330000000000000000e+03,-5.386938625924377888e-01,0.000000000000000000e+00
1.331000000000000000e+03,-5.270081058908239191e-01,0.000000000000000000e+00
1.332000000000000000e+03,-4.246226997076759102e-01,0.000000000000000000e+00
1.333000000000000000e+03,-2.206586903252446830e-01,0.000000000000000000e+00
1.334000000000000000e+03,-4.083326657905954060e-01,0.000000000000000000e+00
1.335000000000000000e+03,-1.837445964153233968e-01,0.000000000000000000e+00
1.336000000000000000e+03,-3.785799885478391413e-01,0.000000000000000000e+00
1.337000000000000000e+03,-2.718859245479088999e-02,0.000000000000000000e+00
1.338000000000000000e+03,-2.435640579652599280e-01,0.000000000000000000e+00
1.339000000000000000e+03,9.234634532010758956e-02,0.000000000000000000e+00
1.340000000000000000e+03,-2.403462996484906633e-01,0.000000000000000000e+00
1.341000000000000000e+03,-3.018514283755406591e-02,0.000000000000000000e+00
1.342000000000000000e+03,-2.144452719461891962e-02,0.000000000000000000e+00
1.343000000000000000e+03,1.368038646069612285e-01,0.000000000000000000e+00
1.344000000000000000e+03,6.872557182568839185e-02,0.000000000000000000e+00
1.345000000000000000e+03,8.236921243205061471e-02,0.000000000000000000e+00
1.346000000000000000e+03,1.076620737569256303e-01,0.000000000000000000e+00
1.347000000000000000e+03,1.744952442607575205e-01,0.000000000000000000e+00
1.348000000000000000e+03,2.236466430834470609e-01,0.000000000000000000e+00
1.349000000000000000e+03,1.080746282584473528e-01,0.000000000000000000e+00
1.350000000000000000e+03,2.644578335880529152e-01,0.000000000000000000e+00
1.351000000000000000e+03,2.734497401904642522e-01,0.000000000000000000e+00
1.352000000000000000e+03,4.466996207432090693e-01,0.000000000000000000e+00
1.353000000000000000e+03,4.386408789449168233e-01,0.000000000000000000e+00
1.354000000000000000e+03,6.890684581546734355e-01,0.000000000000000000e+00
1.355000000000000000e+03,6.481960334440300953e-01,0.000000000000000000e+00
1.356000000000000000e+03,1.093940769284015430e-01,0.000000000000000000e+00
1.357000000000000000e+03,1.628954256628141750e-01,0.000000000000000000e+00
1.358000000000000000e+03,2.654822781531789300e-01,0.000000000000000000e+00
1.359000000000000000e+03,-1.651726981581151943e-01,0.000000000000000000e+00
1.360000000000000000e+03,3.265164819557634934e-01,0.000000000000000000e+00
1.361000000000000000e+03,-2.314494428497535505e-01,0.000000000000000000e+00
1.362000000000000000e+03,1.933526096459118104e+00,0.000000000000000000e+00
1.363000000000000000e+03,6.072841405898182998e+00,0.000000000000000000e+00
1.364000000000000000e+03,-1.668638643096436613e+00,1.000000000000000000e+00
1.365000000000000000e+03,-2.705194462585797321e+00,0.000000000000000000e+00
1.366000000000000000e+03,-8.324814083798192099e-01,0.000000000000000000e+00
1.367000000000000000e+03,-3.334253868490672512e-01,0.000000000000000000e+00
1.368000000000000000e+03,-1.212080296699677567e-01,0.000000000000000000e+00
1.369000000000000000e+03,1.643398796403025032e-03,0.000000000000000000e+00
1.370000000000000000e+03,1.243984549444816651e-01,0.000000000000000000e+00
1.371000000000000000e+03,2.520622738124887463e-01,0.000000000000000000e+00
1.372000000000000000e+03,2.699218499729177378e-01,0.000000000000000000e+00
1.373000000000000000e+03,3.009839734794464983e-01,0.000000000000000000e+00
1.374000000000000000e+03,6.091261233891690496e-01,0.000000000000000000e+00
1.375000000000000000e+03,6.974578631006207452e-01,0.000000000000000000e+00
1.376000000000000000e+03,1.035303662198233443e+00,0.000000000000000000e+00
1.377000000000000000e+03,9.895442567143707402e-01,0.000000000000000000e+00
1.378000000000000000e+03,1.016932415721354399e+00,0.000000000000000000e+00
1.379000000000000000e+03,6.325852502047099035e-01,0.000000000000000000e+00
1.380000000000000000e+03,3.244626971134405985e-02,0.000000000000000000e+00
1.381000000000000000e+03,-2.929683025371581651e-01,0.000000000000000000e+00
1.382000000000000000e+03,-1.266046744799129486e+00,0.000000000000000000e+00
1.383000000000000000e+03,-1.134667963136324120e+00,0.000000000000000000e+00
1.384000000000000000e+03,-1.272462715914775444e+00,0.000000000000000000e+00
1.385000000000000000e+03,-1.108348831559835324e+00,0.000000000000000000e+00
1.386000000000000000e+03,-1.118019650376815166e+00,0.000000000000000000e+00
1.387000000000000000e+03,-8.834071528138524032e-01,0.000000000000000000e+00
1.388000000000000000e+03,-9.145473309824758701e-01,0.000000000000000000e+00
1.389000000000000000e+03,-5.527168197702241326e-01,0.000000000000000000e+00
1.390000000000000000e+03,-6.249724650637964452e-01,0.000000000000000000e+00
1.391000000000000000e+03,-4.386454667876531488e-01,0.000000000000000000e+00
1.392000000000000000e+03,-5.317478779445772297e-01,0.000000000000000000e+00
1.393000000000000000e+03,-2.852232938970094001e-01,0.000000000000000000e+00
1.394000000000000000e+03,-2.842895611582179072e-01,0.000000000000000000e+00
1.395000000000000000e+03,-4.414362972872229451e-01,0.000000000000000000e+00
1.396000000000000000e+03,-2.228266415946002499e-01,0.000000000000000000e+00
1.397000000000000000e+03,-2.051825002127418696e-01,0.000000000000000000e+00
1.398000000000000000e+03,-2.045050974295055946e-01,0.000000000000000000e+00
1.399000000000000000e+03,-1.728936381472547246e-01,0.000000000000000000e+00
1.400000000000000000e+03,-2.411640873064565573e-03,0.000000000000000000e+00
1.401000000000000000e+03,-2.025184023201045957e-01,0.000000000000000000e+00
1.402000000000000000e+03,-4.927366227925692593e-02,0.000000000000000000e+00
1.403000000000000000e+03,-9.456872998775729677e-02,0.000000000000000000e+00
1.404000000000000000e+03,2.488993195073810685e-02,0.000000000000000000e+00
1.405000000000000000e+03,8.002640386402296024e-02,0.000000000000000000e+00
1.406000000000000000e+03,1.209897684095876946e-01,0.000000000000000000e+00
1.407000000000000000e+03,-7.691188077589049613e-03,0.000000000000000000e+00
1.408000000000000000e+03,7.809089506018991600e-02,0.000000000000000000e+00
1.409000000000000000e+03,2.051240343432318147e-01,0.000000000000000000e+00
1.410000000000000000e+03,1.659598363879068728e-01,0.000000000000000000e+00
1.411000000000000000e+03,3.085148014535354366e-01,0.000000000000000000e+00
1.412000000000000000e+03,3.081467620158728077e-02,0.000000000000000000e+00
1.413000000000000000e+03,3.817400032364856033e-01,0.000000000000000000e+00
1.414000000000000000e+03,5.063849876811788997e-01,0.000000000000000000e+00
1.415000000000000000e+03,7.498274281150231202e-01,0.000000000000000000e+00
1.416000000000000000e+03,3.052055471398696374e-01,0.000000000000000000e+00
1.417000000000000000e+03,2.376012284781385819e-01,0.000000000000000000e+00
1.418000000000000000e+03,-1.391685985549907245e-01,0.000000000000000000e+00
1.419000000000000000e+03,2.426325084537181431e-01,0.000000000000000000e+00
1.420000000000000000e+03,-2.876334307830512027e-01,0.000000000000000000e+00
1.421000000000000000e+03,5.742555555375433718e-01,0.000000000000000000e+00
1.422000000000000000e+03,-3.936353225213466422e-01,0.000000000000000000e+00
1.423000000000000000e+03,4.345415904360909742e+00,0.000000000000000000e+00
1.424000000000000000e+03,3.034355361433906939e+00,0.000000000000000000e+00
1.425000000000000000e+03,-2.955788510753531106e+00,1.000000000000000000e+00
1.426000000000000000e+03,-1.497144490650632154e+00,0.000000000000000000e+00
1.427000000000000000e+03,-8.641248739176371485e-01,0.000000000000000000e+00
1.428000000000000000e+03,3.218954188991179910e-01,0.000000000000000000e+00
1.429000000000000000e+03,-2.606581478684026898e-01,0.000000000000000000e+00
1.430000000000000000e+03,1.771287567684001196e-01,0.000000000000000000e+00
1.431000000000000000e+03,-1.382823648690803368e-02,0.000000000000000000e+00
1.432000000000000000e+03,4.350108805025868497e-01,0.000000000000000000e+00
1.433000000000000000e+03,1.869630818761333635e-01,0.000000000000000000e+00
1.434000000000000000e+03,5.770617751656401673e-01,0.000000000000000000e+00
1.435000000000000000e+03,4.648120955759459383e-01,0.000000000000000000e+00
1.436000000000000000e+03,1.050295793853886606e+00,0.000000000000000000e+00
1.437000000000000000e+03,7.929110274070952924e-01,0.000000000000000000e+00
1.438000000000000000e+03,1.000193032114896630e+00,0.000000000000000000e+00
1.439000000000000000e+03,6.680281579446408768e-01,0.000000000000000000e+00
1.440000000000000000e+03,5.855236024910142056e-01,0.000000000000000000e+00
1.441000000000000000e+03,-3.668684567495986149e-01,0.000000000000000000e+00
1.442000000000000000e+03,-6.327700218100724694e-01,0.000000000000000000e+00
1.443000000000000000e+03,-1.155214865256994683e+00,0.000000000000000000e+00
1.444000000000000000e+03,-1.096179815181717920e+00,0.000000000000000000e+00
1.445000000000000000e+03,-1.036744869583129836e+00,0.000000000000000000e+00
1.446000000000000000e+03,-1.129708415779160813e+00,0.000000000000000000e+00
1.447000000000000000e+03,-1.055109081708159868e+00,0.000000000000000000e+00
1.448000000000000000e+03,-7.320322681678050891e-01,0.000000000000000000e+00
1.449000000000000000e+03,-8.130709305030379141e-01,0.000000000000000000e+00
1.450000000000000000e+03,-5.187550748351597019e-01,0.000000000000000000e+00
1.451000000000000000e+03,-6.280323443083917212e-01,0.000000000000000000e+00
1.452000000000000000e+03,-2.536380138647301719e-01,0.000000000000000000e+00
1.453000000000000000e+03,-2.438027856144347749e-01,0.000000000000000000e+00
1.454000000000000000e+03,-3.738411945042597329e-01,0.000000000000000000e+00
1.455000000000000000e+03,-1.803105391538081803e-01,0.000000000000000000e+00
1.456000000000000000e+03,-3.285743375146845668e-01,0.000000000000000000e+00
1.457000000000000000e+03,-1.393946431078787185e-01,0.000000000000000000e+00
1.458000000000000000e+03,-1.668404046172008715e-01,0.000000000000000000e+00
1.459000000000000000e+03,-1.344286799330418614e-01,0.000000000000000000e+00
1.460000000000000000e+03,1.109617604555137964e-02,0.000000000000000000e+00
1.461000000000000000e+03,-2.187687585647744848e-01,0.000000000000000000e+00
1.462000000000000000e+03,-3.342365015214324858e-02,0.000000000000000000e+00
1.463000000000000000e+03,1.285273743838381277e-01,0.000000000000000000e+00
1.464000000000000000e+03,6.681952071868982324e-02,0.000000000000000000e+00
1.465000000000000000e+03,2.616077792391935039e-02,0.000000000000000000e+00
1.466000000000000000e+03,1.643020961052128193e-01,0.000000000000000000e+00
1.467000000000000000e+03,6.255759131707890053e-02,0.000000000000000000e+00
1.468000000000000000e+03,1.548417111703822846e-01,0.000000000000000000e+00
1.469000000000000000e+03,1.714447921864412083e-01,0.000000000000000000e+00
1.470000000000000000e+03,3.064407770900002825e-01,0.000000000000000000e+00
1.471000000000000000e+03,1.843158592765346826e-01,0.000000000000000000e+00
1.472000000000000000e+03,3.752057556194998700e-01,0.000000000000000000e+00
1.473000000000000000e+03,2.637156934978743816e-01,0.000000000000000000e+00
1.474000000000000000e+03,4.875942107683574056e-01,0.000000000000000000e+00
1.475000000000000000e+03,6.065237778633706389e-01,0.000000000000000000e+00
1.476000000000000000e+03,7.280752968003327830e-01,0.000000000000000000e+00
1.477000000000000000e+03,1.423974637523185149e-01,0.000000000000000000e+00
1.478000000000000000e+03,3.491018189399244798e-01,0.000000000000000000e+00
1.479000000000000000e+03,-1.598532617259885713e-01,0.000000000000000000e+00
1.480000000000000000e+03,3.412749840704487614e-01,0.000000000000000000e+00
1.481000000000000000e+03,-1.178577672045720837e-01,0.000000000000000000e+00
1.482000000000000000e+03,3.920593356748520164e-01,0.000000000000000000e+00
1.483000000000000000e+03,1.178235534044501931e-01,0.000000000000000000e+00
1.484000000000000000e+03,5.331175575070495221e+00,0.000000000000000000e+00
1.485000000000000000e+03,1.137452989129209113e+00,1.000000000000000000e+00
1.486000000000000000e+03,-3.159783255952729242e+00,0.000000000000000000e+00
1.487000000000000000e+03,-1.184223594542650249e+00,0.000000000000000000e+00
1.488000000000000000e+03,-4.770521798993603846e-01,0.000000000000000000e+00
1.489000000000000000e+03,5.396328433061079594e-02,0.000000000000000000e+00
1.490000000000000000e+03,-1.721194825363252245e-01,0.000000000000000000e+00
1.491000000000000000e+03,3.215779489033475658e-01,0.000000000000000000e+00
1.492000000000000000e+03,1.233051335613616351e-01,0.000000000000000000e+00
1.493000000000000000e+03,2.050119189536338260e-01,0.000000000000000000e+00
1.494000000000000000e+03,3.960974808208047038e-01,0.000000000000000000e+00
1.495000000000000000e+03,4.192741111128989728e-01,0.000000000000000000e+00
1.496000000000000000e+03,5.907584215005146078e-01,0.000000000000000000e+00
1.497000000000000000e+03,8.632543033602793070e-01,0.000000000000000000e+00
1.498000000000000000e+03,1.044315400430779306e+00,0.000000000000000000e+00
1.499000000000000000e+03,9.949667933766015437e-01,0.000000000000000000e+00
1.500000000000000000e+03,8.418425465395324991e-01,0.000000000000000000e+00
1.501000000000000000e+03,4.248750061853642790e-01,0.000000000000000000e+00
1.502000000000000000e+03,-4.731824745872355575e-01,0.000000000000000000e+00
1.503000000000000000e+03,-8.389422210492956111e-01,0.000000000000000000e+00
1.504000000000000000e+03,-1.165959184719843389e+00,0.000000000000000000e+00
1.505000000000000000e+03,-1.093905476442603053e+00,0.000000000000000000e+00
1.506000000000000000e+03,-1.251114417542336987e+00,0.000000000000000000e+00
1.507000000000000000e+03,-1.007111116181500288e+00,0.000000000000000000e+00
1.508000000000000000e+03,-1.020691036406777386e+00,0.000000000000000000e+00
1.509000000000000000e+03,-7.117240055475656524e-01,0.000000000000000000e+00
1.510000000000000000e+03,-7.095757628855630106e-01,0.000000000000000000e+00
1.511000000000000000e+03,-6.847770945489269900e-01,0.000000000000000000e+00
1.512000000000000000e+03,-5.577206927441876738e-01,0.000000000000000000e+00
1.513000000000000000e+03,-4.983145160850820377e-01,0.000000000000000000e+00
1.514000000000000000e+03,-4.671287390835137110e-01,0.000000000000000000e+00
1.515000000000000000e+03,-2.459865705493438359e-01,0.000000000000000000e+00
1.516000000000000000e+03,-5.185322925349785672e-01,0.000000000000000000e+00
1.517000000000000000e+03,-1.376049486975660097e-01,0.000000000000000000e+00
1.518000000000000000e+03,-2.160729107303379359e-01,0.000000000000000000e+00
1.519000000000000000e+03,-2.158610243466271561e-01,0.000000000000000000e+00
1.520000000000000000e+03,-2.906366474150991475e-01,0.000000000000000000e+00
1.521000000000000000e+03,-5.790255589783892265e-02,0.000000000000000000e+00
1.522000000000000000e+03,-2.396171157761714521e-01,0.000000000000000000e+00
1.523000000000000000e+03,8.976984073045034263e-02,0.000000000000000000e+00
1.524000000000000000e+03,-2.104376086550963365e-01,0.000000000000000000e+00
1.525000000000000000e+03,1.395711258650848552e-01,0.000000000000000000e+00
1.526000000000000000e+03,-7.672555243516357426e-02,0.000000000000000000e+00
1.527000000000000000e+03,2.503249751007132762e-01,0.000000000000000000e+00
1.528000000000000000e+03,2.020523255378251296e-02,0.000000000000000000e+00
1.529000000000000000e+03,1.950059901643869664e-01,0.000000000000000000e+00
1.530000000000000000e+03,-4.487598331873993845e-02,0.000000000000000000e+00
1.531000000000000000e+03,2.696446098856788431e-01,0.000000000000000000e+00
1.532000000000000000e+03,1.505874599587326834e-01,0.000000000000000000e+00
1.533000000000000000e+03,1.114508386917744259e-01,0.000000000000000000e+00
1.534000000000000000e+03,1.231864670177334198e-01,0.000000000000000000e+00
1.535000000000000000e+03,3.799379825880124240e-01,0.000000000000000000e+00
1.536000000000000000e+03,2.497073063709990548e-01,0.000000000000000000e+00
1.537000000000000000e+03,5.386058675596324674e-01,0.000000000000000000e+00
1.538000000000000000e+03,5.686575415343197992e-01,0.000000000000000000e+00
1.539000000000000000e+03,5.866891798527651414e-01,0.000000000000000000e+00
1.540000000000000000e+03,2.329070904316333790e-01,0.000000000000000000e+00
1.541000000000000000e+03,1.694308205165315773e-01,0.000000000000000000e+00
1.542000000000000000e+03,-5.533558332233222410e-02,0.000000000000000000e+00
1.543000000000000000e+03,3.777656845859038715e-01,0.000000000000000000e+00
1.544000000000000000e+03,-2.169041754704434111e-01,0.000000000000000000e+00
1.545000000000000000e+03,4.872820109993074023e-01,0.000000000000000000e+00
1.546000000000000000e+03,-3.040437224295542418e-01,0.000000000000000000e+00
1.547000000000000000e+03,4.781701929460216327e+00,0.000000000000000000e+00
1.548000000000000000e+03,2.733878968826492617e+00,1.000000000000000000e+00
1.549000000000000000e+03,-3.279564402021827085e+00,0.000000000000000000e+00
1.550000000000000000e+03,-1.521616240353641514e+00,0.000000000000000000e+00
1.551000000000000000e+03,-6.764544544992154851e-01,0.000000000000000000e+00
1.552000000000000000e+03,1.026699421956321912e-01,0.000000000000000000e+00
1.553000000000000000e+03,-2.766830630314413009e-01,0.000000000000000000e+00
1.554000000000000000e+03,3.391142941765460939e-01,0.000000000000000000e+00
1.555000000000000000e+03,-9.460878965090628590e-02,0.000000000000000000e+00
1.556000000000000000e+03,3.032233409091862897e-01,0.000000000000000000e+00
1.557000000000000000e+03,1.149295476415663070e-01,0.000000000000000000e+00
1.558000000000000000e+03,6.249752365454471770e-01,0.000000000000000000e+00
1.559000000000000000e+03,4.209933510549423996e-01,0.000000000000000000e+00
1.560000000000000000e+03,8.977627129556848828e-01,0.000000000000000000e+00
1.561000000000000000e+03,8.690953550287365825e-01,0.000000000000000000e+00
1.562000000000000000e+03,9.340702536611330542e-01,0.000000000000000000e+00
1.563000000000000000e+03,6.549719811009400150e-01,0.000000000000000000e+00
1.564000000000000000e+03,6.459455323118785675e-01,0.000000000000000000e+00
1.565000000000000000e+03,-3.836894964759804405e-01,0.000000000000000000e+00
1.566000000000000000e+03,-6.801717524055155284e-01,0.000000000000000000e+00
1.567000000000000000e+03,-1.213328960474360452e+00,0.000000000000000000e+00
1.568000000000000000e+03,-1.253094036250593568e+00,0.000000000000000000e+00
1.569000000000000000e+03,-1.212327392849128271e+00,0.000000000000000000e+00
1.570000000000000000e+03,-9.619796924246457603e-01,0.000000000000000000e+00
1.571000000000000000e+03,-1.114893349874507944e+00,0.000000000000000000e+00
1.572000000000000000e+03,-8.210975669767974772e-01,0.000000000000000000e+00
1.573000000000000000e+03,-8.483221716852485939e-01,0.000000000000000000e+00
1.574000000000000000e+03,-5.310493180372847233e-01,0.000000000000000000e+00
1.575000000000000000e+03,-6.685356403526270253e-01,0.000000000000000000e+00
1.576000000000000000e+03,-3.421700044950449215e-01,0.000000000000000000e+00
1.577000000000000000e+03,-4.903931999191782909e-01,0.000000000000000000e+00
1.578000000000000000e+03,-2.049525243031216359e-01,0.000000000000000000e+00
1.579000000000000000e+03,-4.053246592492276701e-01,0.000000000000000000e+00
1.580000000000000000e+03,-3.332586499837563720e-01,0.000000000000000000e+00
1.581000000000000000e+03,-7.203959272082123555e-02,0.000000000000000000e+00
1.582000000000000000e+03,-3.098464256903087910e-01,0.000000000000000000e+00
1.583000000000000000e+03,-9.407675429706009729e-02,0.000000000000000000e+00
1.584000000000000000e+03,-2.912231026033123560e-01,0.000000000000000000e+00
1.585000000000000000e+03,3.108704928012827329e-02,0.000000000000000000e+00
1.586000000000000000e+03,1.478935664762254937e-02,0.000000000000000000e+00
1.587000000000000000e+03,-2.611993874847097774e-01,0.000000000000000000e+00
