timestamp,ecg_measurement,qrs_detected
0.000000000000000000e+00,-2.724627394300007110e-01,0.000000000000000000e+00
1.000000000000000000e+00,-1.825830586193167571e-01,0.000000000000000000e+00
2.000000000000000000e+00,3.232125094440704061e+00,0.000000000000000000e+00
3.000000000000000000e+00,-1.091474352643032830e+00,0.000000000000000000e+00
4.000000000000000000e+00,-3.199256497506439256e+00,0.000000000000000000e+00
5.000000000000000000e+00,-4.590783731048033167e-01,0.000000000000000000e+00
6.000000000000000000e+00,-3.991112781769219353e-01,0.000000000000000000e+00
7.000000000000000000e+00,-2.521997141009215196e-02,1.000000000000000000e+00
8.000000000000000000e+00,-7.806136064771285188e-02,0.000000000000000000e+00
9.000000000000000000e+00,5.989551498933904511e-02,0.000000000000000000e+00
1.000000000000000000e+01,1.421474263684524564e-01,0.000000000000000000e+00
1.100000000000000000e+01,1.661774668395259724e-01,0.000000000000000000e+00
1.200000000000000000e+01,1.952490465087577953e-01,0.000000000000000000e+00
1.300000000000000000e+01,4.032493712740279901e-01,0.000000000000000000e+00
1.400000000000000000e+01,3.365478001394127117e-01,0.000000000000000000e+00
1.500000000000000000e+01,4.929796929005206274e-01,0.000000000000000000e+00
1.600000000000000000e+01,5.452418438280285384e-01,0.000000000000000000e+00
1.700000000000000000e+01,5.193484745850374118e-01,0.000000000000000000e+00
1.800000000000000000e+01,4.989709179869472599e-01,0.000000000000000000e+00
1.900000000000000000e+01,3.457809181164885892e-01,0.000000000000000000e+00
2.000000000000000000e+01,-2.331063243394471476e-02,0.000000000000000000e+00
2.100000000000000000e+01,-2.433305383564104141e-01,0.000000000000000000e+00
2.200000000000000000e+01,-2.500836894682019751e-01,0.000000000000000000e+00
2.300000000000000000e+01,-4.287066203368034012e-01,0.000000000000000000e+00
2.400000000000000000e+01,-3.556269090877864358e-01,0.000000000000000000e+00
2.500000000000000000e+01,-1.647940591650888520e-01,0.000000000000000000e+00
2.600000000000000000e+01,-2.993902588361740946e-01,0.000000000000000000e+00
2.700000000000000000e+01,-2.639208972540612597e-01,0.000000000000000000e+00
2.800000000000000000e+01,-3.159834812941683113e-01,0.000000000000000000e+00
2.900000000000000000e+01,-2.096732402043840204e-01,0.000000000000000000e+00
3.000000000000000000e+01,-4.913835011450371631e-02,0.000000000000000000e+00
3.100000000000000000e+01,-8.824564754180380666e-02,0.000000000000000000e+00
3.200000000000000000e+01,2.352460453477261612e-03,0.000000000000000000e+00
3.300000000000000000e+01,-8.970491144184383758e-02,0.000000000000000000e+00
3.400000000000000000e+01,3.477339442077101994e-01,0.000000000000000000e+00
3.500000000000000000e+01,4.724640104669671770e-01,0.000000000000000000e+00
3.600000000000000000e+01,6.140270949494418540e-01,0.000000000000000000e+00
3.700000000000000000e+01,5.823423932515751078e-01,0.000000000000000000e+00
3.800000000000000000e+01,2.058457791989907470e-01,0.000000000000000000e+00
3.900000000000000000e+01,-4.176586673649788084e-01,0.000000000000000000e+00
4.000000000000000000e+01,-2.111879845133841915e-01,0.000000000000000000e+00
4.100000000000000000e+01,-4.356224433786785033e-01,0.000000000000000000e+00
4.200000000000000000e+01,-1.002033684116109963e-01,0.000000000000000000e+00
4.300000000000000000e+01,-3.716417231157511658e-01,0.000000000000000000e+00
4.400000000000000000e+01,3.010148927340778435e+00,0.000000000000000000e+00
4.500000000000000000e+01,1.245500026602993637e+00,1.000000000000000000e+00
4.600000000000000000e+01,-3.221055067758631818e+00,0.000000000000000000e+00
4.700000000000000000e+01,-7.463663766455105320e-01,0.000000000000000000e+00
4.800000000000000000e+01,-5.004522555053817490e-01,0.000000000000000000e+00
4.900000000000000000e+01,-3.980887847245571931e-02,0.000000000000000000e+00
5.000000000000000000e+01,-1.241525516152854614e-01,0.000000000000000000e+00
5.100000000000000000e+01,3.723312096714421204e-01,0.000000000000000000e+00
5.200000000000000000e+01,9.684942784506801738e-03,0.000000000000000000e+00
5.300000000000000000e+01,2.517445918102881874e-01,0.000000000000000000e+00
5.400000000000000000e+01,2.685971054333201047e-01,0.000000000000000000e+00
5.500000000000000000e+01,4.934873345165486369e-01,0.000000000000000000e+00
5.600000000000000000e+01,2.721421231160319198e-01,0.000000000000000000e+00
5.700000000000000000e+01,5.909150427564491270e-01,0.000000000000000000e+00
5.800000000000000000e+01,4.088420136466673349e-01,0.000000000000000000e+00
5.900000000000000000e+01,6.957278034909289977e-01,0.000000000000000000e+00
6.000000000000000000e+01,4.962078208643220800e-01,0.000000000000000000e+00
6.100000000000000000e+01,5.848833743041503830e-01,0.000000000000000000e+00
6.200000000000000000e+01,1.348302638204005033e-01,0.000000000000000000e+00
6.300000000000000000e+01,2.951738874806943483e-02,0.000000000000000000e+00
6.400000000000000000e+01,-2.286879650579907164e-01,0.000000000000000000e+00
6.500000000000000000e+01,-1.421813037184501138e-01,0.000000000000000000e+00
6.600000000000000000e+01,-2.073504103636885643e-01,0.000000000000000000e+00
6.700000000000000000e+01,-1.169454421170844638e-01,0.000000000000000000e+00
6.800000000000000000e+01,-2.408337212147655948e-01,0.000000000000000000e+00
6.900000000000000000e+01,-1.763825856004289094e-01,0.000000000000000000e+00
7.000000000000000000e+01,-2.892925647474416939e-01,0.000000000000000000e+00
7.100000000000000000e+01,-1.375364206926942556e-01,0.000000000000000000e+00
7.200000000000000000e+01,-2.422771065663575640e-01,0.000000000000000000e+00
7.300000000000000000e+01,-1.718718377290294475e-01,0.000000000000000000e+00
7.400000000000000000e+01,-1.654147076084388213e-01,0.000000000000000000e+00
7.500000000000000000e+01,3.616619881246715268e-02,0.000000000000000000e+00
7.600000000000000000e+01,-1.588787787001333940e-01,0.000000000000000000e+00
7.700000000000000000e+01,1.787947723121976681e-02,0.000000000000000000e+00
7.800000000000000000e+01,-7.556153329119962014e-02,0.000000000000000000e+00
7.900000000000000000e+01,3.557001751110798193e-01,0.000000000000000000e+00
8.000000000000000000e+01,4.121161069806227872e-01,0.000000000000000000e+00
8.100000000000000000e+01,6.800555988718981482e-01,0.000000000000000000e+00
8.200000000000000000e+01,4.512721765691329878e-01,0.000000000000000000e+00
8.300000000000000000e+01,8.699120199070839443e-02,0.000000000000000000e+00
8.400000000000000000e+01,-5.007003929103295281e-01,0.000000000000000000e+00
8.500000000000000000e+01,-2.482040275001669571e-01,0.000000000000000000e+00
8.600000000000000000e+01,-6.093946133906248397e-01,0.000000000000000000e+00
8.700000000000000000e+01,-1.766739739995374647e-01,0.000000000000000000e+00
8.800000000000000000e+01,-6.410701385308646971e-01,0.000000000000000000e+00
8.900000000000000000e+01,2.242684257813691406e+00,0.000000000000000000e+00
9.000000000000000000e+01,2.361810689818752085e+00,0.000000000000000000e+00
9.100000000000000000e+01,-3.031617266812673073e+00,1.000000000000000000e+00
9.200000000000000000e+01,-1.395160169493453006e+00,0.000000000000000000e+00
9.300000000000000000e+01,-5.778928208930564914e-01,0.000000000000000000e+00
9.400000000000000000e+01,-2.799738559489877154e-01,0.000000000000000000e+00
9.500000000000000000e+01,-2.056114045390083911e-01,0.000000000000000000e+00
9.600000000000000000e+01,-2.014566026674956614e-02,0.000000000000000000e+00
9.700000000000000000e+01,-5.103876006599600973e-02,0.000000000000000000e+00
9.800000000000000000e+01,1.080443850779639753e-01,0.000000000000000000e+00
9.900000000000000000e+01,1.425289204175431423e-01,0.000000000000000000e+00
1.000000000000000000e+02,1.204890247469851683e-01,0.000000000000000000e+00
1.010000000000000000e+02,1.862858045494771853e-01,0.000000000000000000e+00
1.020000000000000000e+02,2.890433739345848463e-01,0.000000000000000000e+00
1.030000000000000000e+02,3.415992462489640391e-01,0.000000000000000000e+00
1.040000000000000000e+02,4.470610925123961188e-01,0.000000000000000000e+00
1.050000000000000000e+02,2.262270158041941592e-01,0.000000000000000000e+00
1.060000000000000000e+02,4.976950485216289910e-01,0.000000000000000000e+00
1.070000000000000000e+02,1.406702322048504206e-01,0.000000000000000000e+00
1.080000000000000000e+02,-9.770873561616480463e-02,0.000000000000000000e+00
1.090000000000000000e+02,-2.793759258533057288e-01,0.000000000000000000e+00
1.100000000000000000e+02,-2.899731169789523944e-01,0.000000000000000000e+00
1.110000000000000000e+02,-3.321656296352921700e-01,0.000000000000000000e+00
1.120000000000000000e+02,-2.538836091183107047e-01,0.000000000000000000e+00
1.130000000000000000e+02,-3.633665660283457721e-01,0.000000000000000000e+00
1.140000000000000000e+02,-2.394930560033768363e-01,0.000000000000000000e+00
1.150000000000000000e+02,-3.281096520411122541e-01,0.000000000000000000e+00
1.160000000000000000e+02,-2.810171718100438198e-01,0.000000000000000000e+00
1.170000000000000000e+02,-3.784560116942252139e-01,0.000000000000000000e+00
1.180000000000000000e+02,-2.869175396561005620e-01,0.000000000000000000e+00
1.190000000000000000e+02,-2.719950402445182602e-01,0.000000000000000000e+00
1.200000000000000000e+02,-1.834755176637283269e-01,0.000000000000000000e+00
1.210000000000000000e+02,-1.198256909191651592e-01,0.000000000000000000e+00
1.220000000000000000e+02,-3.291749019953865707e-02,0.000000000000000000e+00
1.230000000000000000e+02,-1.117000449316645633e-01,0.000000000000000000e+00
1.240000000000000000e+02,-4.057114056809613817e-02,0.000000000000000000e+00
1.250000000000000000e+02,-2.153440887310937787e-02,0.000000000000000000e+00
1.260000000000000000e+02,3.556544294953471047e-02,0.000000000000000000e+00
1.270000000000000000e+02,7.826300733303681589e-02,0.000000000000000000e+00
1.280000000000000000e+02,9.556272993875407351e-02,0.000000000000000000e+00
1.290000000000000000e+02,3.897579440341962242e-01,0.000000000000000000e+00
1.300000000000000000e+02,6.762391693475616750e-01,0.000000000000000000e+00
1.310000000000000000e+02,5.798375220749104608e-01,0.000000000000000000e+00
1.320000000000000000e+02,2.598410375685802909e-01,0.000000000000000000e+00
1.330000000000000000e+02,-3.156269979904328116e-01,0.000000000000000000e+00
1.340000000000000000e+02,-3.441205896998859592e-01,0.000000000000000000e+00
1.350000000000000000e+02,-4.749775793802673007e-01,0.000000000000000000e+00
1.360000000000000000e+02,-2.511194229861177241e-01,0.000000000000000000e+00
1.370000000000000000e+02,-4.854513904838799743e-01,0.000000000000000000e+00
1.380000000000000000e+02,1.307439691830616146e+00,0.000000000000000000e+00
1.390000000000000000e+02,3.401572382831686614e+00,0.000000000000000000e+00
1.400000000000000000e+02,-2.167600354159920695e+00,1.000000000000000000e+00
1.410000000000000000e+02,-2.048653089086528656e+00,0.000000000000000000e+00
1.420000000000000000e+02,-3.462359820341982530e-01,0.000000000000000000e+00
1.430000000000000000e+02,-2.565741930129737947e-01,0.000000000000000000e+00
1.440000000000000000e+02,-9.823923517862709343e-02,0.000000000000000000e+00
1.450000000000000000e+02,-4.112923255260298241e-03,0.000000000000000000e+00
1.460000000000000000e+02,8.978963335026646231e-02,0.000000000000000000e+00
1.470000000000000000e+02,1.014179383504335702e-01,0.000000000000000000e+00
1.480000000000000000e+02,1.990976867764435998e-01,0.000000000000000000e+00
1.490000000000000000e+02,2.896421561079023932e-01,0.000000000000000000e+00
1.500000000000000000e+02,2.374999660461799555e-01,0.000000000000000000e+00
1.510000000000000000e+02,3.702621327356429015e-01,0.000000000000000000e+00
1.520000000000000000e+02,4.162664535419135503e-01,0.000000000000000000e+00
1.530000000000000000e+02,5.662132472559107121e-01,0.000000000000000000e+00
1.540000000000000000e+02,4.725722730840125063e-01,0.000000000000000000e+00
1.550000000000000000e+02,5.336750570672210703e-01,0.000000000000000000e+00
1.560000000000000000e+02,4.137943330660500130e-01,0.000000000000000000e+00
1.570000000000000000e+02,-1.390307969809087725e-02,0.000000000000000000e+00
1.580000000000000000e+02,-8.971060008589379353e-02,0.000000000000000000e+00
1.590000000000000000e+02,-2.238205250994343976e-01,0.000000000000000000e+00
1.600000000000000000e+02,-1.491200011268383474e-01,0.000000000000000000e+00
1.610000000000000000e+02,-1.580562184568330697e-01,0.000000000000000000e+00
1.620000000000000000e+02,-1.859685710592344499e-01,0.000000000000000000e+00
1.630000000000000000e+02,-1.729618693009898622e-01,0.000000000000000000e+00
1.640000000000000000e+02,1.512512006255778196e+00,0.000000000000000000e+00
1.650000000000000000e+02,7.458142353026814275e-01,0.000000000000000000e+00
1.660000000000000000e+02,-6.071790677979003625e+00,0.000000000000000000e+00
1.670000000000000000e+02,-4.467141739078432927e+00,0.000000000000000000e+00
1.680000000000000000e+02,-2.330447880285631823e-01,0.000000000000000000e+00
1.690000000000000000e+02,1.394186399925193554e+00,0.000000000000000000e+00
1.700000000000000000e+02,1.368736820525980447e+00,0.000000000000000000e+00
1.710000000000000000e+02,1.199826025402009000e+00,0.000000000000000000e+00
1.720000000000000000e+02,1.178747967531148744e+00,0.000000000000000000e+00
1.730000000000000000e+02,1.158487904399807755e+00,0.000000000000000000e+00
1.740000000000000000e+02,1.095899109135425764e+00,0.000000000000000000e+00
1.750000000000000000e+02,1.175628268440747082e+00,0.000000000000000000e+00
1.760000000000000000e+02,1.386634884621302355e+00,0.000000000000000000e+00
1.770000000000000000e+02,1.567365900369291021e+00,0.000000000000000000e+00
1.780000000000000000e+02,1.734225751788996961e+00,0.000000000000000000e+00
1.790000000000000000e+02,1.691811497117920560e+00,0.000000000000000000e+00
1.800000000000000000e+02,1.720453947702239805e+00,0.000000000000000000e+00
1.810000000000000000e+02,8.765004948304766508e-01,0.000000000000000000e+00
1.820000000000000000e+02,-7.690536743613217430e-02,0.000000000000000000e+00
1.830000000000000000e+02,-8.392889941263268483e-01,1.000000000000000000e+00
1.840000000000000000e+02,-1.075840603228915837e+00,0.000000000000000000e+00
1.850000000000000000e+02,-1.082156626301925995e+00,0.000000000000000000e+00
1.860000000000000000e+02,-1.123164050521137547e+00,0.000000000000000000e+00
1.870000000000000000e+02,-1.026669864877310934e+00,0.000000000000000000e+00
1.880000000000000000e+02,-9.749469713810225979e-01,0.000000000000000000e+00
1.890000000000000000e+02,-9.899383414193074771e-01,0.000000000000000000e+00
1.900000000000000000e+02,-7.575429618633378048e-01,0.000000000000000000e+00
1.910000000000000000e+02,-7.028315831631174460e-01,0.000000000000000000e+00
1.920000000000000000e+02,-6.728821404086386959e-01,0.000000000000000000e+00
1.930000000000000000e+02,-6.580223094266300921e-01,0.000000000000000000e+00
1.940000000000000000e+02,-6.433015238577355355e-01,0.000000000000000000e+00
1.950000000000000000e+02,-4.912557907201049456e-01,0.000000000000000000e+00
1.960000000000000000e+02,-4.284922273861849762e-01,0.000000000000000000e+00
1.970000000000000000e+02,-4.708042197526424166e-01,0.000000000000000000e+00
1.980000000000000000e+02,-4.010930282709801453e-01,0.000000000000000000e+00
1.990000000000000000e+02,-4.534223415212504937e-01,0.000000000000000000e+00
2.000000000000000000e+02,-3.437731661917300396e-01,0.000000000000000000e+00
2.010000000000000000e+02,-2.486791186916931518e-01,0.000000000000000000e+00
2.020000000000000000e+02,-2.780715107196048974e-01,0.000000000000000000e+00
2.030000000000000000e+02,-2.892997821265350100e-01,0.000000000000000000e+00
2.040000000000000000e+02,-1.980033507345529131e-01,0.000000000000000000e+00
2.050000000000000000e+02,-5.523347482931512814e-02,0.000000000000000000e+00
2.060000000000000000e+02,-9.622151566726379335e-02,0.000000000000000000e+00
2.070000000000000000e+02,-5.242918947381195252e-03,0.000000000000000000e+00
2.080000000000000000e+02,1.001762345523875691e-01,0.000000000000000000e+00
2.090000000000000000e+02,-7.264669148744282157e-02,0.000000000000000000e+00
2.100000000000000000e+02,1.430041770836079362e-01,0.000000000000000000e+00
2.110000000000000000e+02,1.130034355773069238e-01,0.000000000000000000e+00
2.120000000000000000e+02,4.863516835315145198e-02,0.000000000000000000e+00
2.130000000000000000e+02,1.429910471000333527e-01,0.000000000000000000e+00
2.140000000000000000e+02,7.148642622882846187e-02,0.000000000000000000e+00
2.150000000000000000e+02,8.349052665733062983e-02,0.000000000000000000e+00
2.160000000000000000e+02,1.779862845756851608e-01,0.000000000000000000e+00
2.170000000000000000e+02,1.827800682831443035e-01,0.000000000000000000e+00
2.180000000000000000e+02,2.892732910723030959e-01,0.000000000000000000e+00
2.190000000000000000e+02,8.907861892275695248e-02,0.000000000000000000e+00
2.200000000000000000e+02,2.569797478114598244e-01,0.000000000000000000e+00
2.210000000000000000e+02,2.657874118196696944e-01,0.000000000000000000e+00
2.220000000000000000e+02,4.052303924921430989e-01,0.000000000000000000e+00
2.230000000000000000e+02,2.066297637731412673e-01,0.000000000000000000e+00
2.240000000000000000e+02,3.350649388476855672e-01,0.000000000000000000e+00
2.250000000000000000e+02,2.442172942324637719e-01,0.000000000000000000e+00
2.260000000000000000e+02,4.669944619502425232e-01,0.000000000000000000e+00
2.270000000000000000e+02,6.576339097829382307e-01,0.000000000000000000e+00
2.280000000000000000e+02,9.573115000011477305e-01,0.000000000000000000e+00
2.290000000000000000e+02,7.220197415459495005e-01,0.000000000000000000e+00
2.300000000000000000e+02,3.259118437096836796e-01,0.000000000000000000e+00
2.310000000000000000e+02,-1.705526998661120452e-01,0.000000000000000000e+00
2.320000000000000000e+02,-7.832369445695160082e-02,0.000000000000000000e+00
2.330000000000000000e+02,-3.507714669271982943e-01,0.000000000000000000e+00
2.340000000000000000e+02,-6.125706723092026046e-02,0.000000000000000000e+00
2.350000000000000000e+02,3.852147262212464174e-01,0.000000000000000000e+00
2.360000000000000000e+02,3.793878279385132668e+00,0.000000000000000000e+00
2.370000000000000000e+02,-6.891397462944488517e-01,1.000000000000000000e+00
2.380000000000000000e+02,-2.694414719821779158e+00,0.000000000000000000e+00
2.390000000000000000e+02,-5.047657984750855142e-01,0.000000000000000000e+00
2.400000000000000000e+02,-3.900408639302627156e-01,0.000000000000000000e+00
2.410000000000000000e+02,-8.524738237819237674e-02,0.000000000000000000e+00
2.420000000000000000e+02,-1.529386810495647342e-01,0.000000000000000000e+00
2.430000000000000000e+02,6.264621304892888098e-02,0.000000000000000000e+00
2.440000000000000000e+02,-2.849789432604789979e-02,0.000000000000000000e+00
2.450000000000000000e+02,8.746321604231888092e-02,0.000000000000000000e+00
2.460000000000000000e+02,1.420516271507352435e-01,0.000000000000000000e+00
2.470000000000000000e+02,8.037420466690417542e-02,0.000000000000000000e+00
2.480000000000000000e+02,3.339047186580179072e-01,0.000000000000000000e+00
2.490000000000000000e+02,2.524384615867341641e-01,0.000000000000000000e+00
2.500000000000000000e+02,3.506508511130253525e-01,0.000000000000000000e+00
2.510000000000000000e+02,2.898976407324674320e-01,0.000000000000000000e+00
2.520000000000000000e+02,3.955604026805799034e-01,0.000000000000000000e+00
2.530000000000000000e+02,9.885466236039319732e-02,0.000000000000000000e+00
2.540000000000000000e+02,2.964909838202879899e-01,0.000000000000000000e+00
2.550000000000000000e+02,-5.354075352883672784e-02,0.000000000000000000e+00
2.560000000000000000e+02,4.785620964002689631e-02,0.000000000000000000e+00
2.570000000000000000e+02,-4.560894163042243932e-01,0.000000000000000000e+00
2.580000000000000000e+02,-5.355644536367537567e-02,0.000000000000000000e+00
2.590000000000000000e+02,-2.353092499600329124e-01,0.000000000000000000e+00
2.600000000000000000e+02,2.487894029256777717e+00,0.000000000000000000e+00
2.610000000000000000e+02,-9.459578052858145236e-01,0.000000000000000000e+00
2.620000000000000000e+02,-4.846647367960233765e+00,0.000000000000000000e+00
2.630000000000000000e+02,-1.171170569552336449e+00,0.000000000000000000e+00
2.640000000000000000e+02,4.696713666672396731e-02,0.000000000000000000e+00
2.650000000000000000e+02,7.886164084414755138e-01,0.000000000000000000e+00
2.660000000000000000e+02,3.488623759274900316e-01,0.000000000000000000e+00
2.670000000000000000e+02,5.146649171467234662e-01,0.000000000000000000e+00
2.680000000000000000e+02,3.335094470855268778e-01,0.000000000000000000e+00
2.690000000000000000e+02,5.785451657744813403e-01,0.000000000000000000e+00
2.700000000000000000e+02,2.866590324829054182e-01,0.000000000000000000e+00
2.710000000000000000e+02,5.302388206425830974e-01,0.000000000000000000e+00
2.720000000000000000e+02,5.518926974752962344e-01,0.000000000000000000e+00
2.730000000000000000e+02,8.372609222437746856e-01,0.000000000000000000e+00
2.740000000000000000e+02,7.419914503063598232e-01,0.000000000000000000e+00
2.750000000000000000e+02,8.576342379472646771e-01,0.000000000000000000e+00
2.760000000000000000e+02,5.766557783669169490e-01,0.000000000000000000e+00
2.770000000000000000e+02,3.468622883948425661e-01,0.000000000000000000e+00
2.780000000000000000e+02,-2.454324378310646371e-01,0.000000000000000000e+00
2.790000000000000000e+02,-3.769289801782709781e-01,0.000000000000000000e+00
2.800000000000000000e+02,-6.817245621736713890e-01,0.000000000000000000e+00
2.810000000000000000e+02,-6.200360211518092246e-01,0.000000000000000000e+00
2.820000000000000000e+02,-7.294009183372659466e-01,0.000000000000000000e+00
2.830000000000000000e+02,-5.418139591429839141e-01,0.000000000000000000e+00
2.840000000000000000e+02,-6.476094307452643362e-01,0.000000000000000000e+00
2.850000000000000000e+02,-5.150636989328625237e-01,0.000000000000000000e+00
2.860000000000000000e+02,-4.637811892822292226e-01,0.000000000000000000e+00
2.870000000000000000e+02,-4.117952579099617427e-01,0.000000000000000000e+00
2.880000000000000000e+02,-5.792953294482009463e-01,0.000000000000000000e+00
2.890000000000000000e+02,-4.200000487753434153e-01,0.000000000000000000e+00
2.900000000000000000e+02,-5.253773005765359772e-01,0.000000000000000000e+00
2.910000000000000000e+02,-4.232468640722688025e-01,0.000000000000000000e+00
2.920000000000000000e+02,-4.036134548110030806e-01,0.000000000000000000e+00
2.930000000000000000e+02,-2.611684821589921324e-01,0.000000000000000000e+00
2.940000000000000000e+02,-4.423914060027259731e-01,0.000000000000000000e+00
2.950000000000000000e+02,-2.741497384094233603e-01,0.000000000000000000e+00
2.960000000000000000e+02,-2.349910273238575986e-01,0.000000000000000000e+00
2.970000000000000000e+02,-2.809481634001844697e-01,0.000000000000000000e+00
2.980000000000000000e+02,-1.285733211518726160e-01,0.000000000000000000e+00
2.990000000000000000e+02,-1.248803610758034838e-01,0.000000000000000000e+00
3.000000000000000000e+02,-1.762439591791321314e-01,0.000000000000000000e+00
3.010000000000000000e+02,-2.362838325499220377e-02,0.000000000000000000e+00
3.020000000000000000e+02,-2.331712158091968703e-02,0.000000000000000000e+00
3.030000000000000000e+02,3.108981032219630333e-02,0.000000000000000000e+00
3.040000000000000000e+02,2.143997023687347833e-02,0.000000000000000000e+00
3.050000000000000000e+02,4.047788994352738423e-02,0.000000000000000000e+00
3.060000000000000000e+02,9.290086928742492811e-02,0.000000000000000000e+00
3.070000000000000000e+02,9.697817670503848519e-02,0.000000000000000000e+00
3.080000000000000000e+02,1.254299032165966943e-01,0.000000000000000000e+00
3.090000000000000000e+02,9.637167877045706155e-02,0.000000000000000000e+00
3.100000000000000000e+02,1.635035350972204038e-01,0.000000000000000000e+00
3.110000000000000000e+02,5.991022076857190071e-02,0.000000000000000000e+00
3.120000000000000000e+02,1.453373990701443685e-01,0.000000000000000000e+00
3.130000000000000000e+02,1.699791706643712375e-01,0.000000000000000000e+00
3.140000000000000000e+02,1.277526831440165545e-01,0.000000000000000000e+00
3.150000000000000000e+02,1.661505177574277292e-01,0.000000000000000000e+00
3.160000000000000000e+02,1.857706058560409379e-01,0.000000000000000000e+00
3.170000000000000000e+02,2.152815654251160338e-01,0.000000000000000000e+00
3.180000000000000000e+02,1.278819187636280608e-01,0.000000000000000000e+00
3.190000000000000000e+02,4.457014793940509700e-01,0.000000000000000000e+00
3.200000000000000000e+02,6.207795673015084059e-01,0.000000000000000000e+00
3.210000000000000000e+02,7.928845464751623773e-01,0.000000000000000000e+00
3.220000000000000000e+02,5.570361005490991335e-01,0.000000000000000000e+00
3.230000000000000000e+02,-5.083789737190507613e-02,0.000000000000000000e+00
3.240000000000000000e+02,-1.947189875313141416e-01,0.000000000000000000e+00
3.250000000000000000e+02,-1.980824762396929672e-01,0.000000000000000000e+00
3.260000000000000000e+02,-1.663414363456799661e-01,0.000000000000000000e+00
3.270000000000000000e+02,-2.636709566972153529e-01,0.000000000000000000e+00
3.280000000000000000e+02,1.414192074446825265e+00,0.000000000000000000e+00
3.290000000000000000e+02,3.187133735870677942e+00,0.000000000000000000e+00
3.300000000000000000e+02,-2.729246637931440400e+00,1.000000000000000000e+00
3.310000000000000000e+02,-1.532310692729178525e+00,0.000000000000000000e+00
3.320000000000000000e+02,-4.080746787830391575e-01,0.000000000000000000e+00
3.330000000000000000e+02,-1.202592258544109283e-01,0.000000000000000000e+00
3.340000000000000000e+02,-3.661639360925015435e-02,0.000000000000000000e+00
3.350000000000000000e+02,1.096003398125824507e-01,0.000000000000000000e+00
3.360000000000000000e+02,1.204686085088900113e-02,0.000000000000000000e+00
3.370000000000000000e+02,3.846598183648078928e-01,0.000000000000000000e+00
3.380000000000000000e+02,2.238046721246118309e-01,0.000000000000000000e+00
3.390000000000000000e+02,3.202548399415985902e-01,0.000000000000000000e+00
3.400000000000000000e+02,3.169548118491755662e-01,0.000000000000000000e+00
3.410000000000000000e+02,4.051504422762729485e-01,0.000000000000000000e+00
3.420000000000000000e+02,2.559361864194784619e-01,0.000000000000000000e+00
3.430000000000000000e+02,2.919539530732580546e-01,0.000000000000000000e+00
3.440000000000000000e+02,3.870639599794713503e-01,0.000000000000000000e+00
3.450000000000000000e+02,2.254223774478114894e-01,0.000000000000000000e+00
3.460000000000000000e+02,1.812663852937340669e-01,0.000000000000000000e+00
3.470000000000000000e+02,1.323740504443251809e-01,0.000000000000000000e+00
3.480000000000000000e+02,2.190024581282120492e-02,0.000000000000000000e+00
3.490000000000000000e+02,1.072051276321295266e-01,0.000000000000000000e+00
3.500000000000000000e+02,-4.809063697725349945e-02,0.000000000000000000e+00
3.510000000000000000e+02,-1.131965966789507394e-01,0.000000000000000000e+00
3.520000000000000000e+02,-1.420743936377220074e-01,0.000000000000000000e+00
3.530000000000000000e+02,7.567390980609468576e-01,0.000000000000000000e+00
3.540000000000000000e+02,1.879984104478870099e+00,0.000000000000000000e+00
3.550000000000000000e+02,-4.868635877950238999e+00,0.000000000000000000e+00
3.560000000000000000e+02,-3.279509364569795693e+00,0.000000000000000000e+00
3.570000000000000000e+02,2.806974732499771807e-01,0.000000000000000000e+00
3.580000000000000000e+02,7.487981326200783272e-01,0.000000000000000000e+00
3.590000000000000000e+02,9.857264805868628521e-01,0.000000000000000000e+00
3.600000000000000000e+02,6.726448087753402749e-01,0.000000000000000000e+00
3.610000000000000000e+02,8.422926473098317768e-01,0.000000000000000000e+00
3.620000000000000000e+02,7.188797125903122476e-01,0.000000000000000000e+00
3.630000000000000000e+02,7.923575010680344866e-01,0.000000000000000000e+00
3.640000000000000000e+02,7.931515576009188218e-01,0.000000000000000000e+00
3.650000000000000000e+02,8.688907367276561544e-01,0.000000000000000000e+00
3.660000000000000000e+02,8.592851853122772665e-01,0.000000000000000000e+00
3.670000000000000000e+02,1.277097059248544664e+00,0.000000000000000000e+00
3.680000000000000000e+02,1.087675055910570787e+00,0.000000000000000000e+00
3.690000000000000000e+02,1.171932421792571288e+00,0.000000000000000000e+00
3.700000000000000000e+02,8.065387628269297116e-01,0.000000000000000000e+00
3.710000000000000000e+02,-4.356091614706184001e-02,0.000000000000000000e+00
3.720000000000000000e+02,-6.036981346564062045e-01,0.000000000000000000e+00
3.730000000000000000e+02,-7.836116213883942416e-01,0.000000000000000000e+00
3.740000000000000000e+02,-8.563516034139186939e-01,0.000000000000000000e+00
3.750000000000000000e+02,-7.651395474319335754e-01,0.000000000000000000e+00
3.760000000000000000e+02,-8.155147092172198020e-01,0.000000000000000000e+00
3.770000000000000000e+02,-7.928522610113779567e-01,0.000000000000000000e+00
3.780000000000000000e+02,-7.236699760831390993e-01,0.000000000000000000e+00
3.790000000000000000e+02,-6.550248361418427034e-01,0.000000000000000000e+00
3.800000000000000000e+02,-6.040876652611513187e-01,0.000000000000000000e+00
3.810000000000000000e+02,-5.876153318789466562e-01,0.000000000000000000e+00
3.820000000000000000e+02,-4.999006783516509178e-01,0.000000000000000000e+00
3.830000000000000000e+02,-5.859431198667979235e-01,0.000000000000000000e+00
3.840000000000000000e+02,-5.850478270130655689e-01,0.000000000000000000e+00
3.850000000000000000e+02,-3.956858096113265444e-01,0.000000000000000000e+00
3.860000000000000000e+02,-3.947742749723311406e-01,0.000000000000000000e+00
3.870000000000000000e+02,-2.608637812711264714e-01,0.000000000000000000e+00
3.880000000000000000e+02,-4.313058899809891766e-01,0.000000000000000000e+00
3.890000000000000000e+02,-3.069837308826970368e-01,0.000000000000000000e+00
3.900000000000000000e+02,-3.671995823859580677e-01,0.000000000000000000e+00
3.910000000000000000e+02,-1.584920066987970666e-01,0.000000000000000000e+00
3.920000000000000000e+02,-1.416846237567772615e-01,0.000000000000000000e+00
3.930000000000000000e+02,-9.209025241125401440e-02,0.000000000000000000e+00
3.940000000000000000e+02,-8.464452435078033410e-02,0.000000000000000000e+00
3.950000000000000000e+02,2.254114887902982159e-02,0.000000000000000000e+00
3.960000000000000000e+02,-1.488145872654711710e-01,0.000000000000000000e+00
3.970000000000000000e+02,-4.275153811638658652e-02,0.000000000000000000e+00
3.980000000000000000e+02,2.685898391906479943e-02,0.000000000000000000e+00
3.990000000000000000e+02,7.731216923448808176e-02,0.000000000000000000e+00
4.000000000000000000e+02,3.914895727139054704e-02,0.000000000000000000e+00
4.010000000000000000e+02,7.441099793549241226e-02,0.000000000000000000e+00
4.020000000000000000e+02,2.314801900564863665e-02,0.000000000000000000e+00
4.030000000000000000e+02,1.679044339099568517e-01,0.000000000000000000e+00
4.040000000000000000e+02,1.192356922527072483e-01,0.000000000000000000e+00
4.050000000000000000e+02,1.027469874866362848e-01,0.000000000000000000e+00
4.060000000000000000e+02,3.786858611994722845e-02,0.000000000000000000e+00
4.070000000000000000e+02,1.643689694133756152e-01,0.000000000000000000e+00
4.080000000000000000e+02,1.176625804136049031e-01,0.000000000000000000e+00
4.090000000000000000e+02,4.152570469062570324e-01,0.000000000000000000e+00
4.100000000000000000e+02,5.237088362841518796e-01,0.000000000000000000e+00
4.110000000000000000e+02,9.298016079380013732e-01,0.000000000000000000e+00
4.120000000000000000e+02,5.865895689193177942e-01,0.000000000000000000e+00
4.130000000000000000e+02,1.364144237561085438e-01,0.000000000000000000e+00
4.140000000000000000e+02,-1.550368080171408425e-01,0.000000000000000000e+00
4.150000000000000000e+02,-1.598789348475367911e-01,0.000000000000000000e+00
4.160000000000000000e+02,-3.193499165245133886e-01,0.000000000000000000e+00
4.170000000000000000e+02,-2.333114757783217585e-01,0.000000000000000000e+00
4.180000000000000000e+02,5.825916052197366302e-01,0.000000000000000000e+00
4.190000000000000000e+02,3.538110654327248028e+00,0.000000000000000000e+00
4.200000000000000000e+02,-1.795054348902632269e+00,1.000000000000000000e+00
4.210000000000000000e+02,-2.356528732897662071e+00,0.000000000000000000e+00
4.220000000000000000e+02,-4.519339101383813007e-01,0.000000000000000000e+00
4.230000000000000000e+02,-3.626202325342796629e-01,0.000000000000000000e+00
4.240000000000000000e+02,6.934156316242955781e-03,0.000000000000000000e+00
4.250000000000000000e+02,-1.067117984188715452e-01,0.000000000000000000e+00
4.260000000000000000e+02,8.145553222993495712e-02,0.000000000000000000e+00
4.270000000000000000e+02,1.100564470121392913e-01,0.000000000000000000e+00
4.280000000000000000e+02,1.215512966947634166e-01,0.000000000000000000e+00
4.290000000000000000e+02,2.517438709037290168e-01,0.000000000000000000e+00
4.300000000000000000e+02,3.910844817115895489e-01,0.000000000000000000e+00
4.310000000000000000e+02,3.390453937334155787e-01,0.000000000000000000e+00
4.320000000000000000e+02,3.004539347445303044e-01,0.000000000000000000e+00
4.330000000000000000e+02,2.989415202642093372e-01,0.000000000000000000e+00
4.340000000000000000e+02,2.345546595127638301e-01,0.000000000000000000e+00
4.350000000000000000e+02,1.069695131580572500e-01,0.000000000000000000e+00
4.360000000000000000e+02,1.831896580735890290e-01,0.000000000000000000e+00
4.370000000000000000e+02,2.609197947253968919e-01,0.000000000000000000e+00
4.380000000000000000e+02,1.281410842629046587e-02,0.000000000000000000e+00
4.390000000000000000e+02,-1.395034661686349146e-02,0.000000000000000000e+00
4.400000000000000000e+02,-2.314918913107972820e-01,0.000000000000000000e+00
4.410000000000000000e+02,-8.060896398692329878e-02,0.000000000000000000e+00
4.420000000000000000e+02,-1.620071400729069522e-01,0.000000000000000000e+00
4.430000000000000000e+02,-2.728179696567731728e-03,0.000000000000000000e+00
4.440000000000000000e+02,-2.530139583553077109e-01,0.000000000000000000e+00
4.450000000000000000e+02,1.209914879637674190e+00,0.000000000000000000e+00
4.460000000000000000e+02,-1.087811499077465383e-01,0.000000000000000000e+00
4.470000000000000000e+02,-5.470865067872205501e+00,0.000000000000000000e+00
4.480000000000000000e+02,-2.655684917811712786e+00,0.000000000000000000e+00
4.490000000000000000e+02,2.823615233772494015e-01,0.000000000000000000e+00
4.500000000000000000e+02,1.273075328537969009e+00,0.000000000000000000e+00
4.510000000000000000e+02,1.028459394837238916e+00,0.000000000000000000e+00
4.520000000000000000e+02,1.203526432663745815e+00,0.000000000000000000e+00
4.530000000000000000e+02,8.663322661086452214e-01,0.000000000000000000e+00
4.540000000000000000e+02,1.003053303140404084e+00,0.000000000000000000e+00
4.550000000000000000e+02,1.046808094429129365e+00,0.000000000000000000e+00
4.560000000000000000e+02,1.032736600625994816e+00,0.000000000000000000e+00
4.570000000000000000e+02,1.094572464167814951e+00,0.000000000000000000e+00
4.580000000000000000e+02,1.294564201493630717e+00,0.000000000000000000e+00
4.590000000000000000e+02,1.422078331432193643e+00,0.000000000000000000e+00
4.600000000000000000e+02,1.607052748700679823e+00,0.000000000000000000e+00
4.610000000000000000e+02,1.442250073524298459e+00,0.000000000000000000e+00
4.620000000000000000e+02,7.383366434036131576e-01,0.000000000000000000e+00
4.630000000000000000e+02,-4.885849237099548076e-02,0.000000000000000000e+00
4.640000000000000000e+02,-6.056137924687858831e-01,0.000000000000000000e+00
4.650000000000000000e+02,-9.049754338827390443e-01,0.000000000000000000e+00
4.660000000000000000e+02,-7.481597332841213310e-01,0.000000000000000000e+00
4.670000000000000000e+02,-1.016047202978607622e+00,0.000000000000000000e+00
4.680000000000000000e+02,-7.707091693335906823e-01,0.000000000000000000e+00
4.690000000000000000e+02,-8.685472578169330937e-01,0.000000000000000000e+00
4.700000000000000000e+02,-8.071519162484994681e-01,0.000000000000000000e+00
4.710000000000000000e+02,-7.053627564026437868e-01,0.000000000000000000e+00
4.720000000000000000e+02,-6.734291013531132908e-01,0.000000000000000000e+00
4.730000000000000000e+02,-7.361800431575521442e-01,0.000000000000000000e+00
4.740000000000000000e+02,-6.174971191121535474e-01,0.000000000000000000e+00
4.750000000000000000e+02,-5.089402044583390960e-01,0.000000000000000000e+00
4.760000000000000000e+02,-5.309418981794763459e-01,0.000000000000000000e+00
4.770000000000000000e+02,-5.388034172328736160e-01,0.000000000000000000e+00
4.780000000000000000e+02,-4.341750124378530029e-01,0.000000000000000000e+00
4.790000000000000000e+02,-4.045156407789214925e-01,0.000000000000000000e+00
4.800000000000000000e+02,-3.917502794831568269e-01,0.000000000000000000e+00
4.810000000000000000e+02,-2.730840973900631741e-01,0.000000000000000000e+00
4.820000000000000000e+02,-2.614112294286261018e-01,0.000000000000000000e+00
4.830000000000000000e+02,-2.128786607756432414e-01,0.000000000000000000e+00
4.840000000000000000e+02,-1.935156439046584465e-01,0.000000000000000000e+00
4.850000000000000000e+02,-1.703924309539836257e-01,0.000000000000000000e+00
4.860000000000000000e+02,-8.182541270946390444e-02,0.000000000000000000e+00
4.870000000000000000e+02,1.329213310057937060e-02,0.000000000000000000e+00
4.880000000000000000e+02,-4.629319214715506975e-02,0.000000000000000000e+00
4.890000000000000000e+02,-4.580716134425662223e-02,0.000000000000000000e+00
4.900000000000000000e+02,-4.791140334877386220e-02,0.000000000000000000e+00
4.910000000000000000e+02,-7.913434061623807192e-03,0.000000000000000000e+00
4.920000000000000000e+02,5.809989446372426647e-02,0.000000000000000000e+00
4.930000000000000000e+02,2.336939138891374057e-01,0.000000000000000000e+00
4.940000000000000000e+02,5.984969929601541283e-01,0.000000000000000000e+00
4.950000000000000000e+02,6.843025942985111465e-01,0.000000000000000000e+00
4.960000000000000000e+02,4.337791190077202041e-01,0.000000000000000000e+00
4.970000000000000000e+02,8.470864483617682184e-02,0.000000000000000000e+00
4.980000000000000000e+02,-2.845887624117178771e-01,0.000000000000000000e+00
4.990000000000000000e+02,-3.160073344841971554e-01,0.000000000000000000e+00
5.000000000000000000e+02,-1.554234036161330768e-01,0.000000000000000000e+00
5.010000000000000000e+02,-3.815449188372156963e-01,0.000000000000000000e+00
5.020000000000000000e+02,1.190972471154204460e+00,0.000000000000000000e+00
5.030000000000000000e+02,2.846568332162050297e+00,0.000000000000000000e+00
5.040000000000000000e+02,-2.868217319271586074e+00,1.000000000000000000e+00
5.050000000000000000e+02,-1.805911864073314055e+00,0.000000000000000000e+00
5.060000000000000000e+02,-2.541042041811323315e-01,0.000000000000000000e+00
5.070000000000000000e+02,-6.994446209858432018e-02,0.000000000000000000e+00
5.080000000000000000e+02,-1.114537023310963569e-02,0.000000000000000000e+00
5.090000000000000000e+02,2.549424479278007971e-01,0.000000000000000000e+00
5.100000000000000000e+02,2.166427268740663548e-01,0.000000000000000000e+00
5.110000000000000000e+02,2.875236114399817300e-01,0.000000000000000000e+00
5.120000000000000000e+02,4.282404184042318263e-01,0.000000000000000000e+00
5.130000000000000000e+02,4.095819206072416341e-01,0.000000000000000000e+00
5.140000000000000000e+02,5.211953060976484142e-01,0.000000000000000000e+00
5.150000000000000000e+02,5.126491524019460844e-01,0.000000000000000000e+00
5.160000000000000000e+02,5.399939589220531522e-01,0.000000000000000000e+00
5.170000000000000000e+02,4.774030642445576955e-01,0.000000000000000000e+00
5.180000000000000000e+02,4.520237069572041189e-01,0.000000000000000000e+00
5.190000000000000000e+02,2.922694177107944546e-01,0.000000000000000000e+00
5.200000000000000000e+02,3.678597429787588413e-01,0.000000000000000000e+00
5.210000000000000000e+02,2.070990552230158877e-01,0.000000000000000000e+00
5.220000000000000000e+02,1.070496599829321160e-01,0.000000000000000000e+00
5.230000000000000000e+02,6.277979999286442681e-02,0.000000000000000000e+00
5.240000000000000000e+02,4.349158096312110561e-02,0.000000000000000000e+00
5.250000000000000000e+02,-1.296871205996210918e-01,0.000000000000000000e+00
5.260000000000000000e+02,1.985327948054287084e-02,0.000000000000000000e+00
5.270000000000000000e+02,2.072423111928257955e-02,0.000000000000000000e+00
5.280000000000000000e+02,-1.050366291181892842e-01,0.000000000000000000e+00
5.290000000000000000e+02,-9.170805806826029527e-02,0.000000000000000000e+00
5.300000000000000000e+02,4.728384805159336485e-02,0.000000000000000000e+00
5.310000000000000000e+02,1.154879189339298312e-01,0.000000000000000000e+00
5.320000000000000000e+02,2.916920846567286896e-01,0.000000000000000000e+00
5.330000000000000000e+02,5.302709150347023614e-01,0.000000000000000000e+00
5.340000000000000000e+02,4.294351756080687088e-01,0.000000000000000000e+00
5.350000000000000000e+02,5.119294313550114550e-01,0.000000000000000000e+00
5.360000000000000000e+02,-7.212735775397541294e-02,0.000000000000000000e+00
5.370000000000000000e+02,-3.320910879639415447e-01,0.000000000000000000e+00
5.380000000000000000e+02,-4.082822569381825972e-01,0.000000000000000000e+00
5.390000000000000000e+02,-3.245746117501920880e-01,0.000000000000000000e+00
5.400000000000000000e+02,1.450629304853039148e-01,0.000000000000000000e+00
5.410000000000000000e+02,8.829366660930481059e-01,0.000000000000000000e+00
5.420000000000000000e+02,-4.808762592624511889e+00,0.000000000000000000e+00
5.430000000000000000e+02,-4.852258527724629289e+00,0.000000000000000000e+00
5.440000000000000000e+02,-3.330926264080354415e-01,1.000000000000000000e+00
5.450000000000000000e+02,8.318231037031306174e-01,0.000000000000000000e+00
5.460000000000000000e+02,1.210702513349226406e+00,0.000000000000000000e+00
5.470000000000000000e+02,1.130707402904343573e+00,0.000000000000000000e+00
5.480000000000000000e+02,1.300352982253908385e+00,0.000000000000000000e+00
5.490000000000000000e+02,1.005817493904942017e+00,0.000000000000000000e+00
5.500000000000000000e+02,1.280697479716309761e+00,0.000000000000000000e+00
5.510000000000000000e+02,1.239881844186918824e+00,0.000000000000000000e+00
5.520000000000000000e+02,1.379606065309818108e+00,0.000000000000000000e+00
5.530000000000000000e+02,1.455257597676898218e+00,0.000000000000000000e+00
5.540000000000000000e+02,1.722659028591862151e+00,0.000000000000000000e+00
5.550000000000000000e+02,1.799295903769429161e+00,0.000000000000000000e+00
5.560000000000000000e+02,2.008263377180671050e+00,0.000000000000000000e+00
5.570000000000000000e+02,1.209914459874959380e+00,0.000000000000000000e+00
5.580000000000000000e+02,3.715534954183992156e-01,0.000000000000000000e+00
5.590000000000000000e+02,-5.166590496730977256e-01,0.000000000000000000e+00
5.600000000000000000e+02,-9.643822604660501341e-01,0.000000000000000000e+00
5.610000000000000000e+02,-1.103800287225014554e+00,0.000000000000000000e+00
5.620000000000000000e+02,-1.039079768182297414e+00,0.000000000000000000e+00
5.630000000000000000e+02,-1.144039455164668651e+00,0.000000000000000000e+00
5.640000000000000000e+02,-1.017526237627611740e+00,0.000000000000000000e+00
5.650000000000000000e+02,-9.588755604607218652e-01,0.000000000000000000e+00
5.660000000000000000e+02,-9.104681248377696212e-01,0.000000000000000000e+00
5.670000000000000000e+02,-8.279365354138898958e-01,0.000000000000000000e+00
5.680000000000000000e+02,-6.668694651862381306e-01,0.000000000000000000e+00
5.690000000000000000e+02,-5.852183757468317760e-01,0.000000000000000000e+00
5.700000000000000000e+02,-5.113118377639681578e-01,0.000000000000000000e+00
5.710000000000000000e+02,-5.847455635186050715e-01,0.000000000000000000e+00
5.720000000000000000e+02,6.905594597308469321e-03,0.000000000000000000e+00
5.730000000000000000e+02,-6.060190456907441764e-02,0.000000000000000000e+00
5.740000000000000000e+02,8.852817843782696816e-02,0.000000000000000000e+00
5.750000000000000000e+02,1.273553312899453616e-01,0.000000000000000000e+00
5.760000000000000000e+02,-1.173838505253790715e-01,0.000000000000000000e+00
5.770000000000000000e+02,-7.700370576720444449e-01,0.000000000000000000e+00
5.780000000000000000e+02,-5.117388815473127295e-01,0.000000000000000000e+00
5.790000000000000000e+02,-7.495813952093514088e-01,0.000000000000000000e+00
5.800000000000000000e+02,-4.079873492118988865e-01,0.000000000000000000e+00
5.810000000000000000e+02,-6.114351225596555972e-01,0.000000000000000000e+00
5.820000000000000000e+02,3.041770471577654344e+00,0.000000000000000000e+00
5.830000000000000000e+02,2.002854693532339636e-01,1.000000000000000000e+00
5.840000000000000000e+02,-3.457197041394159509e+00,0.000000000000000000e+00
5.850000000000000000e+02,-5.758546123715173604e-01,0.000000000000000000e+00
5.860000000000000000e+02,-5.948736995681855877e-01,0.000000000000000000e+00
5.870000000000000000e+02,5.056249085389776660e-02,0.000000000000000000e+00
5.880000000000000000e+02,-2.600752150983399735e-01,0.000000000000000000e+00
5.890000000000000000e+02,2.051453020092444679e-01,0.000000000000000000e+00
5.900000000000000000e+02,-2.873173430315952709e-02,0.000000000000000000e+00
5.910000000000000000e+02,2.462287456398198904e-01,0.000000000000000000e+00
5.920000000000000000e+02,8.287398346273427974e-02,0.000000000000000000e+00
5.930000000000000000e+02,4.411444311400150586e-01,0.000000000000000000e+00
5.940000000000000000e+02,2.910593330961910863e-01,0.000000000000000000e+00
5.950000000000000000e+02,5.579866709266233515e-01,0.000000000000000000e+00
5.960000000000000000e+02,3.969935052438323120e-01,0.000000000000000000e+00
5.970000000000000000e+02,4.989933143982682173e-01,0.000000000000000000e+00
5.980000000000000000e+02,4.727102260741353756e-01,0.000000000000000000e+00
5.990000000000000000e+02,5.236096447145403010e-01,0.000000000000000000e+00
6.000000000000000000e+02,1.167784224988315661e-01,0.000000000000000000e+00
6.010000000000000000e+02,1.854694882604777106e-01,0.000000000000000000e+00
6.020000000000000000e+02,-2.502146938603316828e-01,0.000000000000000000e+00
6.030000000000000000e+02,-4.822358033881558870e-02,0.000000000000000000e+00
6.040000000000000000e+02,-1.516557628427330218e-01,0.000000000000000000e+00
6.050000000000000000e+02,1.340569987924097352e-02,0.000000000000000000e+00
6.060000000000000000e+02,-1.912507801274296315e-01,0.000000000000000000e+00
6.070000000000000000e+02,-1.472788798140399202e-01,0.000000000000000000e+00
6.080000000000000000e+02,-2.347061164305323522e-01,0.000000000000000000e+00
6.090000000000000000e+02,2.710862934790701437e-02,0.000000000000000000e+00
6.100000000000000000e+02,-1.337841178857727409e-01,0.000000000000000000e+00
6.110000000000000000e+02,5.660944103516812528e-03,0.000000000000000000e+00
6.120000000000000000e+02,-1.438959075818201927e-01,0.000000000000000000e+00
6.130000000000000000e+02,4.256715521235877042e-01,0.000000000000000000e+00
6.140000000000000000e+02,3.829972319529286739e-01,0.000000000000000000e+00
6.150000000000000000e+02,6.342993259132601036e-01,0.000000000000000000e+00
6.160000000000000000e+02,5.770086346252204512e-01,0.000000000000000000e+00
6.170000000000000000e+02,2.179506333621868963e-01,0.000000000000000000e+00
6.180000000000000000e+02,-5.527195014100356740e-01,0.000000000000000000e+00
6.190000000000000000e+02,-1.142317518085921579e-01,0.000000000000000000e+00
6.200000000000000000e+02,-6.306158588202755988e-01,0.000000000000000000e+00
6.210000000000000000e+02,3.647943775532270193e-03,0.000000000000000000e+00
6.220000000000000000e+02,-4.349726388151527456e-01,0.000000000000000000e+00
6.230000000000000000e+02,3.207220087056472213e+00,0.000000000000000000e+00
6.240000000000000000e+02,3.439306117342890157e-01,1.000000000000000000e+00
6.250000000000000000e+02,-3.158267241096394784e+00,0.000000000000000000e+00
6.260000000000000000e+02,-5.564028605587597598e-01,0.000000000000000000e+00
6.270000000000000000e+02,-3.405538919168819567e-01,0.000000000000000000e+00
6.280000000000000000e+02,9.239322132326033277e-02,0.000000000000000000e+00
6.290000000000000000e+02,-2.156561024106647823e-02,0.000000000000000000e+00
6.300000000000000000e+02,1.922141927112136217e-01,0.000000000000000000e+00
6.310000000000000000e+02,1.539363083102338048e-01,0.000000000000000000e+00
6.320000000000000000e+02,3.694937350848548907e-01,0.000000000000000000e+00
6.330000000000000000e+02,2.745245178942060660e-01,0.000000000000000000e+00
6.340000000000000000e+02,3.743329063745856056e-01,0.000000000000000000e+00
6.350000000000000000e+02,3.791438465341643860e-01,0.000000000000000000e+00
6.360000000000000000e+02,3.660659812031627491e-01,0.000000000000000000e+00
6.370000000000000000e+02,6.210909433314084627e-01,0.000000000000000000e+00
6.380000000000000000e+02,6.431846850019586892e-01,0.000000000000000000e+00
6.390000000000000000e+02,5.338387742231668343e-01,0.000000000000000000e+00
6.400000000000000000e+02,3.990668640250251142e-01,0.000000000000000000e+00
6.410000000000000000e+02,-1.406656899646779868e-03,0.000000000000000000e+00
6.420000000000000000e+02,-1.338847914244154225e-01,0.000000000000000000e+00
6.430000000000000000e+02,-1.330647674787532875e-01,0.000000000000000000e+00
6.440000000000000000e+02,-2.805322657122713559e-01,0.000000000000000000e+00
6.450000000000000000e+02,-2.108422556922505409e-01,0.000000000000000000e+00
6.460000000000000000e+02,-2.039818699089459286e-01,0.000000000000000000e+00
6.470000000000000000e+02,-2.719489401963518516e-01,0.000000000000000000e+00
6.480000000000000000e+02,-3.571933816248201166e-01,0.000000000000000000e+00
6.490000000000000000e+02,-1.637723246409318045e-01,0.000000000000000000e+00
6.500000000000000000e+02,-2.433292696265655641e-01,0.000000000000000000e+00
6.510000000000000000e+02,-9.862928094163829484e-02,0.000000000000000000e+00
6.520000000000000000e+02,-2.055612400444442600e-01,0.000000000000000000e+00
6.530000000000000000e+02,6.760056263683954514e-01,0.000000000000000000e+00
6.540000000000000000e+02,1.507556120529038833e-02,0.000000000000000000e+00
6.550000000000000000e+02,-5.577271731041809844e+00,0.000000000000000000e+00
6.560000000000000000e+02,-3.701891963140975239e+00,1.000000000000000000e+00
6.570000000000000000e+02,4.543594758032478698e-01,0.000000000000000000e+00
6.580000000000000000e+02,1.742843094235356327e+00,0.000000000000000000e+00
6.590000000000000000e+02,1.301223338555562714e+00,0.000000000000000000e+00
6.600000000000000000e+02,1.359612277274257153e+00,0.000000000000000000e+00
6.610000000000000000e+02,1.099552585276253103e+00,0.000000000000000000e+00
6.620000000000000000e+02,1.170974114366116314e+00,0.000000000000000000e+00
6.630000000000000000e+02,1.135143177089796396e+00,0.000000000000000000e+00
6.640000000000000000e+02,1.357710340471320221e+00,0.000000000000000000e+00
6.650000000000000000e+02,1.363729744736851712e+00,0.000000000000000000e+00
6.660000000000000000e+02,1.705574984597961752e+00,0.000000000000000000e+00
6.670000000000000000e+02,1.659625237410227827e+00,0.000000000000000000e+00
6.680000000000000000e+02,1.918429784707209595e+00,0.000000000000000000e+00
6.690000000000000000e+02,1.802520760860975013e+00,0.000000000000000000e+00
6.700000000000000000e+02,9.020827447913121189e-01,0.000000000000000000e+00
6.710000000000000000e+02,-8.463007044394972589e-02,0.000000000000000000e+00
6.720000000000000000e+02,-7.096516491929609760e-01,0.000000000000000000e+00
6.730000000000000000e+02,-1.136268692956210247e+00,0.000000000000000000e+00
6.740000000000000000e+02,-1.060904354749365952e+00,0.000000000000000000e+00
6.750000000000000000e+02,-1.091117878503983007e+00,0.000000000000000000e+00
6.760000000000000000e+02,-1.067974018186203411e+00,0.000000000000000000e+00
6.770000000000000000e+02,-1.015439734436573760e+00,0.000000000000000000e+00
6.780000000000000000e+02,-8.354346900069935522e-01,0.000000000000000000e+00
6.790000000000000000e+02,-8.444364057005501190e-01,0.000000000000000000e+00
6.800000000000000000e+02,-7.106913591679462350e-01,0.000000000000000000e+00
6.810000000000000000e+02,-7.010317135353205664e-01,0.000000000000000000e+00
6.820000000000000000e+02,-7.036806951824385870e-01,0.000000000000000000e+00
6.830000000000000000e+02,-6.671981063593077632e-01,0.000000000000000000e+00
6.840000000000000000e+02,-5.731413637583891996e-01,0.000000000000000000e+00
6.850000000000000000e+02,-4.966354957365720080e-01,0.000000000000000000e+00
6.860000000000000000e+02,-4.818866545722867434e-01,0.000000000000000000e+00
6.870000000000000000e+02,-4.089386297276276228e-01,0.000000000000000000e+00
6.880000000000000000e+02,-4.993076309645867461e-01,0.000000000000000000e+00
6.890000000000000000e+02,-4.156091849544547023e-01,0.000000000000000000e+00
6.900000000000000000e+02,-4.026001517066074009e-01,0.000000000000000000e+00
6.910000000000000000e+02,-2.539784808727250653e-01,0.000000000000000000e+00
6.920000000000000000e+02,-2.105460747257001108e-01,0.000000000000000000e+00
6.930000000000000000e+02,-2.147592797261773934e-01,0.000000000000000000e+00
6.940000000000000000e+02,-2.195973007123753207e-01,0.000000000000000000e+00
6.950000000000000000e+02,-1.147433429836184349e-01,0.000000000000000000e+00
6.960000000000000000e+02,-1.257534607386580905e-01,0.000000000000000000e+00
6.970000000000000000e+02,-2.504833055613906248e-02,0.000000000000000000e+00
6.980000000000000000e+02,-9.590173378795206760e-02,0.000000000000000000e+00
6.990000000000000000e+02,1.659307904692284286e-01,0.000000000000000000e+00
7.000000000000000000e+02,1.917375573094323160e-01,0.000000000000000000e+00
7.010000000000000000e+02,5.631758566076413564e-01,0.000000000000000000e+00
7.020000000000000000e+02,4.986652429341327797e-01,0.000000000000000000e+00
7.030000000000000000e+02,4.542355344637030723e-01,0.000000000000000000e+00
7.040000000000000000e+02,-2.364782834088722252e-01,0.000000000000000000e+00
7.050000000000000000e+02,-1.662860919616888644e-01,0.000000000000000000e+00
7.060000000000000000e+02,-2.910021953624525870e-01,0.000000000000000000e+00
7.070000000000000000e+02,-4.732498497743160837e-02,0.000000000000000000e+00
7.080000000000000000e+02,-2.287857250320013969e-01,0.000000000000000000e+00
7.090000000000000000e+02,2.828362253746659061e+00,0.000000000000000000e+00
7.100000000000000000e+02,1.235334217739862739e+00,0.000000000000000000e+00
7.110000000000000000e+02,-3.135140369576049579e+00,0.000000000000000000e+00
7.120000000000000000e+02,-7.402481726561398467e-01,1.000000000000000000e+00
7.130000000000000000e+02,-3.388371062706046488e-01,0.000000000000000000e+00
7.140000000000000000e+02,1.558175690331811691e-01,0.000000000000000000e+00
7.150000000000000000e+02,-4.410014503551486914e-02,0.000000000000000000e+00
7.160000000000000000e+02,2.506352143971311008e-01,0.000000000000000000e+00
7.170000000000000000e+02,1.092238114274091260e-01,0.000000000000000000e+00
7.180000000000000000e+02,2.798134369210415473e-01,0.000000000000000000e+00
7.190000000000000000e+02,2.157873349240322647e-01,0.000000000000000000e+00
7.200000000000000000e+02,4.711828353611288156e-01,0.000000000000000000e+00
7.210000000000000000e+02,3.175099875130783511e-01,0.000000000000000000e+00
7.220000000000000000e+02,6.009293867540550504e-01,0.000000000000000000e+00
7.230000000000000000e+02,3.118240980631616921e-01,0.000000000000000000e+00
7.240000000000000000e+02,5.935054947931660552e-01,0.000000000000000000e+00
7.250000000000000000e+02,4.785467772018879851e-01,0.000000000000000000e+00
7.260000000000000000e+02,4.660481969735482122e-01,0.000000000000000000e+00
7.270000000000000000e+02,2.588861449042714202e-01,0.000000000000000000e+00
7.280000000000000000e+02,2.153292292521098994e-01,0.000000000000000000e+00
7.290000000000000000e+02,-3.078159256241436714e-01,0.000000000000000000e+00
7.300000000000000000e+02,-3.938995120624687318e-02,0.000000000000000000e+00
7.310000000000000000e+02,-1.890130716965389979e-01,0.000000000000000000e+00
7.320000000000000000e+02,-1.036978930994785913e-01,0.000000000000000000e+00
7.330000000000000000e+02,-2.548809896818461929e-01,0.000000000000000000e+00
7.340000000000000000e+02,-1.186367860232540594e-01,0.000000000000000000e+00
7.350000000000000000e+02,-2.066179986768892918e-01,0.000000000000000000e+00
7.360000000000000000e+02,-1.066565631133589570e-01,0.000000000000000000e+00
7.370000000000000000e+02,-1.023100423039083884e-01,0.000000000000000000e+00
7.380000000000000000e+02,1.855880274060292545e-02,0.000000000000000000e+00
7.390000000000000000e+02,9.448663386049800661e-02,0.000000000000000000e+00
7.400000000000000000e+02,3.837793390423778206e-01,0.000000000000000000e+00
7.410000000000000000e+02,4.900069696416020082e-01,0.000000000000000000e+00
7.420000000000000000e+02,6.022159463760108356e-01,0.000000000000000000e+00
7.430000000000000000e+02,4.393698739080394433e-01,0.000000000000000000e+00
7.440000000000000000e+02,-8.348535821753191866e-02,0.000000000000000000e+00
7.450000000000000000e+02,-4.587959359759347100e-01,0.000000000000000000e+00
7.460000000000000000e+02,-2.892531956906047030e-01,0.000000000000000000e+00
7.470000000000000000e+02,-3.904643131822774782e-01,0.000000000000000000e+00
7.480000000000000000e+02,-3.534763740347338645e-01,0.000000000000000000e+00
7.490000000000000000e+02,7.027444041153038112e-01,0.000000000000000000e+00
7.500000000000000000e+02,3.299190954325008196e+00,0.000000000000000000e+00
7.510000000000000000e+02,-1.846388376941903831e+00,1.000000000000000000e+00
7.520000000000000000e+02,-2.178605270959651730e+00,0.000000000000000000e+00
7.530000000000000000e+02,-4.079231446385642168e-01,0.000000000000000000e+00
7.540000000000000000e+02,-2.632689184744876898e-01,0.000000000000000000e+00
7.550000000000000000e+02,-1.000463176325542825e-01,0.000000000000000000e+00
7.560000000000000000e+02,-4.787954123452504984e-02,0.000000000000000000e+00
7.570000000000000000e+02,1.523959551035108384e-01,0.000000000000000000e+00
7.580000000000000000e+02,9.121241348027026019e-02,0.000000000000000000e+00
7.590000000000000000e+02,1.978901735296297315e-01,0.000000000000000000e+00
7.600000000000000000e+02,2.438188539564607460e-01,0.000000000000000000e+00
7.610000000000000000e+02,2.591815303454754194e-01,0.000000000000000000e+00
7.620000000000000000e+02,2.685121852642418649e-01,0.000000000000000000e+00
7.630000000000000000e+02,4.922549503836333717e-01,0.000000000000000000e+00
7.640000000000000000e+02,4.543405167184298432e-01,0.000000000000000000e+00
7.650000000000000000e+02,3.872195967489021617e-01,0.000000000000000000e+00
7.660000000000000000e+02,3.675899238950129377e-01,0.000000000000000000e+00
7.670000000000000000e+02,2.329555747304810076e-01,0.000000000000000000e+00
7.680000000000000000e+02,-1.035494788881224969e-03,0.000000000000000000e+00
7.690000000000000000e+02,-2.319477359641912984e-01,0.000000000000000000e+00
7.700000000000000000e+02,-2.431849104736323597e-01,0.000000000000000000e+00
7.710000000000000000e+02,-3.169499756388988732e-01,0.000000000000000000e+00
7.720000000000000000e+02,-2.410838249024336577e-01,0.000000000000000000e+00
7.730000000000000000e+02,-1.673089337958210410e-01,0.000000000000000000e+00
7.740000000000000000e+02,-1.936643519814333914e-01,0.000000000000000000e+00
7.750000000000000000e+02,-2.566717300241536659e-01,0.000000000000000000e+00
7.760000000000000000e+02,-2.248745323867608614e-01,0.000000000000000000e+00
7.770000000000000000e+02,-3.477622712725781384e-01,0.000000000000000000e+00
7.780000000000000000e+02,-1.286857541543053318e-01,0.000000000000000000e+00
7.790000000000000000e+02,-1.867295819287554115e-01,0.000000000000000000e+00
7.800000000000000000e+02,-1.692166412146790533e-01,0.000000000000000000e+00
7.810000000000000000e+02,-6.053827825893465242e-02,0.000000000000000000e+00
7.820000000000000000e+02,5.764997682212244512e-02,0.000000000000000000e+00
7.830000000000000000e+02,-1.305238136367206370e-01,0.000000000000000000e+00
7.840000000000000000e+02,2.582606830206892190e-01,0.000000000000000000e+00
7.850000000000000000e+02,3.991125193226554013e-01,0.000000000000000000e+00
7.860000000000000000e+02,5.826484788109889124e-01,0.000000000000000000e+00
7.870000000000000000e+02,5.613173660898117534e-01,0.000000000000000000e+00
7.880000000000000000e+02,1.342364716633661081e-01,0.000000000000000000e+00
7.890000000000000000e+02,-4.821425379759726182e-01,0.000000000000000000e+00
7.900000000000000000e+02,-2.899260544267804884e-01,0.000000000000000000e+00
7.910000000000000000e+02,-6.343231459613314360e-01,0.000000000000000000e+00
7.920000000000000000e+02,-1.152234431472334286e-01,0.000000000000000000e+00
7.930000000000000000e+02,-6.144606798286668115e-01,0.000000000000000000e+00
7.940000000000000000e+02,1.934668403506463852e+00,0.000000000000000000e+00
7.950000000000000000e+02,2.790211694664697983e+00,0.000000000000000000e+00
7.960000000000000000e+02,-2.860572247485187347e+00,1.000000000000000000e+00
7.970000000000000000e+02,-1.576483255777040515e+00,0.000000000000000000e+00
7.980000000000000000e+02,-5.564380608573258336e-01,0.000000000000000000e+00
7.990000000000000000e+02,-1.296239931839141546e-01,0.000000000000000000e+00
8.000000000000000000e+02,-2.266334172809854053e-01,0.000000000000000000e+00
8.010000000000000000e+02,-2.612958786534625918e-02,0.000000000000000000e+00
8.020000000000000000e+02,2.731800681687008084e-02,0.000000000000000000e+00
8.030000000000000000e+02,-2.700387217860665892e-02,0.000000000000000000e+00
8.040000000000000000e+02,1.537055536888044804e-01,0.000000000000000000e+00
8.050000000000000000e+02,1.558891606903767268e-01,0.000000000000000000e+00
8.060000000000000000e+02,2.225287929521005126e-01,0.000000000000000000e+00
8.070000000000000000e+02,3.034807891792909995e-01,0.000000000000000000e+00
8.080000000000000000e+02,3.788644060573374550e-01,0.000000000000000000e+00
8.090000000000000000e+02,3.842137114352670024e-01,0.000000000000000000e+00
8.100000000000000000e+02,4.889107075050689866e-01,0.000000000000000000e+00
8.110000000000000000e+02,4.765399824858395084e-01,0.000000000000000000e+00
8.120000000000000000e+02,2.671119700305734090e-01,0.000000000000000000e+00
8.130000000000000000e+02,-3.172506944260250483e-02,0.000000000000000000e+00
8.140000000000000000e+02,-7.599610771498736816e-02,0.000000000000000000e+00
8.150000000000000000e+02,-2.450034444114918830e-01,0.000000000000000000e+00
8.160000000000000000e+02,-1.449021013177060058e-01,0.000000000000000000e+00
8.170000000000000000e+02,-1.528743136252737889e-01,0.000000000000000000e+00
8.180000000000000000e+02,-2.451164958085475798e-01,0.000000000000000000e+00
8.190000000000000000e+02,-1.718935024999921346e-01,0.000000000000000000e+00
8.200000000000000000e+02,-2.550036801970819167e-01,0.000000000000000000e+00
8.210000000000000000e+02,-2.998197803071183665e-01,0.000000000000000000e+00
8.220000000000000000e+02,-1.668599563286072007e-01,0.000000000000000000e+00
8.230000000000000000e+02,-2.758591427385457817e-01,0.000000000000000000e+00
8.240000000000000000e+02,-1.546070456254121372e-01,0.000000000000000000e+00
8.250000000000000000e+02,-2.605564751724255279e-01,0.000000000000000000e+00
8.260000000000000000e+02,3.794302613242131385e-03,0.000000000000000000e+00
8.270000000000000000e+02,-1.427146670099250780e-01,0.000000000000000000e+00
8.280000000000000000e+02,1.875968783714748733e-01,0.000000000000000000e+00
8.290000000000000000e+02,5.096365892406578002e-01,0.000000000000000000e+00
8.300000000000000000e+02,2.416284776344916452e+00,0.000000000000000000e+00
8.310000000000000000e+02,-3.494637152413500480e+00,0.000000000000000000e+00
8.320000000000000000e+02,-5.486778600116558380e+00,0.000000000000000000e+00
8.330000000000000000e+02,-4.392461980728148974e-01,1.000000000000000000e+00
8.340000000000000000e+02,1.028335182354408461e+00,0.000000000000000000e+00
8.350000000000000000e+02,1.074461762331258674e+00,0.000000000000000000e+00
8.360000000000000000e+02,1.019418321858735599e+00,0.000000000000000000e+00
8.370000000000000000e+02,8.680746099371460245e-01,0.000000000000000000e+00
8.380000000000000000e+02,8.932843044194109794e-01,0.000000000000000000e+00
8.390000000000000000e+02,9.128363407336165247e-01,0.000000000000000000e+00
8.400000000000000000e+02,1.088140986120186726e+00,0.000000000000000000e+00
8.410000000000000000e+02,1.163570970363703827e+00,0.000000000000000000e+00
8.420000000000000000e+02,1.364975523528228596e+00,0.000000000000000000e+00
8.430000000000000000e+02,1.649623571440214320e+00,0.000000000000000000e+00
8.440000000000000000e+02,1.899455810293257940e+00,0.000000000000000000e+00
8.450000000000000000e+02,1.984206508535945712e+00,0.000000000000000000e+00
8.460000000000000000e+02,1.458277879891551887e+00,0.000000000000000000e+00
8.470000000000000000e+02,4.187511570100579950e-01,0.000000000000000000e+00
8.480000000000000000e+02,-4.664054701922021318e-01,0.000000000000000000e+00
8.490000000000000000e+02,-1.038807084084496291e+00,0.000000000000000000e+00
8.500000000000000000e+02,-1.110312143169669641e+00,0.000000000000000000e+00
8.510000000000000000e+02,-1.108585679945304658e+00,0.000000000000000000e+00
8.520000000000000000e+02,-1.090990078574010758e+00,0.000000000000000000e+00
8.530000000000000000e+02,-9.735143317112393557e-01,0.000000000000000000e+00
8.540000000000000000e+02,-9.228887002729992961e-01,0.000000000000000000e+00
8.550000000000000000e+02,-8.560923218640131838e-01,0.000000000000000000e+00
8.560000000000000000e+02,-7.052082754868310710e-01,0.000000000000000000e+00
8.570000000000000000e+02,-5.846840916987362524e-01,0.000000000000000000e+00
8.580000000000000000e+02,-6.143980956952771466e-01,0.000000000000000000e+00
8.590000000000000000e+02,-4.819814828609620405e-01,0.000000000000000000e+00
8.600000000000000000e+02,-4.574341066495446473e-01,0.000000000000000000e+00
8.610000000000000000e+02,-3.788138327286489360e-01,0.000000000000000000e+00
8.620000000000000000e+02,-5.043067094990207888e-01,0.000000000000000000e+00
8.630000000000000000e+02,-3.506580489876313655e-01,0.000000000000000000e+00
8.640000000000000000e+02,-3.738416136479765783e-01,0.000000000000000000e+00
8.650000000000000000e+02,-3.378921093694121636e-01,0.000000000000000000e+00
8.660000000000000000e+02,-1.838905046085955730e-01,0.000000000000000000e+00
8.670000000000000000e+02,-2.689195245345982754e-01,0.000000000000000000e+00
8.680000000000000000e+02,-1.978024589356484897e-01,0.000000000000000000e+00
8.690000000000000000e+02,-9.928653444551807650e-02,0.000000000000000000e+00
8.700000000000000000e+02,-1.718681684251068265e-01,0.000000000000000000e+00
8.710000000000000000e+02,-7.903474031463103566e-02,0.000000000000000000e+00
8.720000000000000000e+02,4.341485820892073029e-03,0.000000000000000000e+00
8.730000000000000000e+02,-7.541372126172302126e-02,0.000000000000000000e+00
8.740000000000000000e+02,1.222331268079578093e-01,0.000000000000000000e+00
8.750000000000000000e+02,-8.795448966141568292e-02,0.000000000000000000e+00
8.760000000000000000e+02,8.693864728565321720e-02,0.000000000000000000e+00
8.770000000000000000e+02,1.031386797666024729e-01,0.000000000000000000e+00
8.780000000000000000e+02,2.487028177849467947e-01,0.000000000000000000e+00
8.790000000000000000e+02,3.309900047420048091e-02,0.000000000000000000e+00
8.800000000000000000e+02,4.449746679309036779e-01,0.000000000000000000e+00
8.810000000000000000e+02,3.850109167520547881e-01,0.000000000000000000e+00
8.820000000000000000e+02,9.182357148205024799e-01,0.000000000000000000e+00
8.830000000000000000e+02,6.827023674463246206e-01,0.000000000000000000e+00
8.840000000000000000e+02,4.084982484880652631e-01,0.000000000000000000e+00
8.850000000000000000e+02,-1.601987745790905693e-01,0.000000000000000000e+00
8.860000000000000000e+02,7.642323849159912003e-03,0.000000000000000000e+00
8.870000000000000000e+02,-4.169742137555279560e-01,0.000000000000000000e+00
8.880000000000000000e+02,1.294872315310107401e-02,0.000000000000000000e+00
8.890000000000000000e+02,-2.166694442540354759e-01,0.000000000000000000e+00
8.900000000000000000e+02,3.019376644978633006e+00,0.000000000000000000e+00
8.910000000000000000e+02,1.677340600197566367e+00,0.000000000000000000e+00
8.920000000000000000e+02,-3.105593390252533226e+00,0.000000000000000000e+00
8.930000000000000000e+02,-8.518892539826121713e-01,1.000000000000000000e+00
8.940000000000000000e+02,-3.979157423157878570e-01,0.000000000000000000e+00
8.950000000000000000e+02,6.791105796994434396e-02,0.000000000000000000e+00
8.960000000000000000e+02,-1.453113110214838966e-01,0.000000000000000000e+00
8.970000000000000000e+02,1.271898510796048709e-01,0.000000000000000000e+00
8.980000000000000000e+02,7.380440223603627892e-02,0.000000000000000000e+00
8.990000000000000000e+02,2.857323486726582873e-01,0.000000000000000000e+00
9.000000000000000000e+02,1.780873921107839486e-01,0.000000000000000000e+00
9.010000000000000000e+02,3.446106532377802290e-01,0.000000000000000000e+00
9.020000000000000000e+02,3.515434029037720065e-01,0.000000000000000000e+00
9.030000000000000000e+02,4.386842661938145649e-01,0.000000000000000000e+00
9.040000000000000000e+02,3.830967167881356716e-01,0.000000000000000000e+00
9.050000000000000000e+02,4.718845853493475184e-01,0.000000000000000000e+00
9.060000000000000000e+02,4.526831042733990285e-01,0.000000000000000000e+00
9.070000000000000000e+02,5.083135409098987756e-01,0.000000000000000000e+00
9.080000000000000000e+02,3.138117161549928702e-01,0.000000000000000000e+00
9.090000000000000000e+02,-5.516585909343268285e-02,0.000000000000000000e+00
9.100000000000000000e+02,-5.792880475817134556e-02,0.000000000000000000e+00
9.110000000000000000e+02,-1.752999600150470794e-01,0.000000000000000000e+00
9.120000000000000000e+02,-3.152920619446566430e-01,0.000000000000000000e+00
9.130000000000000000e+02,-7.350184121673020154e-02,0.000000000000000000e+00
9.140000000000000000e+02,-2.307055690860903285e-01,0.000000000000000000e+00
9.150000000000000000e+02,-3.089916216132486126e-01,0.000000000000000000e+00
9.160000000000000000e+02,-4.059978888268022668e-01,0.000000000000000000e+00
9.170000000000000000e+02,-2.610258430167783361e-01,0.000000000000000000e+00
9.180000000000000000e+02,-1.752342663226467423e-01,0.000000000000000000e+00
9.190000000000000000e+02,-2.247300538813129522e-01,0.000000000000000000e+00
9.200000000000000000e+02,-9.994803269693600112e-02,0.000000000000000000e+00
9.210000000000000000e+02,-1.211352088300480523e-01,0.000000000000000000e+00
9.220000000000000000e+02,1.100125328449721440e+00,0.000000000000000000e+00
9.230000000000000000e+02,9.677543573132206811e-01,0.000000000000000000e+00
9.240000000000000000e+02,-5.198260062527509717e+00,0.000000000000000000e+00
9.250000000000000000e+02,-3.498673874554484531e+00,1.000000000000000000e+00
9.260000000000000000e+02,3.017227611854239600e-01,0.000000000000000000e+00
9.270000000000000000e+02,1.075748510862197360e+00,0.000000000000000000e+00
9.280000000000000000e+02,8.404576714942368909e-01,0.000000000000000000e+00
9.290000000000000000e+02,8.960174019912768850e-01,0.000000000000000000e+00
9.300000000000000000e+02,7.218467613903032376e-01,0.000000000000000000e+00
9.310000000000000000e+02,8.811128785424677812e-01,0.000000000000000000e+00
9.320000000000000000e+02,9.090434556346004280e-01,0.000000000000000000e+00
9.330000000000000000e+02,8.353047790154050078e-01,0.000000000000000000e+00
9.340000000000000000e+02,9.975466333060408752e-01,0.000000000000000000e+00
9.350000000000000000e+02,1.249508657370460130e+00,0.000000000000000000e+00
9.360000000000000000e+02,1.434963379165108188e+00,0.000000000000000000e+00
9.370000000000000000e+02,1.788169486406860687e+00,0.000000000000000000e+00
9.380000000000000000e+02,1.653714262231442023e+00,0.000000000000000000e+00
9.390000000000000000e+02,8.864730643577153346e-01,0.000000000000000000e+00
9.400000000000000000e+02,-6.875318472032136696e-02,0.000000000000000000e+00
9.410000000000000000e+02,-7.405467751179273250e-01,0.000000000000000000e+00
9.420000000000000000e+02,-1.140790763855356493e+00,0.000000000000000000e+00
9.430000000000000000e+02,-1.190185299739513924e+00,0.000000000000000000e+00
9.440000000000000000e+02,-1.104286686808579887e+00,0.000000000000000000e+00
9.450000000000000000e+02,-1.123758054192787181e+00,0.000000000000000000e+00
9.460000000000000000e+02,-1.006128348637963077e+00,0.000000000000000000e+00
9.470000000000000000e+02,-8.704394967940479733e-01,0.000000000000000000e+00
9.480000000000000000e+02,-8.049473798683997039e-01,0.000000000000000000e+00
9.490000000000000000e+02,-7.425048128402744751e-01,0.000000000000000000e+00
9.500000000000000000e+02,-6.735221017182332348e-01,0.000000000000000000e+00
9.510000000000000000e+02,-5.360190103699770114e-01,0.000000000000000000e+00
9.520000000000000000e+02,-6.014894441041656048e-01,0.000000000000000000e+00
9.530000000000000000e+02,-5.484529152360465565e-01,0.000000000000000000e+00
9.540000000000000000e+02,-5.113828643661076923e-01,0.000000000000000000e+00
9.550000000000000000e+02,-3.946928626068151869e-01,0.000000000000000000e+00
9.560000000000000000e+02,-2.926827832645395033e-01,0.000000000000000000e+00
9.570000000000000000e+02,-1.825702083836924783e-01,0.000000000000000000e+00
9.580000000000000000e+02,-2.948513955035025891e-01,0.000000000000000000e+00
9.590000000000000000e+02,-2.071211414682540553e-01,0.000000000000000000e+00
9.600000000000000000e+02,-1.628153296703644670e-01,0.000000000000000000e+00
9.610000000000000000e+02,-1.502972129016427183e-01,0.000000000000000000e+00
9.620000000000000000e+02,-5.065232563326772103e-02,0.000000000000000000e+00
9.630000000000000000e+02,-6.827155695395176194e-02,0.000000000000000000e+00
9.640000000000000000e+02,5.999270023709236260e-02,0.000000000000000000e+00
9.650000000000000000e+02,-3.071357020289561517e-03,0.000000000000000000e+00
9.660000000000000000e+02,4.676530957702107472e-02,0.000000000000000000e+00
9.670000000000000000e+02,2.175421047409212705e-03,0.000000000000000000e+00
9.680000000000000000e+02,2.560031232928040579e-01,0.000000000000000000e+00
9.690000000000000000e+02,3.796655507124392370e-01,0.000000000000000000e+00
9.700000000000000000e+02,7.514673772991514733e-01,0.000000000000000000e+00
9.710000000000000000e+02,6.974617197292508619e-01,0.000000000000000000e+00
9.720000000000000000e+02,3.773582034949232722e-01,0.000000000000000000e+00
9.730000000000000000e+02,-1.678204751131118777e-01,0.000000000000000000e+00
9.740000000000000000e+02,-8.117562802482818085e-02,0.000000000000000000e+00
9.750000000000000000e+02,-2.507937238527758739e-01,0.000000000000000000e+00
9.760000000000000000e+02,-4.224492386101513092e-02,0.000000000000000000e+00
9.770000000000000000e+02,-1.386004749641047695e-01,0.000000000000000000e+00
9.780000000000000000e+02,2.480237392389903039e+00,0.000000000000000000e+00
9.790000000000000000e+02,2.317708254678457980e+00,0.000000000000000000e+00
9.800000000000000000e+02,-2.444422968489944559e+00,1.000000000000000000e+00
9.810000000000000000e+02,-1.221652052443466863e+00,0.000000000000000000e+00
9.820000000000000000e+02,-3.027095840733146082e-01,0.000000000000000000e+00
9.830000000000000000e+02,-1.354324711215001108e-02,0.000000000000000000e+00
9.840000000000000000e+02,-8.734185722871938562e-02,0.000000000000000000e+00
9.850000000000000000e+02,2.338105435623817341e-01,0.000000000000000000e+00
9.860000000000000000e+02,6.391715888441405757e-02,0.000000000000000000e+00
9.870000000000000000e+02,3.140007628333397194e-01,0.000000000000000000e+00
9.880000000000000000e+02,2.150004793747987142e-01,0.000000000000000000e+00
9.890000000000000000e+02,3.534970959631437148e-01,0.000000000000000000e+00
9.900000000000000000e+02,4.370297862252819354e-01,0.000000000000000000e+00
9.910000000000000000e+02,4.097602780659531652e-01,0.000000000000000000e+00
9.920000000000000000e+02,4.269421574656572238e-01,0.000000000000000000e+00
9.930000000000000000e+02,5.268155897951966038e-01,0.000000000000000000e+00
9.940000000000000000e+02,3.784537033553901919e-01,0.000000000000000000e+00
9.950000000000000000e+02,5.288083399636730464e-01,0.000000000000000000e+00
9.960000000000000000e+02,4.575567570694505370e-01,0.000000000000000000e+00
9.970000000000000000e+02,3.131920882721050403e-01,0.000000000000000000e+00
9.980000000000000000e+02,1.779456215494774340e-01,0.000000000000000000e+00
9.990000000000000000e+02,5.338587729323878567e-02,0.000000000000000000e+00
1.000000000000000000e+03,-7.939061111422826555e-02,0.000000000000000000e+00
1.001000000000000000e+03,2.312496640964552611e-02,0.000000000000000000e+00
1.002000000000000000e+03,-9.512685540616748481e-02,0.000000000000000000e+00
1.003000000000000000e+03,2.663090614435717138e-02,0.000000000000000000e+00
1.004000000000000000e+03,-1.907299083263693240e-01,0.000000000000000000e+00
1.005000000000000000e+03,-6.358297453108704977e-02,0.000000000000000000e+00
1.006000000000000000e+03,-1.715866955547312445e-01,0.000000000000000000e+00
1.007000000000000000e+03,-5.287802216994537396e-02,0.000000000000000000e+00
1.008000000000000000e+03,-1.399916889349402949e-01,0.000000000000000000e+00
1.009000000000000000e+03,7.440584424059878445e-03,0.000000000000000000e+00
1.010000000000000000e+03,7.148968212408464418e-02,0.000000000000000000e+00
1.011000000000000000e+03,4.418924359509593391e-01,0.000000000000000000e+00
1.012000000000000000e+03,5.683798128909199887e-01,0.000000000000000000e+00
1.013000000000000000e+03,6.998754050348122702e-01,0.000000000000000000e+00
1.014000000000000000e+03,2.914602647390404644e-01,0.000000000000000000e+00
1.015000000000000000e+03,-2.028438066608097279e-01,0.000000000000000000e+00
1.016000000000000000e+03,-5.407488030726356198e-01,0.000000000000000000e+00
1.017000000000000000e+03,-3.624739194540260168e-01,0.000000000000000000e+00
1.018000000000000000e+03,-5.188146829668112137e-01,0.000000000000000000e+00
1.019000000000000000e+03,-3.731352354803559312e-01,0.000000000000000000e+00
1.020000000000000000e+03,2.615459091686695992e-01,0.000000000000000000e+00
1.021000000000000000e+03,3.523902683801831692e+00,0.000000000000000000e+00
1.022000000000000000e+03,-1.004883376887779622e+00,1.000000000000000000e+00
1.023000000000000000e+03,-2.845701948347727939e+00,0.000000000000000000e+00
1.024000000000000000e+03,-6.583005435079397616e-01,0.000000000000000000e+00
1.025000000000000000e+03,-4.747285568871840167e-01,0.000000000000000000e+00
1.026000000000000000e+03,-1.533311514667374531e-01,0.000000000000000000e+00
1.027000000000000000e+03,-1.246672978162400025e-01,0.000000000000000000e+00
1.028000000000000000e+03,1.606155999317316826e-02,0.000000000000000000e+00
1.029000000000000000e+03,-1.073268105648049614e-01,0.000000000000000000e+00
1.030000000000000000e+03,7.460722747678116828e-02,0.000000000000000000e+00
1.031000000000000000e+03,8.482387537651855935e-02,0.000000000000000000e+00
1.032000000000000000e+03,2.403918694290041458e-01,0.000000000000000000e+00
1.033000000000000000e+03,2.186902608222746625e-01,0.000000000000000000e+00
1.034000000000000000e+03,3.167507939178111909e-01,0.000000000000000000e+00
1.035000000000000000e+03,3.713958984768453431e-01,0.000000000000000000e+00
1.036000000000000000e+03,2.644865114858797606e-01,0.000000000000000000e+00
1.037000000000000000e+03,3.983446507501625655e-01,0.000000000000000000e+00
1.038000000000000000e+03,3.563455206906108730e-01,0.000000000000000000e+00
1.039000000000000000e+03,-1.853591013258730838e-02,0.000000000000000000e+00
1.040000000000000000e+03,-2.934632715303631123e-01,0.000000000000000000e+00
1.041000000000000000e+03,-2.770920999251036410e-01,0.000000000000000000e+00
1.042000000000000000e+03,-3.055858624352801867e-01,0.000000000000000000e+00
1.043000000000000000e+03,-3.935590438715900197e-01,0.000000000000000000e+00
1.044000000000000000e+03,-1.345965100270977710e-01,0.000000000000000000e+00
1.045000000000000000e+03,-2.577428870317057252e-01,0.000000000000000000e+00
1.046000000000000000e+03,-1.963687985755755983e-01,0.000000000000000000e+00
1.047000000000000000e+03,-3.509669075197748844e-01,0.000000000000000000e+00
1.048000000000000000e+03,-2.865196757960249418e-01,0.000000000000000000e+00
1.049000000000000000e+03,-2.719316110115710394e-01,0.000000000000000000e+00
1.050000000000000000e+03,-1.924338976961575409e-01,0.000000000000000000e+00
1.051000000000000000e+03,-1.653858673093293041e-01,0.000000000000000000e+00
1.052000000000000000e+03,-8.932923349965667115e-02,0.000000000000000000e+00
1.053000000000000000e+03,-1.772915311658155302e-01,0.000000000000000000e+00
1.054000000000000000e+03,-2.183152552500672999e-02,0.000000000000000000e+00
1.055000000000000000e+03,-1.042216636466064827e-01,0.000000000000000000e+00
1.056000000000000000e+03,2.341671696525840507e-01,0.000000000000000000e+00
1.057000000000000000e+03,3.353424319196615655e-01,0.000000000000000000e+00
1.058000000000000000e+03,7.087161182666537051e-01,0.000000000000000000e+00
1.059000000000000000e+03,3.853760269208204581e-01,0.000000000000000000e+00
1.060000000000000000e+03,1.737470413231031324e-02,0.000000000000000000e+00
1.061000000000000000e+03,-4.964283132127318976e-01,0.000000000000000000e+00
1.062000000000000000e+03,-3.601908984281050885e-01,0.000000000000000000e+00
1.063000000000000000e+03,-6.186854329343921544e-01,0.000000000000000000e+00
1.064000000000000000e+03,-2.508806461076196759e-01,0.000000000000000000e+00
1.065000000000000000e+03,-5.312894433726992327e-01,0.000000000000000000e+00
1.066000000000000000e+03,2.070689704613842608e+00,0.000000000000000000e+00
1.067000000000000000e+03,2.530563738850624134e+00,0.000000000000000000e+00
1.068000000000000000e+03,-2.928285150618280763e+00,1.000000000000000000e+00
1.069000000000000000e+03,-1.454218651495995163e+00,0.000000000000000000e+00
1.070000000000000000e+03,-4.295097213024385296e-01,0.000000000000000000e+00
1.071000000000000000e+03,-2.461873289241418017e-01,0.000000000000000000e+00
1.072000000000000000e+03,-9.087290491701680017e-02,0.000000000000000000e+00
1.073000000000000000e+03,2.147809490995948589e-02,0.000000000000000000e+00
1.074000000000000000e+03,1.795993068984179028e-02,0.000000000000000000e+00
1.075000000000000000e+03,5.995990953511496496e-02,0.000000000000000000e+00
1.076000000000000000e+03,1.792881980226630201e-01,0.000000000000000000e+00
1.077000000000000000e+03,1.760581396613492833e-01,0.000000000000000000e+00
1.078000000000000000e+03,2.305599818156712222e-01,0.000000000000000000e+00
1.079000000000000000e+03,3.521132296686115826e-01,0.000000000000000000e+00
1.080000000000000000e+03,3.282768137698642841e-01,0.000000000000000000e+00
1.081000000000000000e+03,4.590317012591021983e-01,0.000000000000000000e+00
1.082000000000000000e+03,3.876075399760424700e-01,0.000000000000000000e+00
1.083000000000000000e+03,4.584893366441005758e-01,0.000000000000000000e+00
1.084000000000000000e+03,2.398161156422306539e-01,0.000000000000000000e+00
1.085000000000000000e+03,1.703455971711393679e-01,0.000000000000000000e+00
1.086000000000000000e+03,-1.616843905121972680e-01,0.000000000000000000e+00
1.087000000000000000e+03,-1.534193598082252974e-01,0.000000000000000000e+00
1.088000000000000000e+03,-2.648650743567318999e-01,0.000000000000000000e+00
1.089000000000000000e+03,-1.642591800880529862e-01,0.000000000000000000e+00
1.090000000000000000e+03,-2.239977108397933347e-01,0.000000000000000000e+00
1.091000000000000000e+03,-2.382682760029646296e-01,0.000000000000000000e+00
1.092000000000000000e+03,-1.582039220232504539e-01,0.000000000000000000e+00
1.093000000000000000e+03,-2.305826924760993046e-01,0.000000000000000000e+00
1.094000000000000000e+03,-1.358312485224389410e-01,0.000000000000000000e+00
1.095000000000000000e+03,-3.027411182759804920e-01,0.000000000000000000e+00
1.096000000000000000e+03,-1.541004921362194025e-01,0.000000000000000000e+00
1.097000000000000000e+03,-4.861790317894210817e-02,0.000000000000000000e+00
1.098000000000000000e+03,8.691119005577310763e-02,0.000000000000000000e+00
1.099000000000000000e+03,4.076713356329545457e-01,0.000000000000000000e+00
1.100000000000000000e+03,2.207683948643850869e+00,0.000000000000000000e+00
1.101000000000000000e+03,-3.312373975983660568e+00,0.000000000000000000e+00
1.102000000000000000e+03,-6.295909693713681143e+00,0.000000000000000000e+00
1.103000000000000000e+03,-1.234552060840090615e+00,1.000000000000000000e+00
1.104000000000000000e+03,1.345034297867699236e+00,0.000000000000000000e+00
1.105000000000000000e+03,1.413356113858375007e+00,0.000000000000000000e+00
1.106000000000000000e+03,1.291324946149631669e+00,0.000000000000000000e+00
1.107000000000000000e+03,1.329294983449790246e+00,0.000000000000000000e+00
1.108000000000000000e+03,1.126540314547641364e+00,0.000000000000000000e+00
1.109000000000000000e+03,1.257011937949793046e+00,0.000000000000000000e+00
1.110000000000000000e+03,1.148285178706955012e+00,0.000000000000000000e+00
1.111000000000000000e+03,1.415045126882612303e+00,0.000000000000000000e+00
1.112000000000000000e+03,1.417584896578458764e+00,0.000000000000000000e+00
1.113000000000000000e+03,1.811708935948595611e+00,0.000000000000000000e+00
1.114000000000000000e+03,2.022911188312247255e+00,0.000000000000000000e+00
1.115000000000000000e+03,2.099354753834002274e+00,0.000000000000000000e+00
1.116000000000000000e+03,1.548302142349523569e+00,0.000000000000000000e+00
1.117000000000000000e+03,4.730859670140957762e-01,0.000000000000000000e+00
1.118000000000000000e+03,-3.045672145957071253e-01,0.000000000000000000e+00
1.119000000000000000e+03,-9.564380850553029223e-01,0.000000000000000000e+00
1.120000000000000000e+03,-1.063987552928105096e+00,0.000000000000000000e+00
1.121000000000000000e+03,-1.213808627814732644e+00,0.000000000000000000e+00
1.122000000000000000e+03,-1.089550739055737960e+00,0.000000000000000000e+00
1.123000000000000000e+03,-1.184368750820674387e+00,0.000000000000000000e+00
1.124000000000000000e+03,-9.120490986430617175e-01,0.000000000000000000e+00
1.125000000000000000e+03,-8.870003598031726000e-01,0.000000000000000000e+00
1.126000000000000000e+03,-8.407340739023481113e-01,0.000000000000000000e+00
1.127000000000000000e+03,-7.064179647148761676e-01,0.000000000000000000e+00
1.128000000000000000e+03,-6.554753725623407856e-01,0.000000000000000000e+00
1.129000000000000000e+03,-5.964199862747013858e-01,0.000000000000000000e+00
1.130000000000000000e+03,-6.236620145795295223e-01,0.000000000000000000e+00
1.131000000000000000e+03,-5.773624962565920837e-01,0.000000000000000000e+00
1.132000000000000000e+03,-5.053668218005370472e-01,0.000000000000000000e+00
1.133000000000000000e+03,-4.901425288429285820e-01,0.000000000000000000e+00
1.134000000000000000e+03,-4.896286094887377649e-01,0.000000000000000000e+00
1.135000000000000000e+03,-3.577283182347127943e-01,0.000000000000000000e+00
1.136000000000000000e+03,-3.205032300553803393e-01,0.000000000000000000e+00
1.137000000000000000e+03,-2.997656597838624370e-01,0.000000000000000000e+00
1.138000000000000000e+03,-2.119387053674479660e-01,0.000000000000000000e+00
1.139000000000000000e+03,-2.112808785825176228e-01,0.000000000000000000e+00
1.140000000000000000e+03,-9.619568430570431261e-02,0.000000000000000000e+00
1.141000000000000000e+03,-1.065581196284375032e-01,0.000000000000000000e+00
1.142000000000000000e+03,-6.513614035529133317e-02,0.000000000000000000e+00
1.143000000000000000e+03,3.058950624991146894e-02,0.000000000000000000e+00
1.144000000000000000e+03,2.085910126567814063e-02,0.000000000000000000e+00
1.145000000000000000e+03,5.561941038316831065e-02,0.000000000000000000e+00
1.146000000000000000e+03,1.100590329423130759e-01,0.000000000000000000e+00
1.147000000000000000e+03,4.734781123967735789e-03,0.000000000000000000e+00
1.148000000000000000e+03,2.724548022765952981e-01,0.000000000000000000e+00
1.149000000000000000e+03,1.318452483947491483e-01,0.000000000000000000e+00
1.150000000000000000e+03,2.870577135419302706e-01,0.000000000000000000e+00
1.151000000000000000e+03,9.803190769338328281e-02,0.000000000000000000e+00
1.152000000000000000e+03,3.967160457759227876e-01,0.000000000000000000e+00
1.153000000000000000e+03,5.173704891033890085e-01,0.000000000000000000e+00
1.154000000000000000e+03,9.167181963043485871e-01,0.000000000000000000e+00
1.155000000000000000e+03,7.269839081950941750e-01,0.000000000000000000e+00
1.156000000000000000e+03,3.303741603193150467e-01,0.000000000000000000e+00
1.157000000000000000e+03,-2.047949688982760863e-01,0.000000000000000000e+00
1.158000000000000000e+03,-1.169185166645054647e-01,0.000000000000000000e+00
1.159000000000000000e+03,-4.063573614832736158e-01,0.000000000000000000e+00
1.160000000000000000e+03,-1.508325365764642649e-02,0.000000000000000000e+00
1.161000000000000000e+03,-3.525414951062672778e-03,0.000000000000000000e+00
1.162000000000000000e+03,3.417568038997811364e+00,0.000000000000000000e+00
1.163000000000000000e+03,8.605699780418094580e-01,1.000000000000000000e+00
1.164000000000000000e+03,-3.231085358319753631e+00,0.000000000000000000e+00
1.165000000000000000e+03,-6.599039611457424570e-01,0.000000000000000000e+00
1.166000000000000000e+03,-5.257114368964767026e-01,0.000000000000000000e+00
1.167000000000000000e+03,1.088222779901492077e-01,0.000000000000000000e+00
1.168000000000000000e+03,-8.871291275366753604e-02,0.000000000000000000e+00
1.169000000000000000e+03,2.193047478904813496e-01,0.000000000000000000e+00
1.170000000000000000e+03,5.156583458194215208e-02,0.000000000000000000e+00
1.171000000000000000e+03,2.265675052975687220e-01,0.000000000000000000e+00
1.172000000000000000e+03,2.911828789027472164e-02,0.000000000000000000e+00
1.173000000000000000e+03,4.244754039344856289e-01,0.000000000000000000e+00
1.174000000000000000e+03,3.015532459248329578e-01,0.000000000000000000e+00
1.175000000000000000e+03,3.443822620965884540e-01,0.000000000000000000e+00
1.176000000000000000e+03,2.578879610297072356e-01,0.000000000000000000e+00
1.177000000000000000e+03,3.855519331861005927e-01,0.000000000000000000e+00
1.178000000000000000e+03,2.341514329184902488e-01,0.000000000000000000e+00
1.179000000000000000e+03,4.042710860457870425e-01,0.000000000000000000e+00
1.180000000000000000e+03,2.935730255114825105e-01,0.000000000000000000e+00
1.181000000000000000e+03,1.690330560865383747e-01,0.000000000000000000e+00
1.182000000000000000e+03,-6.380056471212389169e-02,0.000000000000000000e+00
1.183000000000000000e+03,-1.362599630264346717e-01,0.000000000000000000e+00
1.184000000000000000e+03,-7.012062411498279357e-02,0.000000000000000000e+00
1.185000000000000000e+03,-6.803869045664054371e-02,0.000000000000000000e+00
1.186000000000000000e+03,-1.550529026121948428e-01,0.000000000000000000e+00
1.187000000000000000e+03,-7.114941726422474577e-02,0.000000000000000000e+00
1.188000000000000000e+03,-1.627204603679006378e-01,0.000000000000000000e+00
1.189000000000000000e+03,-2.228413582359499712e-01,0.000000000000000000e+00
1.190000000000000000e+03,-1.126198874834952873e-01,0.000000000000000000e+00
1.191000000000000000e+03,-1.373304854351823983e-03,0.000000000000000000e+00
1.192000000000000000e+03,9.781526246238237965e-01,0.000000000000000000e+00
1.193000000000000000e+03,1.324740350558456958e+00,0.000000000000000000e+00
1.194000000000000000e+03,-4.068210844925872927e+00,0.000000000000000000e+00
1.195000000000000000e+03,-3.841835189346058943e+00,0.000000000000000000e+00
1.196000000000000000e+03,-2.012121820544133521e-01,1.000000000000000000e+00
1.197000000000000000e+03,1.407959953371282324e+00,0.000000000000000000e+00
1.198000000000000000e+03,1.000012493376583933e+00,0.000000000000000000e+00
1.199000000000000000e+03,9.289638223157730135e-01,0.000000000000000000e+00
1.200000000000000000e+03,8.540062612149933452e-01,0.000000000000000000e+00
1.201000000000000000e+03,7.440712831894331636e-01,0.000000000000000000e+00
1.202000000000000000e+03,8.818224699140564393e-01,0.000000000000000000e+00
1.203000000000000000e+03,9.372946911555530836e-01,0.000000000000000000e+00
1.204000000000000000e+03,9.913711072909759947e-01,0.000000000000000000e+00
1.205000000000000000e+03,1.121152683810177297e+00,0.000000000000000000e+00
1.206000000000000000e+03,1.277658250338828738e+00,0.000000000000000000e+00
1.207000000000000000e+03,1.386876717621019495e+00,0.000000000000000000e+00
1.208000000000000000e+03,1.300916818662016805e+00,0.000000000000000000e+00
1.209000000000000000e+03,9.460991755174799067e-01,0.000000000000000000e+00
1.210000000000000000e+03,-1.432129882722668092e-02,0.000000000000000000e+00
1.211000000000000000e+03,-5.570108041715225999e-01,0.000000000000000000e+00
1.212000000000000000e+03,-1.019784364256671516e+00,0.000000000000000000e+00
1.213000000000000000e+03,-9.531110194669657476e-01,0.000000000000000000e+00
1.214000000000000000e+03,-1.008586463006040379e+00,0.000000000000000000e+00
1.215000000000000000e+03,-8.718349168371791746e-01,0.000000000000000000e+00
1.216000000000000000e+03,-9.400412311255154085e-01,0.000000000000000000e+00
1.217000000000000000e+03,-7.823943982650242157e-01,0.000000000000000000e+00
1.218000000000000000e+03,-8.440851899445575013e-01,0.000000000000000000e+00
1.219000000000000000e+03,-5.140308095189435322e-01,0.000000000000000000e+00
1.220000000000000000e+03,-6.830535452679498132e-01,0.000000000000000000e+00
1.221000000000000000e+03,-5.647501209705845238e-01,0.000000000000000000e+00
1.222000000000000000e+03,-5.108921468675284849e-01,0.000000000000000000e+00
1.223000000000000000e+03,-4.472773920921732649e-01,0.000000000000000000e+00
1.224000000000000000e+03,-5.736454678441825772e-01,0.000000000000000000e+00
1.225000000000000000e+03,-4.967835659380154256e-01,0.000000000000000000e+00
1.226000000000000000e+03,-5.565784825708034456e-01,0.000000000000000000e+00
1.227000000000000000e+03,-2.992709026202622358e-01,0.000000000000000000e+00
1.228000000000000000e+03,-3.239107563867737460e-01,0.000000000000000000e+00
1.229000000000000000e+03,-2.806945628099420387e-01,0.000000000000000000e+00
1.230000000000000000e+03,-3.768107750958905044e-01,0.000000000000000000e+00
1.231000000000000000e+03,-2.727213058151466973e-01,0.000000000000000000e+00
1.232000000000000000e+03,-8.825539032557412622e-02,0.000000000000000000e+00
1.233000000000000000e+03,-6.913978251763790162e-02,0.000000000000000000e+00
1.234000000000000000e+03,-1.489186043731812459e-01,0.000000000000000000e+00
1.235000000000000000e+03,5.799097000298203755e-03,0.000000000000000000e+00
1.236000000000000000e+03,-1.514998986017758176e-01,0.000000000000000000e+00
1.237000000000000000e+03,5.420811055059563885e-03,0.000000000000000000e+00
1.238000000000000000e+03,1.578801828855899356e-02,0.000000000000000000e+00
1.239000000000000000e+03,1.508045837430739278e-01,0.000000000000000000e+00
1.240000000000000000e+03,8.403897957130194996e-03,0.000000000000000000e+00
1.241000000000000000e+03,2.417995508934601412e-01,0.000000000000000000e+00
1.242000000000000000e+03,3.871420805562644230e-01,0.000000000000000000e+00
1.243000000000000000e+03,8.022583113285643996e-01,0.000000000000000000e+00
1.244000000000000000e+03,5.264964605602769909e-01,0.000000000000000000e+00
1.245000000000000000e+03,1.390546932856616402e-01,0.000000000000000000e+00
1.246000000000000000e+03,-2.176345180271570257e-01,0.000000000000000000e+00
1.247000000000000000e+03,-1.317035527849858834e-01,0.000000000000000000e+00
1.248000000000000000e+03,-2.666835877714042180e-01,0.000000000000000000e+00
1.249000000000000000e+03,-1.403420716662734657e-01,0.000000000000000000e+00
1.250000000000000000e+03,4.698972723845381005e-01,0.000000000000000000e+00
1.251000000000000000e+03,3.251608577649102383e+00,0.000000000000000000e+00
1.252000000000000000e+03,-1.494178309230162371e+00,1.000000000000000000e+00
1.253000000000000000e+03,-2.346291040647706883e+00,0.000000000000000000e+00
1.254000000000000000e+03,-2.408429981053606395e-01,0.000000000000000000e+00
1.255000000000000000e+03,-1.296589502501351021e-01,0.000000000000000000e+00
1.256000000000000000e+03,9.641709988688043631e-02,0.000000000000000000e+00
1.257000000000000000e+03,1.749200317903889246e-01,0.000000000000000000e+00
1.258000000000000000e+03,3.017469214744395445e-01,0.000000000000000000e+00
1.259000000000000000e+03,1.862640887725233452e-01,0.000000000000000000e+00
1.260000000000000000e+03,4.040481559549580215e-01,0.000000000000000000e+00
1.261000000000000000e+03,4.071223751140616298e-01,0.000000000000000000e+00
1.262000000000000000e+03,3.559854245746522095e-01,0.000000000000000000e+00
1.263000000000000000e+03,5.190531938807644297e-01,0.000000000000000000e+00
1.264000000000000000e+03,5.294667349101421783e-01,0.000000000000000000e+00
1.265000000000000000e+03,5.031502099968924169e-01,0.000000000000000000e+00
1.266000000000000000e+03,5.284392385098813927e-01,0.000000000000000000e+00
1.267000000000000000e+03,4.712428158631489228e-01,0.000000000000000000e+00
1.268000000000000000e+03,3.718917429863968782e-01,0.000000000000000000e+00
1.269000000000000000e+03,2.610071526684484833e-01,0.000000000000000000e+00
1.270000000000000000e+03,1.037393874550840075e-02,0.000000000000000000e+00
1.271000000000000000e+03,-2.753932168893832161e-02,0.000000000000000000e+00
1.272000000000000000e+03,-1.938566431412679647e-01,0.000000000000000000e+00
1.273000000000000000e+03,-1.438428644050779581e-01,0.000000000000000000e+00
1.274000000000000000e+03,-1.741352693192759760e-01,0.000000000000000000e+00
1.275000000000000000e+03,-2.923481466353685665e-01,0.000000000000000000e+00
1.276000000000000000e+03,-1.114896369170275542e-01,0.000000000000000000e+00
1.277000000000000000e+03,-2.716398771298169645e-01,0.000000000000000000e+00
1.278000000000000000e+03,7.216777233973641070e-02,0.000000000000000000e+00
1.279000000000000000e+03,-1.692495822606256139e-01,0.000000000000000000e+00
1.280000000000000000e+03,1.020296960120266883e-01,0.000000000000000000e+00
1.281000000000000000e+03,-3.797223054644851409e-02,0.000000000000000000e+00
1.282000000000000000e+03,5.376252292509013930e-01,0.000000000000000000e+00
1.283000000000000000e+03,5.965019101875963514e-01,0.000000000000000000e+00
1.284000000000000000e+03,2.420736292401058254e+00,0.000000000000000000e+00
1.285000000000000000e+03,-1.255806883054007894e+00,0.000000000000000000e+00
1.286000000000000000e+03,-6.367000292311661092e+00,0.000000000000000000e+00
1.287000000000000000e+03,-2.489766994837687708e+00,1.000000000000000000e+00
1.288000000000000000e+03,2.613296339624164855e-01,0.000000000000000000e+00
1.289000000000000000e+03,9.087725958449558439e-01,0.000000000000000000e+00
1.290000000000000000e+03,8.268881767620296364e-01,0.000000000000000000e+00
1.291000000000000000e+03,9.675903769674284449e-01,0.000000000000000000e+00
1.292000000000000000e+03,8.220847414678040810e-01,0.000000000000000000e+00
1.293000000000000000e+03,9.928626204570143443e-01,0.000000000000000000e+00
1.294000000000000000e+03,7.741654916276323739e-01,0.000000000000000000e+00
1.295000000000000000e+03,1.131748614235714046e+00,0.000000000000000000e+00
1.296000000000000000e+03,1.147844575487347862e+00,0.000000000000000000e+00
1.297000000000000000e+03,1.500837925800989181e+00,0.000000000000000000e+00
1.298000000000000000e+03,1.739818767186143367e+00,0.000000000000000000e+00
1.299000000000000000e+03,1.840408053291554991e+00,0.000000000000000000e+00
1.300000000000000000e+03,1.549871285538849230e+00,0.000000000000000000e+00
1.301000000000000000e+03,7.572755237517555527e-01,0.000000000000000000e+00
1.302000000000000000e+03,-2.872519144456999740e-01,0.000000000000000000e+00
1.303000000000000000e+03,-7.926692909438733947e-01,0.000000000000000000e+00
1.304000000000000000e+03,-1.030455357287090701e+00,0.000000000000000000e+00
1.305000000000000000e+03,-1.059224090367669513e+00,0.000000000000000000e+00
1.306000000000000000e+03,-1.022841877443948500e+00,0.000000000000000000e+00
1.307000000000000000e+03,-9.079067584339792774e-01,0.000000000000000000e+00
1.308000000000000000e+03,-8.468888126681510808e-01,0.000000000000000000e+00
1.309000000000000000e+03,-8.391598813087910447e-01,0.000000000000000000e+00
1.310000000000000000e+03,-7.446858581839493896e-01,0.000000000000000000e+00
1.311000000000000000e+03,-5.419637161080784749e-01,0.000000000000000000e+00
1.312000000000000000e+03,-6.683466028886638766e-01,0.000000000000000000e+00
1.313000000000000000e+03,-4.516273475731305553e-01,0.000000000000000000e+00
1.314000000000000000e+03,-4.407737016304595357e-01,0.000000000000000000e+00
1.315000000000000000e+03,-4.325003763891826503e-01,0.000000000000000000e+00
1.316000000000000000e+03,-4.142181286584556976e-01,0.000000000000000000e+00
1.317000000000000000e+03,-3.657380963560657450e-01,0.000000000000000000e+00
1.318000000000000000e+03,-3.095081368455135928e-01,0.000000000000000000e+00
1.319000000000000000e+03,-3.516327109172848742e-01,0.000000000000000000e+00
1.320000000000000000e+03,-3.478146080024384079e-01,0.000000000000000000e+00
1.321000000000000000e+03,-1.573120145002203651e-01,0.000000000000000000e+00
1.322000000000000000e+03,-2.053705621695900152e-01,0.000000000000000000e+00
1.323000000000000000e+03,-5.526568171213450814e-02,0.000000000000000000e+00
1.324000000000000000e+03,-1.097910154763995644e-01,0.000000000000000000e+00
1.325000000000000000e+03,-1.258181752766947877e-03,0.000000000000000000e+00
1.326000000000000000e+03,-9.532851464741054839e-03,0.000000000000000000e+00
1.327000000000000000e+03,3.812336973194487832e-01,0.000000000000000000e+00
1.328000000000000000e+03,5.196464070636791499e-01,0.000000000000000000e+00
1.329000000000000000e+03,7.033538834072591284e-01,0.000000000000000000e+00
1.330000000000000000e+03,4.283752596619809783e-01,0.000000000000000000e+00
1.331000000000000000e+03,-1.497616156152239142e-01,0.000000000000000000e+00
1.332000000000000000e+03,-3.289997280598832563e-01,0.000000000000000000e+00
1.333000000000000000e+03,-3.299454994369181993e-01,0.000000000000000000e+00
1.334000000000000000e+03,-3.308813176367969011e-01,0.000000000000000000e+00
1.335000000000000000e+03,-1.064515192529612159e-01,0.000000000000000000e+00
1.336000000000000000e+03,9.595417181764183123e-01,0.000000000000000000e+00
1.337000000000000000e+03,3.671086737762983443e+00,0.000000000000000000e+00
1.338000000000000000e+03,-1.338717467721283860e+00,1.000000000000000000e+00
1.339000000000000000e+03,-2.237106092253688949e+00,0.000000000000000000e+00
1.340000000000000000e+03,-4.122353557153534132e-01,0.000000000000000000e+00
1.341000000000000000e+03,-2.399820535445894853e-01,0.000000000000000000e+00
1.342000000000000000e+03,6.837090908580400681e-03,0.000000000000000000e+00
1.343000000000000000e+03,-2.593070869755512847e-02,0.000000000000000000e+00
1.344000000000000000e+03,2.108334958605959097e-01,0.000000000000000000e+00
1.345000000000000000e+03,7.602535365768899045e-02,0.000000000000000000e+00
1.346000000000000000e+03,1.896190064474506387e-01,0.000000000000000000e+00
1.347000000000000000e+03,1.959650967746684458e-01,0.000000000000000000e+00
1.348000000000000000e+03,2.638844483636841876e-01,0.000000000000000000e+00
1.349000000000000000e+03,3.690285669735474672e-01,0.000000000000000000e+00
1.350000000000000000e+03,2.718014393079444813e-01,0.000000000000000000e+00
1.351000000000000000e+03,4.418543445726579866e-01,0.000000000000000000e+00
1.352000000000000000e+03,3.873644243703748269e-01,0.000000000000000000e+00
1.353000000000000000e+03,3.504253343812605559e-01,0.000000000000000000e+00
1.354000000000000000e+03,3.353382974422124407e-01,0.000000000000000000e+00
1.355000000000000000e+03,2.074184338815843742e-01,0.000000000000000000e+00
1.356000000000000000e+03,8.760804646444218802e-02,0.000000000000000000e+00
1.357000000000000000e+03,-8.241506638190773670e-02,0.000000000000000000e+00
1.358000000000000000e+03,-6.317189676781680141e-02,0.000000000000000000e+00
1.359000000000000000e+03,-1.252604264800268388e-02,0.000000000000000000e+00
1.360000000000000000e+03,-1.091053479764012707e-01,0.000000000000000000e+00
1.361000000000000000e+03,-3.665083972284090968e-02,0.000000000000000000e+00
1.362000000000000000e+03,-8.309179305384836733e-02,0.000000000000000000e+00
1.363000000000000000e+03,-9.955770820209451644e-02,0.000000000000000000e+00
1.364000000000000000e+03,-9.086132613961830917e-02,0.000000000000000000e+00
1.365000000000000000e+03,-5.580931807109667381e-02,0.000000000000000000e+00
1.366000000000000000e+03,-5.977931397227568416e-02,0.000000000000000000e+00
1.367000000000000000e+03,3.366543183894563779e-02,0.000000000000000000e+00
1.368000000000000000e+03,-1.220579390073300990e-01,0.000000000000000000e+00
1.369000000000000000e+03,2.613818313415958161e-01,0.000000000000000000e+00
1.370000000000000000e+03,3.859468288187202778e-01,0.000000000000000000e+00
1.371000000000000000e+03,6.462457814983755267e-01,0.000000000000000000e+00
1.372000000000000000e+03,6.290307977314587573e-01,0.000000000000000000e+00
1.373000000000000000e+03,2.293001536529556961e-01,0.000000000000000000e+00
1.374000000000000000e+03,-1.789180572295162863e-01,0.000000000000000000e+00
1.375000000000000000e+03,-5.757870978567246611e-01,0.000000000000000000e+00
1.376000000000000000e+03,-3.824234934044225542e-01,0.000000000000000000e+00
1.377000000000000000e+03,-4.662550496111745879e-01,0.000000000000000000e+00
1.378000000000000000e+03,-3.671949311689224893e-01,0.000000000000000000e+00
1.379000000000000000e+03,3.776380584163847032e-01,0.000000000000000000e+00
1.380000000000000000e+03,3.461753025335594369e+00,0.000000000000000000e+00
1.381000000000000000e+03,-1.307654967773554056e+00,1.000000000000000000e+00
1.382000000000000000e+03,-2.659599551428178721e+00,0.000000000000000000e+00
1.383000000000000000e+03,-4.895873632597843583e-01,0.000000000000000000e+00
1.384000000000000000e+03,-4.502699905357921417e-01,0.000000000000000000e+00
1.385000000000000000e+03,-8.161750999692954367e-02,0.000000000000000000e+00
1.386000000000000000e+03,-1.859184095504765044e-01,0.000000000000000000e+00
1.387000000000000000e+03,1.108988576191464043e-01,0.000000000000000000e+00
1.388000000000000000e+03,-2.624440397680474421e-02,0.000000000000000000e+00
1.389000000000000000e+03,1.282537819707929572e-01,0.000000000000000000e+00
1.390000000000000000e+03,8.024119649163349854e-02,0.000000000000000000e+00
1.391000000000000000e+03,2.618221587219303759e-01,0.000000000000000000e+00
1.392000000000000000e+03,2.998655199163208218e-01,0.000000000000000000e+00
1.393000000000000000e+03,2.032323689425963864e-01,0.000000000000000000e+00
1.394000000000000000e+03,4.402186278123463858e-01,0.000000000000000000e+00
1.395000000000000000e+03,3.954211123275868656e-01,0.000000000000000000e+00
1.396000000000000000e+03,4.115909809225729021e-01,0.000000000000000000e+00
1.397000000000000000e+03,2.433671665827562003e-01,0.000000000000000000e+00
1.398000000000000000e+03,-4.924324756024650585e-02,0.000000000000000000e+00
1.399000000000000000e+03,-2.008376145365164123e-01,0.000000000000000000e+00
1.400000000000000000e+03,-3.233919380961899348e-01,0.000000000000000000e+00
1.401000000000000000e+03,-4.120238518639126046e-01,0.000000000000000000e+00
1.402000000000000000e+03,-2.665775351797987081e-01,0.000000000000000000e+00
1.403000000000000000e+03,-2.643822154056988394e-01,0.000000000000000000e+00
1.404000000000000000e+03,-2.649955796477101444e-01,0.000000000000000000e+00
1.405000000000000000e+03,-2.964574451698075430e-01,0.000000000000000000e+00
1.406000000000000000e+03,-2.901497045656573626e-01,0.000000000000000000e+00
1.407000000000000000e+03,-4.158483046680233053e-01,0.000000000000000000e+00
1.408000000000000000e+03,-3.092363828914639345e-01,0.000000000000000000e+00
1.409000000000000000e+03,-2.240799772656481281e-01,0.000000000000000000e+00
1.410000000000000000e+03,-1.599127251750991907e-01,0.000000000000000000e+00
1.411000000000000000e+03,-1.532974239627324375e-01,0.000000000000000000e+00
1.412000000000000000e+03,-6.400867518660506572e-02,0.000000000000000000e+00
1.413000000000000000e+03,-2.019386249228664332e-01,0.000000000000000000e+00
1.414000000000000000e+03,-1.558296280700454013e-02,0.000000000000000000e+00
1.415000000000000000e+03,-1.162903763517377648e-01,0.000000000000000000e+00
1.416000000000000000e+03,2.039708620133581785e-01,0.000000000000000000e+00
1.417000000000000000e+03,2.308848924155351146e-01,0.000000000000000000e+00
1.418000000000000000e+03,6.353515487886290947e-01,0.000000000000000000e+00
1.419000000000000000e+03,4.593642855469438624e-01,0.000000000000000000e+00
1.420000000000000000e+03,-6.271626189736324505e-04,0.000000000000000000e+00
1.421000000000000000e+03,-5.285337798598626069e-01,0.000000000000000000e+00
1.422000000000000000e+03,-2.957765675360890523e-01,0.000000000000000000e+00
1.423000000000000000e+03,-6.396507295116253822e-01,0.000000000000000000e+00
1.424000000000000000e+03,-2.373666482048339132e-01,0.000000000000000000e+00
1.425000000000000000e+03,-5.139960466844047948e-01,0.000000000000000000e+00
1.426000000000000000e+03,2.333891180538581356e+00,0.000000000000000000e+00
1.427000000000000000e+03,2.147763948288188285e+00,0.000000000000000000e+00
1.428000000000000000e+03,-3.095145326626707938e+00,1.000000000000000000e+00
1.429000000000000000e+03,-1.292301089670647940e+00,0.000000000000000000e+00
1.430000000000000000e+03,-4.840601334723421134e-01,0.000000000000000000e+00
1.431000000000000000e+03,-4.152129942861650796e-02,0.000000000000000000e+00
1.432000000000000000e+03,-1.081232959591469922e-01,0.000000000000000000e+00
1.433000000000000000e+03,3.672381524829831240e-02,0.000000000000000000e+00
1.434000000000000000e+03,2.428301072438575001e-02,0.000000000000000000e+00
1.435000000000000000e+03,2.446241851193588501e-01,0.000000000000000000e+00
1.436000000000000000e+03,1.138068690236468256e-01,0.000000000000000000e+00
1.437000000000000000e+03,2.888150617600262482e-01,0.000000000000000000e+00
1.438000000000000000e+03,1.830455523857218159e-01,0.000000000000000000e+00
1.439000000000000000e+03,3.395604246581448993e-01,0.000000000000000000e+00
1.440000000000000000e+03,4.544624567548531946e-01,0.000000000000000000e+00
1.441000000000000000e+03,5.326913252437267543e-01,0.000000000000000000e+00
1.442000000000000000e+03,5.154774824533853161e-01,0.000000000000000000e+00
1.443000000000000000e+03,4.720743538181140786e-01,0.000000000000000000e+00
1.444000000000000000e+03,3.085033348396090669e-01,0.000000000000000000e+00
1.445000000000000000e+03,-3.533806240031954482e-02,0.000000000000000000e+00
1.446000000000000000e+03,-6.135863856676638389e-02,0.000000000000000000e+00
1.447000000000000000e+03,-1.114543081316380635e-01,0.000000000000000000e+00
1.448000000000000000e+03,-9.202206340842751520e-02,0.000000000000000000e+00
1.449000000000000000e+03,-1.069410838413241693e-01,0.000000000000000000e+00
1.450000000000000000e+03,-1.918765047997347817e-01,0.000000000000000000e+00
1.451000000000000000e+03,-1.016183634008835240e-01,0.000000000000000000e+00
1.452000000000000000e+03,-2.180189453918853215e-01,0.000000000000000000e+00
1.453000000000000000e+03,-1.701444130363566898e-01,0.000000000000000000e+00
1.454000000000000000e+03,-1.657112510231375790e-01,0.000000000000000000e+00
1.455000000000000000e+03,-1.715480996653991619e-01,0.000000000000000000e+00
1.456000000000000000e+03,-1.721809827135596938e-01,0.000000000000000000e+00
1.457000000000000000e+03,-4.233939504341725085e-02,0.000000000000000000e+00
1.458000000000000000e+03,-9.290038051031677957e-02,0.000000000000000000e+00
1.459000000000000000e+03,2.725082555890413760e-02,0.000000000000000000e+00
1.460000000000000000e+03,9.579908883538414133e-02,0.000000000000000000e+00
1.461000000000000000e+03,3.969024982780405136e-02,0.000000000000000000e+00
1.462000000000000000e+03,4.198354946745395250e-02,0.000000000000000000e+00
1.463000000000000000e+03,1.743801479603786925e-02,0.000000000000000000e+00
1.464000000000000000e+03,3.494312463643913791e-01,0.000000000000000000e+00
1.465000000000000000e+03,5.543210174589356942e-01,0.000000000000000000e+00
1.466000000000000000e+03,7.494911402096797737e-01,0.000000000000000000e+00
1.467000000000000000e+03,5.144509772081089505e-01,0.000000000000000000e+00
1.468000000000000000e+03,1.106989080938967224e-01,0.000000000000000000e+00
1.469000000000000000e+03,-4.054750600500462987e-01,0.000000000000000000e+00
1.470000000000000000e+03,-2.323890250818482772e-01,0.000000000000000000e+00
1.471000000000000000e+03,-4.719769317189730362e-01,0.000000000000000000e+00
1.472000000000000000e+03,-1.868838827110884393e-01,0.000000000000000000e+00
1.473000000000000000e+03,-4.315792985530854664e-01,0.000000000000000000e+00
1.474000000000000000e+03,2.349732616219731618e+00,0.000000000000000000e+00
1.475000000000000000e+03,2.260279145787597255e+00,0.000000000000000000e+00
1.476000000000000000e+03,-3.072804316124198021e+00,1.000000000000000000e+00
1.477000000000000000e+03,-1.189928584268371559e+00,0.000000000000000000e+00
1.478000000000000000e+03,-4.533630045285472754e-01,0.000000000000000000e+00
1.479000000000000000e+03,-1.182409136223823952e-02,0.000000000000000000e+00
1.480000000000000000e+03,-1.325609285062408771e-01,0.000000000000000000e+00
1.481000000000000000e+03,1.299664134306637298e-01,0.000000000000000000e+00
1.482000000000000000e+03,-1.017800824468383936e-01,0.000000000000000000e+00
1.483000000000000000e+03,1.855944965146309744e-01,0.000000000000000000e+00
1.484000000000000000e+03,1.485773668155687399e-01,0.000000000000000000e+00
1.485000000000000000e+03,2.692457727396099232e-01,0.000000000000000000e+00
1.486000000000000000e+03,2.715655730735908047e-01,0.000000000000000000e+00
1.487000000000000000e+03,2.883854032339611684e-01,0.000000000000000000e+00
1.488000000000000000e+03,2.236718482132579178e-01,0.000000000000000000e+00
1.489000000000000000e+03,5.574297360825491987e-01,0.000000000000000000e+00
1.490000000000000000e+03,3.646452206493034920e-01,0.000000000000000000e+00
1.491000000000000000e+03,4.378024530587472651e-01,0.000000000000000000e+00
1.492000000000000000e+03,1.617282447918354793e-01,0.000000000000000000e+00
1.493000000000000000e+03,5.565458514069206858e-02,0.000000000000000000e+00
1.494000000000000000e+03,-3.101086423488991217e-01,0.000000000000000000e+00
1.495000000000000000e+03,-1.325179987080545574e-01,0.000000000000000000e+00
1.496000000000000000e+03,-2.287486937228672967e-01,0.000000000000000000e+00
1.497000000000000000e+03,-1.903482877399579054e-01,0.000000000000000000e+00
1.498000000000000000e+03,-1.826664609054213795e-01,0.000000000000000000e+00
1.499000000000000000e+03,-2.159155593426484998e-01,0.000000000000000000e+00
1.500000000000000000e+03,-3.037105740169697699e-01,0.000000000000000000e+00
1.501000000000000000e+03,-1.696870474067718737e-01,0.000000000000000000e+00
1.502000000000000000e+03,-2.986820082473699012e-01,0.000000000000000000e+00
1.503000000000000000e+03,-1.203831357843045263e-01,0.000000000000000000e+00
1.504000000000000000e+03,-2.744011539342110506e-01,0.000000000000000000e+00
1.505000000000000000e+03,-1.018377423175916979e-01,0.000000000000000000e+00
1.506000000000000000e+03,-1.790536228443394551e-01,0.000000000000000000e+00
1.507000000000000000e+03,6.800469541598139211e-02,0.000000000000000000e+00
1.508000000000000000e+03,3.440652718330739629e-02,0.000000000000000000e+00
1.509000000000000000e+03,-1.029481928793228238e-02,0.000000000000000000e+00
1.510000000000000000e+03,-5.255380200126854445e-02,0.000000000000000000e+00
1.511000000000000000e+03,-7.735463569655845473e-02,0.000000000000000000e+00
1.512000000000000000e+03,-2.643019875902046303e-02,0.000000000000000000e+00
1.513000000000000000e+03,-6.941751927900277619e-02,0.000000000000000000e+00
1.514000000000000000e+03,4.406580322253724202e-01,0.000000000000000000e+00
1.515000000000000000e+03,5.379359930354918884e-01,0.000000000000000000e+00
1.516000000000000000e+03,6.796525288489273509e-01,0.000000000000000000e+00
1.517000000000000000e+03,2.922711357778757790e-01,0.000000000000000000e+00
1.518000000000000000e+03,-2.369660410977207088e-01,0.000000000000000000e+00
1.519000000000000000e+03,-4.421129399866432497e-01,0.000000000000000000e+00
1.520000000000000000e+03,-3.599491727200841429e-01,0.000000000000000000e+00
1.521000000000000000e+03,-5.034738449706624985e-01,0.000000000000000000e+00
1.522000000000000000e+03,-1.449117602483340483e-01,0.000000000000000000e+00
1.523000000000000000e+03,-7.571503050053011996e-02,0.000000000000000000e+00
1.524000000000000000e+03,3.419787992426928547e+00,0.000000000000000000e+00
1.525000000000000000e+03,-9.671434555311608783e-02,1.000000000000000000e+00
1.526000000000000000e+03,-3.131049276462774866e+00,0.000000000000000000e+00
1.527000000000000000e+03,-6.705391324059962743e-01,0.000000000000000000e+00
1.528000000000000000e+03,-5.764908224914632173e-01,0.000000000000000000e+00
1.529000000000000000e+03,3.116374640502828086e-02,0.000000000000000000e+00
1.530000000000000000e+03,-2.532434157713027711e-01,0.000000000000000000e+00
1.531000000000000000e+03,1.871410492298980766e-01,0.000000000000000000e+00
1.532000000000000000e+03,7.002990940285529729e-03,0.000000000000000000e+00
1.533000000000000000e+03,1.875170918144846710e-01,0.000000000000000000e+00
1.534000000000000000e+03,8.127817536099990470e-02,0.000000000000000000e+00
1.535000000000000000e+03,3.552690878860345070e-01,0.000000000000000000e+00
1.536000000000000000e+03,1.252999385637076080e-01,0.000000000000000000e+00
1.537000000000000000e+03,3.766425094563637388e-01,0.000000000000000000e+00
1.538000000000000000e+03,2.812309069333449041e-01,0.000000000000000000e+00
1.539000000000000000e+03,4.696264859593293206e-01,0.000000000000000000e+00
1.540000000000000000e+03,3.954089730952409232e-01,0.000000000000000000e+00
1.541000000000000000e+03,3.510546955297101923e-01,0.000000000000000000e+00
1.542000000000000000e+03,1.394655072420693254e-01,0.000000000000000000e+00
1.543000000000000000e+03,-1.052060493640656763e-01,0.000000000000000000e+00
1.544000000000000000e+03,-2.818498806954355396e-01,0.000000000000000000e+00
1.545000000000000000e+03,-1.574019647452552517e-01,0.000000000000000000e+00
1.546000000000000000e+03,-3.937475821564708767e-01,0.000000000000000000e+00
1.547000000000000000e+03,-6.019776812604761551e-02,0.000000000000000000e+00
1.548000000000000000e+03,-2.616549077817395541e-01,0.000000000000000000e+00
1.549000000000000000e+03,-1.818417428929807178e-01,0.000000000000000000e+00
1.550000000000000000e+03,-2.483175099712704448e-01,0.000000000000000000e+00
1.551000000000000000e+03,-1.993960358772663977e-01,0.000000000000000000e+00
1.552000000000000000e+03,-3.329632950505576061e-01,0.000000000000000000e+00
1.553000000000000000e+03,-1.241475740711767313e-02,0.000000000000000000e+00
1.554000000000000000e+03,-2.934239932923150551e-01,0.000000000000000000e+00
1.555000000000000000e+03,-6.439455810668588687e-02,0.000000000000000000e+00
1.556000000000000000e+03,-8.045466611931316459e-02,0.000000000000000000e+00
1.557000000000000000e+03,-6.683312320395509709e-02,0.000000000000000000e+00
1.558000000000000000e+03,-8.154195575544132685e-03,0.000000000000000000e+00
1.559000000000000000e+03,1.208529228116475840e-01,0.000000000000000000e+00
1.560000000000000000e+03,-6.819484989127308494e-02,0.000000000000000000e+00
1.561000000000000000e+03,8.146213519570981443e-02,0.000000000000000000e+00
1.562000000000000000e+03,-1.324484624574909231e-01,0.000000000000000000e+00
1.563000000000000000e+03,1.685091536654209632e-01,0.000000000000000000e+00
1.564000000000000000e+03,3.398213683387885098e-01,0.000000000000000000e+00
1.565000000000000000e+03,6.615914962525439869e-01,0.000000000000000000e+00
1.566000000000000000e+03,5.949424079250003050e-01,0.000000000000000000e+00
1.567000000000000000e+03,1.283902959705604530e-01,0.000000000000000000e+00
1.568000000000000000e+03,-5.379290933227642846e-01,0.000000000000000000e+00
1.569000000000000000e+03,-1.680383584133003927e-01,0.000000000000000000e+00
1.570000000000000000e+03,-5.810232053716172240e-01,0.000000000000000000e+00
1.571000000000000000e+03,-1.522539797291128268e-02,0.000000000000000000e+00
1.572000000000000000e+03,-4.038064277052906825e-01,0.000000000000000000e+00
1.573000000000000000e+03,1.721013907096716977e+00,0.000000000000000000e+00
1.574000000000000000e+03,2.612913786204651423e+00,0.000000000000000000e+00
1.575000000000000000e+03,-2.870244267373599278e+00,1.000000000000000000e+00
1.576000000000000000e+03,-1.657854321055191482e+00,0.000000000000000000e+00
1.577000000000000000e+03,-3.264945000390951368e-01,0.000000000000000000e+00
1.578000000000000000e+03,-1.117638539221360722e-01,0.000000000000000000e+00
1.579000000000000000e+03,9.745863038355515040e-02,0.000000000000000000e+00
1.580000000000000000e+03,3.563945304850261314e-02,0.000000000000000000e+00
1.581000000000000000e+03,9.761658801518403872e-02,0.000000000000000000e+00
1.582000000000000000e+03,2.521194157357965482e-01,0.000000000000000000e+00
1.583000000000000000e+03,2.079745524458012917e-01,0.000000000000000000e+00
1.584000000000000000e+03,2.588487600713526571e-01,0.000000000000000000e+00
1.585000000000000000e+03,3.355292535283609379e-01,0.000000000000000000e+00
1.586000000000000000e+03,3.684281999000768026e-01,0.000000000000000000e+00
1.587000000000000000e+03,4.796732938586387718e-01,0.000000000000000000e+00
