timestamp,ecg_measurement,qrs_detected
0.000000000000000000e+00,5.137589818772473338e-01,0.000000000000000000e+00
1.000000000000000000e+00,1.628737729117812894e-01,0.000000000000000000e+00
2.000000000000000000e+00,-1.395799472658928730e-01,0.000000000000000000e+00
3.000000000000000000e+00,-6.652210625694381374e-01,0.000000000000000000e+00
4.000000000000000000e+00,-1.074515320567895227e+00,0.000000000000000000e+00
5.000000000000000000e+00,-5.827776819247725282e-01,0.000000000000000000e+00
6.000000000000000000e+00,-7.481605552628542988e-01,0.000000000000000000e+00
7.000000000000000000e+00,-8.129270342118830595e-01,0.000000000000000000e+00
8.000000000000000000e+00,-2.629946170117886672e-01,0.000000000000000000e+00
9.000000000000000000e+00,-8.498642237496013552e-01,0.000000000000000000e+00
1.000000000000000000e+01,-1.811291584156199397e-01,0.000000000000000000e+00
1.100000000000000000e+01,-2.203249554729679038e-01,0.000000000000000000e+00
1.200000000000000000e+01,-5.645105606395988129e-01,0.000000000000000000e+00
1.300000000000000000e+01,-8.300210607316689526e-02,0.000000000000000000e+00
1.400000000000000000e+01,-3.081522564986251544e-01,0.000000000000000000e+00
1.500000000000000000e+01,9.578611727091244921e-02,0.000000000000000000e+00
1.600000000000000000e+01,-5.661188787000777101e-01,0.000000000000000000e+00
1.700000000000000000e+01,-1.400280247995277505e-01,0.000000000000000000e+00
1.800000000000000000e+01,9.113011360395660565e-02,0.000000000000000000e+00
1.900000000000000000e+01,2.328591538047867018e-02,0.000000000000000000e+00
2.000000000000000000e+01,-5.951094648443594481e-01,0.000000000000000000e+00
2.100000000000000000e+01,2.091320192340624939e-01,0.000000000000000000e+00
2.200000000000000000e+01,3.726611938803645052e-01,0.000000000000000000e+00
2.300000000000000000e+01,4.128246106416783023e-01,0.000000000000000000e+00
2.400000000000000000e+01,8.705964950710035066e-02,0.000000000000000000e+00
2.500000000000000000e+01,1.012464819367138030e-01,0.000000000000000000e+00
2.600000000000000000e+01,7.788280612429063776e-01,0.000000000000000000e+00
2.700000000000000000e+01,-2.861791478352829765e-01,0.000000000000000000e+00
2.800000000000000000e+01,1.571774260057384742e-01,0.000000000000000000e+00
2.900000000000000000e+01,-2.407474333581700876e-01,0.000000000000000000e+00
3.000000000000000000e+01,-5.328749080699250046e-02,0.000000000000000000e+00
3.100000000000000000e+01,1.240405713267277443e+00,0.000000000000000000e+00
3.200000000000000000e+01,4.812142452510953738e+00,0.000000000000000000e+00
3.300000000000000000e+01,1.372188463538844827e+00,1.000000000000000000e+00
3.400000000000000000e+01,-1.540091370502145285e+00,0.000000000000000000e+00
3.500000000000000000e+01,-1.000852998674889749e+00,0.000000000000000000e+00
3.600000000000000000e+01,-3.485538835168364158e-01,0.000000000000000000e+00
3.700000000000000000e+01,-6.611139706793996984e-01,0.000000000000000000e+00
3.800000000000000000e+01,-5.053314369607655454e-01,0.000000000000000000e+00
3.900000000000000000e+01,-3.771549030029713312e-01,0.000000000000000000e+00
4.000000000000000000e+01,-7.281155837548081156e-02,0.000000000000000000e+00
4.100000000000000000e+01,1.713366692373669287e-01,0.000000000000000000e+00
4.200000000000000000e+01,-1.994148805859244644e-01,0.000000000000000000e+00
4.300000000000000000e+01,-1.185567485740877530e-01,0.000000000000000000e+00
4.400000000000000000e+01,7.406781523364902586e-01,0.000000000000000000e+00
4.500000000000000000e+01,6.061376967878288058e-01,0.000000000000000000e+00
4.600000000000000000e+01,7.894612025277797374e-01,0.000000000000000000e+00
4.700000000000000000e+01,6.349383304415981977e-01,0.000000000000000000e+00
4.800000000000000000e+01,3.138286612531918096e-01,0.000000000000000000e+00
4.900000000000000000e+01,-2.601001674975702560e-01,0.000000000000000000e+00
5.000000000000000000e+01,-7.934271769343864689e-01,0.000000000000000000e+00
5.100000000000000000e+01,-8.079018379784519421e-01,0.000000000000000000e+00
5.200000000000000000e+01,-8.527624289297993654e-01,0.000000000000000000e+00
5.300000000000000000e+01,-8.115315235174148656e-01,0.000000000000000000e+00
5.400000000000000000e+01,-7.022123637156211240e-01,0.000000000000000000e+00
5.500000000000000000e+01,-9.127947729239631602e-01,0.000000000000000000e+00
5.600000000000000000e+01,-2.546098492209354358e-01,0.000000000000000000e+00
5.700000000000000000e+01,-4.997412636889468351e-01,0.000000000000000000e+00
5.800000000000000000e+01,-4.326581556523205196e-01,0.000000000000000000e+00
5.900000000000000000e+01,-8.914453828174026540e-02,0.000000000000000000e+00
6.000000000000000000e+01,-2.898714429073904753e-01,0.000000000000000000e+00
6.100000000000000000e+01,-3.984485056481431031e-01,0.000000000000000000e+00
6.200000000000000000e+01,2.047512466451447133e-01,0.000000000000000000e+00
6.300000000000000000e+01,-3.460472664979708513e-01,0.000000000000000000e+00
6.400000000000000000e+01,-1.519442635501084826e-01,0.000000000000000000e+00
6.500000000000000000e+01,1.760949175525749755e-01,0.000000000000000000e+00
6.600000000000000000e+01,-1.110020700213169148e-01,0.000000000000000000e+00
6.700000000000000000e+01,7.003599654595801804e-02,0.000000000000000000e+00
6.800000000000000000e+01,1.125018325927520414e-02,0.000000000000000000e+00
6.900000000000000000e+01,2.766488449819494710e-01,0.000000000000000000e+00
7.000000000000000000e+01,9.100330894263630732e-02,0.000000000000000000e+00
7.100000000000000000e+01,5.439388508962426094e-01,0.000000000000000000e+00
7.200000000000000000e+01,4.071404206087311239e-01,0.000000000000000000e+00
7.300000000000000000e+01,2.672056924503319886e-01,0.000000000000000000e+00
7.400000000000000000e+01,-7.498019892888999061e-02,0.000000000000000000e+00
7.500000000000000000e+01,1.117525212432749354e-01,0.000000000000000000e+00
7.600000000000000000e+01,-6.660264295584450434e-02,0.000000000000000000e+00
7.700000000000000000e+01,-8.219915287680379379e-02,0.000000000000000000e+00
7.800000000000000000e+01,7.010296152747961251e-01,0.000000000000000000e+00
7.900000000000000000e+01,5.839279325865726733e+00,0.000000000000000000e+00
8.000000000000000000e+01,2.081507448341682665e+00,1.000000000000000000e+00
8.100000000000000000e+01,-1.556643345858884420e+00,0.000000000000000000e+00
8.200000000000000000e+01,-7.033514986379747480e-01,0.000000000000000000e+00
8.300000000000000000e+01,-9.621122355412391469e-01,0.000000000000000000e+00
8.400000000000000000e+01,-4.955007441685280734e-01,0.000000000000000000e+00
8.500000000000000000e+01,-6.836494005845996647e-01,0.000000000000000000e+00
8.600000000000000000e+01,-5.681144800199174894e-01,0.000000000000000000e+00
8.700000000000000000e+01,-2.807833285005051915e-01,0.000000000000000000e+00
8.800000000000000000e+01,-7.425836406502378528e-02,0.000000000000000000e+00
8.900000000000000000e+01,-1.608464326913364995e-01,0.000000000000000000e+00
9.000000000000000000e+01,1.084830951684803979e-01,0.000000000000000000e+00
9.100000000000000000e+01,3.465337413345754847e-01,0.000000000000000000e+00
9.200000000000000000e+01,5.769113722516976406e-01,0.000000000000000000e+00
9.300000000000000000e+01,7.583696748992578840e-01,0.000000000000000000e+00
9.400000000000000000e+01,6.093647262948277410e-01,0.000000000000000000e+00
9.500000000000000000e+01,3.309333473790030400e-01,0.000000000000000000e+00
9.600000000000000000e+01,-9.912916152564001104e-02,0.000000000000000000e+00
9.700000000000000000e+01,-9.659788950037494493e-01,0.000000000000000000e+00
9.800000000000000000e+01,-8.176143926245550420e-01,0.000000000000000000e+00
9.900000000000000000e+01,-8.701473845019662701e-01,0.000000000000000000e+00
1.000000000000000000e+02,-9.768094307878403271e-01,0.000000000000000000e+00
1.010000000000000000e+02,-6.474113602554882885e-01,0.000000000000000000e+00
1.020000000000000000e+02,-6.082862714217379674e-01,0.000000000000000000e+00
1.030000000000000000e+02,-4.635234999558215385e-01,0.000000000000000000e+00
1.040000000000000000e+02,-5.094993684191486683e-01,0.000000000000000000e+00
1.050000000000000000e+02,-3.892168741584655089e-01,0.000000000000000000e+00
1.060000000000000000e+02,-3.247007524471565154e-01,0.000000000000000000e+00
1.070000000000000000e+02,9.088047392244053002e-02,0.000000000000000000e+00
1.080000000000000000e+02,-4.123565493562967310e-01,0.000000000000000000e+00
1.090000000000000000e+02,-1.731826037786036721e-01,0.000000000000000000e+00
1.100000000000000000e+02,-3.110106953322180380e-05,0.000000000000000000e+00
1.110000000000000000e+02,-1.595026544897455434e-01,0.000000000000000000e+00
1.120000000000000000e+02,2.183927952295938377e-02,0.000000000000000000e+00
1.130000000000000000e+02,-8.031108202710272870e-02,0.000000000000000000e+00
1.140000000000000000e+02,3.574300817005187647e-01,0.000000000000000000e+00
1.150000000000000000e+02,-1.580511844966963064e-01,0.000000000000000000e+00
1.160000000000000000e+02,-3.119897665321368085e-02,0.000000000000000000e+00
1.170000000000000000e+02,6.142601379112150317e-01,0.000000000000000000e+00
1.180000000000000000e+02,5.034648783785593551e-01,0.000000000000000000e+00
1.190000000000000000e+02,7.547128370578981560e-01,0.000000000000000000e+00
1.200000000000000000e+02,6.284657631406755096e-02,0.000000000000000000e+00
1.210000000000000000e+02,-2.770827117190614586e-01,0.000000000000000000e+00
1.220000000000000000e+02,2.505835597770081913e-01,0.000000000000000000e+00
1.230000000000000000e+02,2.297600456373332656e-01,0.000000000000000000e+00
1.240000000000000000e+02,-2.509083548086349369e-01,0.000000000000000000e+00
1.250000000000000000e+02,8.377893108482229456e-01,0.000000000000000000e+00
1.260000000000000000e+02,6.189017812979983546e+00,0.000000000000000000e+00
1.270000000000000000e+02,1.769190742167190189e+00,1.000000000000000000e+00
1.280000000000000000e+02,-1.565494891413165668e+00,0.000000000000000000e+00
1.290000000000000000e+02,-6.587030130979508735e-01,0.000000000000000000e+00
1.300000000000000000e+02,-1.126819402484200427e+00,0.000000000000000000e+00
1.310000000000000000e+02,-7.813254272653192833e-01,0.000000000000000000e+00
1.320000000000000000e+02,-5.048172989043904213e-01,0.000000000000000000e+00
1.330000000000000000e+02,-4.363434529100169157e-01,0.000000000000000000e+00
1.340000000000000000e+02,-3.998360487763792936e-01,0.000000000000000000e+00
1.350000000000000000e+02,-2.670665655484885104e-01,0.000000000000000000e+00
1.360000000000000000e+02,-7.179699567381356284e-02,0.000000000000000000e+00
1.370000000000000000e+02,-3.110990631963805875e-02,0.000000000000000000e+00
1.380000000000000000e+02,4.710273819923521121e-01,0.000000000000000000e+00
1.390000000000000000e+02,3.928933661950012035e-01,0.000000000000000000e+00
1.400000000000000000e+02,5.348719955630351075e-01,0.000000000000000000e+00
1.410000000000000000e+02,6.479793714586478126e-01,0.000000000000000000e+00
1.420000000000000000e+02,2.836421738900445910e-01,0.000000000000000000e+00
1.430000000000000000e+02,-3.576321557060275769e-01,0.000000000000000000e+00
1.440000000000000000e+02,-5.181739068784777524e-01,0.000000000000000000e+00
1.450000000000000000e+02,-1.389222874660996698e+00,0.000000000000000000e+00
1.460000000000000000e+02,-8.379474789443842608e-01,0.000000000000000000e+00
1.470000000000000000e+02,-6.451214666217028881e-01,0.000000000000000000e+00
1.480000000000000000e+02,-7.836745069934958341e-01,0.000000000000000000e+00
1.490000000000000000e+02,-5.029374684425081954e-01,0.000000000000000000e+00
1.500000000000000000e+02,-5.741109504361628924e-01,0.000000000000000000e+00
1.510000000000000000e+02,-4.766158298232603396e-01,0.000000000000000000e+00
1.520000000000000000e+02,-3.954036881218571109e-01,0.000000000000000000e+00
1.530000000000000000e+02,-4.050723370560992964e-01,0.000000000000000000e+00
1.540000000000000000e+02,-1.185625016830309103e-01,0.000000000000000000e+00
1.550000000000000000e+02,-4.407599963259922760e-01,0.000000000000000000e+00
1.560000000000000000e+02,-1.505034537099525505e-01,0.000000000000000000e+00
1.570000000000000000e+02,9.867054288931265127e-02,0.000000000000000000e+00
1.580000000000000000e+02,-3.468680522655013809e-01,0.000000000000000000e+00
1.590000000000000000e+02,1.215876207027110911e-01,0.000000000000000000e+00
1.600000000000000000e+02,-1.405400964561477894e-01,0.000000000000000000e+00
1.610000000000000000e+02,7.668185160850081450e-02,0.000000000000000000e+00
1.620000000000000000e+02,1.383479389477428045e-01,0.000000000000000000e+00
1.630000000000000000e+02,-1.009068318874599551e-01,0.000000000000000000e+00
1.640000000000000000e+02,3.981697003526961098e-01,0.000000000000000000e+00
1.650000000000000000e+02,7.237045987130860114e-01,0.000000000000000000e+00
1.660000000000000000e+02,4.759619777023004761e-01,0.000000000000000000e+00
1.670000000000000000e+02,2.457608150774453215e-01,0.000000000000000000e+00
1.680000000000000000e+02,1.397496540487629668e-01,0.000000000000000000e+00
1.690000000000000000e+02,-1.965067006924944293e-01,0.000000000000000000e+00
1.700000000000000000e+02,1.715224847970588662e-01,0.000000000000000000e+00
1.710000000000000000e+02,2.956903195555418140e-01,0.000000000000000000e+00
1.720000000000000000e+02,5.338221456305273227e-01,0.000000000000000000e+00
1.730000000000000000e+02,5.871189219816348448e+00,0.000000000000000000e+00
1.740000000000000000e+02,1.672207540218401789e+00,1.000000000000000000e+00
1.750000000000000000e+02,-1.077420423377661196e+00,0.000000000000000000e+00
1.760000000000000000e+02,-6.443982415166380484e-01,0.000000000000000000e+00
1.770000000000000000e+02,-8.093776794104036165e-01,0.000000000000000000e+00
1.780000000000000000e+02,-1.227006485751573672e+00,0.000000000000000000e+00
1.790000000000000000e+02,-7.829072158547260019e-01,0.000000000000000000e+00
1.800000000000000000e+02,-6.783175994678213028e-02,0.000000000000000000e+00
1.810000000000000000e+02,-1.556517452090973030e-01,0.000000000000000000e+00
1.820000000000000000e+02,-3.003289934740644429e-01,0.000000000000000000e+00
1.830000000000000000e+02,-2.191450580117124403e-01,0.000000000000000000e+00
1.840000000000000000e+02,2.479703381467445455e-01,0.000000000000000000e+00
1.850000000000000000e+02,2.712657222507756649e-01,0.000000000000000000e+00
1.860000000000000000e+02,5.759324060415604851e-01,0.000000000000000000e+00
1.870000000000000000e+02,6.503417178401554866e-01,0.000000000000000000e+00
1.880000000000000000e+02,8.039859311172126155e-01,0.000000000000000000e+00
1.890000000000000000e+02,2.346529521156024145e-01,0.000000000000000000e+00
1.900000000000000000e+02,-3.197034919730735170e-01,0.000000000000000000e+00
1.910000000000000000e+02,-5.811629108157165824e-01,0.000000000000000000e+00
1.920000000000000000e+02,-8.711269584840918290e-01,0.000000000000000000e+00
1.930000000000000000e+02,-9.744844179552574204e-01,0.000000000000000000e+00
1.940000000000000000e+02,-8.220402755966708108e-01,0.000000000000000000e+00
1.950000000000000000e+02,-7.134088535580145329e-01,0.000000000000000000e+00
1.960000000000000000e+02,-5.770557103718446657e-01,0.000000000000000000e+00
1.970000000000000000e+02,-4.044544191949522860e-01,0.000000000000000000e+00
1.980000000000000000e+02,-4.015174245392160168e-01,0.000000000000000000e+00
1.990000000000000000e+02,-7.850776960537380056e-01,0.000000000000000000e+00
2.000000000000000000e+02,-5.623617835646053248e-02,0.000000000000000000e+00
2.010000000000000000e+02,-1.704265739719116324e-01,0.000000000000000000e+00
2.020000000000000000e+02,-1.914378567502031392e-01,0.000000000000000000e+00
2.030000000000000000e+02,2.909713374852298043e-02,0.000000000000000000e+00
2.040000000000000000e+02,-4.595450027154411310e-01,0.000000000000000000e+00
2.050000000000000000e+02,-9.272484668780255068e-02,0.000000000000000000e+00
2.060000000000000000e+02,3.731217103454856354e-01,0.000000000000000000e+00
2.070000000000000000e+02,-2.255339956797143275e-01,0.000000000000000000e+00
2.080000000000000000e+02,-1.242526203814066084e-04,0.000000000000000000e+00
2.090000000000000000e+02,5.284522723606883687e-01,0.000000000000000000e+00
2.100000000000000000e+02,-1.117879417354504523e-02,0.000000000000000000e+00
2.110000000000000000e+02,2.097378637721001027e-01,0.000000000000000000e+00
2.120000000000000000e+02,5.608299910401679522e-01,0.000000000000000000e+00
2.130000000000000000e+02,4.251761145073345016e-01,0.000000000000000000e+00
2.140000000000000000e+02,3.682195195726969406e-01,0.000000000000000000e+00
2.150000000000000000e+02,-3.456373873269703856e-02,0.000000000000000000e+00
2.160000000000000000e+02,-9.861257687766260271e-02,0.000000000000000000e+00
2.170000000000000000e+02,-2.238471419936571005e-01,0.000000000000000000e+00
2.180000000000000000e+02,2.848014940276707430e-01,0.000000000000000000e+00
2.190000000000000000e+02,9.110534382514161589e-01,0.000000000000000000e+00
2.200000000000000000e+02,5.232085801454696927e+00,0.000000000000000000e+00
2.210000000000000000e+02,1.641292338305719190e+00,1.000000000000000000e+00
2.220000000000000000e+02,-1.728064621299921111e+00,0.000000000000000000e+00
2.230000000000000000e+02,-7.115380288802013453e-01,0.000000000000000000e+00
2.240000000000000000e+02,-3.995620829758924630e-01,0.000000000000000000e+00
2.250000000000000000e+02,-9.423434172687001897e-01,0.000000000000000000e+00
2.260000000000000000e+02,-4.114910519901446295e-01,0.000000000000000000e+00
2.270000000000000000e+02,-1.989227013874491357e-01,0.000000000000000000e+00
2.280000000000000000e+02,-3.204947779275410524e-01,0.000000000000000000e+00
2.290000000000000000e+02,-7.373818900061297754e-02,0.000000000000000000e+00
2.300000000000000000e+02,6.719503539093760192e-02,0.000000000000000000e+00
2.310000000000000000e+02,4.138467307059778139e-02,0.000000000000000000e+00
2.320000000000000000e+02,5.437278914694021470e-01,0.000000000000000000e+00
2.330000000000000000e+02,7.750810398575258553e-01,0.000000000000000000e+00
2.340000000000000000e+02,5.532257291792621601e-01,0.000000000000000000e+00
2.350000000000000000e+02,6.442839253700497482e-01,0.000000000000000000e+00
2.360000000000000000e+02,1.001988738395574452e-01,0.000000000000000000e+00
2.370000000000000000e+02,-2.326360467383782049e-01,0.000000000000000000e+00
2.380000000000000000e+02,-6.566899103661046899e-01,0.000000000000000000e+00
2.390000000000000000e+02,-1.094076612955863226e+00,0.000000000000000000e+00
2.400000000000000000e+02,-9.493409562928936118e-01,0.000000000000000000e+00
2.410000000000000000e+02,-8.802451166745521860e-01,0.000000000000000000e+00
2.420000000000000000e+02,-8.682782273555998964e-01,0.000000000000000000e+00
2.430000000000000000e+02,-7.541610595180234800e-01,0.000000000000000000e+00
2.440000000000000000e+02,-4.112154811860811443e-01,0.000000000000000000e+00
2.450000000000000000e+02,-5.517981998390710796e-01,0.000000000000000000e+00
2.460000000000000000e+02,-5.175938587801115487e-01,0.000000000000000000e+00
2.470000000000000000e+02,-3.141371108360030417e-01,0.000000000000000000e+00
2.480000000000000000e+02,-1.816661433268700887e-01,0.000000000000000000e+00
2.490000000000000000e+02,-2.692113817604224746e-01,0.000000000000000000e+00
2.500000000000000000e+02,-3.458597288643152079e-01,0.000000000000000000e+00
2.510000000000000000e+02,-2.662921151170065046e-02,0.000000000000000000e+00
2.520000000000000000e+02,-9.126625859117411255e-02,0.000000000000000000e+00
2.530000000000000000e+02,-1.606683068435627026e-01,0.000000000000000000e+00
2.540000000000000000e+02,1.537556829099452974e-02,0.000000000000000000e+00
2.550000000000000000e+02,-3.822032478582285675e-01,0.000000000000000000e+00
2.560000000000000000e+02,3.629366098708335930e-01,0.000000000000000000e+00
2.570000000000000000e+02,7.067928571573743601e-02,0.000000000000000000e+00
2.580000000000000000e+02,4.735014834748554335e-01,0.000000000000000000e+00
2.590000000000000000e+02,1.581092637942024814e-01,0.000000000000000000e+00
2.600000000000000000e+02,4.027566377386700425e-01,0.000000000000000000e+00
2.610000000000000000e+02,8.680035661432008998e-02,0.000000000000000000e+00
2.620000000000000000e+02,1.753738088070360690e-01,0.000000000000000000e+00
2.630000000000000000e+02,4.654922240490175223e-02,0.000000000000000000e+00
2.640000000000000000e+02,-1.314070761826063305e-01,0.000000000000000000e+00
2.650000000000000000e+02,-4.902101789244013297e-01,0.000000000000000000e+00
2.660000000000000000e+02,3.608078792914600097e+00,0.000000000000000000e+00
2.670000000000000000e+02,4.339243792693897817e+00,0.000000000000000000e+00
2.680000000000000000e+02,-1.439394894798861735e+00,1.000000000000000000e+00
2.690000000000000000e+02,-8.487107975892663747e-01,0.000000000000000000e+00
2.700000000000000000e+02,-7.258582071452588380e-01,0.000000000000000000e+00
2.710000000000000000e+02,-1.231547644382399581e-01,0.000000000000000000e+00
2.720000000000000000e+02,-8.565607491789305472e-01,0.000000000000000000e+00
2.730000000000000000e+02,2.190882607918266667e-01,0.000000000000000000e+00
2.740000000000000000e+02,-5.301706066434541675e-01,0.000000000000000000e+00
2.750000000000000000e+02,2.249778318553855572e-01,0.000000000000000000e+00
2.760000000000000000e+02,2.355348613979294306e-02,0.000000000000000000e+00
2.770000000000000000e+02,6.421487904132668068e-02,0.000000000000000000e+00
2.780000000000000000e+02,6.178443580689624293e-01,0.000000000000000000e+00
2.790000000000000000e+02,2.823949460675171941e-01,0.000000000000000000e+00
2.800000000000000000e+02,6.649873732230892065e-01,0.000000000000000000e+00
2.810000000000000000e+02,7.550453363279709951e-01,0.000000000000000000e+00
2.820000000000000000e+02,6.594829322964806950e-01,0.000000000000000000e+00
2.830000000000000000e+02,4.689312014679845181e-02,0.000000000000000000e+00
2.840000000000000000e+02,-2.828139693691925083e-01,0.000000000000000000e+00
2.850000000000000000e+02,-7.353949499107726995e-01,0.000000000000000000e+00
2.860000000000000000e+02,-7.712733669836949746e-01,0.000000000000000000e+00
2.870000000000000000e+02,-8.113929446434688941e-01,0.000000000000000000e+00
2.880000000000000000e+02,-6.190072468808721640e-01,0.000000000000000000e+00
2.890000000000000000e+02,-6.207416584047961150e-01,0.000000000000000000e+00
2.900000000000000000e+02,-3.679126803406868040e-01,0.000000000000000000e+00
2.910000000000000000e+02,-4.200233615060465775e-01,0.000000000000000000e+00
2.920000000000000000e+02,-5.090986855916814768e-01,0.000000000000000000e+00
2.930000000000000000e+02,-2.227230006250935368e-01,0.000000000000000000e+00
2.940000000000000000e+02,-2.509746305361981178e-01,0.000000000000000000e+00
2.950000000000000000e+02,-6.608177688290141349e-02,0.000000000000000000e+00
2.960000000000000000e+02,-4.299112951494746260e-01,0.000000000000000000e+00
2.970000000000000000e+02,-1.498710271629333235e-01,0.000000000000000000e+00
2.980000000000000000e+02,-8.801749842966255510e-02,0.000000000000000000e+00
2.990000000000000000e+02,-4.765909410879814144e-03,0.000000000000000000e+00
3.000000000000000000e+02,-3.653054303162118210e-01,0.000000000000000000e+00
3.010000000000000000e+02,-2.732993482857983686e-02,0.000000000000000000e+00
3.020000000000000000e+02,1.183669511600926177e-01,0.000000000000000000e+00
3.030000000000000000e+02,2.241279079951051800e-01,0.000000000000000000e+00
3.040000000000000000e+02,2.453173661304101361e-01,0.000000000000000000e+00
3.050000000000000000e+02,2.531796825790750827e-01,0.000000000000000000e+00
3.060000000000000000e+02,3.336853762599616413e-01,0.000000000000000000e+00
3.070000000000000000e+02,1.765530899389052832e-01,0.000000000000000000e+00
3.080000000000000000e+02,5.153861935342244488e-02,0.000000000000000000e+00
3.090000000000000000e+02,-2.604275718279513430e-01,0.000000000000000000e+00
3.100000000000000000e+02,2.276931348831136293e-01,0.000000000000000000e+00
3.110000000000000000e+02,-1.607254738948986905e-01,0.000000000000000000e+00
3.120000000000000000e+02,1.062997393949375313e+00,0.000000000000000000e+00
3.130000000000000000e+02,4.996067740623370668e+00,0.000000000000000000e+00
3.140000000000000000e+02,8.939705288137539396e-01,1.000000000000000000e+00
3.150000000000000000e+02,-1.565800612301127659e+00,0.000000000000000000e+00
3.160000000000000000e+02,-7.989183173164936536e-01,0.000000000000000000e+00
3.170000000000000000e+02,-7.252018931062167439e-01,0.000000000000000000e+00
3.180000000000000000e+02,-3.056318522574006380e-01,0.000000000000000000e+00
3.190000000000000000e+02,-5.799712600831650189e-01,0.000000000000000000e+00
3.200000000000000000e+02,-1.781499243656260723e-01,0.000000000000000000e+00
3.210000000000000000e+02,8.140277517632167614e-02,0.000000000000000000e+00
3.220000000000000000e+02,-3.781914658241706251e-01,0.000000000000000000e+00
3.230000000000000000e+02,1.165772397076829947e-01,0.000000000000000000e+00
3.240000000000000000e+02,3.696386912231338084e-01,0.000000000000000000e+00
3.250000000000000000e+02,1.762558697923571616e-01,0.000000000000000000e+00
3.260000000000000000e+02,5.670646703821772272e-01,0.000000000000000000e+00
3.270000000000000000e+02,7.889658079152610526e-01,0.000000000000000000e+00
3.280000000000000000e+02,7.755531887473103847e-01,0.000000000000000000e+00
3.290000000000000000e+02,-1.374984280434733419e-01,0.000000000000000000e+00
3.300000000000000000e+02,-7.906737861741350293e-02,0.000000000000000000e+00
3.310000000000000000e+02,-6.154607863372368870e-01,0.000000000000000000e+00
3.320000000000000000e+02,-7.387701883431722072e-01,0.000000000000000000e+00
3.330000000000000000e+02,-8.727640836012170444e-01,0.000000000000000000e+00
3.340000000000000000e+02,-9.762369311746849077e-01,0.000000000000000000e+00
3.350000000000000000e+02,-2.033387757229136172e-01,0.000000000000000000e+00
3.360000000000000000e+02,-9.429945119188597458e-01,0.000000000000000000e+00
3.370000000000000000e+02,-5.743194728554911199e-01,0.000000000000000000e+00
3.380000000000000000e+02,-2.397433591898592009e-01,0.000000000000000000e+00
3.390000000000000000e+02,-3.208818462493021606e-01,0.000000000000000000e+00
3.400000000000000000e+02,-3.870667845651335481e-01,0.000000000000000000e+00
3.410000000000000000e+02,-1.005940406085610583e-01,0.000000000000000000e+00
3.420000000000000000e+02,-2.103680672645786565e-01,0.000000000000000000e+00
3.430000000000000000e+02,-2.940410690840768448e-01,0.000000000000000000e+00
3.440000000000000000e+02,-6.243652222531517748e-02,0.000000000000000000e+00
3.450000000000000000e+02,-1.341686456450230103e-01,0.000000000000000000e+00
3.460000000000000000e+02,-3.726776952630076606e-02,0.000000000000000000e+00
3.470000000000000000e+02,1.707938914039808520e-01,0.000000000000000000e+00
3.480000000000000000e+02,-2.689578283544544896e-02,0.000000000000000000e+00
3.490000000000000000e+02,-2.764880717822893463e-01,0.000000000000000000e+00
3.500000000000000000e+02,5.214331611484851470e-01,0.000000000000000000e+00
3.510000000000000000e+02,3.161979951187119942e-01,0.000000000000000000e+00
3.520000000000000000e+02,4.201721418956409493e-01,0.000000000000000000e+00
3.530000000000000000e+02,6.184329497441163337e-01,0.000000000000000000e+00
3.540000000000000000e+02,-1.607816910263600851e-01,0.000000000000000000e+00
3.550000000000000000e+02,3.306550915921172562e-01,0.000000000000000000e+00
3.560000000000000000e+02,-1.821656265348875203e-01,0.000000000000000000e+00
3.570000000000000000e+02,1.365071211747135582e-01,0.000000000000000000e+00
3.580000000000000000e+02,-1.645405213963340441e-01,0.000000000000000000e+00
3.590000000000000000e+02,2.084336318897603846e+00,0.000000000000000000e+00
3.600000000000000000e+02,5.288019872637673480e+00,0.000000000000000000e+00
3.610000000000000000e+02,2.135069473898904835e-01,1.000000000000000000e+00
3.620000000000000000e+02,-1.080507258224612688e+00,0.000000000000000000e+00
3.630000000000000000e+02,-9.161931270122042337e-01,0.000000000000000000e+00
3.640000000000000000e+02,-7.090295603925568235e-01,0.000000000000000000e+00
3.650000000000000000e+02,-3.031470656866288027e-01,0.000000000000000000e+00
3.660000000000000000e+02,-8.006485501135881533e-01,0.000000000000000000e+00
3.670000000000000000e+02,-1.304383882955948148e-01,0.000000000000000000e+00
3.680000000000000000e+02,-2.666377954833231700e-01,0.000000000000000000e+00
3.690000000000000000e+02,-3.436614859825717350e-01,0.000000000000000000e+00
3.700000000000000000e+02,2.935070721694219009e-01,0.000000000000000000e+00
3.710000000000000000e+02,1.788741841537672406e-01,0.000000000000000000e+00
3.720000000000000000e+02,-8.153987925815908699e-02,0.000000000000000000e+00
3.730000000000000000e+02,7.584232323167015011e-01,0.000000000000000000e+00
3.740000000000000000e+02,6.980996638122106690e-01,0.000000000000000000e+00
3.750000000000000000e+02,5.330027079922918798e-01,0.000000000000000000e+00
3.760000000000000000e+02,1.507393342990255014e-01,0.000000000000000000e+00
3.770000000000000000e+02,-4.903363278457423258e-01,0.000000000000000000e+00
3.780000000000000000e+02,-9.097986937346670411e-01,0.000000000000000000e+00
3.790000000000000000e+02,-9.529351399802992173e-01,0.000000000000000000e+00
3.800000000000000000e+02,-5.857962368656286500e-01,0.000000000000000000e+00
3.810000000000000000e+02,-9.559591481889067044e-01,0.000000000000000000e+00
3.820000000000000000e+02,-6.625402747104816026e-01,0.000000000000000000e+00
3.830000000000000000e+02,-7.732305092497935295e-01,0.000000000000000000e+00
3.840000000000000000e+02,-4.304342348309133648e-01,0.000000000000000000e+00
3.850000000000000000e+02,-6.411583871352335984e-02,0.000000000000000000e+00
3.860000000000000000e+02,-4.282186213835585953e-01,0.000000000000000000e+00
3.870000000000000000e+02,-5.174075065298375797e-01,0.000000000000000000e+00
3.880000000000000000e+02,-1.363150042004758478e-01,0.000000000000000000e+00
3.890000000000000000e+02,-1.875651103714650325e-01,0.000000000000000000e+00
3.900000000000000000e+02,-3.990644085866219826e-02,0.000000000000000000e+00
3.910000000000000000e+02,-2.565903058956324201e-01,0.000000000000000000e+00
3.920000000000000000e+02,-2.482112939956486464e-01,0.000000000000000000e+00
3.930000000000000000e+02,6.466835778158450121e-02,0.000000000000000000e+00
3.940000000000000000e+02,3.543003737995312208e-02,0.000000000000000000e+00
3.950000000000000000e+02,-6.624229357556128683e-02,0.000000000000000000e+00
3.960000000000000000e+02,-1.244534755146216448e-01,0.000000000000000000e+00
3.970000000000000000e+02,3.385139364020026687e-01,0.000000000000000000e+00
3.980000000000000000e+02,5.844090231763658938e-01,0.000000000000000000e+00
3.990000000000000000e+02,2.966140783884886889e-01,0.000000000000000000e+00
4.000000000000000000e+02,4.380793832480006644e-01,0.000000000000000000e+00
4.010000000000000000e+02,1.476234186960282135e-01,0.000000000000000000e+00
4.020000000000000000e+02,1.038656467636599051e-01,0.000000000000000000e+00
4.030000000000000000e+02,-4.008995337594703501e-02,0.000000000000000000e+00
4.040000000000000000e+02,8.093239583601385956e-02,0.000000000000000000e+00
4.050000000000000000e+02,-2.887371323644203902e-01,0.000000000000000000e+00
4.060000000000000000e+02,2.239219439340821349e+00,0.000000000000000000e+00
4.070000000000000000e+02,5.994760614791041498e+00,0.000000000000000000e+00
4.080000000000000000e+02,1.510809819293466583e-01,1.000000000000000000e+00
4.090000000000000000e+02,-9.870027709968812735e-01,0.000000000000000000e+00
4.100000000000000000e+02,-9.406580931893226971e-01,0.000000000000000000e+00
4.110000000000000000e+02,-5.180014911653819665e-01,0.000000000000000000e+00
4.120000000000000000e+02,-9.072697003709305763e-01,0.000000000000000000e+00
4.130000000000000000e+02,-4.998892882757840495e-01,0.000000000000000000e+00
4.140000000000000000e+02,-3.922784543887055664e-01,0.000000000000000000e+00
4.150000000000000000e+02,-2.025308298385558314e-01,0.000000000000000000e+00
4.160000000000000000e+02,-3.424674091747299531e-01,0.000000000000000000e+00
4.170000000000000000e+02,9.143207743966584589e-02,0.000000000000000000e+00
4.180000000000000000e+02,4.481099270139268093e-02,0.000000000000000000e+00
4.190000000000000000e+02,4.605146130040237429e-01,0.000000000000000000e+00
4.200000000000000000e+02,5.125313922115340981e-01,0.000000000000000000e+00
4.210000000000000000e+02,1.004732204057131595e+00,0.000000000000000000e+00
4.220000000000000000e+02,5.032900478021046231e-01,0.000000000000000000e+00
4.230000000000000000e+02,1.313378157401592361e-01,0.000000000000000000e+00
4.240000000000000000e+02,-3.939804754249935925e-01,0.000000000000000000e+00
4.250000000000000000e+02,-9.238901300894858393e-01,0.000000000000000000e+00
4.260000000000000000e+02,-5.809549566583134261e-01,0.000000000000000000e+00
4.270000000000000000e+02,-1.145389694786397072e+00,0.000000000000000000e+00
4.280000000000000000e+02,-7.562817713589059521e-01,0.000000000000000000e+00
4.290000000000000000e+02,-6.696803407869814651e-01,0.000000000000000000e+00
4.300000000000000000e+02,-4.896199813434620740e-01,0.000000000000000000e+00
4.310000000000000000e+02,-6.763835387989761694e-01,0.000000000000000000e+00
4.320000000000000000e+02,-2.362356010498674608e-01,0.000000000000000000e+00
4.330000000000000000e+02,-4.047661201814991561e-01,0.000000000000000000e+00
4.340000000000000000e+02,-2.010494554380233279e-01,0.000000000000000000e+00
4.350000000000000000e+02,-1.621437057690117700e-01,0.000000000000000000e+00
4.360000000000000000e+02,-3.658010426116943270e-01,0.000000000000000000e+00
4.370000000000000000e+02,-5.925754296752903938e-02,0.000000000000000000e+00
4.380000000000000000e+02,-2.382361307161723063e-01,0.000000000000000000e+00
4.390000000000000000e+02,-5.788591586903021891e-02,0.000000000000000000e+00
4.400000000000000000e+02,1.025807438855786818e-01,0.000000000000000000e+00
4.410000000000000000e+02,-1.151869523604379941e-01,0.000000000000000000e+00
4.420000000000000000e+02,-2.626664816055319096e-01,0.000000000000000000e+00
4.430000000000000000e+02,3.447972473954045158e-01,0.000000000000000000e+00
4.440000000000000000e+02,9.683274936732191862e-02,0.000000000000000000e+00
4.450000000000000000e+02,2.257641482109757902e-01,0.000000000000000000e+00
4.460000000000000000e+02,7.742257530132087284e-01,0.000000000000000000e+00
4.470000000000000000e+02,4.294031981190213343e-01,0.000000000000000000e+00
4.480000000000000000e+02,1.149549726971477726e-01,0.000000000000000000e+00
4.490000000000000000e+02,5.717953652739262566e-02,0.000000000000000000e+00
4.500000000000000000e+02,1.686988097792665661e-02,0.000000000000000000e+00
4.510000000000000000e+02,-1.306455262015815133e-01,0.000000000000000000e+00
4.520000000000000000e+02,-3.715640635715358742e-02,0.000000000000000000e+00
4.530000000000000000e+02,1.140944931721994848e+00,0.000000000000000000e+00
4.540000000000000000e+02,6.010445805683888310e+00,0.000000000000000000e+00
4.550000000000000000e+02,1.731414021833822092e+00,1.000000000000000000e+00
4.560000000000000000e+02,-1.471543294795909507e+00,0.000000000000000000e+00
4.570000000000000000e+02,-8.235257712374846051e-01,0.000000000000000000e+00
4.580000000000000000e+02,-7.273275820030918881e-01,0.000000000000000000e+00
4.590000000000000000e+02,-9.033337842809203710e-01,0.000000000000000000e+00
4.600000000000000000e+02,-7.244686170428429328e-01,0.000000000000000000e+00
4.610000000000000000e+02,-3.533981821744422436e-01,0.000000000000000000e+00
4.620000000000000000e+02,-3.610181246960624812e-01,0.000000000000000000e+00
4.630000000000000000e+02,-6.589622807127720402e-03,0.000000000000000000e+00
4.640000000000000000e+02,-3.271182581609269335e-01,0.000000000000000000e+00
4.650000000000000000e+02,1.654117207929312605e-01,0.000000000000000000e+00
4.660000000000000000e+02,1.945012099730269173e-01,0.000000000000000000e+00
4.670000000000000000e+02,6.898256107460516429e-01,0.000000000000000000e+00
4.680000000000000000e+02,5.201517091774410240e-01,0.000000000000000000e+00
4.690000000000000000e+02,8.327093113398823521e-01,0.000000000000000000e+00
4.700000000000000000e+02,1.031038926415859397e-01,0.000000000000000000e+00
4.710000000000000000e+02,-3.217808105862761114e-01,0.000000000000000000e+00
4.720000000000000000e+02,-8.554672876119167046e-01,0.000000000000000000e+00
4.730000000000000000e+02,-8.337610067390377466e-01,0.000000000000000000e+00
4.740000000000000000e+02,-7.305477016681087843e-01,0.000000000000000000e+00
4.750000000000000000e+02,-1.011306994027576955e+00,0.000000000000000000e+00
4.760000000000000000e+02,-9.636596395031520323e-01,0.000000000000000000e+00
4.770000000000000000e+02,-6.833238302392400376e-01,0.000000000000000000e+00
4.780000000000000000e+02,-5.270925281419810426e-01,0.000000000000000000e+00
4.790000000000000000e+02,-2.890573598585861048e-01,0.000000000000000000e+00
4.800000000000000000e+02,-5.373874740368050906e-01,0.000000000000000000e+00
4.810000000000000000e+02,-2.492856098362527251e-01,0.000000000000000000e+00
4.820000000000000000e+02,-2.707875014817962001e-01,0.000000000000000000e+00
4.830000000000000000e+02,-3.072332519447920074e-01,0.000000000000000000e+00
4.840000000000000000e+02,-3.576793809154489301e-01,0.000000000000000000e+00
4.850000000000000000e+02,-3.014880295809405641e-01,0.000000000000000000e+00
4.860000000000000000e+02,2.982242528768227693e-02,0.000000000000000000e+00
4.870000000000000000e+02,5.965886168258789646e-02,0.000000000000000000e+00
4.880000000000000000e+02,-7.014322458674603078e-02,0.000000000000000000e+00
4.890000000000000000e+02,2.994316064368807845e-02,0.000000000000000000e+00
4.900000000000000000e+02,-8.372109155236223677e-02,0.000000000000000000e+00
4.910000000000000000e+02,3.405840272964007487e-01,0.000000000000000000e+00
4.920000000000000000e+02,2.317583533254937433e-01,0.000000000000000000e+00
4.930000000000000000e+02,4.949054238754418966e-01,0.000000000000000000e+00
4.940000000000000000e+02,6.996420813228826363e-01,0.000000000000000000e+00
4.950000000000000000e+02,1.569744134375220534e-01,0.000000000000000000e+00
4.960000000000000000e+02,1.469175302369291614e-01,0.000000000000000000e+00
4.970000000000000000e+02,6.775070053488624344e-02,0.000000000000000000e+00
4.980000000000000000e+02,-3.897374363101605010e-02,0.000000000000000000e+00
4.990000000000000000e+02,7.057227002646528080e-02,0.000000000000000000e+00
5.000000000000000000e+02,1.380715683654559489e-01,0.000000000000000000e+00
5.010000000000000000e+02,5.105884005196973163e+00,0.000000000000000000e+00
5.020000000000000000e+02,3.723052645374847813e+00,1.000000000000000000e+00
5.030000000000000000e+02,-1.664529229623052942e+00,0.000000000000000000e+00
5.040000000000000000e+02,-9.005164835979344584e-01,0.000000000000000000e+00
5.050000000000000000e+02,-6.972901440779487592e-01,0.000000000000000000e+00
5.060000000000000000e+02,-4.867063517111605009e-01,0.000000000000000000e+00
5.070000000000000000e+02,-5.484038562611659451e-01,0.000000000000000000e+00
5.080000000000000000e+02,-4.340730505749842982e-01,0.000000000000000000e+00
5.090000000000000000e+02,-3.618961763285662991e-01,0.000000000000000000e+00
5.100000000000000000e+02,-3.557368368125035651e-01,0.000000000000000000e+00
5.110000000000000000e+02,3.030096941575038949e-01,0.000000000000000000e+00
5.120000000000000000e+02,1.915276413533084088e-01,0.000000000000000000e+00
5.130000000000000000e+02,1.605589032599319399e-01,0.000000000000000000e+00
5.140000000000000000e+02,5.362417206689911175e-01,0.000000000000000000e+00
5.150000000000000000e+02,4.639481480360815313e-01,0.000000000000000000e+00
5.160000000000000000e+02,1.145032566897453030e+00,0.000000000000000000e+00
5.170000000000000000e+02,2.972296020360395974e-01,0.000000000000000000e+00
5.180000000000000000e+02,-8.113905267233362251e-02,0.000000000000000000e+00
5.190000000000000000e+02,-5.285413871544131226e-01,0.000000000000000000e+00
5.200000000000000000e+02,-1.218255202166788509e+00,0.000000000000000000e+00
5.210000000000000000e+02,-8.612368770951688290e-01,0.000000000000000000e+00
5.220000000000000000e+02,-6.999736963858207428e-01,0.000000000000000000e+00
5.230000000000000000e+02,-7.805415953917870242e-01,0.000000000000000000e+00
5.240000000000000000e+02,-6.738913664640467927e-01,0.000000000000000000e+00
5.250000000000000000e+02,-6.741487276886358737e-01,0.000000000000000000e+00
5.260000000000000000e+02,-4.259323765593499567e-01,0.000000000000000000e+00
5.270000000000000000e+02,-4.756541689286112318e-01,0.000000000000000000e+00
5.280000000000000000e+02,-3.221555409529819336e-01,0.000000000000000000e+00
5.290000000000000000e+02,-2.609684202554771737e-01,0.000000000000000000e+00
5.300000000000000000e+02,-3.683211205777685571e-01,0.000000000000000000e+00
5.310000000000000000e+02,-3.601063896628317051e-01,0.000000000000000000e+00
5.320000000000000000e+02,-8.576942008304895559e-02,0.000000000000000000e+00
5.330000000000000000e+02,-6.284720965031365125e-02,0.000000000000000000e+00
5.340000000000000000e+02,-9.502732473128029655e-02,0.000000000000000000e+00
5.350000000000000000e+02,-1.085028060214482670e-01,0.000000000000000000e+00
5.360000000000000000e+02,-1.264468919466033570e-01,0.000000000000000000e+00
5.370000000000000000e+02,-2.117792203456449196e-02,0.000000000000000000e+00
5.380000000000000000e+02,2.188402902211535606e-01,0.000000000000000000e+00
5.390000000000000000e+02,1.226295786862272030e-01,0.000000000000000000e+00
5.400000000000000000e+02,4.976838327234697212e-01,0.000000000000000000e+00
5.410000000000000000e+02,6.163760984455315395e-01,0.000000000000000000e+00
5.420000000000000000e+02,1.600979441455749053e-01,0.000000000000000000e+00
5.430000000000000000e+02,6.463992396845275393e-03,0.000000000000000000e+00
5.440000000000000000e+02,3.819614457084689052e-01,0.000000000000000000e+00
5.450000000000000000e+02,-4.259146151400781677e-01,0.000000000000000000e+00
5.460000000000000000e+02,2.801354218642789773e-01,0.000000000000000000e+00
5.470000000000000000e+02,1.050704798753805957e-01,0.000000000000000000e+00
5.480000000000000000e+02,4.407241200220837207e+00,0.000000000000000000e+00
5.490000000000000000e+02,2.661462972202478294e+00,1.000000000000000000e+00
5.500000000000000000e+02,-1.354340458693311877e+00,0.000000000000000000e+00
5.510000000000000000e+02,-1.031649734500230009e+00,0.000000000000000000e+00
5.520000000000000000e+02,-7.321176477690449769e-01,0.000000000000000000e+00
5.530000000000000000e+02,-2.623736348251111128e-01,0.000000000000000000e+00
5.540000000000000000e+02,-5.326096065851111394e-01,0.000000000000000000e+00
5.550000000000000000e+02,-7.252554396617395815e-02,0.000000000000000000e+00
5.560000000000000000e+02,-4.002100650580823205e-01,0.000000000000000000e+00
5.570000000000000000e+02,-1.322978282641197600e-01,0.000000000000000000e+00
5.580000000000000000e+02,4.490231357029933479e-02,0.000000000000000000e+00
5.590000000000000000e+02,3.852143933618176752e-01,0.000000000000000000e+00
5.600000000000000000e+02,3.716584472875187339e-01,0.000000000000000000e+00
5.610000000000000000e+02,4.417871693441379199e-01,0.000000000000000000e+00
5.620000000000000000e+02,6.348605754613381169e-01,0.000000000000000000e+00
5.630000000000000000e+02,8.729984010899327629e-01,0.000000000000000000e+00
5.640000000000000000e+02,3.715980763904636053e-01,0.000000000000000000e+00
5.650000000000000000e+02,-7.829064471369927281e-02,0.000000000000000000e+00
5.660000000000000000e+02,-3.005036744655991132e-01,0.000000000000000000e+00
5.670000000000000000e+02,-8.924930887782596134e-01,0.000000000000000000e+00
5.680000000000000000e+02,-7.947295191021722660e-01,0.000000000000000000e+00
5.690000000000000000e+02,-8.178567229382165404e-01,0.000000000000000000e+00
5.700000000000000000e+02,-5.183855965068209226e-01,0.000000000000000000e+00
5.710000000000000000e+02,-5.482213219886479250e-01,0.000000000000000000e+00
5.720000000000000000e+02,-4.279317796230692750e-01,0.000000000000000000e+00
5.730000000000000000e+02,-2.685788367340304905e-01,0.000000000000000000e+00
5.740000000000000000e+02,-2.890412602564292888e-01,0.000000000000000000e+00
5.750000000000000000e+02,-2.484633594915044430e-01,0.000000000000000000e+00
5.760000000000000000e+02,-3.823874739011314250e-01,0.000000000000000000e+00
5.770000000000000000e+02,9.222530694682871955e-02,0.000000000000000000e+00
5.780000000000000000e+02,-2.158402251846851250e-01,0.000000000000000000e+00
5.790000000000000000e+02,1.376565133514356665e-01,0.000000000000000000e+00
5.800000000000000000e+02,-4.720587202441600128e-01,0.000000000000000000e+00
5.810000000000000000e+02,4.487778476117661175e-02,0.000000000000000000e+00
5.820000000000000000e+02,-2.702041285308212637e-01,0.000000000000000000e+00
5.830000000000000000e+02,2.435631413328341599e-01,0.000000000000000000e+00
5.840000000000000000e+02,4.201117591816010827e-02,0.000000000000000000e+00
5.850000000000000000e+02,1.661201277637496809e-01,0.000000000000000000e+00
5.860000000000000000e+02,-1.814320103580675247e-01,0.000000000000000000e+00
5.870000000000000000e+02,4.918856807844032564e-01,0.000000000000000000e+00
5.880000000000000000e+02,4.954246188114586613e-01,0.000000000000000000e+00
5.890000000000000000e+02,2.232138181161081869e-01,0.000000000000000000e+00
5.900000000000000000e+02,1.214245115732810396e-02,0.000000000000000000e+00
5.910000000000000000e+02,8.314261888005372581e-02,0.000000000000000000e+00
5.920000000000000000e+02,-4.423888434293238858e-01,0.000000000000000000e+00
5.930000000000000000e+02,4.130508848743885686e-01,0.000000000000000000e+00
5.940000000000000000e+02,-1.131372190232818042e-01,0.000000000000000000e+00
5.950000000000000000e+02,3.806290766337413256e+00,0.000000000000000000e+00
5.960000000000000000e+02,3.230653025704151915e+00,0.000000000000000000e+00
5.970000000000000000e+02,-1.504833390725761832e+00,1.000000000000000000e+00
5.980000000000000000e+02,-8.653352283773727560e-01,0.000000000000000000e+00
5.990000000000000000e+02,-7.640529518772130047e-01,0.000000000000000000e+00
6.000000000000000000e+02,-5.270058501939876017e-01,0.000000000000000000e+00
6.010000000000000000e+02,-6.040347278318867197e-01,0.000000000000000000e+00
6.020000000000000000e+02,-3.167937143876461414e-01,0.000000000000000000e+00
6.030000000000000000e+02,-2.413930503249091530e-01,0.000000000000000000e+00
6.040000000000000000e+02,-1.405894382224477657e-01,0.000000000000000000e+00
6.050000000000000000e+02,1.951081905191307253e-01,0.000000000000000000e+00
6.060000000000000000e+02,-1.251150273600283580e-01,0.000000000000000000e+00
6.070000000000000000e+02,4.347086207336676722e-01,0.000000000000000000e+00
6.080000000000000000e+02,3.870116864789632793e-01,0.000000000000000000e+00
6.090000000000000000e+02,6.648988887640644441e-01,0.000000000000000000e+00
6.100000000000000000e+02,7.861664925515107205e-01,0.000000000000000000e+00
6.110000000000000000e+02,2.092782515789203546e-01,0.000000000000000000e+00
6.120000000000000000e+02,-2.610940108561654593e-01,0.000000000000000000e+00
6.130000000000000000e+02,-5.299828095833910568e-01,0.000000000000000000e+00
6.140000000000000000e+02,-5.696287854102967119e-01,0.000000000000000000e+00
6.150000000000000000e+02,-1.072096355982059324e+00,0.000000000000000000e+00
6.160000000000000000e+02,-7.667850357295183938e-01,0.000000000000000000e+00
6.170000000000000000e+02,-6.762238887798378562e-01,0.000000000000000000e+00
6.180000000000000000e+02,-6.604521273407520932e-01,0.000000000000000000e+00
6.190000000000000000e+02,-3.544785387208407301e-01,0.000000000000000000e+00
6.200000000000000000e+02,-4.778648920324796712e-01,0.000000000000000000e+00
6.210000000000000000e+02,-5.864168689998415784e-01,0.000000000000000000e+00
6.220000000000000000e+02,-1.049166409001142802e-01,0.000000000000000000e+00
6.230000000000000000e+02,-4.801902815107573774e-01,0.000000000000000000e+00
6.240000000000000000e+02,-2.877298845565540719e-01,0.000000000000000000e+00
6.250000000000000000e+02,-2.630838166952076951e-01,0.000000000000000000e+00
6.260000000000000000e+02,-4.898704935745479966e-02,0.000000000000000000e+00
6.270000000000000000e+02,-4.366274094328183031e-01,0.000000000000000000e+00
6.280000000000000000e+02,2.160451105566800478e-01,0.000000000000000000e+00
6.290000000000000000e+02,-1.764451809790645309e-01,0.000000000000000000e+00
6.300000000000000000e+02,-1.681804684266584304e-01,0.000000000000000000e+00
6.310000000000000000e+02,6.126865800312318588e-02,0.000000000000000000e+00
6.320000000000000000e+02,8.086663760177545401e-02,0.000000000000000000e+00
6.330000000000000000e+02,1.070736111862905515e-01,0.000000000000000000e+00
6.340000000000000000e+02,2.958892175974401906e-01,0.000000000000000000e+00
6.350000000000000000e+02,9.017604996609879242e-01,0.000000000000000000e+00
6.360000000000000000e+02,-1.731529196971464124e-01,0.000000000000000000e+00
6.370000000000000000e+02,3.136377820588889254e-01,0.000000000000000000e+00
6.380000000000000000e+02,2.431175559210182469e-01,0.000000000000000000e+00
6.390000000000000000e+02,-4.225485441528041286e-01,0.000000000000000000e+00
6.400000000000000000e+02,3.754290720873281750e-01,0.000000000000000000e+00
6.410000000000000000e+02,-2.646127269540554106e-01,0.000000000000000000e+00
6.420000000000000000e+02,3.101344253273286000e+00,0.000000000000000000e+00
6.430000000000000000e+02,4.656367954502554696e+00,0.000000000000000000e+00
6.440000000000000000e+02,-1.057818636074318253e+00,1.000000000000000000e+00
6.450000000000000000e+02,-8.256768809205503601e-01,0.000000000000000000e+00
6.460000000000000000e+02,-8.480277925610695267e-01,0.000000000000000000e+00
6.470000000000000000e+02,-6.835843891442998643e-01,0.000000000000000000e+00
6.480000000000000000e+02,-2.383142325977959664e-01,0.000000000000000000e+00
6.490000000000000000e+02,-3.622065798569346073e-01,0.000000000000000000e+00
6.500000000000000000e+02,-2.325309304676760891e-01,0.000000000000000000e+00
6.510000000000000000e+02,-2.214269805963113569e-01,0.000000000000000000e+00
6.520000000000000000e+02,-2.506524315324044905e-02,0.000000000000000000e+00
6.530000000000000000e+02,1.448718096734612215e-01,0.000000000000000000e+00
6.540000000000000000e+02,4.486930649232850898e-01,0.000000000000000000e+00
6.550000000000000000e+02,6.744983533488562166e-01,0.000000000000000000e+00
6.560000000000000000e+02,5.656995487612711537e-01,0.000000000000000000e+00
6.570000000000000000e+02,5.246743059343064175e-01,0.000000000000000000e+00
6.580000000000000000e+02,7.924390482056926643e-01,0.000000000000000000e+00
6.590000000000000000e+02,1.303691699686410910e-01,0.000000000000000000e+00
6.600000000000000000e+02,-4.262492594308277538e-01,0.000000000000000000e+00
6.610000000000000000e+02,-8.334720283565220100e-01,0.000000000000000000e+00
6.620000000000000000e+02,-7.976021165119441259e-01,0.000000000000000000e+00
6.630000000000000000e+02,-8.452394521303349118e-01,0.000000000000000000e+00
6.640000000000000000e+02,-7.573840401600788752e-01,0.000000000000000000e+00
6.650000000000000000e+02,-4.665306537985557944e-01,0.000000000000000000e+00
6.660000000000000000e+02,-7.585727858434497817e-01,0.000000000000000000e+00
6.670000000000000000e+02,-3.786058842766244492e-01,0.000000000000000000e+00
6.680000000000000000e+02,-3.532183842322407785e-01,0.000000000000000000e+00
6.690000000000000000e+02,-3.769207432127333335e-01,0.000000000000000000e+00
6.700000000000000000e+02,-2.994640583092765818e-01,0.000000000000000000e+00
6.710000000000000000e+02,-1.861303673322678154e-01,0.000000000000000000e+00
6.720000000000000000e+02,-4.337503630851051173e-01,0.000000000000000000e+00
6.730000000000000000e+02,-2.021490420919420661e-01,0.000000000000000000e+00
6.740000000000000000e+02,-9.666458846281228423e-02,0.000000000000000000e+00
6.750000000000000000e+02,2.727722003844574444e-02,0.000000000000000000e+00
6.760000000000000000e+02,-7.413315905848140430e-02,0.000000000000000000e+00
6.770000000000000000e+02,-2.484171665496284209e-01,0.000000000000000000e+00
6.780000000000000000e+02,9.444440263782355460e-02,0.000000000000000000e+00
6.790000000000000000e+02,4.630421597504941200e-02,0.000000000000000000e+00
6.800000000000000000e+02,3.081198068831925499e-02,0.000000000000000000e+00
6.810000000000000000e+02,6.571233130550687696e-01,0.000000000000000000e+00
6.820000000000000000e+02,3.452615615685451500e-01,0.000000000000000000e+00
6.830000000000000000e+02,6.030946833592306655e-01,0.000000000000000000e+00
6.840000000000000000e+02,-1.016214763717606107e-01,0.000000000000000000e+00
6.850000000000000000e+02,1.721647408024121473e-01,0.000000000000000000e+00
6.860000000000000000e+02,-1.066683236017868797e-01,0.000000000000000000e+00
6.870000000000000000e+02,7.766369274825983549e-02,0.000000000000000000e+00
6.880000000000000000e+02,-2.896838272532892278e-01,0.000000000000000000e+00
6.890000000000000000e+02,2.705453191698225179e+00,0.000000000000000000e+00
6.900000000000000000e+02,5.284573685455240977e+00,0.000000000000000000e+00
6.910000000000000000e+02,-1.264847721559883564e-01,1.000000000000000000e+00
6.920000000000000000e+02,-1.139311595703520474e+00,0.000000000000000000e+00
6.930000000000000000e+02,-9.093906420004304048e-01,0.000000000000000000e+00
6.940000000000000000e+02,-7.415738173017520918e-01,0.000000000000000000e+00
6.950000000000000000e+02,-6.122457903543022661e-01,0.000000000000000000e+00
6.960000000000000000e+02,-5.726081146539268030e-01,0.000000000000000000e+00
6.970000000000000000e+02,-3.624323334466797997e-01,0.000000000000000000e+00
6.980000000000000000e+02,-3.157502074649928270e-01,0.000000000000000000e+00
6.990000000000000000e+02,-1.628155714721014058e-01,0.000000000000000000e+00
7.000000000000000000e+02,1.260448112961330136e-01,0.000000000000000000e+00
7.010000000000000000e+02,6.190330709783030492e-04,0.000000000000000000e+00
7.020000000000000000e+02,5.228723651909833459e-01,0.000000000000000000e+00
7.030000000000000000e+02,6.655240287197363713e-01,0.000000000000000000e+00
7.040000000000000000e+02,6.905260232551387878e-01,0.000000000000000000e+00
7.050000000000000000e+02,4.386448370192478352e-01,0.000000000000000000e+00
7.060000000000000000e+02,3.461190771594973570e-01,0.000000000000000000e+00
7.070000000000000000e+02,-7.417297485738987284e-01,0.000000000000000000e+00
7.080000000000000000e+02,-8.093806568058902196e-01,0.000000000000000000e+00
7.090000000000000000e+02,-4.535713376262472951e-01,0.000000000000000000e+00
7.100000000000000000e+02,-9.691670637443332570e-01,0.000000000000000000e+00
7.110000000000000000e+02,-1.083157224075285363e+00,0.000000000000000000e+00
7.120000000000000000e+02,-4.365142188076853724e-01,0.000000000000000000e+00
7.130000000000000000e+02,-6.561242039101031764e-01,0.000000000000000000e+00
7.140000000000000000e+02,-6.989999009721276080e-01,0.000000000000000000e+00
7.150000000000000000e+02,-2.258503273917349119e-01,0.000000000000000000e+00
7.160000000000000000e+02,-6.056344500453103574e-01,0.000000000000000000e+00
7.170000000000000000e+02,-1.912178687658323828e-01,0.000000000000000000e+00
7.180000000000000000e+02,-1.178104122060084913e-01,0.000000000000000000e+00
7.190000000000000000e+02,-3.303097837181133145e-01,0.000000000000000000e+00
7.200000000000000000e+02,-2.338468181427957593e-01,0.000000000000000000e+00
7.210000000000000000e+02,2.168948255637379308e-01,0.000000000000000000e+00
7.220000000000000000e+02,-1.284871381386333555e-01,0.000000000000000000e+00
7.230000000000000000e+02,-2.940509015616857846e-01,0.000000000000000000e+00
7.240000000000000000e+02,3.521645191849295808e-01,0.000000000000000000e+00
7.250000000000000000e+02,-4.162508123203344929e-02,0.000000000000000000e+00
7.260000000000000000e+02,-1.877950661761152232e-02,0.000000000000000000e+00
7.270000000000000000e+02,5.348045672906620585e-01,0.000000000000000000e+00
7.280000000000000000e+02,4.141899447777585563e-01,0.000000000000000000e+00
7.290000000000000000e+02,3.242945980168316922e-01,0.000000000000000000e+00
7.300000000000000000e+02,5.507004768788569260e-01,0.000000000000000000e+00
7.310000000000000000e+02,9.758125995876036629e-02,0.000000000000000000e+00
7.320000000000000000e+02,6.480342629649720188e-01,0.000000000000000000e+00
7.330000000000000000e+02,-3.148074295126035427e-01,0.000000000000000000e+00
7.340000000000000000e+02,-9.972235947938153100e-02,0.000000000000000000e+00
7.350000000000000000e+02,2.124000864200207561e-01,0.000000000000000000e+00
7.360000000000000000e+02,2.426454653729360533e+00,0.000000000000000000e+00
7.370000000000000000e+02,5.985666253065939912e+00,0.000000000000000000e+00
7.380000000000000000e+02,1.961736501742823713e-01,1.000000000000000000e+00
7.390000000000000000e+02,-1.070787664183908916e+00,0.000000000000000000e+00
7.400000000000000000e+02,-8.159502817651674844e-01,0.000000000000000000e+00
7.410000000000000000e+02,-7.540201974565264864e-01,0.000000000000000000e+00
7.420000000000000000e+02,-8.232720260779340382e-01,0.000000000000000000e+00
7.430000000000000000e+02,-5.658818265138771952e-01,0.000000000000000000e+00
7.440000000000000000e+02,-5.139123476422116088e-01,0.000000000000000000e+00
7.450000000000000000e+02,8.009009902893320099e-02,0.000000000000000000e+00
7.460000000000000000e+02,-3.419852388252940245e-01,0.000000000000000000e+00
7.470000000000000000e+02,-2.533245872156309614e-02,0.000000000000000000e+00
7.480000000000000000e+02,-4.385281052531739970e-02,0.000000000000000000e+00
7.490000000000000000e+02,5.401132743018942639e-01,0.000000000000000000e+00
7.500000000000000000e+02,6.887428552237949697e-01,0.000000000000000000e+00
7.510000000000000000e+02,7.882580297872718855e-01,0.000000000000000000e+00
7.520000000000000000e+02,4.803087062041677124e-01,0.000000000000000000e+00
7.530000000000000000e+02,6.680238033768312600e-02,0.000000000000000000e+00
7.540000000000000000e+02,-4.102498536254645112e-01,0.000000000000000000e+00
7.550000000000000000e+02,-7.843935661561028949e-01,0.000000000000000000e+00
7.560000000000000000e+02,-1.056591279719754528e+00,0.000000000000000000e+00
7.570000000000000000e+02,-1.079003923040857460e+00,0.000000000000000000e+00
7.580000000000000000e+02,-8.258905056149177248e-01,0.000000000000000000e+00
7.590000000000000000e+02,-5.932031081767091818e-01,0.000000000000000000e+00
7.600000000000000000e+02,-7.398587796653997017e-01,0.000000000000000000e+00
7.610000000000000000e+02,-6.603560830241145263e-01,0.000000000000000000e+00
7.620000000000000000e+02,-4.154391635613980949e-01,0.000000000000000000e+00
7.630000000000000000e+02,-5.091410795713570137e-01,0.000000000000000000e+00
7.640000000000000000e+02,-2.915594107406945246e-01,0.000000000000000000e+00
7.650000000000000000e+02,-1.675886863697771123e-01,0.000000000000000000e+00
7.660000000000000000e+02,-2.795707291339959988e-01,0.000000000000000000e+00
7.670000000000000000e+02,-4.116151637096486793e-01,0.000000000000000000e+00
7.680000000000000000e+02,-4.239158592583990304e-01,0.000000000000000000e+00
7.690000000000000000e+02,3.075878912075259985e-01,0.000000000000000000e+00
7.700000000000000000e+02,-4.043818392238578974e-01,0.000000000000000000e+00
7.710000000000000000e+02,1.585278751334357750e-01,0.000000000000000000e+00
7.720000000000000000e+02,-1.780651309941329030e-01,0.000000000000000000e+00
7.730000000000000000e+02,1.463787930210777855e-01,0.000000000000000000e+00
7.740000000000000000e+02,-1.009919023849295550e-01,0.000000000000000000e+00
7.750000000000000000e+02,8.032786520681022280e-01,0.000000000000000000e+00
7.760000000000000000e+02,5.976981770376217640e-02,0.000000000000000000e+00
7.770000000000000000e+02,5.139277973935832966e-01,0.000000000000000000e+00
7.780000000000000000e+02,1.234735063952768636e-01,0.000000000000000000e+00
7.790000000000000000e+02,-1.971164098663201469e-01,0.000000000000000000e+00
7.800000000000000000e+02,-6.438296960765813037e-02,0.000000000000000000e+00
7.810000000000000000e+02,4.194659793632563582e-01,0.000000000000000000e+00
7.820000000000000000e+02,-3.778296701820995640e-01,0.000000000000000000e+00
7.830000000000000000e+02,2.825303676475861447e+00,0.000000000000000000e+00
7.840000000000000000e+02,5.618955063269378769e+00,0.000000000000000000e+00
7.850000000000000000e+02,-1.280263517846026711e-01,1.000000000000000000e+00
7.860000000000000000e+02,-8.438993951628167567e-01,0.000000000000000000e+00
7.870000000000000000e+02,-7.985725942284236378e-01,0.000000000000000000e+00
7.880000000000000000e+02,-1.383779447268261187e+00,0.000000000000000000e+00
7.890000000000000000e+02,-7.017526634524676732e-01,0.000000000000000000e+00
7.900000000000000000e+02,-3.817983746177731619e-01,0.000000000000000000e+00
7.910000000000000000e+02,-1.443078542857644531e-01,0.000000000000000000e+00
7.920000000000000000e+02,-2.956031883626444867e-01,0.000000000000000000e+00
7.930000000000000000e+02,-5.270666131726322590e-01,0.000000000000000000e+00
7.940000000000000000e+02,8.106634359917196109e-02,0.000000000000000000e+00
7.950000000000000000e+02,3.936457305677904528e-01,0.000000000000000000e+00
7.960000000000000000e+02,3.433150523845495683e-01,0.000000000000000000e+00
7.970000000000000000e+02,4.574160763430110688e-01,0.000000000000000000e+00
7.980000000000000000e+02,1.074589164165688837e+00,0.000000000000000000e+00
7.990000000000000000e+02,4.058943006130513176e-01,0.000000000000000000e+00
8.000000000000000000e+02,2.390548298946600092e-01,0.000000000000000000e+00
8.010000000000000000e+02,-5.370555632342552954e-01,0.000000000000000000e+00
8.020000000000000000e+02,-9.109934760943754206e-01,0.000000000000000000e+00
8.030000000000000000e+02,-8.382008391782368451e-01,0.000000000000000000e+00
8.040000000000000000e+02,-9.525570663336805355e-01,0.000000000000000000e+00
8.050000000000000000e+02,-5.220846664490133016e-01,0.000000000000000000e+00
8.060000000000000000e+02,-8.760579540623523176e-01,0.000000000000000000e+00
8.070000000000000000e+02,-4.697793496039526229e-01,0.000000000000000000e+00
8.080000000000000000e+02,-4.251831069680832575e-01,0.000000000000000000e+00
8.090000000000000000e+02,-5.864893810233227089e-01,0.000000000000000000e+00
8.100000000000000000e+02,-7.830555429250827051e-03,0.000000000000000000e+00
8.110000000000000000e+02,-2.193041323161247780e-01,0.000000000000000000e+00
8.120000000000000000e+02,-4.681429674561834453e-01,0.000000000000000000e+00
8.130000000000000000e+02,8.370315665459069493e-03,0.000000000000000000e+00
8.140000000000000000e+02,1.508971878757588425e-01,0.000000000000000000e+00
8.150000000000000000e+02,-2.802575465710405167e-01,0.000000000000000000e+00
8.160000000000000000e+02,-1.028019506126040122e-01,0.000000000000000000e+00
8.170000000000000000e+02,-1.200484348961090852e-01,0.000000000000000000e+00
8.180000000000000000e+02,-5.525012467949867376e-03,0.000000000000000000e+00
8.190000000000000000e+02,1.465530862681174162e-01,0.000000000000000000e+00
8.200000000000000000e+02,-3.782620366217161190e-02,0.000000000000000000e+00
8.210000000000000000e+02,2.166989952086392779e-01,0.000000000000000000e+00
8.220000000000000000e+02,5.179020766113063834e-01,0.000000000000000000e+00
8.230000000000000000e+02,5.213710598451107847e-01,0.000000000000000000e+00
8.240000000000000000e+02,6.698860083216510164e-01,0.000000000000000000e+00
8.250000000000000000e+02,-2.732232051392051164e-01,0.000000000000000000e+00
8.260000000000000000e+02,8.221557351181263407e-02,0.000000000000000000e+00
8.270000000000000000e+02,-2.327972516106354139e-01,0.000000000000000000e+00
8.280000000000000000e+02,1.958801514362800977e-01,0.000000000000000000e+00
8.290000000000000000e+02,-4.378998718804451018e-01,0.000000000000000000e+00
8.300000000000000000e+02,2.923410163837846909e+00,0.000000000000000000e+00
8.310000000000000000e+02,5.656162333765235140e+00,0.000000000000000000e+00
8.320000000000000000e+02,-3.384325605754201494e-01,1.000000000000000000e+00
8.330000000000000000e+02,-1.169460840383992117e+00,0.000000000000000000e+00
8.340000000000000000e+02,-1.165697805062763104e+00,0.000000000000000000e+00
8.350000000000000000e+02,-6.666842956353699057e-01,0.000000000000000000e+00
8.360000000000000000e+02,-4.326570348658600462e-01,0.000000000000000000e+00
8.370000000000000000e+02,-6.359557570568394880e-01,0.000000000000000000e+00
8.380000000000000000e+02,-6.197154552404908756e-01,0.000000000000000000e+00
8.390000000000000000e+02,-1.946170020644720500e-02,0.000000000000000000e+00
8.400000000000000000e+02,-1.496408524953966312e-01,0.000000000000000000e+00
8.410000000000000000e+02,-1.618370662181255193e-01,0.000000000000000000e+00
8.420000000000000000e+02,4.552840257639729771e-01,0.000000000000000000e+00
8.430000000000000000e+02,4.975175603864482876e-01,0.000000000000000000e+00
8.440000000000000000e+02,5.699010454891855204e-01,0.000000000000000000e+00
8.450000000000000000e+02,9.677045094927730906e-01,0.000000000000000000e+00
8.460000000000000000e+02,4.081726536072797784e-01,0.000000000000000000e+00
8.470000000000000000e+02,1.218666260634070908e-01,0.000000000000000000e+00
8.480000000000000000e+02,-5.367171805824368924e-01,0.000000000000000000e+00
8.490000000000000000e+02,-6.119983966231249406e-01,0.000000000000000000e+00
8.500000000000000000e+02,-1.083330524225033953e+00,0.000000000000000000e+00
8.510000000000000000e+02,-6.429491640730712332e-01,0.000000000000000000e+00
8.520000000000000000e+02,-1.053561418313640585e+00,0.000000000000000000e+00
8.530000000000000000e+02,-6.922661129740990127e-01,0.000000000000000000e+00
8.540000000000000000e+02,-2.407601390597100544e-01,0.000000000000000000e+00
8.550000000000000000e+02,-5.480880147630975419e-01,0.000000000000000000e+00
8.560000000000000000e+02,-4.766421538573711869e-01,0.000000000000000000e+00
8.570000000000000000e+02,-4.462559451528336218e-01,0.000000000000000000e+00
8.580000000000000000e+02,-1.677865944105898788e-01,0.000000000000000000e+00
8.590000000000000000e+02,-2.173490403879555777e-01,0.000000000000000000e+00
8.600000000000000000e+02,-3.498284068772889999e-01,0.000000000000000000e+00
8.610000000000000000e+02,-2.220873791300675970e-01,0.000000000000000000e+00
8.620000000000000000e+02,-2.227424678295895633e-01,0.000000000000000000e+00
8.630000000000000000e+02,-1.952691617000897745e-02,0.000000000000000000e+00
8.640000000000000000e+02,-6.212083114285399388e-02,0.000000000000000000e+00
8.650000000000000000e+02,-1.319982898122100227e-02,0.000000000000000000e+00
8.660000000000000000e+02,-1.206775748831444978e-01,0.000000000000000000e+00
8.670000000000000000e+02,2.373722523100995629e-01,0.000000000000000000e+00
8.680000000000000000e+02,3.488405193420650134e-03,0.000000000000000000e+00
8.690000000000000000e+02,5.072519256962328971e-01,0.000000000000000000e+00
8.700000000000000000e+02,4.079263051517438843e-01,0.000000000000000000e+00
8.710000000000000000e+02,3.177714897828505247e-01,0.000000000000000000e+00
8.720000000000000000e+02,1.122856065247589824e-02,0.000000000000000000e+00
8.730000000000000000e+02,-9.057273562560161362e-02,0.000000000000000000e+00
8.740000000000000000e+02,1.775494847744569227e-01,0.000000000000000000e+00
8.750000000000000000e+02,6.574490288406130423e-02,0.000000000000000000e+00
8.760000000000000000e+02,-1.366454512129535448e-01,0.000000000000000000e+00
8.770000000000000000e+02,4.472834620428701946e+00,0.000000000000000000e+00
8.780000000000000000e+02,3.274241751930177191e+00,1.000000000000000000e+00
8.790000000000000000e+02,-1.585514263764647991e+00,0.000000000000000000e+00
8.800000000000000000e+02,-9.160404190238449207e-01,0.000000000000000000e+00
8.810000000000000000e+02,-7.698494730611089576e-01,0.000000000000000000e+00
8.820000000000000000e+02,-3.219471006556998693e-01,0.000000000000000000e+00
8.830000000000000000e+02,-3.752452753115433914e-01,0.000000000000000000e+00
8.840000000000000000e+02,-4.125562801789094403e-01,0.000000000000000000e+00
8.850000000000000000e+02,-1.375023166603226987e-01,0.000000000000000000e+00
8.860000000000000000e+02,-9.723490997430826732e-03,0.000000000000000000e+00
8.870000000000000000e+02,-3.805686847387391991e-02,0.000000000000000000e+00
8.880000000000000000e+02,2.277918037811196006e-01,0.000000000000000000e+00
8.890000000000000000e+02,2.075614450641192765e-01,0.000000000000000000e+00
8.900000000000000000e+02,4.979592015930452420e-01,0.000000000000000000e+00
8.910000000000000000e+02,6.863644507064610156e-01,0.000000000000000000e+00
8.920000000000000000e+02,9.198987116413458454e-01,0.000000000000000000e+00
8.930000000000000000e+02,1.941147799391522988e-01,0.000000000000000000e+00
8.940000000000000000e+02,5.428654189932084068e-02,0.000000000000000000e+00
8.950000000000000000e+02,-7.342324664319657135e-01,0.000000000000000000e+00
8.960000000000000000e+02,-6.608795634436673838e-01,0.000000000000000000e+00
8.970000000000000000e+02,-6.824627983237384621e-01,0.000000000000000000e+00
8.980000000000000000e+02,-9.730117200945687106e-01,0.000000000000000000e+00
8.990000000000000000e+02,-7.415214824973396235e-01,0.000000000000000000e+00
9.000000000000000000e+02,-7.278974563920083130e-01,0.000000000000000000e+00
9.010000000000000000e+02,-4.752222035387428378e-01,0.000000000000000000e+00
9.020000000000000000e+02,-3.485418845308215774e-01,0.000000000000000000e+00
9.030000000000000000e+02,-1.782017120860414916e-01,0.000000000000000000e+00
9.040000000000000000e+02,-2.665166522050704812e-01,0.000000000000000000e+00
9.050000000000000000e+02,-4.237749801452177500e-01,0.000000000000000000e+00
9.060000000000000000e+02,-4.324565974833954329e-01,0.000000000000000000e+00
9.070000000000000000e+02,4.065631828122687717e-03,0.000000000000000000e+00
9.080000000000000000e+02,-2.787447034738653739e-01,0.000000000000000000e+00
9.090000000000000000e+02,-1.032293693421291597e-01,0.000000000000000000e+00
9.100000000000000000e+02,-1.848683508252673968e-01,0.000000000000000000e+00
9.110000000000000000e+02,-3.146999910973746761e-02,0.000000000000000000e+00
9.120000000000000000e+02,-3.534419984449943541e-02,0.000000000000000000e+00
9.130000000000000000e+02,7.754339793359435462e-02,0.000000000000000000e+00
9.140000000000000000e+02,-1.157778152254461679e-01,0.000000000000000000e+00
9.150000000000000000e+02,6.703390726876752304e-01,0.000000000000000000e+00
9.160000000000000000e+02,1.643078936903343557e-01,0.000000000000000000e+00
9.170000000000000000e+02,5.213610427438266637e-01,0.000000000000000000e+00
9.180000000000000000e+02,1.320118606807008620e-02,0.000000000000000000e+00
9.190000000000000000e+02,-3.046949197569434956e-03,0.000000000000000000e+00
9.200000000000000000e+02,4.640586497811827887e-02,0.000000000000000000e+00
9.210000000000000000e+02,6.848789673423276436e-02,0.000000000000000000e+00
9.220000000000000000e+02,5.160950485692014644e-02,0.000000000000000000e+00
9.230000000000000000e+02,2.090620475522978250e+00,0.000000000000000000e+00
9.240000000000000000e+02,4.756893200126136811e+00,0.000000000000000000e+00
9.250000000000000000e+02,-6.421224372192426699e-01,1.000000000000000000e+00
9.260000000000000000e+02,-1.271841900921095281e+00,0.000000000000000000e+00
9.270000000000000000e+02,-8.352950621804763331e-01,0.000000000000000000e+00
9.280000000000000000e+02,-6.516167190767429007e-01,0.000000000000000000e+00
9.290000000000000000e+02,-3.510150973099782079e-01,0.000000000000000000e+00
9.300000000000000000e+02,-2.822783201708777695e-02,0.000000000000000000e+00
9.310000000000000000e+02,-4.483802397343170654e-01,0.000000000000000000e+00
9.320000000000000000e+02,-7.227813153341668129e-02,0.000000000000000000e+00
9.330000000000000000e+02,-1.382031965353971437e-01,0.000000000000000000e+00
9.340000000000000000e+02,9.411136205737356819e-02,0.000000000000000000e+00
9.350000000000000000e+02,3.812261149871114529e-01,0.000000000000000000e+00
9.360000000000000000e+02,6.432287423328928444e-01,0.000000000000000000e+00
9.370000000000000000e+02,6.526522338925769828e-01,0.000000000000000000e+00
9.380000000000000000e+02,1.034166085520973333e+00,0.000000000000000000e+00
9.390000000000000000e+02,4.171072766873904492e-01,0.000000000000000000e+00
9.400000000000000000e+02,-2.897266965295909949e-03,0.000000000000000000e+00
9.410000000000000000e+02,-2.754663107332236405e-01,0.000000000000000000e+00
9.420000000000000000e+02,-5.451204611537311395e-01,0.000000000000000000e+00
9.430000000000000000e+02,-7.399209089204170642e-01,0.000000000000000000e+00
9.440000000000000000e+02,-9.071561270211712102e-01,0.000000000000000000e+00
9.450000000000000000e+02,-1.059707978468196421e+00,0.000000000000000000e+00
9.460000000000000000e+02,-6.432519056811643321e-02,0.000000000000000000e+00
9.470000000000000000e+02,-6.922917085291876438e-01,0.000000000000000000e+00
9.480000000000000000e+02,-5.787880585629074925e-01,0.000000000000000000e+00
9.490000000000000000e+02,-4.516045432287777994e-01,0.000000000000000000e+00
9.500000000000000000e+02,2.632630844905015088e-01,0.000000000000000000e+00
9.510000000000000000e+02,-6.052509099838342399e-01,0.000000000000000000e+00
9.520000000000000000e+02,-1.758557447434953569e-01,0.000000000000000000e+00
9.530000000000000000e+02,-2.432332355585495876e-01,0.000000000000000000e+00
9.540000000000000000e+02,-4.042712266735922211e-01,0.000000000000000000e+00
9.550000000000000000e+02,2.895361881693328532e-01,0.000000000000000000e+00
9.560000000000000000e+02,-1.692416837339640878e-01,0.000000000000000000e+00
9.570000000000000000e+02,-5.079670326815086678e-01,0.000000000000000000e+00
9.580000000000000000e+02,2.036340315263806822e-01,0.000000000000000000e+00
9.590000000000000000e+02,-6.395843557916087996e-02,0.000000000000000000e+00
9.600000000000000000e+02,-6.580145263386331933e-02,0.000000000000000000e+00
9.610000000000000000e+02,2.664713850131181228e-01,0.000000000000000000e+00
9.620000000000000000e+02,2.634111748077152537e-01,0.000000000000000000e+00
9.630000000000000000e+02,5.508652545345590346e-01,0.000000000000000000e+00
9.640000000000000000e+02,-3.847630631776390031e-02,0.000000000000000000e+00
9.650000000000000000e+02,-3.417724161835988816e-01,0.000000000000000000e+00
9.660000000000000000e+02,5.877043344561018179e-01,0.000000000000000000e+00
9.670000000000000000e+02,6.082758234455326596e-02,0.000000000000000000e+00
9.680000000000000000e+02,8.889349579840305493e-02,0.000000000000000000e+00
9.690000000000000000e+02,-2.911732879625795190e-01,0.000000000000000000e+00
9.700000000000000000e+02,4.446905301179342018e+00,0.000000000000000000e+00
9.710000000000000000e+02,3.112777305014014839e+00,1.000000000000000000e+00
9.720000000000000000e+02,-1.436274539819342833e+00,0.000000000000000000e+00
9.730000000000000000e+02,-8.224289652881585644e-01,0.000000000000000000e+00
9.740000000000000000e+02,-8.527163838083470226e-01,0.000000000000000000e+00
9.750000000000000000e+02,-3.863447257174429383e-01,0.000000000000000000e+00
9.760000000000000000e+02,-5.610415100684875700e-01,0.000000000000000000e+00
9.770000000000000000e+02,-3.405047336242942868e-01,0.000000000000000000e+00
9.780000000000000000e+02,2.610658584622706918e-02,0.000000000000000000e+00
9.790000000000000000e+02,-1.002604525612125208e-01,0.000000000000000000e+00
9.800000000000000000e+02,1.201954578328374851e-01,0.000000000000000000e+00
9.810000000000000000e+02,1.486718503164614902e-01,0.000000000000000000e+00
9.820000000000000000e+02,2.224456150920443853e-01,0.000000000000000000e+00
9.830000000000000000e+02,9.393979907331648782e-01,0.000000000000000000e+00
9.840000000000000000e+02,7.297903092408533077e-01,0.000000000000000000e+00
9.850000000000000000e+02,8.505233087145757098e-01,0.000000000000000000e+00
9.860000000000000000e+02,2.771048204740131360e-01,0.000000000000000000e+00
9.870000000000000000e+02,-1.553634625716187809e-02,0.000000000000000000e+00
9.880000000000000000e+02,-5.452147145147717699e-01,0.000000000000000000e+00
9.890000000000000000e+02,-7.397376364811680816e-01,0.000000000000000000e+00
9.900000000000000000e+02,-8.861175224485281499e-01,0.000000000000000000e+00
9.910000000000000000e+02,-6.099090088308699587e-01,0.000000000000000000e+00
9.920000000000000000e+02,-7.251518189541036330e-01,0.000000000000000000e+00
9.930000000000000000e+02,-6.196193930943035832e-01,0.000000000000000000e+00
9.940000000000000000e+02,-3.841130355927894757e-01,0.000000000000000000e+00
9.950000000000000000e+02,-4.615059997639177625e-01,0.000000000000000000e+00
9.960000000000000000e+02,-3.254531564840568159e-01,0.000000000000000000e+00
9.970000000000000000e+02,-3.000864528381340657e-01,0.000000000000000000e+00
9.980000000000000000e+02,-2.829869500403793814e-01,0.000000000000000000e+00
9.990000000000000000e+02,-9.616341636792824499e-02,0.000000000000000000e+00
1.000000000000000000e+03,-2.886091027196988415e-02,0.000000000000000000e+00
1.001000000000000000e+03,-4.715109174320080698e-01,0.000000000000000000e+00
1.002000000000000000e+03,-2.377992700613229815e-01,0.000000000000000000e+00
1.003000000000000000e+03,1.192919680588033771e-02,0.000000000000000000e+00
1.004000000000000000e+03,1.767476464158029836e-01,0.000000000000000000e+00
1.005000000000000000e+03,-4.397769973546404310e-01,0.000000000000000000e+00
1.006000000000000000e+03,1.037133687913126961e-01,0.000000000000000000e+00
1.007000000000000000e+03,5.339687143505389422e-02,0.000000000000000000e+00
1.008000000000000000e+03,3.105077374930450551e-01,0.000000000000000000e+00
1.009000000000000000e+03,2.868178216098780098e-01,0.000000000000000000e+00
1.010000000000000000e+03,4.843111695411879136e-01,0.000000000000000000e+00
1.011000000000000000e+03,1.452377921037815121e-02,0.000000000000000000e+00
1.012000000000000000e+03,-5.123329576187891227e-02,0.000000000000000000e+00
1.013000000000000000e+03,-4.503643805550054391e-01,0.000000000000000000e+00
1.014000000000000000e+03,1.922451046446410350e-01,0.000000000000000000e+00
1.015000000000000000e+03,-2.706827066251136782e-01,0.000000000000000000e+00
1.016000000000000000e+03,2.963556738894220999e+00,0.000000000000000000e+00
1.017000000000000000e+03,5.205519092294300876e+00,0.000000000000000000e+00
1.018000000000000000e+03,-5.169546891858223248e-01,1.000000000000000000e+00
1.019000000000000000e+03,-1.265039117439799243e+00,0.000000000000000000e+00
1.020000000000000000e+03,-1.060883345120795518e+00,0.000000000000000000e+00
1.021000000000000000e+03,-4.310983347420683232e-01,0.000000000000000000e+00
1.022000000000000000e+03,-6.594835607586954085e-01,0.000000000000000000e+00
1.023000000000000000e+03,-3.830305726042208536e-01,0.000000000000000000e+00
1.024000000000000000e+03,-8.961183308105714618e-01,0.000000000000000000e+00
1.025000000000000000e+03,8.388031617740594748e-02,0.000000000000000000e+00
1.026000000000000000e+03,-4.722081874603576979e-01,0.000000000000000000e+00
1.027000000000000000e+03,3.270850034108847004e-01,0.000000000000000000e+00
1.028000000000000000e+03,1.693152074838260024e-01,0.000000000000000000e+00
1.029000000000000000e+03,4.335400182785486417e-02,0.000000000000000000e+00
1.030000000000000000e+03,8.094412444643697135e-01,0.000000000000000000e+00
1.031000000000000000e+03,6.385585643319550142e-01,0.000000000000000000e+00
1.032000000000000000e+03,8.047370654533085865e-01,0.000000000000000000e+00
1.033000000000000000e+03,1.919382840843341861e-03,0.000000000000000000e+00
1.034000000000000000e+03,-6.075058503158353718e-01,0.000000000000000000e+00
1.035000000000000000e+03,-6.095440172362691644e-01,0.000000000000000000e+00
1.036000000000000000e+03,-1.054658230589101020e+00,0.000000000000000000e+00
1.037000000000000000e+03,-6.075581539769258077e-01,0.000000000000000000e+00
1.038000000000000000e+03,-9.775769564822262003e-01,0.000000000000000000e+00
1.039000000000000000e+03,-4.826778202999234546e-01,0.000000000000000000e+00
1.040000000000000000e+03,-4.177919080276492614e-01,0.000000000000000000e+00
1.041000000000000000e+03,-5.844293739037536017e-01,0.000000000000000000e+00
1.042000000000000000e+03,-3.408700101822866868e-01,0.000000000000000000e+00
1.043000000000000000e+03,-2.558688138813827728e-01,0.000000000000000000e+00
1.044000000000000000e+03,-2.376574170177251366e-01,0.000000000000000000e+00
1.045000000000000000e+03,-1.725391315577343987e-01,0.000000000000000000e+00
1.046000000000000000e+03,-3.536381885045594697e-01,0.000000000000000000e+00
1.047000000000000000e+03,3.677604799485025694e-02,0.000000000000000000e+00
1.048000000000000000e+03,-2.500915007004708146e-01,0.000000000000000000e+00
1.049000000000000000e+03,-1.418898916131190457e-01,0.000000000000000000e+00
1.050000000000000000e+03,-1.259894419141060484e-01,0.000000000000000000e+00
1.051000000000000000e+03,6.464393088226670636e-02,0.000000000000000000e+00
1.052000000000000000e+03,1.443733633633375105e-02,0.000000000000000000e+00
1.053000000000000000e+03,4.429948699193327760e-02,0.000000000000000000e+00
1.054000000000000000e+03,3.252340852986351089e-02,0.000000000000000000e+00
1.055000000000000000e+03,7.496074919576927176e-01,0.000000000000000000e+00
1.056000000000000000e+03,3.002036313875966478e-01,0.000000000000000000e+00
1.057000000000000000e+03,4.051808855308685620e-01,0.000000000000000000e+00
1.058000000000000000e+03,-1.031323041802172102e-01,0.000000000000000000e+00
1.059000000000000000e+03,3.218027599247550441e-01,0.000000000000000000e+00
1.060000000000000000e+03,-4.088788217439555117e-01,0.000000000000000000e+00
1.061000000000000000e+03,4.124056181148113565e-01,0.000000000000000000e+00
1.062000000000000000e+03,4.146291801791426174e-02,0.000000000000000000e+00
1.063000000000000000e+03,5.248674827860925873e+00,0.000000000000000000e+00
1.064000000000000000e+03,3.013705023374796177e+00,1.000000000000000000e+00
1.065000000000000000e+03,-1.079267831019821600e+00,0.000000000000000000e+00
1.066000000000000000e+03,-7.721455101818859301e-01,0.000000000000000000e+00
1.067000000000000000e+03,-9.264654860825318750e-01,0.000000000000000000e+00
1.068000000000000000e+03,-6.871997667052351932e-01,0.000000000000000000e+00
1.069000000000000000e+03,-1.148095108869898739e+00,0.000000000000000000e+00
1.070000000000000000e+03,-1.283833186730026603e-02,0.000000000000000000e+00
1.071000000000000000e+03,-4.888229909061636569e-01,0.000000000000000000e+00
1.072000000000000000e+03,-3.388597015260093603e-01,0.000000000000000000e+00
1.073000000000000000e+03,-1.596726433361686792e-01,0.000000000000000000e+00
1.074000000000000000e+03,2.862642792705534789e-01,0.000000000000000000e+00
1.075000000000000000e+03,1.636355305568936158e-01,0.000000000000000000e+00
1.076000000000000000e+03,7.818585876927941491e-01,0.000000000000000000e+00
1.077000000000000000e+03,6.272778143876854839e-01,0.000000000000000000e+00
1.078000000000000000e+03,6.842112279843304279e-01,0.000000000000000000e+00
1.079000000000000000e+03,3.707577268632966661e-01,0.000000000000000000e+00
1.080000000000000000e+03,-1.983273916813700355e-01,0.000000000000000000e+00
1.081000000000000000e+03,-3.438176503972015241e-01,0.000000000000000000e+00
1.082000000000000000e+03,-1.037519335698961376e+00,0.000000000000000000e+00
1.083000000000000000e+03,-9.471276794545873123e-01,0.000000000000000000e+00
1.084000000000000000e+03,-6.518678992269576478e-01,0.000000000000000000e+00
1.085000000000000000e+03,-8.101316291920596102e-01,0.000000000000000000e+00
1.086000000000000000e+03,-4.521614488190734971e-01,0.000000000000000000e+00
1.087000000000000000e+03,-7.138044575307093131e-01,0.000000000000000000e+00
1.088000000000000000e+03,-5.115559919671334166e-01,0.000000000000000000e+00
1.089000000000000000e+03,-1.233491653790675102e-01,0.000000000000000000e+00
1.090000000000000000e+03,-3.998142218394165615e-01,0.000000000000000000e+00
1.091000000000000000e+03,-2.229165581202194046e-01,0.000000000000000000e+00
1.092000000000000000e+03,-2.211765081088451490e-01,0.000000000000000000e+00
1.093000000000000000e+03,-5.076076876006992977e-01,0.000000000000000000e+00
1.094000000000000000e+03,1.165668388799924599e-01,0.000000000000000000e+00
1.095000000000000000e+03,-2.103920526052450168e-01,0.000000000000000000e+00
1.096000000000000000e+03,-1.340960498519538913e-01,0.000000000000000000e+00
1.097000000000000000e+03,1.186451157200914680e-01,0.000000000000000000e+00
1.098000000000000000e+03,-2.846549883794419755e-01,0.000000000000000000e+00
1.099000000000000000e+03,1.291718690400845970e-01,0.000000000000000000e+00
1.100000000000000000e+03,5.466461085296084876e-01,0.000000000000000000e+00
1.101000000000000000e+03,1.079242971078144819e-01,0.000000000000000000e+00
1.102000000000000000e+03,5.533969515946626228e-01,0.000000000000000000e+00
1.103000000000000000e+03,3.729094603980842582e-01,0.000000000000000000e+00
1.104000000000000000e+03,6.204527987668174982e-02,0.000000000000000000e+00
1.105000000000000000e+03,8.054508498718493392e-02,0.000000000000000000e+00
1.106000000000000000e+03,-6.948557117658159255e-02,0.000000000000000000e+00
1.107000000000000000e+03,4.935647214504597369e-02,0.000000000000000000e+00
1.108000000000000000e+03,-1.214913374952370506e-01,0.000000000000000000e+00
1.109000000000000000e+03,1.359630464360427560e+00,0.000000000000000000e+00
1.110000000000000000e+03,5.980591651937107400e+00,0.000000000000000000e+00
1.111000000000000000e+03,1.196167940642521854e+00,1.000000000000000000e+00
1.112000000000000000e+03,-1.169578371477544954e+00,0.000000000000000000e+00
1.113000000000000000e+03,-8.762095401503581238e-01,0.000000000000000000e+00
1.114000000000000000e+03,-9.627940032318370589e-01,0.000000000000000000e+00
1.115000000000000000e+03,-6.982299255678012795e-01,0.000000000000000000e+00
1.116000000000000000e+03,-3.388449511187913710e-01,0.000000000000000000e+00
1.117000000000000000e+03,-3.986717474121785343e-01,0.000000000000000000e+00
1.118000000000000000e+03,-1.618739042199056344e-01,0.000000000000000000e+00
1.119000000000000000e+03,-2.156444408051103323e-01,0.000000000000000000e+00
1.120000000000000000e+03,-2.098044364707697118e-01,0.000000000000000000e+00
1.121000000000000000e+03,6.017365464198866087e-01,0.000000000000000000e+00
1.122000000000000000e+03,4.544062126850608174e-01,0.000000000000000000e+00
1.123000000000000000e+03,3.890229823311350255e-01,0.000000000000000000e+00
1.124000000000000000e+03,8.304228720334009273e-01,0.000000000000000000e+00
1.125000000000000000e+03,8.672528162990928990e-01,0.000000000000000000e+00
1.126000000000000000e+03,3.710866335199110577e-01,0.000000000000000000e+00
1.127000000000000000e+03,-3.991960674730870018e-01,0.000000000000000000e+00
1.128000000000000000e+03,-7.704754593698101006e-01,0.000000000000000000e+00
1.129000000000000000e+03,-1.002716628130374987e+00,0.000000000000000000e+00
1.130000000000000000e+03,-7.363947301221916986e-01,0.000000000000000000e+00
1.131000000000000000e+03,-9.294260538811264238e-01,0.000000000000000000e+00
1.132000000000000000e+03,-8.591275528726196598e-01,0.000000000000000000e+00
1.133000000000000000e+03,-4.655341676366657189e-01,0.000000000000000000e+00
1.134000000000000000e+03,-6.193886173196111455e-01,0.000000000000000000e+00
1.135000000000000000e+03,-3.190759069484435106e-01,0.000000000000000000e+00
1.136000000000000000e+03,-2.984545506011643257e-01,0.000000000000000000e+00
1.137000000000000000e+03,-4.489790180751562776e-01,0.000000000000000000e+00
1.138000000000000000e+03,-3.009614631098032622e-01,0.000000000000000000e+00
1.139000000000000000e+03,8.706730229770660856e-02,0.000000000000000000e+00
1.140000000000000000e+03,-2.409157091261873163e-01,0.000000000000000000e+00
1.141000000000000000e+03,-4.295632376502699357e-01,0.000000000000000000e+00
1.142000000000000000e+03,-1.881222302565718207e-01,0.000000000000000000e+00
1.143000000000000000e+03,1.176349999591801421e-01,0.000000000000000000e+00
1.144000000000000000e+03,6.933118472033168722e-02,0.000000000000000000e+00
1.145000000000000000e+03,-2.646591086701459150e-01,0.000000000000000000e+00
1.146000000000000000e+03,2.777229215878471713e-01,0.000000000000000000e+00
1.147000000000000000e+03,1.913990105887372339e-01,0.000000000000000000e+00
1.148000000000000000e+03,3.876347907406786364e-01,0.000000000000000000e+00
1.149000000000000000e+03,3.957487537967657731e-01,0.000000000000000000e+00
1.150000000000000000e+03,3.764645764412698492e-01,0.000000000000000000e+00
1.151000000000000000e+03,-6.630320622597535296e-02,0.000000000000000000e+00
1.152000000000000000e+03,5.576540127278234449e-03,0.000000000000000000e+00
1.153000000000000000e+03,3.401522340246920621e-03,0.000000000000000000e+00
1.154000000000000000e+03,2.028466960837453370e-01,0.000000000000000000e+00
1.155000000000000000e+03,-4.161555531986143586e-01,0.000000000000000000e+00
1.156000000000000000e+03,2.787558307790500400e+00,0.000000000000000000e+00
1.157000000000000000e+03,5.043076926064229859e+00,0.000000000000000000e+00
1.158000000000000000e+03,-9.792572678945595799e-01,1.000000000000000000e+00
1.159000000000000000e+03,-1.390591250187757089e+00,0.000000000000000000e+00
1.160000000000000000e+03,-8.477627414308241960e-01,0.000000000000000000e+00
1.161000000000000000e+03,-4.015795058099432269e-01,0.000000000000000000e+00
1.162000000000000000e+03,-5.437939097401561783e-01,0.000000000000000000e+00
1.163000000000000000e+03,-5.300127820172678000e-02,0.000000000000000000e+00
1.164000000000000000e+03,-4.200476180483146971e-01,0.000000000000000000e+00
1.165000000000000000e+03,-4.133446743126589773e-02,0.000000000000000000e+00
1.166000000000000000e+03,-1.948589619132819473e-01,0.000000000000000000e+00
1.167000000000000000e+03,4.734239545643795233e-01,0.000000000000000000e+00
1.168000000000000000e+03,1.675020905565715867e-01,0.000000000000000000e+00
1.169000000000000000e+03,7.961180642931607598e-02,0.000000000000000000e+00
1.170000000000000000e+03,7.639709971999706362e-01,0.000000000000000000e+00
1.171000000000000000e+03,1.084986447768674811e+00,0.000000000000000000e+00
1.172000000000000000e+03,2.510755700242573996e-01,0.000000000000000000e+00
1.173000000000000000e+03,-3.972942344649587065e-01,0.000000000000000000e+00
1.174000000000000000e+03,1.298627726242594926e-01,0.000000000000000000e+00
1.175000000000000000e+03,-8.393506594007212884e-01,0.000000000000000000e+00
1.176000000000000000e+03,-1.107414139649619544e+00,0.000000000000000000e+00
1.177000000000000000e+03,-7.453648827560055423e-01,0.000000000000000000e+00
1.178000000000000000e+03,-1.009154399926054824e+00,0.000000000000000000e+00
1.179000000000000000e+03,-4.478818513317707195e-01,0.000000000000000000e+00
1.180000000000000000e+03,-6.224980440130863935e-01,0.000000000000000000e+00
1.181000000000000000e+03,-3.380287136770638856e-01,0.000000000000000000e+00
1.182000000000000000e+03,-5.280146665840407261e-01,0.000000000000000000e+00
1.183000000000000000e+03,-3.085209671505924622e-01,0.000000000000000000e+00
1.184000000000000000e+03,-7.167877056184020212e-02,0.000000000000000000e+00
1.185000000000000000e+03,-3.787350609583927108e-01,0.000000000000000000e+00
1.186000000000000000e+03,-4.518436962714224570e-01,0.000000000000000000e+00
1.187000000000000000e+03,7.687501914076430576e-02,0.000000000000000000e+00
1.188000000000000000e+03,-1.825247707386851992e-01,0.000000000000000000e+00
1.189000000000000000e+03,-1.411429156919211947e-01,0.000000000000000000e+00
1.190000000000000000e+03,2.787302320545051448e-01,0.000000000000000000e+00
1.191000000000000000e+03,-1.814057589617333599e-01,0.000000000000000000e+00
1.192000000000000000e+03,-1.343051533845706358e-01,0.000000000000000000e+00
1.193000000000000000e+03,1.790146701269770824e-01,0.000000000000000000e+00
1.194000000000000000e+03,3.597582886447044936e-01,0.000000000000000000e+00
1.195000000000000000e+03,4.616175193397824006e-01,0.000000000000000000e+00
1.196000000000000000e+03,2.542384211374804082e-01,0.000000000000000000e+00
1.197000000000000000e+03,3.738484222638495114e-01,0.000000000000000000e+00
1.198000000000000000e+03,-8.806316540845827989e-02,0.000000000000000000e+00
1.199000000000000000e+03,5.367864896754980242e-01,0.000000000000000000e+00
1.200000000000000000e+03,-6.522660302524632137e-01,0.000000000000000000e+00
1.201000000000000000e+03,4.715022642304499412e-01,0.000000000000000000e+00
1.202000000000000000e+03,-6.583614798912164334e-02,0.000000000000000000e+00
1.203000000000000000e+03,4.103649595375989279e+00,0.000000000000000000e+00
1.204000000000000000e+03,3.498840127233047603e+00,0.000000000000000000e+00
1.205000000000000000e+03,-1.552183203558378022e+00,1.000000000000000000e+00
1.206000000000000000e+03,-9.509742069417925769e-01,0.000000000000000000e+00
1.207000000000000000e+03,-6.164176781627419555e-01,0.000000000000000000e+00
1.208000000000000000e+03,-4.018330994063479822e-01,0.000000000000000000e+00
1.209000000000000000e+03,-3.465175267107078461e-01,0.000000000000000000e+00
1.210000000000000000e+03,-4.874659829872374783e-01,0.000000000000000000e+00
1.211000000000000000e+03,-5.370677813141263440e-02,0.000000000000000000e+00
1.212000000000000000e+03,1.149438143958483038e-01,0.000000000000000000e+00
1.213000000000000000e+03,1.290505555974076450e-02,0.000000000000000000e+00
1.214000000000000000e+03,1.337769732323468297e-01,0.000000000000000000e+00
1.215000000000000000e+03,3.945248992558632040e-01,0.000000000000000000e+00
1.216000000000000000e+03,5.935336697934038286e-01,0.000000000000000000e+00
1.217000000000000000e+03,8.961711543587586037e-01,0.000000000000000000e+00
1.218000000000000000e+03,4.679506958911504033e-01,0.000000000000000000e+00
1.219000000000000000e+03,5.066506793826185406e-01,0.000000000000000000e+00
1.220000000000000000e+03,-1.648617491866730123e-01,0.000000000000000000e+00
1.221000000000000000e+03,-5.928672580062696040e-01,0.000000000000000000e+00
1.222000000000000000e+03,-4.782961636076905054e-01,0.000000000000000000e+00
1.223000000000000000e+03,-1.058056273821327498e+00,0.000000000000000000e+00
1.224000000000000000e+03,-8.038903663555356793e-01,0.000000000000000000e+00
1.225000000000000000e+03,-8.150019053114562206e-01,0.000000000000000000e+00
1.226000000000000000e+03,-8.939000112453782121e-01,0.000000000000000000e+00
1.227000000000000000e+03,-6.770636086192541314e-02,0.000000000000000000e+00
1.228000000000000000e+03,-6.516124675149617129e-01,0.000000000000000000e+00
1.229000000000000000e+03,-5.832040512700253920e-01,0.000000000000000000e+00
1.230000000000000000e+03,-4.500172318617856049e-01,0.000000000000000000e+00
1.231000000000000000e+03,2.019618641384577917e-01,0.000000000000000000e+00
1.232000000000000000e+03,-5.388517781231382253e-01,0.000000000000000000e+00
1.233000000000000000e+03,-6.065308413778037755e-01,0.000000000000000000e+00
1.234000000000000000e+03,1.122928881560589648e-01,0.000000000000000000e+00
1.235000000000000000e+03,-3.574148485691180932e-01,0.000000000000000000e+00
1.236000000000000000e+03,-3.006555638122163782e-02,0.000000000000000000e+00
1.237000000000000000e+03,-3.229022522888281427e-02,0.000000000000000000e+00
1.238000000000000000e+03,1.014432950697535391e-01,0.000000000000000000e+00
1.239000000000000000e+03,-1.473970168741512987e-01,0.000000000000000000e+00
1.240000000000000000e+03,2.544779132933323515e-02,0.000000000000000000e+00
1.241000000000000000e+03,4.185710455956509479e-01,0.000000000000000000e+00
1.242000000000000000e+03,3.671016647437366776e-01,0.000000000000000000e+00
1.243000000000000000e+03,1.700480715381597896e-01,0.000000000000000000e+00
1.244000000000000000e+03,3.090664328031012542e-01,0.000000000000000000e+00
1.245000000000000000e+03,-6.767936074243585676e-02,0.000000000000000000e+00
1.246000000000000000e+03,5.948641947216927461e-02,0.000000000000000000e+00
1.247000000000000000e+03,1.108595888658834433e-01,0.000000000000000000e+00
1.248000000000000000e+03,-3.275040853185108292e-01,0.000000000000000000e+00
1.249000000000000000e+03,1.340967298654841544e+00,0.000000000000000000e+00
1.250000000000000000e+03,5.327781279338317688e+00,0.000000000000000000e+00
1.251000000000000000e+03,7.229082526548115117e-01,1.000000000000000000e+00
1.252000000000000000e+03,-1.357927324600918251e+00,0.000000000000000000e+00
1.253000000000000000e+03,-9.583983180987173389e-01,0.000000000000000000e+00
1.254000000000000000e+03,-4.498971303382023335e-01,0.000000000000000000e+00
1.255000000000000000e+03,-4.736642925911346280e-01,0.000000000000000000e+00
1.256000000000000000e+03,-1.371968141751693793e-01,0.000000000000000000e+00
1.257000000000000000e+03,-4.695069351529276847e-01,0.000000000000000000e+00
1.258000000000000000e+03,-1.426304788796577405e-01,0.000000000000000000e+00
1.259000000000000000e+03,-3.404916206836380299e-01,0.000000000000000000e+00
1.260000000000000000e+03,4.303636261650213846e-01,0.000000000000000000e+00
1.261000000000000000e+03,5.673538240328789284e-01,0.000000000000000000e+00
1.262000000000000000e+03,6.764182527856173188e-02,0.000000000000000000e+00
1.263000000000000000e+03,6.774798555904416597e-01,0.000000000000000000e+00
1.264000000000000000e+03,5.192081805934584127e-01,0.000000000000000000e+00
1.265000000000000000e+03,9.229102309561950657e-01,0.000000000000000000e+00
1.266000000000000000e+03,2.817983267956001292e-01,0.000000000000000000e+00
1.267000000000000000e+03,-3.359397881628207738e-01,0.000000000000000000e+00
1.268000000000000000e+03,-8.131713541847730431e-01,0.000000000000000000e+00
1.269000000000000000e+03,-8.621869736745353396e-01,0.000000000000000000e+00
1.270000000000000000e+03,-6.701863621035021312e-01,0.000000000000000000e+00
1.271000000000000000e+03,-6.769354910441199857e-01,0.000000000000000000e+00
1.272000000000000000e+03,-9.192033322550027252e-01,0.000000000000000000e+00
1.273000000000000000e+03,-4.525991412036454165e-01,0.000000000000000000e+00
1.274000000000000000e+03,-5.609572579022976679e-01,0.000000000000000000e+00
1.275000000000000000e+03,-3.115804739275796487e-01,0.000000000000000000e+00
1.276000000000000000e+03,-5.704418206301923311e-01,0.000000000000000000e+00
1.277000000000000000e+03,-1.448239793914208873e-01,0.000000000000000000e+00
1.278000000000000000e+03,-3.522051474251925995e-01,0.000000000000000000e+00
1.279000000000000000e+03,-2.226622605379331987e-01,0.000000000000000000e+00
1.280000000000000000e+03,-1.105326391667608987e-01,0.000000000000000000e+00
1.281000000000000000e+03,-3.666147546157445536e-01,0.000000000000000000e+00
1.282000000000000000e+03,-1.505596191321802862e-02,0.000000000000000000e+00
1.283000000000000000e+03,-1.591477456033625892e-01,0.000000000000000000e+00
1.284000000000000000e+03,-2.474927560810747385e-01,0.000000000000000000e+00
1.285000000000000000e+03,2.135629068131663089e-01,0.000000000000000000e+00
1.286000000000000000e+03,-1.225075471479829814e-01,0.000000000000000000e+00
1.287000000000000000e+03,5.018785331361381302e-02,0.000000000000000000e+00
1.288000000000000000e+03,1.202608831769187564e-01,0.000000000000000000e+00
1.289000000000000000e+03,5.042130734088496880e-01,0.000000000000000000e+00
1.290000000000000000e+03,4.162547652945371990e-01,0.000000000000000000e+00
1.291000000000000000e+03,3.221212142632091102e-01,0.000000000000000000e+00
1.292000000000000000e+03,-2.750120114690790540e-01,0.000000000000000000e+00
1.293000000000000000e+03,-1.616077517429725108e-01,0.000000000000000000e+00
1.294000000000000000e+03,3.497519058665593539e-01,0.000000000000000000e+00
1.295000000000000000e+03,-2.700552128343728930e-01,0.000000000000000000e+00
1.296000000000000000e+03,1.437503316522545926e+00,0.000000000000000000e+00
1.297000000000000000e+03,5.643844374479166426e+00,0.000000000000000000e+00
1.298000000000000000e+03,5.582173605748446121e-01,1.000000000000000000e+00
1.299000000000000000e+03,-1.236115432584446561e+00,0.000000000000000000e+00
1.300000000000000000e+03,-4.303842529495819913e-01,0.000000000000000000e+00
1.301000000000000000e+03,-8.661296310670048015e-01,0.000000000000000000e+00
1.302000000000000000e+03,-5.906112707469520773e-01,0.000000000000000000e+00
1.303000000000000000e+03,-6.673119042989140715e-01,0.000000000000000000e+00
1.304000000000000000e+03,-3.758387606465045105e-01,0.000000000000000000e+00
1.305000000000000000e+03,-6.095639336155116855e-02,0.000000000000000000e+00
1.306000000000000000e+03,-2.190843402213603630e-01,0.000000000000000000e+00
1.307000000000000000e+03,-6.739468082818579620e-02,0.000000000000000000e+00
1.308000000000000000e+03,8.011155351946248893e-02,0.000000000000000000e+00
1.309000000000000000e+03,6.320121061834772513e-01,0.000000000000000000e+00
1.310000000000000000e+03,6.042433925118609883e-01,0.000000000000000000e+00
1.311000000000000000e+03,6.362044654915669506e-01,0.000000000000000000e+00
1.312000000000000000e+03,8.739010881632686134e-01,0.000000000000000000e+00
1.313000000000000000e+03,8.653962203395065833e-02,0.000000000000000000e+00
1.314000000000000000e+03,-1.489934999264273807e-01,0.000000000000000000e+00
1.315000000000000000e+03,-7.513147744728725375e-01,0.000000000000000000e+00
1.316000000000000000e+03,-7.504542599866402819e-01,0.000000000000000000e+00
1.317000000000000000e+03,-7.377050472279105264e-01,0.000000000000000000e+00
1.318000000000000000e+03,-9.449023216136193115e-01,0.000000000000000000e+00
1.319000000000000000e+03,-4.694533409739461427e-01,0.000000000000000000e+00
1.320000000000000000e+03,-7.563595270318348440e-01,0.000000000000000000e+00
1.321000000000000000e+03,-4.855905093405161188e-01,0.000000000000000000e+00
1.322000000000000000e+03,-8.270637688892867878e-02,0.000000000000000000e+00
1.323000000000000000e+03,-4.885588691746995393e-01,0.000000000000000000e+00
1.324000000000000000e+03,-6.347679868868204567e-01,0.000000000000000000e+00
1.325000000000000000e+03,-7.381780548287918131e-02,0.000000000000000000e+00
1.326000000000000000e+03,-1.808082242547354723e-01,0.000000000000000000e+00
1.327000000000000000e+03,-1.332599241915857768e-01,0.000000000000000000e+00
1.328000000000000000e+03,-5.398962882654391171e-01,0.000000000000000000e+00
1.329000000000000000e+03,-3.202659780523136601e-01,0.000000000000000000e+00
1.330000000000000000e+03,3.982924907559234340e-01,0.000000000000000000e+00
1.331000000000000000e+03,-9.810947574116384018e-02,0.000000000000000000e+00
1.332000000000000000e+03,-2.869618975762283641e-01,0.000000000000000000e+00
1.333000000000000000e+03,-7.844053361445657568e-02,0.000000000000000000e+00
1.334000000000000000e+03,2.369821033711083935e-01,0.000000000000000000e+00
1.335000000000000000e+03,3.043293795534781077e-01,0.000000000000000000e+00
1.336000000000000000e+03,5.637168321655497971e-01,0.000000000000000000e+00
1.337000000000000000e+03,2.490748036347371561e-02,0.000000000000000000e+00
1.338000000000000000e+03,5.641232456660431049e-01,0.000000000000000000e+00
1.339000000000000000e+03,9.019722201626818869e-02,0.000000000000000000e+00
1.340000000000000000e+03,-6.116962326641275927e-02,0.000000000000000000e+00
1.341000000000000000e+03,-9.032235539132314750e-02,0.000000000000000000e+00
1.342000000000000000e+03,1.833864567016310620e-01,0.000000000000000000e+00
1.343000000000000000e+03,-7.931997814952533588e-02,0.000000000000000000e+00
1.344000000000000000e+03,5.159358306047286291e+00,0.000000000000000000e+00
1.345000000000000000e+03,3.679754057563096481e+00,1.000000000000000000e+00
1.346000000000000000e+03,-1.300497545994730331e+00,0.000000000000000000e+00
1.347000000000000000e+03,-6.624571606540464730e-01,0.000000000000000000e+00
1.348000000000000000e+03,-1.024021885217523353e+00,0.000000000000000000e+00
1.349000000000000000e+03,-7.739206771843950561e-01,0.000000000000000000e+00
1.350000000000000000e+03,-7.847857414438655921e-01,0.000000000000000000e+00
1.351000000000000000e+03,-1.763860142235224027e-01,0.000000000000000000e+00
1.352000000000000000e+03,-5.838350393912005165e-01,0.000000000000000000e+00
1.353000000000000000e+03,-1.755876944460218192e-01,0.000000000000000000e+00
1.354000000000000000e+03,-1.751514394279316822e-01,0.000000000000000000e+00
1.355000000000000000e+03,1.479352863338511959e-01,0.000000000000000000e+00
1.356000000000000000e+03,1.179783502327683142e-01,0.000000000000000000e+00
1.357000000000000000e+03,7.757784559321783124e-01,0.000000000000000000e+00
1.358000000000000000e+03,5.085117336180295933e-01,0.000000000000000000e+00
1.359000000000000000e+03,7.959267800013900551e-01,0.000000000000000000e+00
1.360000000000000000e+03,2.828141938072855077e-01,0.000000000000000000e+00
1.361000000000000000e+03,4.887221594266311087e-02,0.000000000000000000e+00
1.362000000000000000e+03,-7.968841200287897220e-01,0.000000000000000000e+00
1.363000000000000000e+03,-9.250514311602401341e-01,0.000000000000000000e+00
1.364000000000000000e+03,-9.443741245748081825e-01,0.000000000000000000e+00
1.365000000000000000e+03,-9.352751312362500569e-01,0.000000000000000000e+00
1.366000000000000000e+03,-7.268837254326332431e-01,0.000000000000000000e+00
1.367000000000000000e+03,-7.084407954963547471e-01,0.000000000000000000e+00
1.368000000000000000e+03,-6.271941262148029717e-01,0.000000000000000000e+00
1.369000000000000000e+03,-4.479306758942667166e-01,0.000000000000000000e+00
1.370000000000000000e+03,-4.910183864662028275e-01,0.000000000000000000e+00
1.371000000000000000e+03,-1.615997924577048106e-01,0.000000000000000000e+00
1.372000000000000000e+03,-1.646976169862105766e-01,0.000000000000000000e+00
1.373000000000000000e+03,-2.259469642558362967e-01,0.000000000000000000e+00
1.374000000000000000e+03,7.876300106198545758e-03,0.000000000000000000e+00
1.375000000000000000e+03,-1.013382740788416753e-01,0.000000000000000000e+00
1.376000000000000000e+03,-3.796469403883209193e-01,0.000000000000000000e+00
1.377000000000000000e+03,4.017376406510748676e-01,0.000000000000000000e+00
1.378000000000000000e+03,-2.067696705108361746e-02,0.000000000000000000e+00
1.379000000000000000e+03,-2.260696385321767643e-01,0.000000000000000000e+00
1.380000000000000000e+03,3.269974598225365570e-02,0.000000000000000000e+00
1.381000000000000000e+03,6.375187256845702422e-01,0.000000000000000000e+00
1.382000000000000000e+03,1.652263666251837376e-02,0.000000000000000000e+00
1.383000000000000000e+03,3.036031695354151072e-01,0.000000000000000000e+00
1.384000000000000000e+03,6.790467108395706886e-01,0.000000000000000000e+00
1.385000000000000000e+03,5.153753241438852051e-01,0.000000000000000000e+00
1.386000000000000000e+03,3.832173507572810833e-01,0.000000000000000000e+00
1.387000000000000000e+03,-3.957300295219531860e-02,0.000000000000000000e+00
1.388000000000000000e+03,-1.772366696554231735e-01,0.000000000000000000e+00
1.389000000000000000e+03,3.490642152459765835e-01,0.000000000000000000e+00
1.390000000000000000e+03,-3.405692695724439889e-01,0.000000000000000000e+00
1.391000000000000000e+03,3.951846499156154824e+00,0.000000000000000000e+00
1.392000000000000000e+03,5.194314307870324221e+00,0.000000000000000000e+00
1.393000000000000000e+03,-7.765716579892470994e-01,1.000000000000000000e+00
1.394000000000000000e+03,-9.017243573077547980e-01,0.000000000000000000e+00
1.395000000000000000e+03,-1.148589973753712190e+00,0.000000000000000000e+00
1.396000000000000000e+03,-3.383683677426854719e-01,0.000000000000000000e+00
1.397000000000000000e+03,-9.591473997920201278e-01,0.000000000000000000e+00
1.398000000000000000e+03,-2.885096677772517881e-01,0.000000000000000000e+00
1.399000000000000000e+03,-5.666497440997133594e-01,0.000000000000000000e+00
1.400000000000000000e+03,-2.600405402095938290e-01,0.000000000000000000e+00
1.401000000000000000e+03,-2.049782820046505000e-02,0.000000000000000000e+00
1.402000000000000000e+03,-8.207584879649329479e-02,0.000000000000000000e+00
1.403000000000000000e+03,3.010686134666851754e-01,0.000000000000000000e+00
1.404000000000000000e+03,3.722872591075843673e-01,0.000000000000000000e+00
1.405000000000000000e+03,6.429031547839643146e-01,0.000000000000000000e+00
1.406000000000000000e+03,6.967457718097586072e-01,0.000000000000000000e+00
1.407000000000000000e+03,5.075333339538479205e-01,0.000000000000000000e+00
1.408000000000000000e+03,-8.022092442118147759e-02,0.000000000000000000e+00
1.409000000000000000e+03,-3.583083010749532060e-01,0.000000000000000000e+00
1.410000000000000000e+03,-9.095341822007052546e-01,0.000000000000000000e+00
1.411000000000000000e+03,-1.103556155748883549e+00,0.000000000000000000e+00
1.412000000000000000e+03,-9.602981847866275400e-01,0.000000000000000000e+00
1.413000000000000000e+03,-9.500146134852770485e-01,0.000000000000000000e+00
1.414000000000000000e+03,-7.247754606319167792e-01,0.000000000000000000e+00
1.415000000000000000e+03,-7.742278049286692720e-01,0.000000000000000000e+00
1.416000000000000000e+03,-6.125934187625612370e-01,0.000000000000000000e+00
1.417000000000000000e+03,-4.346876468570737839e-01,0.000000000000000000e+00
1.418000000000000000e+03,-3.974662977899186544e-01,0.000000000000000000e+00
1.419000000000000000e+03,-1.837309558768227546e-01,0.000000000000000000e+00
1.420000000000000000e+03,-3.792096581577356074e-01,0.000000000000000000e+00
1.421000000000000000e+03,-2.668971439134094625e-01,0.000000000000000000e+00
1.422000000000000000e+03,-9.270027444945594386e-02,0.000000000000000000e+00
1.423000000000000000e+03,-4.242065267422635011e-01,0.000000000000000000e+00
1.424000000000000000e+03,1.818683314849960930e-01,0.000000000000000000e+00
1.425000000000000000e+03,-1.582781843310447356e-01,0.000000000000000000e+00
1.426000000000000000e+03,-7.150963745062428878e-02,0.000000000000000000e+00
1.427000000000000000e+03,-1.207541969896272771e-01,0.000000000000000000e+00
1.428000000000000000e+03,1.145165696374708664e-01,0.000000000000000000e+00
1.429000000000000000e+03,2.129063497525106041e-01,0.000000000000000000e+00
1.430000000000000000e+03,2.777760847086482299e-01,0.000000000000000000e+00
1.431000000000000000e+03,4.723396384812516557e-01,0.000000000000000000e+00
1.432000000000000000e+03,3.819175580999902841e-01,0.000000000000000000e+00
1.433000000000000000e+03,1.590787997127159070e-01,0.000000000000000000e+00
1.434000000000000000e+03,9.968564522896461444e-02,0.000000000000000000e+00
1.435000000000000000e+03,-1.761869964236214003e-01,0.000000000000000000e+00
1.436000000000000000e+03,2.900531927267988586e-01,0.000000000000000000e+00
1.437000000000000000e+03,-3.620865318055110360e-01,0.000000000000000000e+00
1.438000000000000000e+03,9.054194796072209117e-01,0.000000000000000000e+00
1.439000000000000000e+03,5.832066518813906697e+00,0.000000000000000000e+00
1.440000000000000000e+03,1.508071315894131681e+00,1.000000000000000000e+00
1.441000000000000000e+03,-1.794183785820276933e+00,0.000000000000000000e+00
1.442000000000000000e+03,-6.948904282079201300e-01,0.000000000000000000e+00
1.443000000000000000e+03,-7.157444183811110250e-01,0.000000000000000000e+00
1.444000000000000000e+03,-5.743950081971982424e-01,0.000000000000000000e+00
1.445000000000000000e+03,-4.395374642078517247e-01,0.000000000000000000e+00
1.446000000000000000e+03,-2.553585041403973466e-01,0.000000000000000000e+00
1.447000000000000000e+03,-6.135964099143597500e-02,0.000000000000000000e+00
1.448000000000000000e+03,-5.799126251663402898e-02,0.000000000000000000e+00
1.449000000000000000e+03,1.130076256386671092e-02,0.000000000000000000e+00
1.450000000000000000e+03,2.496360026618862915e-01,0.000000000000000000e+00
1.451000000000000000e+03,1.779907935125958629e-01,0.000000000000000000e+00
1.452000000000000000e+03,8.939855839374619695e-01,0.000000000000000000e+00
1.453000000000000000e+03,1.079455077188388401e+00,0.000000000000000000e+00
1.454000000000000000e+03,3.960557623938221194e-01,0.000000000000000000e+00
1.455000000000000000e+03,1.222188631738479192e-01,0.000000000000000000e+00
1.456000000000000000e+03,1.642143667641643434e-01,0.000000000000000000e+00
1.457000000000000000e+03,-6.931889931754956491e-01,0.000000000000000000e+00
1.458000000000000000e+03,-1.226755918990440897e+00,0.000000000000000000e+00
1.459000000000000000e+03,-9.757588296489695390e-01,0.000000000000000000e+00
1.460000000000000000e+03,-9.227682659057461212e-01,0.000000000000000000e+00
1.461000000000000000e+03,-4.875539984054465537e-01,0.000000000000000000e+00
1.462000000000000000e+03,-5.116407108725286035e-01,0.000000000000000000e+00
1.463000000000000000e+03,-6.762238910967850458e-01,0.000000000000000000e+00
1.464000000000000000e+03,-4.278532582072694934e-01,0.000000000000000000e+00
1.465000000000000000e+03,-4.661861687725736281e-01,0.000000000000000000e+00
1.466000000000000000e+03,-2.381702491118131426e-01,0.000000000000000000e+00
1.467000000000000000e+03,-1.634261096277777325e-01,0.000000000000000000e+00
1.468000000000000000e+03,-3.794618946001654947e-01,0.000000000000000000e+00
1.469000000000000000e+03,-3.477878872786197700e-02,0.000000000000000000e+00
1.470000000000000000e+03,-2.561058198684681986e-01,0.000000000000000000e+00
1.471000000000000000e+03,-1.493382443667360705e-02,0.000000000000000000e+00
1.472000000000000000e+03,-1.989913466987337509e-01,0.000000000000000000e+00
1.473000000000000000e+03,1.146099938249445921e-01,0.000000000000000000e+00
1.474000000000000000e+03,4.849415971986720253e-02,0.000000000000000000e+00
1.475000000000000000e+03,9.956052295939121777e-02,0.000000000000000000e+00
1.476000000000000000e+03,3.128127857181992599e-01,0.000000000000000000e+00
1.477000000000000000e+03,4.293722557089546532e-02,0.000000000000000000e+00
1.478000000000000000e+03,5.694006236454887127e-01,0.000000000000000000e+00
1.479000000000000000e+03,5.487133813703475305e-01,0.000000000000000000e+00
1.480000000000000000e+03,8.840795336943427229e-02,0.000000000000000000e+00
1.481000000000000000e+03,-9.203354250739841091e-02,0.000000000000000000e+00
1.482000000000000000e+03,1.272350293106048504e-02,0.000000000000000000e+00
1.483000000000000000e+03,-1.322323024145248766e-03,0.000000000000000000e+00
1.484000000000000000e+03,1.835476317417290837e-02,0.000000000000000000e+00
1.485000000000000000e+03,1.411638284554550982e+00,0.000000000000000000e+00
1.486000000000000000e+03,5.160018855751917322e+00,0.000000000000000000e+00
1.487000000000000000e+03,2.137533669341943332e-01,1.000000000000000000e+00
1.488000000000000000e+03,-1.532236164370387010e+00,0.000000000000000000e+00
1.489000000000000000e+03,-6.602048656341629185e-01,0.000000000000000000e+00
1.490000000000000000e+03,-4.837791952702640841e-01,0.000000000000000000e+00
1.491000000000000000e+03,-5.550557110499364510e-01,0.000000000000000000e+00
1.492000000000000000e+03,-1.324628597308933065e-01,0.000000000000000000e+00
1.493000000000000000e+03,-2.671699232513559674e-01,0.000000000000000000e+00
1.494000000000000000e+03,-6.334987245601772510e-02,0.000000000000000000e+00
1.495000000000000000e+03,-3.436191310049514086e-02,0.000000000000000000e+00
1.496000000000000000e+03,-1.498720109661286172e-03,0.000000000000000000e+00
1.497000000000000000e+03,2.938300791697460168e-01,0.000000000000000000e+00
1.498000000000000000e+03,6.201733305177782318e-01,0.000000000000000000e+00
1.499000000000000000e+03,5.436159003362878162e-01,0.000000000000000000e+00
1.500000000000000000e+03,7.605231710876388940e-01,0.000000000000000000e+00
1.501000000000000000e+03,4.720461427096107609e-01,0.000000000000000000e+00
1.502000000000000000e+03,9.189700438353863576e-02,0.000000000000000000e+00
1.503000000000000000e+03,-2.543051050291496584e-01,0.000000000000000000e+00
1.504000000000000000e+03,-4.927968736293999452e-01,0.000000000000000000e+00
1.505000000000000000e+03,-9.200474526397188768e-01,0.000000000000000000e+00
1.506000000000000000e+03,-8.446499300682853706e-01,0.000000000000000000e+00
1.507000000000000000e+03,-7.475658410794487896e-01,0.000000000000000000e+00
1.508000000000000000e+03,-4.653726575781236274e-01,0.000000000000000000e+00
1.509000000000000000e+03,-6.657085506285423948e-01,0.000000000000000000e+00
1.510000000000000000e+03,-3.525198046385390471e-01,0.000000000000000000e+00
1.511000000000000000e+03,-5.309457301236721882e-01,0.000000000000000000e+00
1.512000000000000000e+03,-1.802985863875137540e-01,0.000000000000000000e+00
1.513000000000000000e+03,-3.475845608401709752e-01,0.000000000000000000e+00
1.514000000000000000e+03,7.330141697332143158e-02,0.000000000000000000e+00
1.515000000000000000e+03,-1.954599610847489732e-01,0.000000000000000000e+00
1.516000000000000000e+03,-5.379371186660177884e-01,0.000000000000000000e+00
1.517000000000000000e+03,2.854405966482833137e-02,0.000000000000000000e+00
1.518000000000000000e+03,2.160881372507927195e-02,0.000000000000000000e+00
1.519000000000000000e+03,-2.498123383436676725e-01,0.000000000000000000e+00
1.520000000000000000e+03,2.918008187725572578e-01,0.000000000000000000e+00
1.521000000000000000e+03,-1.345572928198359997e-01,0.000000000000000000e+00
1.522000000000000000e+03,-5.960897230235753796e-02,0.000000000000000000e+00
1.523000000000000000e+03,1.658517493986355895e-01,0.000000000000000000e+00
1.524000000000000000e+03,5.078350631268749860e-01,0.000000000000000000e+00
1.525000000000000000e+03,1.652065304377236254e-01,0.000000000000000000e+00
1.526000000000000000e+03,5.266531835305304776e-01,0.000000000000000000e+00
1.527000000000000000e+03,-8.509653993366947389e-02,0.000000000000000000e+00
1.528000000000000000e+03,-2.026044785798903486e-02,0.000000000000000000e+00
1.529000000000000000e+03,-2.203689913578819604e-01,0.000000000000000000e+00
1.530000000000000000e+03,5.912390330080240508e-01,0.000000000000000000e+00
1.531000000000000000e+03,-4.468375215810315160e-01,0.000000000000000000e+00
1.532000000000000000e+03,3.020747138287268374e+00,0.000000000000000000e+00
1.533000000000000000e+03,4.424146272211449293e+00,0.000000000000000000e+00
1.534000000000000000e+03,-1.111840987110680690e+00,1.000000000000000000e+00
1.535000000000000000e+03,-1.196097426625325033e+00,0.000000000000000000e+00
1.536000000000000000e+03,-7.113706401896715548e-01,0.000000000000000000e+00
1.537000000000000000e+03,-5.386326792681590536e-01,0.000000000000000000e+00
1.538000000000000000e+03,-5.158012936847581331e-01,0.000000000000000000e+00
1.539000000000000000e+03,-2.719275754004711332e-01,0.000000000000000000e+00
1.540000000000000000e+03,-3.929159215370232050e-01,0.000000000000000000e+00
1.541000000000000000e+03,-1.183582417761832734e-01,0.000000000000000000e+00
1.542000000000000000e+03,-1.805204470379138948e-02,0.000000000000000000e+00
1.543000000000000000e+03,2.462917457408575483e-01,0.000000000000000000e+00
1.544000000000000000e+03,-5.139590580933775521e-02,0.000000000000000000e+00
1.545000000000000000e+03,6.202227775573849744e-01,0.000000000000000000e+00
1.546000000000000000e+03,6.208517288606473228e-01,0.000000000000000000e+00
1.547000000000000000e+03,8.199331735543421429e-01,0.000000000000000000e+00
1.548000000000000000e+03,3.674065667587473327e-01,0.000000000000000000e+00
1.549000000000000000e+03,1.141515488384742399e-01,0.000000000000000000e+00
1.550000000000000000e+03,-6.325826276403754278e-01,0.000000000000000000e+00
1.551000000000000000e+03,-7.831368004763173962e-01,0.000000000000000000e+00
1.552000000000000000e+03,-8.170151397426729245e-01,0.000000000000000000e+00
1.553000000000000000e+03,-8.024521131660397044e-01,0.000000000000000000e+00
1.554000000000000000e+03,-7.679831806201825595e-01,0.000000000000000000e+00
1.555000000000000000e+03,-5.352758285977176067e-01,0.000000000000000000e+00
1.556000000000000000e+03,-6.934256986552730373e-01,0.000000000000000000e+00
1.557000000000000000e+03,-2.982551834436306115e-01,0.000000000000000000e+00
1.558000000000000000e+03,-3.880287207226401081e-01,0.000000000000000000e+00
1.559000000000000000e+03,-3.052912969527382669e-01,0.000000000000000000e+00
1.560000000000000000e+03,-2.202512941519157996e-01,0.000000000000000000e+00
1.561000000000000000e+03,-3.149628765305407807e-01,0.000000000000000000e+00
1.562000000000000000e+03,-1.121883770804298075e-01,0.000000000000000000e+00
1.563000000000000000e+03,-1.762991026153215290e-01,0.000000000000000000e+00
1.564000000000000000e+03,-1.497443158433749977e-01,0.000000000000000000e+00
1.565000000000000000e+03,5.813763101170438263e-02,0.000000000000000000e+00
1.566000000000000000e+03,-3.905889599170070392e-01,0.000000000000000000e+00
1.567000000000000000e+03,1.335927767839599212e-01,0.000000000000000000e+00
1.568000000000000000e+03,-9.816954987399302557e-02,0.000000000000000000e+00
1.569000000000000000e+03,-4.122066264701083893e-02,0.000000000000000000e+00
1.570000000000000000e+03,2.240733746498122791e-01,0.000000000000000000e+00
1.571000000000000000e+03,4.041179633383068515e-01,0.000000000000000000e+00
1.572000000000000000e+03,3.550079670584067593e-01,0.000000000000000000e+00
1.573000000000000000e+03,4.973515103183152042e-01,0.000000000000000000e+00
1.574000000000000000e+03,-2.866452732986630170e-01,0.000000000000000000e+00
1.575000000000000000e+03,-2.735560331182252877e-02,0.000000000000000000e+00
1.576000000000000000e+03,7.912562373265593502e-03,0.000000000000000000e+00
1.577000000000000000e+03,2.253711529567172245e-01,0.000000000000000000e+00
1.578000000000000000e+03,3.518796857151322843e-01,0.000000000000000000e+00
1.579000000000000000e+03,5.273927044173510659e+00,0.000000000000000000e+00
1.580000000000000000e+03,1.733502796037967864e+00,1.000000000000000000e+00
1.581000000000000000e+03,-1.430112508764601831e+00,0.000000000000000000e+00
1.582000000000000000e+03,-5.144636625443996802e-01,0.000000000000000000e+00
1.583000000000000000e+03,-8.203585761883710470e-01,0.000000000000000000e+00
1.584000000000000000e+03,-6.609777471765994061e-01,0.000000000000000000e+00
1.585000000000000000e+03,-6.053398110665629828e-01,0.000000000000000000e+00
