timestamp,ecg_measurement,qrs_detected
0.000000000000000000e+00,-5.037660306581803055e-02,0.000000000000000000e+00
1.000000000000000000e+00,-2.713877009552055908e-01,0.000000000000000000e+00
2.000000000000000000e+00,-3.623589231418506418e-01,0.000000000000000000e+00
3.000000000000000000e+00,-3.261000501094506454e-01,0.000000000000000000e+00
4.000000000000000000e+00,-3.025104952718445372e-01,0.000000000000000000e+00
5.000000000000000000e+00,-2.863844046441416102e-01,0.000000000000000000e+00
6.000000000000000000e+00,-2.166007785675873321e-01,0.000000000000000000e+00
7.000000000000000000e+00,-1.966245533070911933e-01,0.000000000000000000e+00
8.000000000000000000e+00,-4.831454607057934086e-02,0.000000000000000000e+00
9.000000000000000000e+00,-1.841688283047231700e-01,0.000000000000000000e+00
1.000000000000000000e+01,1.641089213843671267e-04,0.000000000000000000e+00
1.100000000000000000e+01,-1.307850081812908689e-02,0.000000000000000000e+00
1.200000000000000000e+01,2.240839302819227358e-02,0.000000000000000000e+00
1.300000000000000000e+01,2.235145243373846610e-02,0.000000000000000000e+00
1.400000000000000000e+01,9.307988860175937795e-02,0.000000000000000000e+00
1.500000000000000000e+01,7.156391339177654853e-02,0.000000000000000000e+00
1.600000000000000000e+01,1.467660337231589396e-01,0.000000000000000000e+00
1.700000000000000000e+01,8.882123552475881811e-02,0.000000000000000000e+00
1.800000000000000000e+01,1.928031947982661864e-01,0.000000000000000000e+00
1.900000000000000000e+01,1.901056066242812204e-01,0.000000000000000000e+00
2.000000000000000000e+01,2.765277862002442077e-01,0.000000000000000000e+00
2.100000000000000000e+01,3.048003121994294906e-01,0.000000000000000000e+00
2.200000000000000000e+01,4.186327679202200835e-01,0.000000000000000000e+00
2.300000000000000000e+01,2.740759054870814393e-01,0.000000000000000000e+00
2.400000000000000000e+01,-7.942014578765185795e-03,0.000000000000000000e+00
2.500000000000000000e+01,-1.427881894464327894e-01,0.000000000000000000e+00
2.600000000000000000e+01,2.906623672367746394e-02,0.000000000000000000e+00
2.700000000000000000e+01,-1.071833731860513811e-01,0.000000000000000000e+00
2.800000000000000000e+01,1.433072661443462459e-01,0.000000000000000000e+00
2.900000000000000000e+01,1.694159187096873076e+00,0.000000000000000000e+00
3.000000000000000000e+01,5.805533249828370046e+00,0.000000000000000000e+00
3.100000000000000000e+01,1.350444283303735338e+00,1.000000000000000000e+00
3.200000000000000000e+01,-1.339513509443946981e+00,0.000000000000000000e+00
3.300000000000000000e+01,-1.295965113497963728e+00,0.000000000000000000e+00
3.400000000000000000e+01,-1.281489093286427794e+00,0.000000000000000000e+00
3.500000000000000000e+01,-1.153538111904093721e+00,0.000000000000000000e+00
3.600000000000000000e+01,-1.027582523655983682e+00,0.000000000000000000e+00
3.700000000000000000e+01,-8.939324105684208766e-01,0.000000000000000000e+00
3.800000000000000000e+01,-7.265517793629419074e-01,0.000000000000000000e+00
3.900000000000000000e+01,-5.831796956773405149e-01,0.000000000000000000e+00
4.000000000000000000e+01,-5.698432815517291417e-01,0.000000000000000000e+00
4.100000000000000000e+01,-4.251787592763832113e-01,0.000000000000000000e+00
4.200000000000000000e+01,-2.549858206039671282e-01,0.000000000000000000e+00
4.300000000000000000e+01,-1.563271402939740151e-01,0.000000000000000000e+00
4.400000000000000000e+01,5.249381795333152648e-03,0.000000000000000000e+00
4.500000000000000000e+01,9.297163447098331923e-02,0.000000000000000000e+00
4.600000000000000000e+01,2.538735567089845935e-01,0.000000000000000000e+00
4.700000000000000000e+01,1.692461912445734074e-01,0.000000000000000000e+00
4.800000000000000000e+01,2.692099453631765713e-02,0.000000000000000000e+00
4.900000000000000000e+01,-1.800385408245733510e-01,0.000000000000000000e+00
5.000000000000000000e+01,-3.361525549149779746e-01,0.000000000000000000e+00
5.100000000000000000e+01,-2.803391933455569585e-01,0.000000000000000000e+00
5.200000000000000000e+01,-2.615419679582182133e-01,0.000000000000000000e+00
5.300000000000000000e+01,-2.911593329202616376e-01,0.000000000000000000e+00
5.400000000000000000e+01,-2.153033271621717648e-01,0.000000000000000000e+00
5.500000000000000000e+01,-7.301443458674028442e-02,0.000000000000000000e+00
5.600000000000000000e+01,-1.590604352843500990e-01,0.000000000000000000e+00
5.700000000000000000e+01,-5.880885549178874010e-03,0.000000000000000000e+00
5.800000000000000000e+01,-1.905806370541055644e-02,0.000000000000000000e+00
5.900000000000000000e+01,-3.001358698288120012e-03,0.000000000000000000e+00
6.000000000000000000e+01,3.065815680192528897e-02,0.000000000000000000e+00
6.100000000000000000e+01,1.274991995598453443e-01,0.000000000000000000e+00
6.200000000000000000e+01,1.439490610559200634e-01,0.000000000000000000e+00
6.300000000000000000e+01,-2.725283529794844065e-03,0.000000000000000000e+00
6.400000000000000000e+01,7.067747837684812406e-02,0.000000000000000000e+00
6.500000000000000000e+01,9.340793808285978439e-02,0.000000000000000000e+00
6.600000000000000000e+01,2.304147091344355691e-01,0.000000000000000000e+00
6.700000000000000000e+01,1.732481727969394647e-01,0.000000000000000000e+00
6.800000000000000000e+01,4.104992190780799022e-01,0.000000000000000000e+00
6.900000000000000000e+01,1.606939533519105290e-01,0.000000000000000000e+00
7.000000000000000000e+01,4.866066540158937026e-01,0.000000000000000000e+00
7.100000000000000000e+01,2.754812068595128283e-01,0.000000000000000000e+00
7.200000000000000000e+01,2.555220204394745842e-01,0.000000000000000000e+00
7.300000000000000000e+01,-2.464134575063786914e-01,0.000000000000000000e+00
7.400000000000000000e+01,1.462673172822881729e-01,0.000000000000000000e+00
7.500000000000000000e+01,-2.144029281320086744e-01,0.000000000000000000e+00
7.600000000000000000e+01,2.485746203671467813e-01,0.000000000000000000e+00
7.700000000000000000e+01,2.939346580912261531e-01,0.000000000000000000e+00
7.800000000000000000e+01,4.823476416835958069e+00,0.000000000000000000e+00
7.900000000000000000e+01,4.149140703465883817e+00,0.000000000000000000e+00
8.000000000000000000e+01,-1.094072356039996752e+00,1.000000000000000000e+00
8.100000000000000000e+01,-1.176696656708931643e+00,0.000000000000000000e+00
8.200000000000000000e+01,-1.423313403361781360e+00,0.000000000000000000e+00
8.300000000000000000e+01,-1.106071311703301641e+00,0.000000000000000000e+00
8.400000000000000000e+01,-1.173016895677138294e+00,0.000000000000000000e+00
8.500000000000000000e+01,-7.862941439271459165e-01,0.000000000000000000e+00
8.600000000000000000e+01,-8.016161952496343446e-01,0.000000000000000000e+00
8.700000000000000000e+01,-5.692996976243691609e-01,0.000000000000000000e+00
8.800000000000000000e+01,-6.101742389982224291e-01,0.000000000000000000e+00
8.900000000000000000e+01,-3.513568452766832606e-01,0.000000000000000000e+00
9.000000000000000000e+01,-3.894925398925813687e-01,0.000000000000000000e+00
9.100000000000000000e+01,-6.863065356313075016e-02,0.000000000000000000e+00
9.200000000000000000e+01,-6.922117505514474578e-02,0.000000000000000000e+00
9.300000000000000000e+01,1.804553821343372888e-01,0.000000000000000000e+00
9.400000000000000000e+01,1.464701068993418398e-01,0.000000000000000000e+00
9.500000000000000000e+01,2.528098774024400419e-01,0.000000000000000000e+00
9.600000000000000000e+01,6.045394563022642165e-02,0.000000000000000000e+00
9.700000000000000000e+01,-2.924825126770548567e-02,0.000000000000000000e+00
9.800000000000000000e+01,-2.810287116335017377e-01,0.000000000000000000e+00
9.900000000000000000e+01,-3.535021720680897594e-01,0.000000000000000000e+00
1.000000000000000000e+02,-2.925915538369227575e-01,0.000000000000000000e+00
1.010000000000000000e+02,-3.232076336560892882e-01,0.000000000000000000e+00
1.020000000000000000e+02,-2.686842978212533040e-01,0.000000000000000000e+00
1.030000000000000000e+02,-1.276530468980872079e-01,0.000000000000000000e+00
1.040000000000000000e+02,-1.167455984843604605e-01,0.000000000000000000e+00
1.050000000000000000e+02,-1.161642558702344896e-01,0.000000000000000000e+00
1.060000000000000000e+02,-4.654729900696436690e-02,0.000000000000000000e+00
1.070000000000000000e+02,-1.108729419884355721e-02,0.000000000000000000e+00
1.080000000000000000e+02,2.219139625972599977e-02,0.000000000000000000e+00
1.090000000000000000e+02,1.339921790474136176e-01,0.000000000000000000e+00
1.100000000000000000e+02,3.942011170380950447e-02,0.000000000000000000e+00
1.110000000000000000e+02,1.757202321573784337e-02,0.000000000000000000e+00
1.120000000000000000e+02,9.435283740709812794e-02,0.000000000000000000e+00
1.130000000000000000e+02,9.204073811672333627e-02,0.000000000000000000e+00
1.140000000000000000e+02,7.263106728454525596e-02,0.000000000000000000e+00
1.150000000000000000e+02,2.050634238847157398e-01,0.000000000000000000e+00
1.160000000000000000e+02,2.130217807012184661e-01,0.000000000000000000e+00
1.170000000000000000e+02,2.076560298827613837e-01,0.000000000000000000e+00
1.180000000000000000e+02,3.178857255714719332e-01,0.000000000000000000e+00
1.190000000000000000e+02,4.703371825873367551e-01,0.000000000000000000e+00
1.200000000000000000e+02,5.126383857479729911e-02,0.000000000000000000e+00
1.210000000000000000e+02,-4.604964781391802930e-02,0.000000000000000000e+00
1.220000000000000000e+02,-5.273267472486543178e-02,0.000000000000000000e+00
1.230000000000000000e+02,-1.965452075310229474e-01,0.000000000000000000e+00
1.240000000000000000e+02,4.640973322700596426e-02,0.000000000000000000e+00
1.250000000000000000e+02,-1.098885231217073448e-03,0.000000000000000000e+00
1.260000000000000000e+02,2.956206439742355307e+00,0.000000000000000000e+00
1.270000000000000000e+02,5.551141736099050483e+00,0.000000000000000000e+00
1.280000000000000000e+02,-7.077929094208849914e-02,1.000000000000000000e+00
1.290000000000000000e+02,-1.306644106849252918e+00,0.000000000000000000e+00
1.300000000000000000e+02,-1.520454475334601208e+00,0.000000000000000000e+00
1.310000000000000000e+02,-1.291768295254533294e+00,0.000000000000000000e+00
1.320000000000000000e+02,-1.215648119861227228e+00,0.000000000000000000e+00
1.330000000000000000e+02,-1.078479797202380075e+00,0.000000000000000000e+00
1.340000000000000000e+02,-9.367950181727433545e-01,0.000000000000000000e+00
1.350000000000000000e+02,-7.472458082007185087e-01,0.000000000000000000e+00
1.360000000000000000e+02,-7.075854923642617145e-01,0.000000000000000000e+00
1.370000000000000000e+02,-5.357107942168135573e-01,0.000000000000000000e+00
1.380000000000000000e+02,-4.159817650085502194e-01,0.000000000000000000e+00
1.390000000000000000e+02,-2.507046528033610722e-01,0.000000000000000000e+00
1.400000000000000000e+02,-1.138304934579404126e-01,0.000000000000000000e+00
1.410000000000000000e+02,1.068182637971423210e-01,0.000000000000000000e+00
1.420000000000000000e+02,7.687829530535053579e-02,0.000000000000000000e+00
1.430000000000000000e+02,2.409139255286376902e-01,0.000000000000000000e+00
1.440000000000000000e+02,1.441588730433748244e-01,0.000000000000000000e+00
1.450000000000000000e+02,4.182781882434465776e-02,0.000000000000000000e+00
1.460000000000000000e+02,-2.421317506288069021e-01,0.000000000000000000e+00
1.470000000000000000e+02,-1.973663221108645505e-01,0.000000000000000000e+00
1.480000000000000000e+02,-3.699726208532698735e-01,0.000000000000000000e+00
1.490000000000000000e+02,-2.512707549841773358e-01,0.000000000000000000e+00
1.500000000000000000e+02,-2.925994877368195968e-01,0.000000000000000000e+00
1.510000000000000000e+02,-1.329666599682836348e-01,0.000000000000000000e+00
1.520000000000000000e+02,-9.939992362549174287e-02,0.000000000000000000e+00
1.530000000000000000e+02,-2.368247459157553358e-02,0.000000000000000000e+00
1.540000000000000000e+02,-5.306128494106394922e-02,0.000000000000000000e+00
1.550000000000000000e+02,-4.891326985481221027e-04,0.000000000000000000e+00
1.560000000000000000e+02,3.384605606209690337e-02,0.000000000000000000e+00
1.570000000000000000e+02,5.477961580747334192e-02,0.000000000000000000e+00
1.580000000000000000e+02,8.389883255760967329e-02,0.000000000000000000e+00
1.590000000000000000e+02,1.899650024539577542e-01,0.000000000000000000e+00
1.600000000000000000e+02,3.008387913186492610e-02,0.000000000000000000e+00
1.610000000000000000e+02,1.245028007176087331e-01,0.000000000000000000e+00
1.620000000000000000e+02,8.715772295467716368e-02,0.000000000000000000e+00
1.630000000000000000e+02,2.177492226522299013e-01,0.000000000000000000e+00
1.640000000000000000e+02,2.725792499646598199e-01,0.000000000000000000e+00
1.650000000000000000e+02,3.397128782984653039e-01,0.000000000000000000e+00
1.660000000000000000e+02,2.704709096360172760e-01,0.000000000000000000e+00
1.670000000000000000e+02,4.480593887685571652e-01,0.000000000000000000e+00
1.680000000000000000e+02,3.404433540936448455e-01,0.000000000000000000e+00
1.690000000000000000e+02,1.654646828906723363e-02,0.000000000000000000e+00
1.700000000000000000e+02,-9.553668501931738763e-03,0.000000000000000000e+00
1.710000000000000000e+02,-3.061231519956189584e-02,0.000000000000000000e+00
1.720000000000000000e+02,-9.925490794769778469e-02,0.000000000000000000e+00
1.730000000000000000e+02,1.845905516136234770e-01,0.000000000000000000e+00
1.740000000000000000e+02,1.527503895896211716e+00,0.000000000000000000e+00
1.750000000000000000e+02,5.913790471887187650e+00,0.000000000000000000e+00
1.760000000000000000e+02,1.636474969662958356e+00,1.000000000000000000e+00
1.770000000000000000e+02,-1.417084688865711151e+00,0.000000000000000000e+00
1.780000000000000000e+02,-1.201180636759666465e+00,0.000000000000000000e+00
1.790000000000000000e+02,-1.341428543999460654e+00,0.000000000000000000e+00
1.800000000000000000e+02,-1.128647987840556866e+00,0.000000000000000000e+00
1.810000000000000000e+02,-9.696632943152753148e-01,0.000000000000000000e+00
1.820000000000000000e+02,-8.637423351410727923e-01,0.000000000000000000e+00
1.830000000000000000e+02,-7.554249430481597694e-01,0.000000000000000000e+00
1.840000000000000000e+02,-5.891220548252671385e-01,0.000000000000000000e+00
1.850000000000000000e+02,-5.555471262978924907e-01,0.000000000000000000e+00
1.860000000000000000e+02,-3.691079342864889701e-01,0.000000000000000000e+00
1.870000000000000000e+02,-3.427502654808101679e-01,0.000000000000000000e+00
1.880000000000000000e+02,-4.094071362767857242e-02,0.000000000000000000e+00
1.890000000000000000e+02,-8.369534387860633196e-02,0.000000000000000000e+00
1.900000000000000000e+02,1.574414808367488317e-01,0.000000000000000000e+00
1.910000000000000000e+02,2.072094291695037449e-01,0.000000000000000000e+00
1.920000000000000000e+02,1.893013168403865354e-01,0.000000000000000000e+00
1.930000000000000000e+02,4.461797531893148955e-02,0.000000000000000000e+00
1.940000000000000000e+02,-1.985908832240605992e-01,0.000000000000000000e+00
1.950000000000000000e+02,-2.875684647045885223e-01,0.000000000000000000e+00
1.960000000000000000e+02,-2.248346912604581860e-01,0.000000000000000000e+00
1.970000000000000000e+02,-3.309007228491215313e-01,0.000000000000000000e+00
1.980000000000000000e+02,-2.790824502093617876e-01,0.000000000000000000e+00
1.990000000000000000e+02,-2.328922135691092188e-01,0.000000000000000000e+00
2.000000000000000000e+02,-1.383522745408137800e-01,0.000000000000000000e+00
2.010000000000000000e+02,-1.287452089437420566e-01,0.000000000000000000e+00
2.020000000000000000e+02,-4.827177046601493354e-02,0.000000000000000000e+00
2.030000000000000000e+02,-6.164018956461744282e-03,0.000000000000000000e+00
2.040000000000000000e+02,-2.497575833900968212e-02,0.000000000000000000e+00
2.050000000000000000e+02,5.030473145377291344e-02,0.000000000000000000e+00
2.060000000000000000e+02,2.352138933392620632e-02,0.000000000000000000e+00
2.070000000000000000e+02,-3.745917984833459224e-02,0.000000000000000000e+00
2.080000000000000000e+02,1.107775337563714074e-01,0.000000000000000000e+00
2.090000000000000000e+02,6.559029405048977246e-02,0.000000000000000000e+00
2.100000000000000000e+02,1.966503651481397164e-01,0.000000000000000000e+00
2.110000000000000000e+02,1.684074545499679165e-01,0.000000000000000000e+00
2.120000000000000000e+02,3.051918641132704835e-01,0.000000000000000000e+00
2.130000000000000000e+02,2.733304696085732122e-01,0.000000000000000000e+00
2.140000000000000000e+02,3.426299714882515279e-01,0.000000000000000000e+00
2.150000000000000000e+02,3.937405762565081013e-01,0.000000000000000000e+00
2.160000000000000000e+02,2.569011424498040541e-01,0.000000000000000000e+00
2.170000000000000000e+02,-6.081700805703740137e-02,0.000000000000000000e+00
2.180000000000000000e+02,6.664173933083387957e-02,0.000000000000000000e+00
2.190000000000000000e+02,-1.931895329599429556e-01,0.000000000000000000e+00
2.200000000000000000e+02,5.937650512157478799e-02,0.000000000000000000e+00
2.210000000000000000e+02,9.624566801224700152e-02,0.000000000000000000e+00
2.220000000000000000e+02,2.318874506111925360e+00,0.000000000000000000e+00
2.230000000000000000e+02,5.390193338835647552e+00,0.000000000000000000e+00
2.240000000000000000e+02,2.366208264186780985e-01,1.000000000000000000e+00
2.250000000000000000e+02,-1.250078598451499490e+00,0.000000000000000000e+00
2.260000000000000000e+02,-1.184227567558719052e+00,0.000000000000000000e+00
2.270000000000000000e+02,-1.134620580559588809e+00,0.000000000000000000e+00
2.280000000000000000e+02,-9.947404716444798733e-01,0.000000000000000000e+00
2.290000000000000000e+02,-8.787561303605593288e-01,0.000000000000000000e+00
2.300000000000000000e+02,-7.848127721294725356e-01,0.000000000000000000e+00
2.310000000000000000e+02,-6.480320248190900578e-01,0.000000000000000000e+00
2.320000000000000000e+02,-5.690596242724901277e-01,0.000000000000000000e+00
2.330000000000000000e+02,-4.635950231775400887e-01,0.000000000000000000e+00
2.340000000000000000e+02,-3.857438618919356577e-01,0.000000000000000000e+00
2.350000000000000000e+02,-3.012407316767793386e-01,0.000000000000000000e+00
2.360000000000000000e+02,-2.642306396227682430e-02,0.000000000000000000e+00
2.370000000000000000e+02,-3.388567165030185319e-02,0.000000000000000000e+00
2.380000000000000000e+02,2.530002996069948273e-01,0.000000000000000000e+00
2.390000000000000000e+02,2.145019887773045308e-01,0.000000000000000000e+00
2.400000000000000000e+02,1.292077878418095294e-01,0.000000000000000000e+00
2.410000000000000000e+02,8.057658348498633605e-02,0.000000000000000000e+00
2.420000000000000000e+02,-3.799474799687711513e-01,0.000000000000000000e+00
2.430000000000000000e+02,-2.886744660387629002e-01,0.000000000000000000e+00
2.440000000000000000e+02,-3.646370343488067323e-01,0.000000000000000000e+00
2.450000000000000000e+02,-4.314657299152792613e-01,0.000000000000000000e+00
2.460000000000000000e+02,-2.016969669924572328e-01,0.000000000000000000e+00
2.470000000000000000e+02,-2.525514978899130458e-01,0.000000000000000000e+00
2.480000000000000000e+02,-2.131913870536090161e-01,0.000000000000000000e+00
2.490000000000000000e+02,-1.113875800377232828e-01,0.000000000000000000e+00
2.500000000000000000e+02,-1.500023079383565328e-01,0.000000000000000000e+00
2.510000000000000000e+02,-4.938269685340170717e-02,0.000000000000000000e+00
2.520000000000000000e+02,1.404406094270211139e-02,0.000000000000000000e+00
2.530000000000000000e+02,1.139080627778115556e-02,0.000000000000000000e+00
2.540000000000000000e+02,1.200448274238047203e-01,0.000000000000000000e+00
2.550000000000000000e+02,-4.539015651283157676e-02,0.000000000000000000e+00
2.560000000000000000e+02,1.865123546777461838e-01,0.000000000000000000e+00
2.570000000000000000e+02,-1.030753039182631323e-02,0.000000000000000000e+00
2.580000000000000000e+02,1.817812015177954488e-01,0.000000000000000000e+00
2.590000000000000000e+02,1.382489849222471867e-01,0.000000000000000000e+00
2.600000000000000000e+02,3.627519265106949886e-01,0.000000000000000000e+00
2.610000000000000000e+02,2.267358492684322657e-01,0.000000000000000000e+00
2.620000000000000000e+02,3.871710682590968067e-01,0.000000000000000000e+00
2.630000000000000000e+02,4.184573156678266792e-01,0.000000000000000000e+00
2.640000000000000000e+02,1.995517058192269322e-01,0.000000000000000000e+00
2.650000000000000000e+02,-8.342015825441496946e-02,0.000000000000000000e+00
2.660000000000000000e+02,2.817048620382347004e-02,0.000000000000000000e+00
2.670000000000000000e+02,-1.314613791270896337e-01,0.000000000000000000e+00
2.680000000000000000e+02,2.077060048870664200e-01,0.000000000000000000e+00
2.690000000000000000e+02,1.637199471264091932e-01,0.000000000000000000e+00
2.700000000000000000e+02,4.133550542887816981e+00,0.000000000000000000e+00
2.710000000000000000e+02,3.948284005341020197e+00,0.000000000000000000e+00
2.720000000000000000e+02,-9.831421293162803110e-01,1.000000000000000000e+00
2.730000000000000000e+02,-9.829369100956336647e-01,0.000000000000000000e+00
2.740000000000000000e+02,-1.268542875616019305e+00,0.000000000000000000e+00
2.750000000000000000e+02,-9.430964930273015856e-01,0.000000000000000000e+00
2.760000000000000000e+02,-1.008806606289640362e+00,0.000000000000000000e+00
2.770000000000000000e+02,-7.673398921806987572e-01,0.000000000000000000e+00
2.780000000000000000e+02,-7.922468625271276155e-01,0.000000000000000000e+00
2.790000000000000000e+02,-5.226591638853634869e-01,0.000000000000000000e+00
2.800000000000000000e+02,-5.607933486559805170e-01,0.000000000000000000e+00
2.810000000000000000e+02,-2.822770701982089681e-01,0.000000000000000000e+00
2.820000000000000000e+02,-3.953078349487916809e-01,0.000000000000000000e+00
2.830000000000000000e+02,-4.685105178305817852e-02,0.000000000000000000e+00
2.840000000000000000e+02,-3.076969732250328660e-02,0.000000000000000000e+00
2.850000000000000000e+02,1.971139073476855241e-01,0.000000000000000000e+00
2.860000000000000000e+02,1.914354829959019066e-01,0.000000000000000000e+00
2.870000000000000000e+02,2.489147801113620606e-01,0.000000000000000000e+00
2.880000000000000000e+02,1.456755151764863865e-01,0.000000000000000000e+00
2.890000000000000000e+02,-1.487085677271161310e-01,0.000000000000000000e+00
2.900000000000000000e+02,-3.216670080453218339e-01,0.000000000000000000e+00
2.910000000000000000e+02,-3.405264870166941904e-01,0.000000000000000000e+00
2.920000000000000000e+02,-3.822623658891387000e-01,0.000000000000000000e+00
2.930000000000000000e+02,-2.280106030537235040e-01,0.000000000000000000e+00
2.940000000000000000e+02,-2.976905037079955463e-01,0.000000000000000000e+00
2.950000000000000000e+02,-1.926668188943019000e-01,0.000000000000000000e+00
2.960000000000000000e+02,-1.696012052940166215e-01,0.000000000000000000e+00
2.970000000000000000e+02,-9.050954945816400143e-02,0.000000000000000000e+00
2.980000000000000000e+02,-6.060196449291364862e-02,0.000000000000000000e+00
2.990000000000000000e+02,-3.037925590369608062e-02,0.000000000000000000e+00
3.000000000000000000e+02,1.281607540121131733e-02,0.000000000000000000e+00
3.010000000000000000e+02,-1.995685951612492445e-02,0.000000000000000000e+00
3.020000000000000000e+02,1.207219961362378663e-01,0.000000000000000000e+00
3.030000000000000000e+02,1.859414241523780001e-02,0.000000000000000000e+00
3.040000000000000000e+02,4.623169740304243144e-03,0.000000000000000000e+00
3.050000000000000000e+02,7.150051849224728362e-02,0.000000000000000000e+00
3.060000000000000000e+02,1.221233895710836653e-01,0.000000000000000000e+00
3.070000000000000000e+02,1.944609888016048949e-01,0.000000000000000000e+00
3.080000000000000000e+02,2.787127316245048836e-01,0.000000000000000000e+00
3.090000000000000000e+02,2.007073350157067282e-01,0.000000000000000000e+00
3.100000000000000000e+02,4.387664334535080757e-01,0.000000000000000000e+00
3.110000000000000000e+02,3.430122181264986803e-01,0.000000000000000000e+00
3.120000000000000000e+02,1.502298679252779823e-01,0.000000000000000000e+00
3.130000000000000000e+02,-1.036636893418253769e-01,0.000000000000000000e+00
3.140000000000000000e+02,-1.529629018162818356e-02,0.000000000000000000e+00
3.150000000000000000e+02,-1.670682932471457549e-01,0.000000000000000000e+00
3.160000000000000000e+02,2.203041384723682938e-01,0.000000000000000000e+00
3.170000000000000000e+02,4.739840623359243832e-01,0.000000000000000000e+00
3.180000000000000000e+02,4.894004063161514040e+00,0.000000000000000000e+00
3.190000000000000000e+02,3.478694595464872030e+00,1.000000000000000000e+00
3.200000000000000000e+02,-1.283991801585841364e+00,0.000000000000000000e+00
3.210000000000000000e+02,-1.120812486713111289e+00,0.000000000000000000e+00
3.220000000000000000e+02,-1.371280435543684506e+00,0.000000000000000000e+00
3.230000000000000000e+02,-1.035560971451195966e+00,0.000000000000000000e+00
3.240000000000000000e+02,-1.076812532524279442e+00,0.000000000000000000e+00
3.250000000000000000e+02,-7.347864137046768995e-01,0.000000000000000000e+00
3.260000000000000000e+02,-8.947888027712639358e-01,0.000000000000000000e+00
3.270000000000000000e+02,-4.753810591976666555e-01,0.000000000000000000e+00
3.280000000000000000e+02,-6.437491601515709094e-01,0.000000000000000000e+00
3.290000000000000000e+02,-4.303570856036116887e-01,0.000000000000000000e+00
3.300000000000000000e+02,-3.961115914217193112e-01,0.000000000000000000e+00
3.310000000000000000e+02,-7.802024902476180357e-02,0.000000000000000000e+00
3.320000000000000000e+02,-6.546179289178248595e-02,0.000000000000000000e+00
3.330000000000000000e+02,1.266343891324832882e-01,0.000000000000000000e+00
3.340000000000000000e+02,2.648525588517687823e-01,0.000000000000000000e+00
3.350000000000000000e+02,3.035102003506318091e-01,0.000000000000000000e+00
3.360000000000000000e+02,2.511282631725233333e-02,0.000000000000000000e+00
3.370000000000000000e+02,-1.020450172266707395e-01,0.000000000000000000e+00
3.380000000000000000e+02,-3.731102340469156786e-01,0.000000000000000000e+00
3.390000000000000000e+02,-2.139868631461184223e-01,0.000000000000000000e+00
3.400000000000000000e+02,-3.421994872346593719e-01,0.000000000000000000e+00
3.410000000000000000e+02,-2.658297715537581984e-01,0.000000000000000000e+00
3.420000000000000000e+02,-2.724144647798075192e-01,0.000000000000000000e+00
3.430000000000000000e+02,-1.117156576907142318e-01,0.000000000000000000e+00
3.440000000000000000e+02,-1.612061368148607621e-01,0.000000000000000000e+00
3.450000000000000000e+02,-2.817326685406270487e-02,0.000000000000000000e+00
3.460000000000000000e+02,-9.347941764034843615e-02,0.000000000000000000e+00
3.470000000000000000e+02,1.450845366442120310e-02,0.000000000000000000e+00
3.480000000000000000e+02,-8.204980015621371123e-03,0.000000000000000000e+00
3.490000000000000000e+02,7.131540102828417237e-03,0.000000000000000000e+00
3.500000000000000000e+02,4.632526787546521058e-02,0.000000000000000000e+00
3.510000000000000000e+02,4.498797296087880815e-02,0.000000000000000000e+00
3.520000000000000000e+02,3.791267271701080632e-02,0.000000000000000000e+00
3.530000000000000000e+02,4.961277458214446295e-02,0.000000000000000000e+00
3.540000000000000000e+02,1.442091503519126183e-01,0.000000000000000000e+00
3.550000000000000000e+02,2.936879585659495917e-01,0.000000000000000000e+00
3.560000000000000000e+02,2.643151139316824993e-01,0.000000000000000000e+00
3.570000000000000000e+02,3.500332360454483371e-01,0.000000000000000000e+00
3.580000000000000000e+02,3.762663867990804212e-01,0.000000000000000000e+00
3.590000000000000000e+02,3.702945013558051057e-01,0.000000000000000000e+00
3.600000000000000000e+02,-2.634492976404000791e-02,0.000000000000000000e+00
3.610000000000000000e+02,-3.663252212687202747e-02,0.000000000000000000e+00
3.620000000000000000e+02,-5.861208228244527141e-02,0.000000000000000000e+00
3.630000000000000000e+02,-9.464208336972290692e-02,0.000000000000000000e+00
3.640000000000000000e+02,1.963744304547669906e-01,0.000000000000000000e+00
3.650000000000000000e+02,1.413711274854549060e+00,0.000000000000000000e+00
3.660000000000000000e+02,5.766528568714877956e+00,0.000000000000000000e+00
3.670000000000000000e+02,1.923745585799447211e+00,1.000000000000000000e+00
3.680000000000000000e+02,-1.403823510348877202e+00,0.000000000000000000e+00
3.690000000000000000e+02,-1.323896523464979103e+00,0.000000000000000000e+00
3.700000000000000000e+02,-1.352881198952195829e+00,0.000000000000000000e+00
3.710000000000000000e+02,-1.133821252961623616e+00,0.000000000000000000e+00
3.720000000000000000e+02,-1.110089147296830392e+00,0.000000000000000000e+00
3.730000000000000000e+02,-7.926789218076807364e-01,0.000000000000000000e+00
3.740000000000000000e+02,-8.163553149265124764e-01,0.000000000000000000e+00
3.750000000000000000e+02,-5.906584295356174241e-01,0.000000000000000000e+00
3.760000000000000000e+02,-6.318124247387599812e-01,0.000000000000000000e+00
3.770000000000000000e+02,-3.789921351141418704e-01,0.000000000000000000e+00
3.780000000000000000e+02,-3.937124892922811425e-01,0.000000000000000000e+00
3.790000000000000000e+02,-1.011469168844106731e-01,0.000000000000000000e+00
3.800000000000000000e+02,-1.011427256544424058e-01,0.000000000000000000e+00
3.810000000000000000e+02,1.969613479995157290e-01,0.000000000000000000e+00
3.820000000000000000e+02,1.794241395649409931e-01,0.000000000000000000e+00
3.830000000000000000e+02,2.092758541587968202e-01,0.000000000000000000e+00
3.840000000000000000e+02,2.958707478576394836e-02,0.000000000000000000e+00
3.850000000000000000e+02,-1.151369084469356791e-01,0.000000000000000000e+00
3.860000000000000000e+02,-3.521667950507997302e-01,0.000000000000000000e+00
3.870000000000000000e+02,-2.547444124010861399e-01,0.000000000000000000e+00
3.880000000000000000e+02,-2.831943924269029744e-01,0.000000000000000000e+00
3.890000000000000000e+02,-2.106198455930313185e-01,0.000000000000000000e+00
3.900000000000000000e+02,-2.597841546337916752e-01,0.000000000000000000e+00
3.910000000000000000e+02,-3.690730416843342188e-02,0.000000000000000000e+00
3.920000000000000000e+02,-1.129374532167159162e-01,0.000000000000000000e+00
3.930000000000000000e+02,-3.450871792776034376e-03,0.000000000000000000e+00
3.940000000000000000e+02,-1.256523299408575656e-01,0.000000000000000000e+00
3.950000000000000000e+02,1.039457075863547963e-01,0.000000000000000000e+00
3.960000000000000000e+02,7.257959241941457085e-02,0.000000000000000000e+00
3.970000000000000000e+02,2.049860141569644599e-03,0.000000000000000000e+00
3.980000000000000000e+02,8.590364955725957041e-02,0.000000000000000000e+00
3.990000000000000000e+02,1.332612534827495310e-01,0.000000000000000000e+00
4.000000000000000000e+02,6.162479297821813612e-02,0.000000000000000000e+00
4.010000000000000000e+02,1.704146619855569922e-01,0.000000000000000000e+00
4.020000000000000000e+02,1.696834869800013523e-01,0.000000000000000000e+00
4.030000000000000000e+02,3.317673320490882038e-01,0.000000000000000000e+00
4.040000000000000000e+02,2.363831167224124952e-01,0.000000000000000000e+00
4.050000000000000000e+02,4.738294589321359052e-01,0.000000000000000000e+00
4.060000000000000000e+02,4.001073940007993657e-01,0.000000000000000000e+00
4.070000000000000000e+02,2.881051046696868623e-01,0.000000000000000000e+00
4.080000000000000000e+02,-1.093702107887595809e-01,0.000000000000000000e+00
4.090000000000000000e+02,8.586165083546755394e-02,0.000000000000000000e+00
4.100000000000000000e+02,-1.518611165371695215e-01,0.000000000000000000e+00
4.110000000000000000e+02,1.866386600656022299e-01,0.000000000000000000e+00
4.120000000000000000e+02,1.381266421995753224e-01,0.000000000000000000e+00
4.130000000000000000e+02,3.446471464479573754e+00,0.000000000000000000e+00
4.140000000000000000e+02,5.333091592561267191e+00,0.000000000000000000e+00
4.150000000000000000e+02,-2.425184098471111493e-01,1.000000000000000000e+00
4.160000000000000000e+02,-1.185018655514504138e+00,0.000000000000000000e+00
4.170000000000000000e+02,-1.412565818406519957e+00,0.000000000000000000e+00
4.180000000000000000e+02,-1.165069008680335028e+00,0.000000000000000000e+00
4.190000000000000000e+02,-1.264704335789820000e+00,0.000000000000000000e+00
4.200000000000000000e+02,-9.916220641974977656e-01,0.000000000000000000e+00
4.210000000000000000e+02,-8.544047690078331314e-01,0.000000000000000000e+00
4.220000000000000000e+02,-7.287313799851039553e-01,0.000000000000000000e+00
4.230000000000000000e+02,-6.564685694398489924e-01,0.000000000000000000e+00
4.240000000000000000e+02,-5.663885204697323150e-01,0.000000000000000000e+00
4.250000000000000000e+02,-4.721416148500032217e-01,0.000000000000000000e+00
4.260000000000000000e+02,-3.004118914135414653e-01,0.000000000000000000e+00
4.270000000000000000e+02,-9.051643137446375997e-02,0.000000000000000000e+00
4.280000000000000000e+02,2.695538586933033526e-02,0.000000000000000000e+00
4.290000000000000000e+02,1.647299610959521154e-01,0.000000000000000000e+00
4.300000000000000000e+02,1.431563889278344992e-01,0.000000000000000000e+00
4.310000000000000000e+02,1.466623033379111096e-01,0.000000000000000000e+00
4.320000000000000000e+02,-1.668336899363840331e-01,0.000000000000000000e+00
4.330000000000000000e+02,-1.779876421155398014e-01,0.000000000000000000e+00
4.340000000000000000e+02,-2.978029253211152416e-01,0.000000000000000000e+00
4.350000000000000000e+02,-2.950152494136971670e-01,0.000000000000000000e+00
4.360000000000000000e+02,-2.648765930821248005e-01,0.000000000000000000e+00
4.370000000000000000e+02,-1.735807744966265109e-01,0.000000000000000000e+00
4.380000000000000000e+02,-2.078530959031426317e-01,0.000000000000000000e+00
4.390000000000000000e+02,-1.520989133078054500e-01,0.000000000000000000e+00
4.400000000000000000e+02,-4.480079053067153455e-02,0.000000000000000000e+00
4.410000000000000000e+02,-6.468342249623011686e-02,0.000000000000000000e+00
4.420000000000000000e+02,-2.331415450811802348e-02,0.000000000000000000e+00
4.430000000000000000e+02,9.765055090278243477e-02,0.000000000000000000e+00
4.440000000000000000e+02,-4.034890191864402148e-02,0.000000000000000000e+00
4.450000000000000000e+02,3.930154453796570746e-02,0.000000000000000000e+00
4.460000000000000000e+02,5.983374218273936757e-02,0.000000000000000000e+00
4.470000000000000000e+02,1.447570758666154866e-01,0.000000000000000000e+00
4.480000000000000000e+02,2.566916219844061348e-02,0.000000000000000000e+00
4.490000000000000000e+02,1.574039687194426218e-01,0.000000000000000000e+00
4.500000000000000000e+02,1.596506497750385112e-01,0.000000000000000000e+00
4.510000000000000000e+02,3.833440830115450448e-01,0.000000000000000000e+00
4.520000000000000000e+02,2.703562267452367940e-01,0.000000000000000000e+00
4.530000000000000000e+02,4.572379978001736567e-01,0.000000000000000000e+00
4.540000000000000000e+02,2.188969920221090215e-01,0.000000000000000000e+00
4.550000000000000000e+02,1.583919271431237230e-01,0.000000000000000000e+00
4.560000000000000000e+02,-2.506424422090335336e-01,0.000000000000000000e+00
4.570000000000000000e+02,8.632151130250059756e-02,0.000000000000000000e+00
4.580000000000000000e+02,-1.584891657316852831e-01,0.000000000000000000e+00
4.590000000000000000e+02,2.121483812300615779e-01,0.000000000000000000e+00
4.600000000000000000e+02,7.856681763461517143e-01,0.000000000000000000e+00
4.610000000000000000e+02,5.579438997380109733e+00,0.000000000000000000e+00
4.620000000000000000e+02,3.050686804688473863e+00,1.000000000000000000e+00
4.630000000000000000e+02,-1.317427609295711122e+00,0.000000000000000000e+00
4.640000000000000000e+02,-1.164346835026812910e+00,0.000000000000000000e+00
4.650000000000000000e+02,-1.510570382058462169e+00,0.000000000000000000e+00
4.660000000000000000e+02,-1.037095545723411005e+00,0.000000000000000000e+00
4.670000000000000000e+02,-1.197283338433291044e+00,0.000000000000000000e+00
4.680000000000000000e+02,-8.298164533875870275e-01,0.000000000000000000e+00
4.690000000000000000e+02,-7.647748295530670815e-01,0.000000000000000000e+00
4.700000000000000000e+02,-5.873205352400187040e-01,0.000000000000000000e+00
4.710000000000000000e+02,-6.646786281999281787e-01,0.000000000000000000e+00
4.720000000000000000e+02,-3.320421992285162993e-01,0.000000000000000000e+00
4.730000000000000000e+02,-4.091194806710655718e-01,0.000000000000000000e+00
4.740000000000000000e+02,-1.437605089534849390e-01,0.000000000000000000e+00
4.750000000000000000e+02,-1.349380765695603612e-01,0.000000000000000000e+00
4.760000000000000000e+02,1.704493883535670440e-01,0.000000000000000000e+00
4.770000000000000000e+02,1.403079987728514944e-01,0.000000000000000000e+00
4.780000000000000000e+02,2.138606917318324474e-01,0.000000000000000000e+00
4.790000000000000000e+02,6.367776202650496375e-02,0.000000000000000000e+00
4.800000000000000000e+02,-1.005121599856143855e-01,0.000000000000000000e+00
4.810000000000000000e+02,-2.889721391087364255e-01,0.000000000000000000e+00
4.820000000000000000e+02,-2.862073091678166148e-01,0.000000000000000000e+00
4.830000000000000000e+02,-3.395324460066375671e-01,0.000000000000000000e+00
4.840000000000000000e+02,-1.480650498709834006e-01,0.000000000000000000e+00
4.850000000000000000e+02,-3.087818045289579261e-01,0.000000000000000000e+00
4.860000000000000000e+02,-1.014968187354241824e-01,0.000000000000000000e+00
4.870000000000000000e+02,-1.784868709279684440e-01,0.000000000000000000e+00
4.880000000000000000e+02,2.508369722118551984e-02,0.000000000000000000e+00
4.890000000000000000e+02,-5.144527788827823328e-02,0.000000000000000000e+00
4.900000000000000000e+02,1.398489022327615780e-02,0.000000000000000000e+00
4.910000000000000000e+02,2.309369445057576214e-02,0.000000000000000000e+00
4.920000000000000000e+02,4.512469758898900868e-02,0.000000000000000000e+00
4.930000000000000000e+02,3.840200588479066729e-02,0.000000000000000000e+00
4.940000000000000000e+02,6.792670882437817914e-02,0.000000000000000000e+00
4.950000000000000000e+02,9.669921844112866482e-02,0.000000000000000000e+00
4.960000000000000000e+02,1.346293765467385939e-01,0.000000000000000000e+00
4.970000000000000000e+02,1.146750397028373641e-01,0.000000000000000000e+00
4.980000000000000000e+02,1.550987975472792879e-01,0.000000000000000000e+00
4.990000000000000000e+02,3.146075596140409658e-01,0.000000000000000000e+00
5.000000000000000000e+02,3.834435709594874453e-01,0.000000000000000000e+00
5.010000000000000000e+02,3.748730601332008194e-01,0.000000000000000000e+00
5.020000000000000000e+02,1.636333290936521911e-01,0.000000000000000000e+00
5.030000000000000000e+02,-2.064549071413930015e-01,0.000000000000000000e+00
5.040000000000000000e+02,4.190101609875701051e-03,0.000000000000000000e+00
5.050000000000000000e+02,-2.227567506615005799e-01,0.000000000000000000e+00
5.060000000000000000e+02,2.836670962707183441e-01,0.000000000000000000e+00
5.070000000000000000e+02,6.552512053638395728e-02,0.000000000000000000e+00
5.080000000000000000e+02,3.994068012087726771e+00,0.000000000000000000e+00
5.090000000000000000e+02,4.245521416399385295e+00,0.000000000000000000e+00
5.100000000000000000e+02,-7.975911231943199065e-01,1.000000000000000000e+00
5.110000000000000000e+02,-1.050058195602595390e+00,0.000000000000000000e+00
5.120000000000000000e+02,-1.336581804355328362e+00,0.000000000000000000e+00
5.130000000000000000e+02,-9.419284639592017117e-01,0.000000000000000000e+00
5.140000000000000000e+02,-1.151454225126256281e+00,0.000000000000000000e+00
5.150000000000000000e+02,-6.686179808155021664e-01,0.000000000000000000e+00
5.160000000000000000e+02,-7.837764341054794803e-01,0.000000000000000000e+00
5.170000000000000000e+02,-5.602724507574907697e-01,0.000000000000000000e+00
5.180000000000000000e+02,-5.593717745172115396e-01,0.000000000000000000e+00
5.190000000000000000e+02,-3.771830236580195339e-01,0.000000000000000000e+00
5.200000000000000000e+02,-3.373129180345040834e-01,0.000000000000000000e+00
5.210000000000000000e+02,-9.312367683112356825e-03,0.000000000000000000e+00
5.220000000000000000e+02,-9.538007984238643100e-02,0.000000000000000000e+00
5.230000000000000000e+02,1.885162667285331106e-01,0.000000000000000000e+00
5.240000000000000000e+02,1.204984694661925676e-01,0.000000000000000000e+00
5.250000000000000000e+02,4.369551641911273432e-01,0.000000000000000000e+00
5.260000000000000000e+02,1.593448987794648664e-01,0.000000000000000000e+00
5.270000000000000000e+02,-5.393370921129713932e-03,0.000000000000000000e+00
5.280000000000000000e+02,-3.092038943552891106e-01,0.000000000000000000e+00
5.290000000000000000e+02,-3.314706260682340200e-01,0.000000000000000000e+00
5.300000000000000000e+02,-4.004829293273698410e-01,0.000000000000000000e+00
5.310000000000000000e+02,-1.810317518213560295e-01,0.000000000000000000e+00
5.320000000000000000e+02,-3.295085576327242971e-01,0.000000000000000000e+00
5.330000000000000000e+02,-1.544783118059760429e-01,0.000000000000000000e+00
5.340000000000000000e+02,-1.832690992023527088e-01,0.000000000000000000e+00
5.350000000000000000e+02,-1.979247737863360501e-01,0.000000000000000000e+00
5.360000000000000000e+02,-1.542816495096758014e-02,0.000000000000000000e+00
5.370000000000000000e+02,2.858825142411117876e-02,0.000000000000000000e+00
5.380000000000000000e+02,-5.775083559889340745e-02,0.000000000000000000e+00
5.390000000000000000e+02,4.727136648387297163e-02,0.000000000000000000e+00
5.400000000000000000e+02,7.924357251034765820e-03,0.000000000000000000e+00
5.410000000000000000e+02,1.229510554711558679e-01,0.000000000000000000e+00
5.420000000000000000e+02,2.085189770075244337e-02,0.000000000000000000e+00
5.430000000000000000e+02,5.140269209434828596e-02,0.000000000000000000e+00
5.440000000000000000e+02,6.805083684402077338e-02,0.000000000000000000e+00
5.450000000000000000e+02,2.538827547641206439e-01,0.000000000000000000e+00
5.460000000000000000e+02,2.137524498759099945e-01,0.000000000000000000e+00
5.470000000000000000e+02,4.033023578681272370e-01,0.000000000000000000e+00
5.480000000000000000e+02,3.403589708010932302e-01,0.000000000000000000e+00
5.490000000000000000e+02,2.373210104123779363e-01,0.000000000000000000e+00
5.500000000000000000e+02,-1.450656015091767448e-01,0.000000000000000000e+00
5.510000000000000000e+02,8.968187381851305817e-02,0.000000000000000000e+00
5.520000000000000000e+02,-1.631302452086842991e-01,0.000000000000000000e+00
5.530000000000000000e+02,1.537379586388446795e-01,0.000000000000000000e+00
5.540000000000000000e+02,-6.724579421932558310e-02,0.000000000000000000e+00
5.550000000000000000e+02,2.735929880306496198e+00,0.000000000000000000e+00
5.560000000000000000e+02,5.014432217204585207e+00,0.000000000000000000e+00
5.570000000000000000e+02,-1.586553256631225706e-01,1.000000000000000000e+00
5.580000000000000000e+02,-1.221448135982443173e+00,0.000000000000000000e+00
5.590000000000000000e+02,-1.205359677488787806e+00,0.000000000000000000e+00
5.600000000000000000e+02,-1.148712870140162767e+00,0.000000000000000000e+00
5.610000000000000000e+02,-1.020079712344260869e+00,0.000000000000000000e+00
5.620000000000000000e+02,-8.803510473972412376e-01,0.000000000000000000e+00
5.630000000000000000e+02,-7.276945218665926696e-01,0.000000000000000000e+00
5.640000000000000000e+02,-6.556694367786175537e-01,0.000000000000000000e+00
5.650000000000000000e+02,-4.479009312288014244e-01,0.000000000000000000e+00
5.660000000000000000e+02,-4.262486730030095594e-01,0.000000000000000000e+00
5.670000000000000000e+02,-2.020005004508212409e-01,0.000000000000000000e+00
5.680000000000000000e+02,-1.795346129527702339e-01,0.000000000000000000e+00
5.690000000000000000e+02,-9.872143984171098674e-03,0.000000000000000000e+00
5.700000000000000000e+02,1.278532303815060334e-01,0.000000000000000000e+00
5.710000000000000000e+02,2.290141332224973070e-01,0.000000000000000000e+00
5.720000000000000000e+02,2.760326876745594626e-01,0.000000000000000000e+00
5.730000000000000000e+02,2.372710283516243635e-01,0.000000000000000000e+00
5.740000000000000000e+02,-2.478952199360676383e-03,0.000000000000000000e+00
5.750000000000000000e+02,-1.547481539989098709e-01,0.000000000000000000e+00
5.760000000000000000e+02,-3.202952311681124264e-01,0.000000000000000000e+00
5.770000000000000000e+02,-3.019819030245183278e-01,0.000000000000000000e+00
5.780000000000000000e+02,-3.774371564093536024e-01,0.000000000000000000e+00
5.790000000000000000e+02,-2.341456948980445707e-01,0.000000000000000000e+00
5.800000000000000000e+02,-2.590719269833043903e-01,0.000000000000000000e+00
5.810000000000000000e+02,-1.239455556757021876e-01,0.000000000000000000e+00
5.820000000000000000e+02,-5.531180064450053058e-02,0.000000000000000000e+00
5.830000000000000000e+02,-4.436421356947414102e-02,0.000000000000000000e+00
5.840000000000000000e+02,-8.921469524720379574e-02,0.000000000000000000e+00
5.850000000000000000e+02,9.549472719971931201e-02,0.000000000000000000e+00
5.860000000000000000e+02,-9.331830548746333776e-02,0.000000000000000000e+00
5.870000000000000000e+02,8.168118799961948673e-02,0.000000000000000000e+00
5.880000000000000000e+02,-3.030911148938100850e-03,0.000000000000000000e+00
5.890000000000000000e+02,2.358459879119676958e-02,0.000000000000000000e+00
5.900000000000000000e+02,8.224072863509401810e-02,0.000000000000000000e+00
5.910000000000000000e+02,6.864751494520547614e-02,0.000000000000000000e+00
5.920000000000000000e+02,1.350997707351108967e-01,0.000000000000000000e+00
5.930000000000000000e+02,2.488427875798006617e-01,0.000000000000000000e+00
5.940000000000000000e+02,2.435011488630806908e-01,0.000000000000000000e+00
5.950000000000000000e+02,3.835470241953270465e-01,0.000000000000000000e+00
5.960000000000000000e+02,3.009960676594305440e-01,0.000000000000000000e+00
5.970000000000000000e+02,1.760289046711112637e-01,0.000000000000000000e+00
5.980000000000000000e+02,-2.225395766938878805e-01,0.000000000000000000e+00
5.990000000000000000e+02,1.204480184027983958e-01,0.000000000000000000e+00
6.000000000000000000e+02,-3.228890424033406537e-01,0.000000000000000000e+00
6.010000000000000000e+02,3.530531156541222293e-01,0.000000000000000000e+00
6.020000000000000000e+02,2.769382800018194146e-01,0.000000000000000000e+00
6.030000000000000000e+02,4.739807654385117530e+00,0.000000000000000000e+00
6.040000000000000000e+02,3.868464615177610977e+00,0.000000000000000000e+00
6.050000000000000000e+02,-1.185266894039580743e+00,1.000000000000000000e+00
6.060000000000000000e+02,-1.090803546295948001e+00,0.000000000000000000e+00
6.070000000000000000e+02,-1.528791993946619909e+00,0.000000000000000000e+00
6.080000000000000000e+02,-9.983669788710060056e-01,0.000000000000000000e+00
6.090000000000000000e+02,-1.186015505545470416e+00,0.000000000000000000e+00
6.100000000000000000e+02,-8.561818309101965063e-01,0.000000000000000000e+00
6.110000000000000000e+02,-7.655084201367436947e-01,0.000000000000000000e+00
6.120000000000000000e+02,-5.991891516916530991e-01,0.000000000000000000e+00
6.130000000000000000e+02,-5.830843559185481251e-01,0.000000000000000000e+00
6.140000000000000000e+02,-4.459598041192252005e-01,0.000000000000000000e+00
6.150000000000000000e+02,-3.019325940731047431e-01,0.000000000000000000e+00
6.160000000000000000e+02,-1.601262229215234811e-01,0.000000000000000000e+00
6.170000000000000000e+02,-2.717402065158606647e-02,0.000000000000000000e+00
6.180000000000000000e+02,1.314812241497236855e-01,0.000000000000000000e+00
6.190000000000000000e+02,1.236586341903464503e-01,0.000000000000000000e+00
6.200000000000000000e+02,2.298189576477616680e-01,0.000000000000000000e+00
6.210000000000000000e+02,1.074073443087146251e-01,0.000000000000000000e+00
6.220000000000000000e+02,-1.674147668408321188e-01,0.000000000000000000e+00
6.230000000000000000e+02,-1.948599108241126088e-01,0.000000000000000000e+00
6.240000000000000000e+02,-2.960898248428123214e-01,0.000000000000000000e+00
6.250000000000000000e+02,-3.050899569951348589e-01,0.000000000000000000e+00
6.260000000000000000e+02,-2.137983974098958129e-01,0.000000000000000000e+00
6.270000000000000000e+02,-2.464517680283311585e-01,0.000000000000000000e+00
6.280000000000000000e+02,-1.475597112013013468e-01,0.000000000000000000e+00
6.290000000000000000e+02,-1.137629135782288192e-01,0.000000000000000000e+00
6.300000000000000000e+02,-3.921795449215264434e-02,0.000000000000000000e+00
6.310000000000000000e+02,-3.509464317563606300e-02,0.000000000000000000e+00
6.320000000000000000e+02,-4.368587443979204260e-02,0.000000000000000000e+00
6.330000000000000000e+02,5.499444077869306696e-02,0.000000000000000000e+00
6.340000000000000000e+02,8.195565097899272511e-02,0.000000000000000000e+00
6.350000000000000000e+02,5.007025681284522911e-02,0.000000000000000000e+00
6.360000000000000000e+02,1.353715559492703335e-01,0.000000000000000000e+00
6.370000000000000000e+02,-3.308178173492320323e-02,0.000000000000000000e+00
6.380000000000000000e+02,1.308968115103401886e-01,0.000000000000000000e+00
6.390000000000000000e+02,8.339411128372302417e-02,0.000000000000000000e+00
6.400000000000000000e+02,2.722772295036683943e-01,0.000000000000000000e+00
6.410000000000000000e+02,3.182769401224302963e-01,0.000000000000000000e+00
6.420000000000000000e+02,2.886825768551983806e-01,0.000000000000000000e+00
6.430000000000000000e+02,4.830226031790147978e-01,0.000000000000000000e+00
6.440000000000000000e+02,2.402663214438762740e-01,0.000000000000000000e+00
6.450000000000000000e+02,5.457798597114070505e-02,0.000000000000000000e+00
6.460000000000000000e+02,-4.266428906665623022e-02,0.000000000000000000e+00
6.470000000000000000e+02,4.811851851351453546e-04,0.000000000000000000e+00
6.480000000000000000e+02,-4.091066744907220776e-02,0.000000000000000000e+00
6.490000000000000000e+02,1.550559100926443001e-01,0.000000000000000000e+00
6.500000000000000000e+02,1.577936789602735423e+00,0.000000000000000000e+00
6.510000000000000000e+02,5.916688885295304345e+00,0.000000000000000000e+00
6.520000000000000000e+02,1.596044391126197226e+00,1.000000000000000000e+00
6.530000000000000000e+02,-1.355089154393086526e+00,0.000000000000000000e+00
6.540000000000000000e+02,-1.216160826659117511e+00,0.000000000000000000e+00
6.550000000000000000e+02,-1.293929263498858395e+00,0.000000000000000000e+00
6.560000000000000000e+02,-1.054229090520710344e+00,0.000000000000000000e+00
6.570000000000000000e+02,-1.126466019868251456e+00,0.000000000000000000e+00
6.580000000000000000e+02,-7.736229211024866492e-01,0.000000000000000000e+00
6.590000000000000000e+02,-8.445611674827214754e-01,0.000000000000000000e+00
6.600000000000000000e+02,-5.956277740819503341e-01,0.000000000000000000e+00
6.610000000000000000e+02,-6.079626038841992042e-01,0.000000000000000000e+00
6.620000000000000000e+02,-4.241928903521203220e-01,0.000000000000000000e+00
6.630000000000000000e+02,-2.298248667479255714e-01,0.000000000000000000e+00
6.640000000000000000e+02,-6.534053719138033234e-02,0.000000000000000000e+00
6.650000000000000000e+02,-2.458272936839525635e-02,0.000000000000000000e+00
6.660000000000000000e+02,2.639082962133835752e-01,0.000000000000000000e+00
6.670000000000000000e+02,9.093459025584085809e-02,0.000000000000000000e+00
6.680000000000000000e+02,2.234373715319808162e-01,0.000000000000000000e+00
6.690000000000000000e+02,2.654218430755304545e-02,0.000000000000000000e+00
6.700000000000000000e+02,-2.179551978048789307e-01,0.000000000000000000e+00
6.710000000000000000e+02,-2.858783791848577560e-01,0.000000000000000000e+00
6.720000000000000000e+02,-2.616501259738112095e-01,0.000000000000000000e+00
6.730000000000000000e+02,-3.840803684616566072e-01,0.000000000000000000e+00
6.740000000000000000e+02,-1.849251705288223468e-01,0.000000000000000000e+00
6.750000000000000000e+02,-2.785324206021576599e-01,0.000000000000000000e+00
6.760000000000000000e+02,-1.201383335952877079e-01,0.000000000000000000e+00
6.770000000000000000e+02,-1.145016549108469339e-01,0.000000000000000000e+00
6.780000000000000000e+02,-7.612944176656062656e-02,0.000000000000000000e+00
6.790000000000000000e+02,-8.922562124333900668e-02,0.000000000000000000e+00
6.800000000000000000e+02,6.367438780162459899e-02,0.000000000000000000e+00
6.810000000000000000e+02,-4.408268313664712862e-02,0.000000000000000000e+00
6.820000000000000000e+02,1.241523981096459284e-01,0.000000000000000000e+00
6.830000000000000000e+02,1.828782896966481622e-02,0.000000000000000000e+00
6.840000000000000000e+02,7.495112016176905256e-02,0.000000000000000000e+00
6.850000000000000000e+02,1.293944279038330980e-01,0.000000000000000000e+00
6.860000000000000000e+02,8.596425946430188980e-02,0.000000000000000000e+00
6.870000000000000000e+02,1.889918597095030517e-01,0.000000000000000000e+00
6.880000000000000000e+02,3.776381142948052605e-01,0.000000000000000000e+00
6.890000000000000000e+02,1.665286426266621989e-01,0.000000000000000000e+00
6.900000000000000000e+02,4.729372761189317154e-01,0.000000000000000000e+00
6.910000000000000000e+02,2.909481820033801291e-01,0.000000000000000000e+00
6.920000000000000000e+02,2.379475387810107423e-01,0.000000000000000000e+00
6.930000000000000000e+02,-1.767916872225205049e-01,0.000000000000000000e+00
6.940000000000000000e+02,8.638194653874169127e-02,0.000000000000000000e+00
6.950000000000000000e+02,-2.452718676526257913e-01,0.000000000000000000e+00
6.960000000000000000e+02,9.055337589180832703e-02,0.000000000000000000e+00
6.970000000000000000e+02,2.506531763287149772e-01,0.000000000000000000e+00
6.980000000000000000e+02,4.274532011712247836e+00,0.000000000000000000e+00
6.990000000000000000e+02,4.774275506554043425e+00,0.000000000000000000e+00
7.000000000000000000e+02,-8.525988606613158494e-01,1.000000000000000000e+00
7.010000000000000000e+02,-1.305305918294236811e+00,0.000000000000000000e+00
7.020000000000000000e+02,-1.491913177640687538e+00,0.000000000000000000e+00
7.030000000000000000e+02,-1.220659427483904658e+00,0.000000000000000000e+00
7.040000000000000000e+02,-1.175435338563793675e+00,0.000000000000000000e+00
7.050000000000000000e+02,-9.855203914227721462e-01,0.000000000000000000e+00
7.060000000000000000e+02,-8.517853411450679868e-01,0.000000000000000000e+00
7.070000000000000000e+02,-8.171068878088045828e-01,0.000000000000000000e+00
7.080000000000000000e+02,-5.880159524681211058e-01,0.000000000000000000e+00
7.090000000000000000e+02,-4.831259201654552471e-01,0.000000000000000000e+00
7.100000000000000000e+02,-3.970597321288097947e-01,0.000000000000000000e+00
7.110000000000000000e+02,-1.963977647975210794e-01,0.000000000000000000e+00
7.120000000000000000e+02,-1.021370768313546729e-01,0.000000000000000000e+00
7.130000000000000000e+02,1.178274748969652397e-01,0.000000000000000000e+00
7.140000000000000000e+02,1.226935164792028049e-01,0.000000000000000000e+00
7.150000000000000000e+02,2.099155837802154367e-01,0.000000000000000000e+00
7.160000000000000000e+02,1.625840091966870016e-01,0.000000000000000000e+00
7.170000000000000000e+02,-3.308804222709953863e-02,0.000000000000000000e+00
7.180000000000000000e+02,-2.662049126850762892e-01,0.000000000000000000e+00
7.190000000000000000e+02,-3.016378758447213482e-01,0.000000000000000000e+00
7.200000000000000000e+02,-3.654433458995078321e-01,0.000000000000000000e+00
7.210000000000000000e+02,-2.405513082392803093e-01,0.000000000000000000e+00
7.220000000000000000e+02,-1.987902823454315293e-01,0.000000000000000000e+00
7.230000000000000000e+02,-2.269545516206893654e-01,0.000000000000000000e+00
7.240000000000000000e+02,-1.106632477520079622e-01,0.000000000000000000e+00
7.250000000000000000e+02,1.161176704025386995e-02,0.000000000000000000e+00
7.260000000000000000e+02,-1.685358034642322339e-02,0.000000000000000000e+00
7.270000000000000000e+02,-3.878300708538401365e-02,0.000000000000000000e+00
7.280000000000000000e+02,1.017906229097727787e-02,0.000000000000000000e+00
7.290000000000000000e+02,-1.213666189556955183e-01,0.000000000000000000e+00
7.300000000000000000e+02,2.287638836344534354e-01,0.000000000000000000e+00
7.310000000000000000e+02,1.072667047370396975e-01,0.000000000000000000e+00
7.320000000000000000e+02,1.145354395015096283e-01,0.000000000000000000e+00
7.330000000000000000e+02,1.866831025151960075e-02,0.000000000000000000e+00
7.340000000000000000e+02,2.376376133638465338e-01,0.000000000000000000e+00
7.350000000000000000e+02,2.968898840805443973e-01,0.000000000000000000e+00
7.360000000000000000e+02,2.733207399590736886e-01,0.000000000000000000e+00
7.370000000000000000e+02,3.469617163863824572e-01,0.000000000000000000e+00
7.380000000000000000e+02,4.159032261425903987e-01,0.000000000000000000e+00
7.390000000000000000e+02,3.224681544120645005e-01,0.000000000000000000e+00
7.400000000000000000e+02,2.477596104134384414e-02,0.000000000000000000e+00
7.410000000000000000e+02,-5.347068281480982926e-02,0.000000000000000000e+00
7.420000000000000000e+02,1.280986857953521178e-03,0.000000000000000000e+00
7.430000000000000000e+02,-1.596780176134185714e-01,0.000000000000000000e+00
7.440000000000000000e+02,1.972240682942231205e-01,0.000000000000000000e+00
7.450000000000000000e+02,1.173057518634647911e+00,0.000000000000000000e+00
7.460000000000000000e+02,5.453158209567614989e+00,0.000000000000000000e+00
7.470000000000000000e+02,1.983664889442799284e+00,1.000000000000000000e+00
7.480000000000000000e+02,-1.375127565699929111e+00,0.000000000000000000e+00
7.490000000000000000e+02,-1.058227404425180929e+00,0.000000000000000000e+00
7.500000000000000000e+02,-1.351639354484952538e+00,0.000000000000000000e+00
7.510000000000000000e+02,-9.083150169754734549e-01,0.000000000000000000e+00
7.520000000000000000e+02,-1.043723556520604889e+00,0.000000000000000000e+00
7.530000000000000000e+02,-7.262803439872966837e-01,0.000000000000000000e+00
7.540000000000000000e+02,-7.283849185310223850e-01,0.000000000000000000e+00
7.550000000000000000e+02,-4.735044802929229690e-01,0.000000000000000000e+00
7.560000000000000000e+02,-5.340640198300200536e-01,0.000000000000000000e+00
7.570000000000000000e+02,-3.147897888536685951e-01,0.000000000000000000e+00
7.580000000000000000e+02,-3.211806291468756180e-01,0.000000000000000000e+00
7.590000000000000000e+02,-1.702098617083523321e-02,0.000000000000000000e+00
7.600000000000000000e+02,-2.015919465350198003e-02,0.000000000000000000e+00
7.610000000000000000e+02,2.681870962303872230e-01,0.000000000000000000e+00
7.620000000000000000e+02,2.186721972032809602e-01,0.000000000000000000e+00
7.630000000000000000e+02,2.866898722782632025e-01,0.000000000000000000e+00
7.640000000000000000e+02,2.662321626050448073e-03,0.000000000000000000e+00
7.650000000000000000e+02,-2.086228835731629982e-01,0.000000000000000000e+00
7.660000000000000000e+02,-3.671881856633758545e-01,0.000000000000000000e+00
7.670000000000000000e+02,-2.983219747328356153e-01,0.000000000000000000e+00
7.680000000000000000e+02,-2.927363164931967021e-01,0.000000000000000000e+00
7.690000000000000000e+02,-2.560617995881934172e-01,0.000000000000000000e+00
7.700000000000000000e+02,-2.848271837407825302e-01,0.000000000000000000e+00
7.710000000000000000e+02,-1.710329530885250360e-01,0.000000000000000000e+00
7.720000000000000000e+02,-2.320048025637241051e-01,0.000000000000000000e+00
7.730000000000000000e+02,-1.023687938757851662e-01,0.000000000000000000e+00
7.740000000000000000e+02,-8.519297011628811089e-02,0.000000000000000000e+00
7.750000000000000000e+02,-2.789440027031525951e-02,0.000000000000000000e+00
7.760000000000000000e+02,-3.469424326897890820e-02,0.000000000000000000e+00
7.770000000000000000e+02,3.730298514546478983e-02,0.000000000000000000e+00
7.780000000000000000e+02,-8.501450131077205319e-02,0.000000000000000000e+00
7.790000000000000000e+02,3.250876694054262439e-02,0.000000000000000000e+00
7.800000000000000000e+02,-4.165700581728036533e-02,0.000000000000000000e+00
7.810000000000000000e+02,1.469593429660422113e-01,0.000000000000000000e+00
7.820000000000000000e+02,5.499609265072889080e-02,0.000000000000000000e+00
7.830000000000000000e+02,3.112349634423529077e-01,0.000000000000000000e+00
7.840000000000000000e+02,1.864144572361313146e-01,0.000000000000000000e+00
7.850000000000000000e+02,3.792843218602293676e-01,0.000000000000000000e+00
7.860000000000000000e+02,3.408818483081332840e-01,0.000000000000000000e+00
7.870000000000000000e+02,7.756105709657959424e-02,0.000000000000000000e+00
7.880000000000000000e+02,-1.392546948847883381e-01,0.000000000000000000e+00
7.890000000000000000e+02,6.823495263427259427e-02,0.000000000000000000e+00
7.900000000000000000e+02,-1.576474311473472223e-01,0.000000000000000000e+00
7.910000000000000000e+02,2.164504391715094123e-01,0.000000000000000000e+00
7.920000000000000000e+02,7.673184814071952742e-01,0.000000000000000000e+00
7.930000000000000000e+02,4.970351243454506296e+00,0.000000000000000000e+00
7.940000000000000000e+02,2.174546036342327682e+00,1.000000000000000000e+00
7.950000000000000000e+02,-1.244262740694760838e+00,0.000000000000000000e+00
7.960000000000000000e+02,-1.046275021039801523e+00,0.000000000000000000e+00
7.970000000000000000e+02,-1.138961867293635466e+00,0.000000000000000000e+00
7.980000000000000000e+02,-8.651145368028589910e-01,0.000000000000000000e+00
7.990000000000000000e+02,-8.958112200435187633e-01,0.000000000000000000e+00
8.000000000000000000e+02,-5.698437353535267258e-01,0.000000000000000000e+00
8.010000000000000000e+02,-6.994536964116027100e-01,0.000000000000000000e+00
8.020000000000000000e+02,-4.410505658026088183e-01,0.000000000000000000e+00
8.030000000000000000e+02,-4.381735772909299831e-01,0.000000000000000000e+00
8.040000000000000000e+02,-3.263330887842375572e-01,0.000000000000000000e+00
8.050000000000000000e+02,-2.010204911007487938e-01,0.000000000000000000e+00
8.060000000000000000e+02,3.236105504522657217e-02,0.000000000000000000e+00
8.070000000000000000e+02,-3.064071068449448695e-02,0.000000000000000000e+00
8.080000000000000000e+02,2.303593602654940287e-01,0.000000000000000000e+00
8.090000000000000000e+02,2.262651060243155154e-01,0.000000000000000000e+00
8.100000000000000000e+02,3.586513624130075462e-01,0.000000000000000000e+00
8.110000000000000000e+02,9.950041995075981083e-02,0.000000000000000000e+00
8.120000000000000000e+02,-1.725701524593004910e-01,0.000000000000000000e+00
8.130000000000000000e+02,-3.557631525991712951e-01,0.000000000000000000e+00
8.140000000000000000e+02,-2.756716325560366609e-01,0.000000000000000000e+00
8.150000000000000000e+02,-2.988491541338890167e-01,0.000000000000000000e+00
8.160000000000000000e+02,-2.393048217685132539e-01,0.000000000000000000e+00
8.170000000000000000e+02,-1.977705082269317349e-01,0.000000000000000000e+00
8.180000000000000000e+02,-2.348719891765706780e-01,0.000000000000000000e+00
8.190000000000000000e+02,-4.946964313681135456e-02,0.000000000000000000e+00
8.200000000000000000e+02,-1.374575956369203655e-01,0.000000000000000000e+00
8.210000000000000000e+02,-5.347816429010370659e-02,0.000000000000000000e+00
8.220000000000000000e+02,7.031351715993712503e-02,0.000000000000000000e+00
8.230000000000000000e+02,-4.519835581522554935e-02,0.000000000000000000e+00
8.240000000000000000e+02,5.281510402553392380e-02,0.000000000000000000e+00
8.250000000000000000e+02,-1.981242908484340953e-02,0.000000000000000000e+00
8.260000000000000000e+02,7.955222860007474597e-03,0.000000000000000000e+00
8.270000000000000000e+02,-2.160579742627226352e-02,0.000000000000000000e+00
8.280000000000000000e+02,2.122766985457935351e-01,0.000000000000000000e+00
8.290000000000000000e+02,3.377409272884498992e-02,0.000000000000000000e+00
8.300000000000000000e+02,2.653004976224462297e-01,0.000000000000000000e+00
8.310000000000000000e+02,1.815852339845569763e-01,0.000000000000000000e+00
8.320000000000000000e+02,3.601197852267951638e-01,0.000000000000000000e+00
8.330000000000000000e+02,2.539070301223893544e-01,0.000000000000000000e+00
8.340000000000000000e+02,2.391477438180776571e-01,0.000000000000000000e+00
8.350000000000000000e+02,-2.236970984822992115e-01,0.000000000000000000e+00
8.360000000000000000e+02,1.192768756123735452e-01,0.000000000000000000e+00
8.370000000000000000e+02,-2.118733627557542465e-01,0.000000000000000000e+00
8.380000000000000000e+02,2.401904534850571871e-01,0.000000000000000000e+00
8.390000000000000000e+02,4.323577228023355312e-01,0.000000000000000000e+00
8.400000000000000000e+02,4.176299165652223699e+00,0.000000000000000000e+00
8.410000000000000000e+02,3.161434037827642651e+00,0.000000000000000000e+00
8.420000000000000000e+02,-1.120154752577327661e+00,1.000000000000000000e+00
8.430000000000000000e+02,-9.942560382820311293e-01,0.000000000000000000e+00
8.440000000000000000e+02,-1.153447964325987618e+00,0.000000000000000000e+00
8.450000000000000000e+02,-8.765646500080028769e-01,0.000000000000000000e+00
8.460000000000000000e+02,-1.026561725599872688e+00,0.000000000000000000e+00
8.470000000000000000e+02,-7.308217512325602128e-01,0.000000000000000000e+00
8.480000000000000000e+02,-6.629725068846533675e-01,0.000000000000000000e+00
8.490000000000000000e+02,-4.023446375957813181e-01,0.000000000000000000e+00
8.500000000000000000e+02,-4.491904102478874172e-01,0.000000000000000000e+00
8.510000000000000000e+02,-3.452996733642823557e-01,0.000000000000000000e+00
8.520000000000000000e+02,-3.533349724754797916e-01,0.000000000000000000e+00
8.530000000000000000e+02,-2.045775702573402188e-01,0.000000000000000000e+00
8.540000000000000000e+02,1.095716732081146727e-01,0.000000000000000000e+00
8.550000000000000000e+02,1.433653497219616879e-01,0.000000000000000000e+00
8.560000000000000000e+02,2.838868474994409308e-01,0.000000000000000000e+00
8.570000000000000000e+02,2.474250310671178565e-01,0.000000000000000000e+00
8.580000000000000000e+02,-2.862991668674920442e-02,0.000000000000000000e+00
8.590000000000000000e+02,2.751791693244623818e-02,0.000000000000000000e+00
8.600000000000000000e+02,-3.472257294333825350e-01,0.000000000000000000e+00
8.610000000000000000e+02,-2.625771194964765520e-01,0.000000000000000000e+00
8.620000000000000000e+02,-3.962793057483857684e-01,0.000000000000000000e+00
8.630000000000000000e+02,-3.408686028135326507e-01,0.000000000000000000e+00
8.640000000000000000e+02,-1.976059079118204498e-01,0.000000000000000000e+00
8.650000000000000000e+02,-2.170894595037763941e-01,0.000000000000000000e+00
8.660000000000000000e+02,-1.394458984894041687e-01,0.000000000000000000e+00
8.670000000000000000e+02,-1.063934404908954273e-01,0.000000000000000000e+00
8.680000000000000000e+02,-7.364578679350865242e-02,0.000000000000000000e+00
8.690000000000000000e+02,-1.706495145837612359e-02,0.000000000000000000e+00
8.700000000000000000e+02,-8.765322408583972602e-02,0.000000000000000000e+00
8.710000000000000000e+02,1.032592490332729929e-01,0.000000000000000000e+00
8.720000000000000000e+02,-1.909360986834180264e-03,0.000000000000000000e+00
8.730000000000000000e+02,1.041664456952385437e-01,0.000000000000000000e+00
8.740000000000000000e+02,1.563043208305486126e-02,0.000000000000000000e+00
8.750000000000000000e+02,9.242973508816222650e-02,0.000000000000000000e+00
8.760000000000000000e+02,1.142460441810521643e-01,0.000000000000000000e+00
8.770000000000000000e+02,1.348269419624752996e-01,0.000000000000000000e+00
8.780000000000000000e+02,3.331204787607096041e-01,0.000000000000000000e+00
8.790000000000000000e+02,2.718428292854587203e-01,0.000000000000000000e+00
8.800000000000000000e+02,3.855457076283480555e-01,0.000000000000000000e+00
8.810000000000000000e+02,3.693326592857668067e-01,0.000000000000000000e+00
8.820000000000000000e+02,7.457521439975653074e-03,0.000000000000000000e+00
8.830000000000000000e+02,-9.955690234795466775e-02,0.000000000000000000e+00
8.840000000000000000e+02,-5.640206670064565331e-02,0.000000000000000000e+00
8.850000000000000000e+02,2.475532859342098949e-02,0.000000000000000000e+00
8.860000000000000000e+02,1.436983301407661062e-01,0.000000000000000000e+00
8.870000000000000000e+02,1.489392817979935613e+00,0.000000000000000000e+00
8.880000000000000000e+02,5.386423177114370020e+00,0.000000000000000000e+00
8.890000000000000000e+02,1.286571204122562984e+00,1.000000000000000000e+00
8.900000000000000000e+02,-1.428071298078528617e+00,0.000000000000000000e+00
8.910000000000000000e+02,-1.040927127861212886e+00,0.000000000000000000e+00
8.920000000000000000e+02,-1.210631091873763943e+00,0.000000000000000000e+00
8.930000000000000000e+02,-9.275300442461221762e-01,0.000000000000000000e+00
8.940000000000000000e+02,-1.002094921656872639e+00,0.000000000000000000e+00
8.950000000000000000e+02,-7.342918797585367141e-01,0.000000000000000000e+00
8.960000000000000000e+02,-8.072336500555431504e-01,0.000000000000000000e+00
8.970000000000000000e+02,-4.971258775061404012e-01,0.000000000000000000e+00
8.980000000000000000e+02,-5.207277221379593701e-01,0.000000000000000000e+00
8.990000000000000000e+02,-2.999080408872887293e-01,0.000000000000000000e+00
9.000000000000000000e+02,-2.730137896500421379e-01,0.000000000000000000e+00
9.010000000000000000e+02,-5.799019999196360770e-02,0.000000000000000000e+00
9.020000000000000000e+02,5.036893939300528256e-02,0.000000000000000000e+00
9.030000000000000000e+02,2.651178242964760123e-01,0.000000000000000000e+00
9.040000000000000000e+02,2.571753085195079835e-01,0.000000000000000000e+00
9.050000000000000000e+02,3.125847667591589718e-01,0.000000000000000000e+00
9.060000000000000000e+02,-4.750294410415572578e-03,0.000000000000000000e+00
9.070000000000000000e+02,-7.729262349009496935e-02,0.000000000000000000e+00
9.080000000000000000e+02,-3.587122729466496462e-01,0.000000000000000000e+00
9.090000000000000000e+02,-3.086257464470387180e-01,0.000000000000000000e+00
9.100000000000000000e+02,-3.907552787374898862e-01,0.000000000000000000e+00
9.110000000000000000e+02,-1.724555681088836279e-01,0.000000000000000000e+00
9.120000000000000000e+02,-3.230354882516974779e-01,0.000000000000000000e+00
9.130000000000000000e+02,-6.259916882252342107e-02,0.000000000000000000e+00
9.140000000000000000e+02,-2.497035917388592818e-01,0.000000000000000000e+00
9.150000000000000000e+02,-3.736567127261315735e-02,0.000000000000000000e+00
9.160000000000000000e+02,-1.327700346531691944e-01,0.000000000000000000e+00
9.170000000000000000e+02,2.010913801274992474e-02,0.000000000000000000e+00
9.180000000000000000e+02,-2.765886257789725716e-02,0.000000000000000000e+00
9.190000000000000000e+02,8.440492139074023958e-02,0.000000000000000000e+00
9.200000000000000000e+02,5.499003425294372166e-02,0.000000000000000000e+00
9.210000000000000000e+02,2.449473759232776576e-02,0.000000000000000000e+00
9.220000000000000000e+02,1.954721818840044270e-02,0.000000000000000000e+00
9.230000000000000000e+02,1.834306797679176315e-01,0.000000000000000000e+00
9.240000000000000000e+02,4.021780230715558957e-02,0.000000000000000000e+00
9.250000000000000000e+02,3.435932269648424575e-01,0.000000000000000000e+00
9.260000000000000000e+02,2.320569016521492611e-01,0.000000000000000000e+00
9.270000000000000000e+02,3.760739593875340181e-01,0.000000000000000000e+00
9.280000000000000000e+02,3.030817955194188285e-01,0.000000000000000000e+00
9.290000000000000000e+02,1.999886922384617738e-01,0.000000000000000000e+00
9.300000000000000000e+02,-1.954270688721075622e-01,0.000000000000000000e+00
9.310000000000000000e+02,8.021465087050752563e-02,0.000000000000000000e+00
9.320000000000000000e+02,-2.339089143983540953e-01,0.000000000000000000e+00
9.330000000000000000e+02,2.305864642293037337e-01,0.000000000000000000e+00
9.340000000000000000e+02,3.512962329452803401e-01,0.000000000000000000e+00
9.350000000000000000e+02,4.301882676686129336e+00,0.000000000000000000e+00
9.360000000000000000e+02,4.319443884933681588e+00,0.000000000000000000e+00
9.370000000000000000e+02,-1.019789849110279256e+00,1.000000000000000000e+00
9.380000000000000000e+02,-1.073837258000682082e+00,0.000000000000000000e+00
9.390000000000000000e+02,-1.471846785614191244e+00,0.000000000000000000e+00
9.400000000000000000e+02,-1.014545191045837180e+00,0.000000000000000000e+00
9.410000000000000000e+02,-1.163815722320598045e+00,0.000000000000000000e+00
9.420000000000000000e+02,-8.291320586421724315e-01,0.000000000000000000e+00
9.430000000000000000e+02,-8.171322966061791426e-01,0.000000000000000000e+00
9.440000000000000000e+02,-5.983961392595205098e-01,0.000000000000000000e+00
9.450000000000000000e+02,-5.535508528412299567e-01,0.000000000000000000e+00
9.460000000000000000e+02,-3.729263665825479079e-01,0.000000000000000000e+00
9.470000000000000000e+02,-4.033070694333114603e-01,0.000000000000000000e+00
9.480000000000000000e+02,-1.608783963698858510e-01,0.000000000000000000e+00
9.490000000000000000e+02,-4.765992614846204650e-02,0.000000000000000000e+00
9.500000000000000000e+02,1.619679776956731709e-01,0.000000000000000000e+00
9.510000000000000000e+02,1.902384661886500627e-01,0.000000000000000000e+00
9.520000000000000000e+02,3.233164387154072172e-01,0.000000000000000000e+00
9.530000000000000000e+02,6.777847818620207077e-02,0.000000000000000000e+00
9.540000000000000000e+02,-1.425915323018182579e-01,0.000000000000000000e+00
9.550000000000000000e+02,-3.608146365450331516e-01,0.000000000000000000e+00
9.560000000000000000e+02,-1.307873747324105607e-01,0.000000000000000000e+00
9.570000000000000000e+02,-4.489501647023464437e-01,0.000000000000000000e+00
9.580000000000000000e+02,-1.481890757849015083e-01,0.000000000000000000e+00
9.590000000000000000e+02,-2.254024509298547252e-01,0.000000000000000000e+00
9.600000000000000000e+02,-2.047870801770979854e-01,0.000000000000000000e+00
9.610000000000000000e+02,-1.184842948269380775e-01,0.000000000000000000e+00
9.620000000000000000e+02,-1.666722214316410378e-01,0.000000000000000000e+00
9.630000000000000000e+02,1.899124192386355409e-02,0.000000000000000000e+00
9.640000000000000000e+02,-3.439339188075071774e-02,0.000000000000000000e+00
9.650000000000000000e+02,-1.140750194864936090e-01,0.000000000000000000e+00
9.660000000000000000e+02,2.193926019986777165e-01,0.000000000000000000e+00
9.670000000000000000e+02,-4.390521989034536221e-03,0.000000000000000000e+00
9.680000000000000000e+02,-2.687924344666621154e-02,0.000000000000000000e+00
9.690000000000000000e+02,1.057929761653356449e-01,0.000000000000000000e+00
9.700000000000000000e+02,5.552431074810323247e-02,0.000000000000000000e+00
9.710000000000000000e+02,2.184994842681682314e-01,0.000000000000000000e+00
9.720000000000000000e+02,1.728393268127791371e-01,0.000000000000000000e+00
9.730000000000000000e+02,2.731540130930613097e-01,0.000000000000000000e+00
9.740000000000000000e+02,3.514034467870036926e-01,0.000000000000000000e+00
9.750000000000000000e+02,3.909649102863019809e-01,0.000000000000000000e+00
9.760000000000000000e+02,4.156337771831694616e-01,0.000000000000000000e+00
9.770000000000000000e+02,-1.610439202425792415e-01,0.000000000000000000e+00
9.780000000000000000e+02,3.470871644007551132e-02,0.000000000000000000e+00
9.790000000000000000e+02,-1.218352037713964081e-01,0.000000000000000000e+00
9.800000000000000000e+02,3.995290787338975219e-02,0.000000000000000000e+00
9.810000000000000000e+02,9.639461284843406363e-02,0.000000000000000000e+00
9.820000000000000000e+02,2.282969671396088085e+00,0.000000000000000000e+00
9.830000000000000000e+02,5.680313607168383072e+00,0.000000000000000000e+00
9.840000000000000000e+02,7.918384234733586435e-01,1.000000000000000000e+00
9.850000000000000000e+02,-1.365687499147438588e+00,0.000000000000000000e+00
9.860000000000000000e+02,-1.268506836752376188e+00,0.000000000000000000e+00
9.870000000000000000e+02,-1.330181017328547322e+00,0.000000000000000000e+00
9.880000000000000000e+02,-1.020963900529606061e+00,0.000000000000000000e+00
9.890000000000000000e+02,-1.130274193131817206e+00,0.000000000000000000e+00
9.900000000000000000e+02,-7.405422749750230071e-01,0.000000000000000000e+00
9.910000000000000000e+02,-8.169281172848854577e-01,0.000000000000000000e+00
9.920000000000000000e+02,-5.386650822391948479e-01,0.000000000000000000e+00
9.930000000000000000e+02,-4.946106751284648495e-01,0.000000000000000000e+00
9.940000000000000000e+02,-3.692211481251153615e-01,0.000000000000000000e+00
9.950000000000000000e+02,-3.264123451809904930e-01,0.000000000000000000e+00
9.960000000000000000e+02,-1.339935025347816222e-01,0.000000000000000000e+00
9.970000000000000000e+02,5.241688435976918359e-02,0.000000000000000000e+00
9.980000000000000000e+02,1.847186276733860100e-01,0.000000000000000000e+00
9.990000000000000000e+02,2.477926756716298251e-01,0.000000000000000000e+00
1.000000000000000000e+03,1.345023022801230261e-01,0.000000000000000000e+00
1.001000000000000000e+03,3.165399420642506668e-03,0.000000000000000000e+00
1.002000000000000000e+03,-2.449767871860391577e-01,0.000000000000000000e+00
1.003000000000000000e+03,-3.391330176732380575e-01,0.000000000000000000e+00
1.004000000000000000e+03,-3.082029860811150712e-01,0.000000000000000000e+00
1.005000000000000000e+03,-3.887289585143576809e-01,0.000000000000000000e+00
1.006000000000000000e+03,-2.124954165517377869e-01,0.000000000000000000e+00
1.007000000000000000e+03,-2.340139950443650141e-01,0.000000000000000000e+00
1.008000000000000000e+03,-1.636640689739601306e-01,0.000000000000000000e+00
1.009000000000000000e+03,-1.311703669858468035e-01,0.000000000000000000e+00
1.010000000000000000e+03,-1.755736038474728367e-02,0.000000000000000000e+00
1.011000000000000000e+03,-1.544512251067089656e-02,0.000000000000000000e+00
1.012000000000000000e+03,-2.849109652608761492e-02,0.000000000000000000e+00
1.013000000000000000e+03,7.395961289633419533e-02,0.000000000000000000e+00
1.014000000000000000e+03,3.047247156219189124e-02,0.000000000000000000e+00
1.015000000000000000e+03,1.062471006983145144e-01,0.000000000000000000e+00
1.016000000000000000e+03,1.095158408033877623e-01,0.000000000000000000e+00
1.017000000000000000e+03,3.439856368370808326e-02,0.000000000000000000e+00
1.018000000000000000e+03,2.363659583148330634e-01,0.000000000000000000e+00
1.019000000000000000e+03,1.536010983448420908e-01,0.000000000000000000e+00
1.020000000000000000e+03,3.716661250455799426e-01,0.000000000000000000e+00
1.021000000000000000e+03,2.789830532848727729e-01,0.000000000000000000e+00
1.022000000000000000e+03,3.553131183642552204e-01,0.000000000000000000e+00
1.023000000000000000e+03,4.689942592803962862e-01,0.000000000000000000e+00
1.024000000000000000e+03,4.702520194604250386e-02,0.000000000000000000e+00
1.025000000000000000e+03,-7.454597177267191510e-02,0.000000000000000000e+00
1.026000000000000000e+03,-3.599034459218235227e-02,0.000000000000000000e+00
1.027000000000000000e+03,-1.638204760051873987e-01,0.000000000000000000e+00
1.028000000000000000e+03,1.585330356386026318e-01,0.000000000000000000e+00
1.029000000000000000e+03,8.667175183138915440e-01,0.000000000000000000e+00
1.030000000000000000e+03,5.459882746079808946e+00,0.000000000000000000e+00
1.031000000000000000e+03,3.086386854504882482e+00,1.000000000000000000e+00
1.032000000000000000e+03,-1.393125096159135046e+00,0.000000000000000000e+00
1.033000000000000000e+03,-1.133513578356326823e+00,0.000000000000000000e+00
1.034000000000000000e+03,-1.462291550477845536e+00,0.000000000000000000e+00
1.035000000000000000e+03,-1.045055168701162218e+00,0.000000000000000000e+00
1.036000000000000000e+03,-1.090139232545825676e+00,0.000000000000000000e+00
1.037000000000000000e+03,-8.655434340361817247e-01,0.000000000000000000e+00
1.038000000000000000e+03,-8.411850676098097113e-01,0.000000000000000000e+00
1.039000000000000000e+03,-6.250152514642417501e-01,0.000000000000000000e+00
1.040000000000000000e+03,-6.454190198385433286e-01,0.000000000000000000e+00
1.041000000000000000e+03,-4.156969982534753361e-01,0.000000000000000000e+00
1.042000000000000000e+03,-3.776734101535678123e-01,0.000000000000000000e+00
1.043000000000000000e+03,-2.160773481528488194e-01,0.000000000000000000e+00
1.044000000000000000e+03,-5.781490626820564444e-02,0.000000000000000000e+00
1.045000000000000000e+03,1.051674954252050237e-01,0.000000000000000000e+00
1.046000000000000000e+03,1.664578016320583387e-01,0.000000000000000000e+00
1.047000000000000000e+03,2.959405713647582647e-01,0.000000000000000000e+00
1.048000000000000000e+03,2.844915123426168882e-02,0.000000000000000000e+00
1.049000000000000000e+03,-1.311878527351724166e-01,0.000000000000000000e+00
1.050000000000000000e+03,-3.739072560694444713e-01,0.000000000000000000e+00
1.051000000000000000e+03,-1.664950846475159174e-01,0.000000000000000000e+00
1.052000000000000000e+03,-4.177077319111076603e-01,0.000000000000000000e+00
1.053000000000000000e+03,-1.384450364077651763e-01,0.000000000000000000e+00
1.054000000000000000e+03,-2.712608723794068810e-01,0.000000000000000000e+00
1.055000000000000000e+03,-1.085044580411419768e-01,0.000000000000000000e+00
1.056000000000000000e+03,-2.034581862409303721e-01,0.000000000000000000e+00
1.057000000000000000e+03,-6.488417399210448348e-03,0.000000000000000000e+00
1.058000000000000000e+03,-1.225774792378740985e-01,0.000000000000000000e+00
1.059000000000000000e+03,5.420832564576658769e-02,0.000000000000000000e+00
1.060000000000000000e+03,8.226032928412506037e-03,0.000000000000000000e+00
1.061000000000000000e+03,5.082602979980666708e-02,0.000000000000000000e+00
1.062000000000000000e+03,-3.896055512398041904e-04,0.000000000000000000e+00
1.063000000000000000e+03,1.368556117865789845e-01,0.000000000000000000e+00
1.064000000000000000e+03,1.852995966853605500e-02,0.000000000000000000e+00
1.065000000000000000e+03,2.112520706609063437e-01,0.000000000000000000e+00
1.066000000000000000e+03,9.280568550562727503e-02,0.000000000000000000e+00
1.067000000000000000e+03,3.387474495868445512e-01,0.000000000000000000e+00
1.068000000000000000e+03,2.773503714311453816e-01,0.000000000000000000e+00
1.069000000000000000e+03,4.796243544720213414e-01,0.000000000000000000e+00
1.070000000000000000e+03,3.663042694887241324e-01,0.000000000000000000e+00
1.071000000000000000e+03,3.163148560978551460e-01,0.000000000000000000e+00
1.072000000000000000e+03,-9.826467146381115403e-02,0.000000000000000000e+00
1.073000000000000000e+03,8.829046040777706328e-02,0.000000000000000000e+00
1.074000000000000000e+03,-2.223835827658181830e-01,0.000000000000000000e+00
1.075000000000000000e+03,2.461395696565960300e-01,0.000000000000000000e+00
1.076000000000000000e+03,1.709430295301807012e-01,0.000000000000000000e+00
1.077000000000000000e+03,3.837812598553276722e+00,0.000000000000000000e+00
1.078000000000000000e+03,5.068471744851087202e+00,0.000000000000000000e+00
1.079000000000000000e+03,-6.164919324742222928e-01,1.000000000000000000e+00
1.080000000000000000e+03,-1.224148264331311298e+00,0.000000000000000000e+00
1.081000000000000000e+03,-1.442497101942186388e+00,0.000000000000000000e+00
1.082000000000000000e+03,-1.055199470479133872e+00,0.000000000000000000e+00
1.083000000000000000e+03,-1.172071400794574281e+00,0.000000000000000000e+00
1.084000000000000000e+03,-8.373461494870063637e-01,0.000000000000000000e+00
1.085000000000000000e+03,-9.358592558096201497e-01,0.000000000000000000e+00
1.086000000000000000e+03,-7.376433680465754872e-01,0.000000000000000000e+00
1.087000000000000000e+03,-6.774798289458157097e-01,0.000000000000000000e+00
1.088000000000000000e+03,-3.960289316634577061e-01,0.000000000000000000e+00
1.089000000000000000e+03,-4.884962711192855633e-01,0.000000000000000000e+00
1.090000000000000000e+03,-1.332157551151047226e-01,0.000000000000000000e+00
1.091000000000000000e+03,-2.092854397155471946e-01,0.000000000000000000e+00
1.092000000000000000e+03,1.155521721335086571e-01,0.000000000000000000e+00
1.093000000000000000e+03,1.903972171109441502e-01,0.000000000000000000e+00
1.094000000000000000e+03,3.335589398475826695e-01,0.000000000000000000e+00
1.095000000000000000e+03,8.010581431392529983e-02,0.000000000000000000e+00
1.096000000000000000e+03,3.534741151106229884e-02,0.000000000000000000e+00
1.097000000000000000e+03,-3.618346895857314505e-01,0.000000000000000000e+00
1.098000000000000000e+03,-3.346139522539652855e-01,0.000000000000000000e+00
1.099000000000000000e+03,-3.539414129588075442e-01,0.000000000000000000e+00
1.100000000000000000e+03,-3.125440725812408393e-01,0.000000000000000000e+00
1.101000000000000000e+03,-2.524294155386033189e-01,0.000000000000000000e+00
1.102000000000000000e+03,-1.123990786334250064e-01,0.000000000000000000e+00
1.103000000000000000e+03,-2.729443973788215905e-01,0.000000000000000000e+00
1.104000000000000000e+03,-4.889613356665813149e-02,0.000000000000000000e+00
1.105000000000000000e+03,-9.518270895314778768e-02,0.000000000000000000e+00
1.106000000000000000e+03,8.199088421266918780e-02,0.000000000000000000e+00
1.107000000000000000e+03,-8.699588612974809565e-02,0.000000000000000000e+00
1.108000000000000000e+03,1.515931129697293822e-01,0.000000000000000000e+00
1.109000000000000000e+03,-4.843439843339398393e-02,0.000000000000000000e+00
1.110000000000000000e+03,1.729914506345399672e-01,0.000000000000000000e+00
1.111000000000000000e+03,3.630317847974388890e-02,0.000000000000000000e+00
1.112000000000000000e+03,1.948439773938135666e-01,0.000000000000000000e+00
1.113000000000000000e+03,1.688957828347593393e-01,0.000000000000000000e+00
1.114000000000000000e+03,2.607815869201469683e-01,0.000000000000000000e+00
1.115000000000000000e+03,2.671659297737951078e-01,0.000000000000000000e+00
1.116000000000000000e+03,3.769946327679523645e-01,0.000000000000000000e+00
1.117000000000000000e+03,3.024966619629974041e-01,0.000000000000000000e+00
1.118000000000000000e+03,3.541098243353160147e-01,0.000000000000000000e+00
1.119000000000000000e+03,-1.831166229274520107e-01,0.000000000000000000e+00
1.120000000000000000e+03,5.606353712358345953e-02,0.000000000000000000e+00
1.121000000000000000e+03,-1.676507150481709452e-01,0.000000000000000000e+00
1.122000000000000000e+03,8.078892962581045445e-02,0.000000000000000000e+00
1.123000000000000000e+03,1.078835774788806934e-01,0.000000000000000000e+00
1.124000000000000000e+03,3.468330028692020672e+00,0.000000000000000000e+00
1.125000000000000000e+03,4.559335281810389162e+00,0.000000000000000000e+00
1.126000000000000000e+03,-7.204364749975008531e-01,1.000000000000000000e+00
1.127000000000000000e+03,-9.900790465741025059e-01,0.000000000000000000e+00
1.128000000000000000e+03,-1.389231551898748585e+00,0.000000000000000000e+00
1.129000000000000000e+03,-8.874972194588555130e-01,0.000000000000000000e+00
1.130000000000000000e+03,-1.051132041005048201e+00,0.000000000000000000e+00
1.131000000000000000e+03,-6.725069745381988540e-01,0.000000000000000000e+00
1.132000000000000000e+03,-7.924098400270577214e-01,0.000000000000000000e+00
1.133000000000000000e+03,-5.315458059031241689e-01,0.000000000000000000e+00
1.134000000000000000e+03,-6.106719344594411236e-01,0.000000000000000000e+00
1.135000000000000000e+03,-3.777126621041682064e-01,0.000000000000000000e+00
1.136000000000000000e+03,-2.632721284803504203e-01,0.000000000000000000e+00
1.137000000000000000e+03,-1.457825578846671521e-01,0.000000000000000000e+00
1.138000000000000000e+03,-5.215244915334391745e-02,0.000000000000000000e+00
1.139000000000000000e+03,1.561261317816868277e-01,0.000000000000000000e+00
1.140000000000000000e+03,1.771097746853984300e-01,0.000000000000000000e+00
1.141000000000000000e+03,3.468441460808404653e-01,0.000000000000000000e+00
1.142000000000000000e+03,1.029884323221244152e-01,0.000000000000000000e+00
1.143000000000000000e+03,-4.953835541748049381e-02,0.000000000000000000e+00
1.144000000000000000e+03,-3.174973506256636990e-01,0.000000000000000000e+00
1.145000000000000000e+03,-3.855018811047274396e-01,0.000000000000000000e+00
1.146000000000000000e+03,-3.859397742900664841e-01,0.000000000000000000e+00
1.147000000000000000e+03,-1.835786014103440167e-01,0.000000000000000000e+00
1.148000000000000000e+03,-3.044043160329352737e-01,0.000000000000000000e+00
1.149000000000000000e+03,-1.901737410083532975e-01,0.000000000000000000e+00
1.150000000000000000e+03,-1.750640463008833192e-01,0.000000000000000000e+00
1.151000000000000000e+03,-1.705018329947202982e-01,0.000000000000000000e+00
1.152000000000000000e+03,-1.047157742729260405e-01,0.000000000000000000e+00
1.153000000000000000e+03,-3.286934545504834743e-02,0.000000000000000000e+00
1.154000000000000000e+03,-3.294197054529326985e-02,0.000000000000000000e+00
1.155000000000000000e+03,6.606805834578441394e-02,0.000000000000000000e+00
1.156000000000000000e+03,-1.416557529600927408e-02,0.000000000000000000e+00
1.157000000000000000e+03,1.587948327575514074e-01,0.000000000000000000e+00
1.158000000000000000e+03,-4.797323850526774569e-02,0.000000000000000000e+00
1.159000000000000000e+03,1.326488841217045578e-01,0.000000000000000000e+00
1.160000000000000000e+03,7.496534094038218021e-02,0.000000000000000000e+00
1.161000000000000000e+03,3.655965995375863864e-01,0.000000000000000000e+00
1.162000000000000000e+03,1.821104741598596477e-01,0.000000000000000000e+00
1.163000000000000000e+03,3.428216919752730130e-01,0.000000000000000000e+00
1.164000000000000000e+03,3.179823227525254148e-01,0.000000000000000000e+00
1.165000000000000000e+03,2.424245683080452074e-01,0.000000000000000000e+00
1.166000000000000000e+03,-1.792990936355354226e-01,0.000000000000000000e+00
1.167000000000000000e+03,9.632341817495396197e-02,0.000000000000000000e+00
1.168000000000000000e+03,-1.980636011491466175e-01,0.000000000000000000e+00
1.169000000000000000e+03,1.641882239267405119e-01,0.000000000000000000e+00
1.170000000000000000e+03,3.403795986566978682e-01,0.000000000000000000e+00
1.171000000000000000e+03,4.110592389641078093e+00,0.000000000000000000e+00
1.172000000000000000e+03,3.273084482048921995e+00,0.000000000000000000e+00
1.173000000000000000e+03,-1.083535964943023622e+00,1.000000000000000000e+00
1.174000000000000000e+03,-9.716356817056125417e-01,0.000000000000000000e+00
1.175000000000000000e+03,-1.150560296991272269e+00,0.000000000000000000e+00
1.176000000000000000e+03,-8.842631601672623631e-01,0.000000000000000000e+00
1.177000000000000000e+03,-9.419542199911349334e-01,0.000000000000000000e+00
1.178000000000000000e+03,-5.878108838045786877e-01,0.000000000000000000e+00
1.179000000000000000e+03,-7.783253399948445450e-01,0.000000000000000000e+00
1.180000000000000000e+03,-3.820663352774917310e-01,0.000000000000000000e+00
1.181000000000000000e+03,-4.876555239319659285e-01,0.000000000000000000e+00
1.182000000000000000e+03,-1.834186527785464371e-01,0.000000000000000000e+00
1.183000000000000000e+03,-3.162375430703372459e-01,0.000000000000000000e+00
1.184000000000000000e+03,-1.409320413974753661e-01,0.000000000000000000e+00
1.185000000000000000e+03,1.173816857787563228e-01,0.000000000000000000e+00
1.186000000000000000e+03,1.374567244295119839e-01,0.000000000000000000e+00
1.187000000000000000e+03,1.523524668417336470e-01,0.000000000000000000e+00
1.188000000000000000e+03,4.230519756797306297e-01,0.000000000000000000e+00
1.189000000000000000e+03,-2.389159395199734123e-02,0.000000000000000000e+00
1.190000000000000000e+03,-6.382665394755872301e-02,0.000000000000000000e+00
1.191000000000000000e+03,-3.158632081127382141e-01,0.000000000000000000e+00
1.192000000000000000e+03,-3.454910490151007485e-01,0.000000000000000000e+00
1.193000000000000000e+03,-3.317277912526517269e-01,0.000000000000000000e+00
1.194000000000000000e+03,-2.676227330251216840e-01,0.000000000000000000e+00
1.195000000000000000e+03,-2.748057250556063535e-01,0.000000000000000000e+00
1.196000000000000000e+03,-2.306730789735727538e-01,0.000000000000000000e+00
1.197000000000000000e+03,-1.146589128201914026e-01,0.000000000000000000e+00
1.198000000000000000e+03,-8.417478027152043574e-02,0.000000000000000000e+00
1.199000000000000000e+03,-7.543509530222065884e-02,0.000000000000000000e+00
1.200000000000000000e+03,2.957179067750614898e-02,0.000000000000000000e+00
1.201000000000000000e+03,-8.071166315580417805e-02,0.000000000000000000e+00
1.202000000000000000e+03,8.772834361959751248e-02,0.000000000000000000e+00
1.203000000000000000e+03,-4.331829631784821222e-02,0.000000000000000000e+00
1.204000000000000000e+03,8.894639976835728989e-02,0.000000000000000000e+00
1.205000000000000000e+03,2.758119577721481266e-02,0.000000000000000000e+00
1.206000000000000000e+03,1.294629194950367712e-01,0.000000000000000000e+00
1.207000000000000000e+03,9.752284144209068251e-03,0.000000000000000000e+00
1.208000000000000000e+03,2.594011112601927738e-01,0.000000000000000000e+00
1.209000000000000000e+03,1.963615804516373742e-01,0.000000000000000000e+00
1.210000000000000000e+03,3.554776686566655242e-01,0.000000000000000000e+00
1.211000000000000000e+03,2.945018402935110635e-01,0.000000000000000000e+00
1.212000000000000000e+03,2.984564930292313290e-01,0.000000000000000000e+00
1.213000000000000000e+03,-2.134327371961769471e-01,0.000000000000000000e+00
1.214000000000000000e+03,2.203391877168675225e-02,0.000000000000000000e+00
1.215000000000000000e+03,-1.139628686887540626e-01,0.000000000000000000e+00
1.216000000000000000e+03,1.826375085204254567e-01,0.000000000000000000e+00
1.217000000000000000e+03,1.843364110101768649e-01,0.000000000000000000e+00
1.218000000000000000e+03,3.580476563005782431e+00,0.000000000000000000e+00
1.219000000000000000e+03,4.606424554303671925e+00,0.000000000000000000e+00
1.220000000000000000e+03,-6.098610892493092628e-01,1.000000000000000000e+00
1.221000000000000000e+03,-1.110897576366644435e+00,0.000000000000000000e+00
1.222000000000000000e+03,-1.296041370305478946e+00,0.000000000000000000e+00
1.223000000000000000e+03,-9.749554290735096274e-01,0.000000000000000000e+00
1.224000000000000000e+03,-1.099831733726526650e+00,0.000000000000000000e+00
1.225000000000000000e+03,-7.486478953006637793e-01,0.000000000000000000e+00
1.226000000000000000e+03,-8.038815929157248075e-01,0.000000000000000000e+00
1.227000000000000000e+03,-5.815471114514993989e-01,0.000000000000000000e+00
1.228000000000000000e+03,-5.869957510128850364e-01,0.000000000000000000e+00
1.229000000000000000e+03,-3.715087520998892612e-01,0.000000000000000000e+00
1.230000000000000000e+03,-3.897600207629393076e-01,0.000000000000000000e+00
1.231000000000000000e+03,-6.146621571637674031e-02,0.000000000000000000e+00
1.232000000000000000e+03,-6.169240324696316502e-02,0.000000000000000000e+00
1.233000000000000000e+03,1.176142357449557335e-01,0.000000000000000000e+00
1.234000000000000000e+03,1.872138107145221164e-01,0.000000000000000000e+00
1.235000000000000000e+03,3.117930706570095634e-01,0.000000000000000000e+00
1.236000000000000000e+03,1.558219724398306749e-01,0.000000000000000000e+00
1.237000000000000000e+03,5.363272537616933268e-03,0.000000000000000000e+00
1.238000000000000000e+03,-2.982266422603714884e-01,0.000000000000000000e+00
1.239000000000000000e+03,-3.491178811775920710e-01,0.000000000000000000e+00
1.240000000000000000e+03,-3.378734283750087775e-01,0.000000000000000000e+00
1.241000000000000000e+03,-2.423415191618549236e-01,0.000000000000000000e+00
1.242000000000000000e+03,-2.509923257711436650e-01,0.000000000000000000e+00
1.243000000000000000e+03,-1.924449430734039013e-01,0.000000000000000000e+00
1.244000000000000000e+03,-1.397073901989169253e-01,0.000000000000000000e+00
1.245000000000000000e+03,-3.024160027582479746e-02,0.000000000000000000e+00
1.246000000000000000e+03,-9.241995072126822641e-02,0.000000000000000000e+00
1.247000000000000000e+03,-2.155533800431903499e-02,0.000000000000000000e+00
1.248000000000000000e+03,-3.723300722000244534e-02,0.000000000000000000e+00
1.249000000000000000e+03,5.929804669002307349e-02,0.000000000000000000e+00
1.250000000000000000e+03,-2.044156842552974362e-02,0.000000000000000000e+00
1.251000000000000000e+03,2.109065961025374802e-01,0.000000000000000000e+00
1.252000000000000000e+03,-7.290764089232040779e-02,0.000000000000000000e+00
1.253000000000000000e+03,2.663445634065524925e-01,0.000000000000000000e+00
1.254000000000000000e+03,3.568618718860872702e-02,0.000000000000000000e+00
1.255000000000000000e+03,3.071164909474629612e-01,0.000000000000000000e+00
1.256000000000000000e+03,2.134869827504571882e-01,0.000000000000000000e+00
1.257000000000000000e+03,3.283680417073721602e-01,0.000000000000000000e+00
1.258000000000000000e+03,5.020200153363133522e-01,0.000000000000000000e+00
1.259000000000000000e+03,3.246702806202737546e-01,0.000000000000000000e+00
1.260000000000000000e+03,-8.906085044308735543e-02,0.000000000000000000e+00
1.261000000000000000e+03,1.092265103516248670e-01,0.000000000000000000e+00
1.262000000000000000e+03,-2.440169270571806714e-01,0.000000000000000000e+00
1.263000000000000000e+03,8.453508327456900340e-02,0.000000000000000000e+00
1.264000000000000000e+03,1.222606172797458118e-01,0.000000000000000000e+00
1.265000000000000000e+03,2.134537671280824611e+00,0.000000000000000000e+00
1.266000000000000000e+03,5.555610374541910979e+00,0.000000000000000000e+00
1.267000000000000000e+03,5.420200072471994535e-01,1.000000000000000000e+00
1.268000000000000000e+03,-1.330857682206739501e+00,0.000000000000000000e+00
1.269000000000000000e+03,-1.253170535423285159e+00,0.000000000000000000e+00
1.270000000000000000e+03,-1.218302590148100828e+00,0.000000000000000000e+00
1.271000000000000000e+03,-1.082533304492470316e+00,0.000000000000000000e+00
1.272000000000000000e+03,-8.921823400211503774e-01,0.000000000000000000e+00
1.273000000000000000e+03,-7.713610888696643686e-01,0.000000000000000000e+00
1.274000000000000000e+03,-7.356611563382329244e-01,0.000000000000000000e+00
1.275000000000000000e+03,-5.499621186692794650e-01,0.000000000000000000e+00
1.276000000000000000e+03,-5.191788243983195272e-01,0.000000000000000000e+00
1.277000000000000000e+03,-4.149572081457474915e-01,0.000000000000000000e+00
1.278000000000000000e+03,-1.770162063891277393e-01,0.000000000000000000e+00
1.279000000000000000e+03,-1.244845589883144532e-01,0.000000000000000000e+00
1.280000000000000000e+03,3.772136794996919229e-02,0.000000000000000000e+00
1.281000000000000000e+03,1.650748540510999229e-01,0.000000000000000000e+00
1.282000000000000000e+03,2.782628987243044305e-01,0.000000000000000000e+00
1.283000000000000000e+03,1.319410859010037296e-01,0.000000000000000000e+00
1.284000000000000000e+03,-1.453354618403282505e-01,0.000000000000000000e+00
1.285000000000000000e+03,-8.968356936321938977e-02,0.000000000000000000e+00
1.286000000000000000e+03,-4.128194395617830192e-01,0.000000000000000000e+00
1.287000000000000000e+03,-2.649438343130362528e-01,0.000000000000000000e+00
1.288000000000000000e+03,-4.351215899438451440e-01,0.000000000000000000e+00
1.289000000000000000e+03,-2.445457879201363705e-01,0.000000000000000000e+00
1.290000000000000000e+03,-2.347257708913250418e-01,0.000000000000000000e+00
1.291000000000000000e+03,-2.131652945909831565e-01,0.000000000000000000e+00
1.292000000000000000e+03,-1.146731130145097893e-01,0.000000000000000000e+00
1.293000000000000000e+03,-8.435039465678879911e-02,0.000000000000000000e+00
1.294000000000000000e+03,-1.050434274318125666e-01,0.000000000000000000e+00
1.295000000000000000e+03,-5.030993496226351253e-02,0.000000000000000000e+00
1.296000000000000000e+03,2.897089918973395472e-03,0.000000000000000000e+00
1.297000000000000000e+03,4.444209643426937778e-02,0.000000000000000000e+00
1.298000000000000000e+03,7.361531422660028134e-02,0.000000000000000000e+00
1.299000000000000000e+03,4.421452357799832145e-02,0.000000000000000000e+00
1.300000000000000000e+03,1.738255903544652994e-02,0.000000000000000000e+00
1.301000000000000000e+03,1.846086642962380675e-01,0.000000000000000000e+00
1.302000000000000000e+03,2.042588020611804667e-01,0.000000000000000000e+00
1.303000000000000000e+03,2.275897287593789120e-01,0.000000000000000000e+00
1.304000000000000000e+03,2.970757770862672564e-01,0.000000000000000000e+00
1.305000000000000000e+03,4.697910808701448726e-01,0.000000000000000000e+00
1.306000000000000000e+03,3.304565561301639476e-01,0.000000000000000000e+00
1.307000000000000000e+03,8.155041264429027659e-02,0.000000000000000000e+00
1.308000000000000000e+03,-1.352116746750673115e-01,0.000000000000000000e+00
1.309000000000000000e+03,-3.196849621850233070e-03,0.000000000000000000e+00
1.310000000000000000e+03,-7.069497243929416530e-02,0.000000000000000000e+00
1.311000000000000000e+03,1.614146100164400577e-01,0.000000000000000000e+00
1.312000000000000000e+03,1.296964279340051318e+00,0.000000000000000000e+00
1.313000000000000000e+03,5.652122659856866349e+00,0.000000000000000000e+00
1.314000000000000000e+03,1.786703180561049820e+00,1.000000000000000000e+00
1.315000000000000000e+03,-1.360092865797898565e+00,0.000000000000000000e+00
1.316000000000000000e+03,-1.170189243007559554e+00,0.000000000000000000e+00
1.317000000000000000e+03,-1.409475178627459968e+00,0.000000000000000000e+00
1.318000000000000000e+03,-1.017818665807874279e+00,0.000000000000000000e+00
1.319000000000000000e+03,-1.021171055551643336e+00,0.000000000000000000e+00
1.320000000000000000e+03,-8.298292328780910720e-01,0.000000000000000000e+00
1.321000000000000000e+03,-7.188106946850182366e-01,0.000000000000000000e+00
1.322000000000000000e+03,-5.102906624349615727e-01,0.000000000000000000e+00
1.323000000000000000e+03,-5.721369179999389321e-01,0.000000000000000000e+00
1.324000000000000000e+03,-3.568943928870206284e-01,0.000000000000000000e+00
1.325000000000000000e+03,-2.806434457272364846e-01,0.000000000000000000e+00
1.326000000000000000e+03,-4.462093307714841417e-02,0.000000000000000000e+00
1.327000000000000000e+03,-5.146103157330440131e-02,0.000000000000000000e+00
1.328000000000000000e+03,2.760286373677577898e-01,0.000000000000000000e+00
1.329000000000000000e+03,2.294358363619005692e-01,0.000000000000000000e+00
1.330000000000000000e+03,2.882259486030817053e-01,0.000000000000000000e+00
1.331000000000000000e+03,1.366363855122393056e-01,0.000000000000000000e+00
1.332000000000000000e+03,-1.942019922291591538e-01,0.000000000000000000e+00
1.333000000000000000e+03,-3.471778998365117608e-01,0.000000000000000000e+00
1.334000000000000000e+03,-2.111572601797079285e-01,0.000000000000000000e+00
1.335000000000000000e+03,-3.549813566889362115e-01,0.000000000000000000e+00
1.336000000000000000e+03,-1.769306908204147100e-01,0.000000000000000000e+00
1.337000000000000000e+03,-2.067791128499626985e-01,0.000000000000000000e+00
1.338000000000000000e+03,-1.192328007789438954e-01,0.000000000000000000e+00
1.339000000000000000e+03,-9.075250962986183834e-02,0.000000000000000000e+00
1.340000000000000000e+03,-1.251479257292389957e-01,0.000000000000000000e+00
1.341000000000000000e+03,-8.506280563742794898e-02,0.000000000000000000e+00
1.342000000000000000e+03,-1.321400816274002910e-02,0.000000000000000000e+00
1.343000000000000000e+03,2.668830151043057042e-02,0.000000000000000000e+00
1.344000000000000000e+03,8.505480421624833642e-02,0.000000000000000000e+00
1.345000000000000000e+03,5.232898559767392571e-02,0.000000000000000000e+00
1.346000000000000000e+03,1.365447124834948123e-01,0.000000000000000000e+00
1.347000000000000000e+03,4.738331470509835053e-02,0.000000000000000000e+00
1.348000000000000000e+03,1.891987017309331998e-01,0.000000000000000000e+00
1.349000000000000000e+03,7.852450985502532066e-02,0.000000000000000000e+00
1.350000000000000000e+03,3.588121238958285053e-01,0.000000000000000000e+00
1.351000000000000000e+03,2.565255197188519576e-01,0.000000000000000000e+00
1.352000000000000000e+03,4.862086112185650122e-01,0.000000000000000000e+00
1.353000000000000000e+03,3.631143362185743073e-01,0.000000000000000000e+00
1.354000000000000000e+03,1.444255071662851608e-01,0.000000000000000000e+00
1.355000000000000000e+03,-1.393940591749922853e-01,0.000000000000000000e+00
1.356000000000000000e+03,5.151110187466987483e-02,0.000000000000000000e+00
1.357000000000000000e+03,-2.638484781597563722e-01,0.000000000000000000e+00
1.358000000000000000e+03,3.988108032093409805e-01,0.000000000000000000e+00
1.359000000000000000e+03,3.725086793354860371e-01,0.000000000000000000e+00
1.360000000000000000e+03,4.838448363143679209e+00,0.000000000000000000e+00
1.361000000000000000e+03,3.727741810961258118e+00,0.000000000000000000e+00
1.362000000000000000e+03,-1.159067142800589201e+00,1.000000000000000000e+00
1.363000000000000000e+03,-1.160266434451343587e+00,0.000000000000000000e+00
1.364000000000000000e+03,-1.391770299539548006e+00,0.000000000000000000e+00
1.365000000000000000e+03,-1.021311554809211097e+00,0.000000000000000000e+00
1.366000000000000000e+03,-1.125274283864838631e+00,0.000000000000000000e+00
1.367000000000000000e+03,-8.243093421263577580e-01,0.000000000000000000e+00
1.368000000000000000e+03,-8.129949813653168933e-01,0.000000000000000000e+00
1.369000000000000000e+03,-6.293435442287825810e-01,0.000000000000000000e+00
1.370000000000000000e+03,-5.618113294797241197e-01,0.000000000000000000e+00
1.371000000000000000e+03,-3.762268733581045077e-01,0.000000000000000000e+00
1.372000000000000000e+03,-3.789600801540732311e-01,0.000000000000000000e+00
1.373000000000000000e+03,-8.598278427023967052e-02,0.000000000000000000e+00
1.374000000000000000e+03,-1.041420023097629211e-01,0.000000000000000000e+00
1.375000000000000000e+03,2.022882613423800380e-01,0.000000000000000000e+00
1.376000000000000000e+03,2.133037725763074766e-01,0.000000000000000000e+00
1.377000000000000000e+03,2.740485216147575120e-01,0.000000000000000000e+00
1.378000000000000000e+03,9.717628264476237121e-02,0.000000000000000000e+00
1.379000000000000000e+03,1.583655093653128093e-02,0.000000000000000000e+00
1.380000000000000000e+03,-3.400309859987641348e-01,0.000000000000000000e+00
1.381000000000000000e+03,-3.822823462970343922e-01,0.000000000000000000e+00
1.382000000000000000e+03,-4.077673926267070259e-01,0.000000000000000000e+00
1.383000000000000000e+03,-3.052313599648228126e-01,0.000000000000000000e+00
1.384000000000000000e+03,-2.961387763361167935e-01,0.000000000000000000e+00
1.385000000000000000e+03,-1.524675243062915964e-01,0.000000000000000000e+00
1.386000000000000000e+03,-1.443150970051108872e-01,0.000000000000000000e+00
1.387000000000000000e+03,-1.008328326346777659e-01,0.000000000000000000e+00
1.388000000000000000e+03,-1.246301814285378090e-01,0.000000000000000000e+00
1.389000000000000000e+03,-5.650677721965348399e-02,0.000000000000000000e+00
1.390000000000000000e+03,-3.874926142692654979e-02,0.000000000000000000e+00
1.391000000000000000e+03,6.151112935875274225e-03,0.000000000000000000e+00
1.392000000000000000e+03,-4.425759068502751331e-02,0.000000000000000000e+00
1.393000000000000000e+03,1.146751827161040238e-01,0.000000000000000000e+00
1.394000000000000000e+03,-6.717019211659139288e-02,0.000000000000000000e+00
1.395000000000000000e+03,1.987781271396116822e-01,0.000000000000000000e+00
1.396000000000000000e+03,9.712213034029705538e-02,0.000000000000000000e+00
1.397000000000000000e+03,3.001021454555361512e-01,0.000000000000000000e+00
1.398000000000000000e+03,1.962606652689329045e-01,0.000000000000000000e+00
1.399000000000000000e+03,4.162155766629841436e-01,0.000000000000000000e+00
1.400000000000000000e+03,3.568889138016170248e-01,0.000000000000000000e+00
1.401000000000000000e+03,2.192642705387676250e-01,0.000000000000000000e+00
1.402000000000000000e+03,-2.453345513495999441e-01,0.000000000000000000e+00
1.403000000000000000e+03,7.476984741620928965e-02,0.000000000000000000e+00
1.404000000000000000e+03,-2.933475615031431172e-01,0.000000000000000000e+00
1.405000000000000000e+03,2.099997853430308203e-01,0.000000000000000000e+00
1.406000000000000000e+03,1.519021271220181712e-01,0.000000000000000000e+00
1.407000000000000000e+03,4.027074451399858646e+00,0.000000000000000000e+00
1.408000000000000000e+03,4.693586478849491428e+00,0.000000000000000000e+00
1.409000000000000000e+03,-7.994357415345845208e-01,1.000000000000000000e+00
1.410000000000000000e+03,-1.195012642309789541e+00,0.000000000000000000e+00
1.411000000000000000e+03,-1.459300824482341774e+00,0.000000000000000000e+00
1.412000000000000000e+03,-1.122088878242781584e+00,0.000000000000000000e+00
1.413000000000000000e+03,-1.133360405609546762e+00,0.000000000000000000e+00
1.414000000000000000e+03,-7.827346634691346727e-01,0.000000000000000000e+00
1.415000000000000000e+03,-8.582013713275974398e-01,0.000000000000000000e+00
1.416000000000000000e+03,-7.021064240748775553e-01,0.000000000000000000e+00
1.417000000000000000e+03,-5.981267621017957170e-01,0.000000000000000000e+00
1.418000000000000000e+03,-4.521708397444091920e-01,0.000000000000000000e+00
1.419000000000000000e+03,-4.391417810968358260e-01,0.000000000000000000e+00
1.420000000000000000e+03,-1.760002417643917183e-01,0.000000000000000000e+00
1.421000000000000000e+03,-1.020505489076526801e-01,0.000000000000000000e+00
1.422000000000000000e+03,1.523629515944683044e-01,0.000000000000000000e+00
1.423000000000000000e+03,2.299842021937057446e-01,0.000000000000000000e+00
1.424000000000000000e+03,3.116746825152891254e-01,0.000000000000000000e+00
1.425000000000000000e+03,2.094594070223230187e-01,0.000000000000000000e+00
1.426000000000000000e+03,-7.340945641127451238e-03,0.000000000000000000e+00
1.427000000000000000e+03,-1.897033052241447471e-01,0.000000000000000000e+00
1.428000000000000000e+03,-3.313239420097420784e-01,0.000000000000000000e+00
1.429000000000000000e+03,-3.001741492291525315e-01,0.000000000000000000e+00
1.430000000000000000e+03,-1.618716055781797003e-01,0.000000000000000000e+00
1.431000000000000000e+03,-2.308118863750278638e-01,0.000000000000000000e+00
1.432000000000000000e+03,-1.083102430738455690e-01,0.000000000000000000e+00
1.433000000000000000e+03,-1.813583032989730393e-01,0.000000000000000000e+00
1.434000000000000000e+03,-2.547885197233473731e-02,0.000000000000000000e+00
1.435000000000000000e+03,-1.602419217997870515e-02,0.000000000000000000e+00
1.436000000000000000e+03,9.970999260946314391e-03,0.000000000000000000e+00
1.437000000000000000e+03,3.030789250748454691e-02,0.000000000000000000e+00
1.438000000000000000e+03,5.805859522374241799e-02,0.000000000000000000e+00
1.439000000000000000e+03,8.740408471156251025e-02,0.000000000000000000e+00
1.440000000000000000e+03,4.161380148008190366e-02,0.000000000000000000e+00
1.441000000000000000e+03,1.211900899047077401e-01,0.000000000000000000e+00
1.442000000000000000e+03,1.217038251303713958e-01,0.000000000000000000e+00
1.443000000000000000e+03,1.607289595450778208e-01,0.000000000000000000e+00
1.444000000000000000e+03,4.056304454671774140e-01,0.000000000000000000e+00
1.445000000000000000e+03,1.971209129817803052e-01,0.000000000000000000e+00
1.446000000000000000e+03,4.029369558018406905e-01,0.000000000000000000e+00
1.447000000000000000e+03,3.380356409217951663e-01,0.000000000000000000e+00
1.448000000000000000e+03,2.786089715759162977e-01,0.000000000000000000e+00
1.449000000000000000e+03,-5.416049198012926058e-02,0.000000000000000000e+00
1.450000000000000000e+03,-5.852888873884325854e-02,0.000000000000000000e+00
1.451000000000000000e+03,-1.244320863457141491e-01,0.000000000000000000e+00
1.452000000000000000e+03,1.211242758929210878e-01,0.000000000000000000e+00
1.453000000000000000e+03,7.757706891334972821e-02,0.000000000000000000e+00
1.454000000000000000e+03,2.363356871004433479e+00,0.000000000000000000e+00
1.455000000000000000e+03,5.820052431334401533e+00,0.000000000000000000e+00
1.456000000000000000e+03,6.197460212022481985e-01,1.000000000000000000e+00
1.457000000000000000e+03,-1.304955678868455760e+00,0.000000000000000000e+00
1.458000000000000000e+03,-1.392849395715251681e+00,0.000000000000000000e+00
1.459000000000000000e+03,-1.253424631751936191e+00,0.000000000000000000e+00
1.460000000000000000e+03,-1.172575526374621813e+00,0.000000000000000000e+00
1.461000000000000000e+03,-9.345051146048626300e-01,0.000000000000000000e+00
1.462000000000000000e+03,-8.567909949535135183e-01,0.000000000000000000e+00
1.463000000000000000e+03,-8.080216779984817910e-01,0.000000000000000000e+00
1.464000000000000000e+03,-5.947986410019289183e-01,0.000000000000000000e+00
1.465000000000000000e+03,-5.850044223258290543e-01,0.000000000000000000e+00
1.466000000000000000e+03,-3.975580072479539817e-01,0.000000000000000000e+00
1.467000000000000000e+03,-3.452133520492353669e-01,0.000000000000000000e+00
1.468000000000000000e+03,-9.620621022209190076e-02,0.000000000000000000e+00
1.469000000000000000e+03,-2.212511126213222504e-02,0.000000000000000000e+00
1.470000000000000000e+03,1.659895082291412971e-01,0.000000000000000000e+00
1.471000000000000000e+03,1.649637554818373653e-01,0.000000000000000000e+00
1.472000000000000000e+03,1.543741084666322427e-01,0.000000000000000000e+00
1.473000000000000000e+03,-4.235461862843351716e-03,0.000000000000000000e+00
1.474000000000000000e+03,-2.579806675989062548e-01,0.000000000000000000e+00
1.475000000000000000e+03,-2.651052342979093313e-01,0.000000000000000000e+00
1.476000000000000000e+03,-3.113361392426342023e-01,0.000000000000000000e+00
1.477000000000000000e+03,-3.308710352946204192e-01,0.000000000000000000e+00
1.478000000000000000e+03,-2.336831035835189863e-01,0.000000000000000000e+00
1.479000000000000000e+03,-1.962778801049094857e-01,0.000000000000000000e+00
1.480000000000000000e+03,-1.205232885984477281e-01,0.000000000000000000e+00
1.481000000000000000e+03,-1.741852602790464888e-01,0.000000000000000000e+00
1.482000000000000000e+03,-8.648535083778939592e-02,0.000000000000000000e+00
1.483000000000000000e+03,4.188746385408130025e-03,0.000000000000000000e+00
1.484000000000000000e+03,1.710574932945679166e-02,0.000000000000000000e+00
1.485000000000000000e+03,4.303600804736101154e-02,0.000000000000000000e+00
1.486000000000000000e+03,2.542955775108208800e-04,0.000000000000000000e+00
1.487000000000000000e+03,1.150011043799715055e-01,0.000000000000000000e+00
1.488000000000000000e+03,3.075638515144287974e-02,0.000000000000000000e+00
1.489000000000000000e+03,9.225415932104968908e-02,0.000000000000000000e+00
1.490000000000000000e+03,2.533288877988364995e-01,0.000000000000000000e+00
1.491000000000000000e+03,1.593036905067735098e-01,0.000000000000000000e+00
1.492000000000000000e+03,3.454779840970693683e-01,0.000000000000000000e+00
1.493000000000000000e+03,3.241082013460208078e-01,0.000000000000000000e+00
1.494000000000000000e+03,4.556369642660385022e-01,0.000000000000000000e+00
1.495000000000000000e+03,3.679088476829663890e-01,0.000000000000000000e+00
1.496000000000000000e+03,1.173780165551558397e-01,0.000000000000000000e+00
1.497000000000000000e+03,-5.127819927706174508e-02,0.000000000000000000e+00
1.498000000000000000e+03,4.524630715973304573e-02,0.000000000000000000e+00
1.499000000000000000e+03,-7.379560703822315992e-02,0.000000000000000000e+00
1.500000000000000000e+03,2.683506065480334435e-01,0.000000000000000000e+00
1.501000000000000000e+03,8.705471757737267557e-01,0.000000000000000000e+00
1.502000000000000000e+03,5.529770310980063108e+00,0.000000000000000000e+00
1.503000000000000000e+03,2.818048086027317378e+00,1.000000000000000000e+00
1.504000000000000000e+03,-1.419694328736368139e+00,0.000000000000000000e+00
1.505000000000000000e+03,-1.218664351576586924e+00,0.000000000000000000e+00
1.506000000000000000e+03,-1.447525097458864485e+00,0.000000000000000000e+00
1.507000000000000000e+03,-1.024132477696781285e+00,0.000000000000000000e+00
1.508000000000000000e+03,-1.150256794999179766e+00,0.000000000000000000e+00
1.509000000000000000e+03,-7.745603188191818589e-01,0.000000000000000000e+00
1.510000000000000000e+03,-8.636375695599556312e-01,0.000000000000000000e+00
1.511000000000000000e+03,-6.132821908219522333e-01,0.000000000000000000e+00
1.512000000000000000e+03,-5.988299061686680469e-01,0.000000000000000000e+00
1.513000000000000000e+03,-3.753395722005160029e-01,0.000000000000000000e+00
1.514000000000000000e+03,-2.702682486172176546e-01,0.000000000000000000e+00
1.515000000000000000e+03,-1.152673314679036332e-01,0.000000000000000000e+00
1.516000000000000000e+03,-9.130674970688090752e-02,0.000000000000000000e+00
1.517000000000000000e+03,9.964455011377687521e-02,0.000000000000000000e+00
1.518000000000000000e+03,1.984485605303639710e-01,0.000000000000000000e+00
1.519000000000000000e+03,2.902367098359524555e-01,0.000000000000000000e+00
1.520000000000000000e+03,-2.422533846058178963e-03,0.000000000000000000e+00
1.521000000000000000e+03,-1.766998692801825255e-01,0.000000000000000000e+00
1.522000000000000000e+03,-3.674390415015892364e-01,0.000000000000000000e+00
1.523000000000000000e+03,-2.878442013015444223e-01,0.000000000000000000e+00
1.524000000000000000e+03,-2.613396190502966232e-01,0.000000000000000000e+00
1.525000000000000000e+03,-2.260957094290530489e-01,0.000000000000000000e+00
1.526000000000000000e+03,-2.490958698612191768e-01,0.000000000000000000e+00
1.527000000000000000e+03,-1.960552073895093783e-01,0.000000000000000000e+00
1.528000000000000000e+03,-1.767978886120106785e-01,0.000000000000000000e+00
1.529000000000000000e+03,-8.732757428615570833e-03,0.000000000000000000e+00
1.530000000000000000e+03,-7.896663134329698353e-02,0.000000000000000000e+00
1.531000000000000000e+03,5.968274487621415270e-02,0.000000000000000000e+00
1.532000000000000000e+03,-6.023478862141706108e-02,0.000000000000000000e+00
1.533000000000000000e+03,1.240468155935015443e-01,0.000000000000000000e+00
1.534000000000000000e+03,-4.675200096033405028e-02,0.000000000000000000e+00
1.535000000000000000e+03,8.663962137758282611e-02,0.000000000000000000e+00
1.536000000000000000e+03,3.685460692950894013e-02,0.000000000000000000e+00
1.537000000000000000e+03,1.281016355911117899e-01,0.000000000000000000e+00
1.538000000000000000e+03,1.996993053124695439e-01,0.000000000000000000e+00
1.539000000000000000e+03,3.291777275777874046e-01,0.000000000000000000e+00
1.540000000000000000e+03,2.120357029305922070e-01,0.000000000000000000e+00
1.541000000000000000e+03,5.071557300459631490e-01,0.000000000000000000e+00
1.542000000000000000e+03,2.836681603314412659e-01,0.000000000000000000e+00
1.543000000000000000e+03,1.424555828166086113e-01,0.000000000000000000e+00
1.544000000000000000e+03,-1.034128679086391972e-01,0.000000000000000000e+00
1.545000000000000000e+03,3.280809379593623010e-02,0.000000000000000000e+00
1.546000000000000000e+03,-1.846993742483692968e-01,0.000000000000000000e+00
1.547000000000000000e+03,3.032934239485691741e-01,0.000000000000000000e+00
1.548000000000000000e+03,5.515465848359875078e-01,0.000000000000000000e+00
1.549000000000000000e+03,5.207308276616349652e+00,0.000000000000000000e+00
1.550000000000000000e+03,3.506384822299126292e+00,1.000000000000000000e+00
1.551000000000000000e+03,-1.375177379073399209e+00,0.000000000000000000e+00
1.552000000000000000e+03,-1.188092008149734369e+00,0.000000000000000000e+00
1.553000000000000000e+03,-1.483386255298082546e+00,0.000000000000000000e+00
1.554000000000000000e+03,-1.004439403602892966e+00,0.000000000000000000e+00
1.555000000000000000e+03,-1.149233555980205823e+00,0.000000000000000000e+00
1.556000000000000000e+03,-8.367130715384156758e-01,0.000000000000000000e+00
1.557000000000000000e+03,-8.312888875560443536e-01,0.000000000000000000e+00
1.558000000000000000e+03,-6.181472129298373197e-01,0.000000000000000000e+00
1.559000000000000000e+03,-6.365926322143687921e-01,0.000000000000000000e+00
1.560000000000000000e+03,-3.095234787145062505e-01,0.000000000000000000e+00
1.561000000000000000e+03,-3.784920142318337066e-01,0.000000000000000000e+00
1.562000000000000000e+03,-5.257087990705443942e-02,0.000000000000000000e+00
1.563000000000000000e+03,-1.651866839442681645e-01,0.000000000000000000e+00
1.564000000000000000e+03,1.937657590672279273e-01,0.000000000000000000e+00
1.565000000000000000e+03,1.491622798343591183e-01,0.000000000000000000e+00
1.566000000000000000e+03,2.765749311626866103e-01,0.000000000000000000e+00
1.567000000000000000e+03,7.828345745283930845e-02,0.000000000000000000e+00
1.568000000000000000e+03,-9.676758750736794146e-02,0.000000000000000000e+00
1.569000000000000000e+03,-3.809084940820426923e-01,0.000000000000000000e+00
1.570000000000000000e+03,-2.452373078806843187e-01,0.000000000000000000e+00
1.571000000000000000e+03,-3.208088027046835933e-01,0.000000000000000000e+00
1.572000000000000000e+03,-2.489440807081050588e-01,0.000000000000000000e+00
1.573000000000000000e+03,-2.745786781788294162e-01,0.000000000000000000e+00
1.574000000000000000e+03,-1.640042332322380336e-01,0.000000000000000000e+00
1.575000000000000000e+03,-2.355015693413390343e-01,0.000000000000000000e+00
1.576000000000000000e+03,-6.673817874099305381e-02,0.000000000000000000e+00
1.577000000000000000e+03,-9.300871437520581708e-02,0.000000000000000000e+00
1.578000000000000000e+03,4.505543228793419674e-02,0.000000000000000000e+00
1.579000000000000000e+03,-3.074318693475328393e-02,0.000000000000000000e+00
1.580000000000000000e+03,7.360088758478108839e-02,0.000000000000000000e+00
1.581000000000000000e+03,-1.837565107106695463e-03,0.000000000000000000e+00
1.582000000000000000e+03,6.843285090283135474e-02,0.000000000000000000e+00
1.583000000000000000e+03,6.814166732225931944e-02,0.000000000000000000e+00
1.584000000000000000e+03,1.498066308988683093e-01,0.000000000000000000e+00
1.585000000000000000e+03,1.630346043772281373e-01,0.000000000000000000e+00
1.586000000000000000e+03,3.217161934796398670e-01,0.000000000000000000e+00
