timestamp,ecg_measurement,qrs_detected
0.000000000000000000e+00,2.099186394537872480e-01,0.000000000000000000e+00
1.000000000000000000e+00,3.091670774644836861e-01,0.000000000000000000e+00
2.000000000000000000e+00,1.756434750226079644e-01,0.000000000000000000e+00
3.000000000000000000e+00,1.088346831167397513e-02,0.000000000000000000e+00
4.000000000000000000e+00,-1.777984710930760603e-01,0.000000000000000000e+00
5.000000000000000000e+00,-3.585855598843130654e-01,0.000000000000000000e+00
6.000000000000000000e+00,-2.557883891537487964e-01,0.000000000000000000e+00
7.000000000000000000e+00,-2.355107011935930750e-01,0.000000000000000000e+00
8.000000000000000000e+00,-1.994297174652061022e-01,0.000000000000000000e+00
9.000000000000000000e+00,-2.330219485533374935e-01,0.000000000000000000e+00
1.000000000000000000e+01,-1.359883023593703721e-01,0.000000000000000000e+00
1.100000000000000000e+01,-1.788332106661830179e-01,0.000000000000000000e+00
1.200000000000000000e+01,1.990184067339853188e-02,0.000000000000000000e+00
1.300000000000000000e+01,-7.097749973777825461e-02,0.000000000000000000e+00
1.400000000000000000e+01,5.882613900914970828e-02,0.000000000000000000e+00
1.500000000000000000e+01,2.745949752864316681e-02,0.000000000000000000e+00
1.600000000000000000e+01,4.459621225544985884e-02,0.000000000000000000e+00
1.700000000000000000e+01,6.153760304523792080e-02,0.000000000000000000e+00
1.800000000000000000e+01,1.321714440948253966e-01,0.000000000000000000e+00
1.900000000000000000e+01,2.218110191158743222e-02,0.000000000000000000e+00
2.000000000000000000e+01,1.287125570065002500e-01,0.000000000000000000e+00
2.100000000000000000e+01,1.682749633711091986e-01,0.000000000000000000e+00
2.200000000000000000e+01,2.971223924253473814e-01,0.000000000000000000e+00
2.300000000000000000e+01,2.623390094045244259e-01,0.000000000000000000e+00
2.400000000000000000e+01,4.836231448616380990e-01,0.000000000000000000e+00
2.500000000000000000e+01,3.871008523112254851e-01,0.000000000000000000e+00
2.600000000000000000e+01,1.648612423650996917e-01,0.000000000000000000e+00
2.700000000000000000e+01,-7.690999511656992915e-02,0.000000000000000000e+00
2.800000000000000000e+01,1.122172896122442948e-01,0.000000000000000000e+00
2.900000000000000000e+01,-2.621622655265964386e-01,0.000000000000000000e+00
3.000000000000000000e+01,2.671376078177180036e-01,0.000000000000000000e+00
3.100000000000000000e+01,1.932156382677500395e-01,0.000000000000000000e+00
3.200000000000000000e+01,4.686899341307618094e+00,0.000000000000000000e+00
3.300000000000000000e+01,4.333945253896333227e+00,0.000000000000000000e+00
3.400000000000000000e+01,-9.808411992808530044e-01,1.000000000000000000e+00
3.500000000000000000e+01,-1.227250764725862586e+00,0.000000000000000000e+00
3.600000000000000000e+01,-1.546273287768918925e+00,0.000000000000000000e+00
3.700000000000000000e+01,-1.219593878029346712e+00,0.000000000000000000e+00
3.800000000000000000e+01,-1.124594484976696007e+00,0.000000000000000000e+00
3.900000000000000000e+01,-9.530843854837196538e-01,0.000000000000000000e+00
4.000000000000000000e+01,-9.979114711265916204e-01,0.000000000000000000e+00
4.100000000000000000e+01,-6.447456783940392899e-01,0.000000000000000000e+00
4.200000000000000000e+01,-7.291309638074757737e-01,0.000000000000000000e+00
4.300000000000000000e+01,-5.071900224937189172e-01,0.000000000000000000e+00
4.400000000000000000e+01,-4.136630343648948771e-01,0.000000000000000000e+00
4.500000000000000000e+01,-2.289307536374090568e-01,0.000000000000000000e+00
4.600000000000000000e+01,-1.775861535795555113e-01,0.000000000000000000e+00
4.700000000000000000e+01,8.925198776966243586e-02,0.000000000000000000e+00
4.800000000000000000e+01,7.185078832445127017e-02,0.000000000000000000e+00
4.900000000000000000e+01,1.601404232336894884e-01,0.000000000000000000e+00
5.000000000000000000e+01,1.041048739955297980e-01,0.000000000000000000e+00
5.100000000000000000e+01,-2.019099978737387557e-01,0.000000000000000000e+00
5.200000000000000000e+01,-3.695909174089127003e-01,0.000000000000000000e+00
5.300000000000000000e+01,-2.992250855784181485e-01,0.000000000000000000e+00
5.400000000000000000e+01,-3.887792201038977047e-01,0.000000000000000000e+00
5.500000000000000000e+01,-2.531694890524066599e-01,0.000000000000000000e+00
5.600000000000000000e+01,-1.955823609841045307e-01,0.000000000000000000e+00
5.700000000000000000e+01,-9.903188799124451602e-02,0.000000000000000000e+00
5.800000000000000000e+01,-1.702544788169616241e-01,0.000000000000000000e+00
5.900000000000000000e+01,1.186888310339459691e-02,0.000000000000000000e+00
6.000000000000000000e+01,-2.546704309340874425e-02,0.000000000000000000e+00
6.100000000000000000e+01,4.016214380933475631e-02,0.000000000000000000e+00
6.200000000000000000e+01,1.397664175139565479e-01,0.000000000000000000e+00
6.300000000000000000e+01,1.028257908761146845e-02,0.000000000000000000e+00
6.400000000000000000e+01,1.089716784233341340e-01,0.000000000000000000e+00
6.500000000000000000e+01,6.837098313625084023e-02,0.000000000000000000e+00
6.600000000000000000e+01,8.830167979190702010e-02,0.000000000000000000e+00
6.700000000000000000e+01,1.249790351045712428e-01,0.000000000000000000e+00
6.800000000000000000e+01,2.070934431913241114e-01,0.000000000000000000e+00
6.900000000000000000e+01,2.578409201348903501e-01,0.000000000000000000e+00
7.000000000000000000e+01,2.837584206844530610e-01,0.000000000000000000e+00
7.100000000000000000e+01,4.174442867905673871e-01,0.000000000000000000e+00
7.200000000000000000e+01,4.151317323861793418e-01,0.000000000000000000e+00
7.300000000000000000e+01,2.759713410710675774e-01,0.000000000000000000e+00
7.400000000000000000e+01,-1.574652768275324952e-02,0.000000000000000000e+00
7.500000000000000000e+01,9.248039709538707909e-02,0.000000000000000000e+00
7.600000000000000000e+01,-1.780528103923464944e-01,0.000000000000000000e+00
7.700000000000000000e+01,1.883650057008973977e-01,0.000000000000000000e+00
7.800000000000000000e+01,5.228889568881141259e-02,0.000000000000000000e+00
7.900000000000000000e+01,3.038619223144733539e+00,0.000000000000000000e+00
8.000000000000000000e+01,5.764334788787571107e+00,0.000000000000000000e+00
8.100000000000000000e+01,1.643064205251343335e-01,1.000000000000000000e+00
8.200000000000000000e+01,-1.314794841001292847e+00,0.000000000000000000e+00
8.300000000000000000e+01,-1.398121798906404978e+00,0.000000000000000000e+00
8.400000000000000000e+01,-1.152181367479915952e+00,0.000000000000000000e+00
8.500000000000000000e+01,-1.123533681357720138e+00,0.000000000000000000e+00
8.600000000000000000e+01,-9.479283017597109895e-01,0.000000000000000000e+00
8.700000000000000000e+01,-8.422342291028478423e-01,0.000000000000000000e+00
8.800000000000000000e+01,-6.949094869784167017e-01,0.000000000000000000e+00
8.900000000000000000e+01,-5.303241373496974109e-01,0.000000000000000000e+00
9.000000000000000000e+01,-4.783418174844483728e-01,0.000000000000000000e+00
9.100000000000000000e+01,-4.170608938227546303e-01,0.000000000000000000e+00
9.200000000000000000e+01,-2.426217591573056331e-01,0.000000000000000000e+00
9.300000000000000000e+01,-1.279970644627525522e-01,0.000000000000000000e+00
9.400000000000000000e+01,1.340095705777288593e-01,0.000000000000000000e+00
9.500000000000000000e+01,2.358402195525154954e-01,0.000000000000000000e+00
9.600000000000000000e+01,1.980403716507013190e-01,0.000000000000000000e+00
9.700000000000000000e+01,2.249871270307119975e-01,0.000000000000000000e+00
9.800000000000000000e+01,-1.314801732333026052e-01,0.000000000000000000e+00
9.900000000000000000e+01,-2.617187752112651866e-01,0.000000000000000000e+00
1.000000000000000000e+02,-3.381783393699607787e-01,0.000000000000000000e+00
1.010000000000000000e+02,-2.646430076932603237e-01,0.000000000000000000e+00
1.020000000000000000e+02,-2.872124325846210913e-01,0.000000000000000000e+00
1.030000000000000000e+02,-1.879206678069778036e-01,0.000000000000000000e+00
1.040000000000000000e+02,-1.553005223038547711e-01,0.000000000000000000e+00
1.050000000000000000e+02,-1.934199813946782809e-01,0.000000000000000000e+00
1.060000000000000000e+02,6.126076911869639957e-03,0.000000000000000000e+00
1.070000000000000000e+02,-4.404797252270301749e-02,0.000000000000000000e+00
1.080000000000000000e+02,-5.887109756272341371e-03,0.000000000000000000e+00
1.090000000000000000e+02,1.048385299609931078e-02,0.000000000000000000e+00
1.100000000000000000e+02,2.387718226394287130e-02,0.000000000000000000e+00
1.110000000000000000e+02,5.353704603265186518e-02,0.000000000000000000e+00
1.120000000000000000e+02,1.906180515170242777e-03,0.000000000000000000e+00
1.130000000000000000e+02,5.210814412136521162e-02,0.000000000000000000e+00
1.140000000000000000e+02,2.240019843833816471e-01,0.000000000000000000e+00
1.150000000000000000e+02,1.319759079756551434e-01,0.000000000000000000e+00
1.160000000000000000e+02,2.190608707466408789e-01,0.000000000000000000e+00
1.170000000000000000e+02,1.923841945946442311e-01,0.000000000000000000e+00
1.180000000000000000e+02,3.136466840441997084e-01,0.000000000000000000e+00
1.190000000000000000e+02,3.890116043973064208e-01,0.000000000000000000e+00
1.200000000000000000e+02,3.656801403341351508e-01,0.000000000000000000e+00
1.210000000000000000e+02,-1.453754206722354322e-03,0.000000000000000000e+00
1.220000000000000000e+02,-7.231179366163646705e-02,0.000000000000000000e+00
1.230000000000000000e+02,-1.075395666284392482e-01,0.000000000000000000e+00
1.240000000000000000e+02,-2.430942155196191140e-03,0.000000000000000000e+00
1.250000000000000000e+02,3.701766879640578517e-02,0.000000000000000000e+00
1.260000000000000000e+02,1.796071910175372821e+00,0.000000000000000000e+00
1.270000000000000000e+02,5.474450064204613220e+00,0.000000000000000000e+00
1.280000000000000000e+02,8.942280372518359721e-01,1.000000000000000000e+00
1.290000000000000000e+02,-1.304413805961701422e+00,0.000000000000000000e+00
1.300000000000000000e+02,-1.274067958846843762e+00,0.000000000000000000e+00
1.310000000000000000e+02,-1.275970915127259575e+00,0.000000000000000000e+00
1.320000000000000000e+02,-1.095578565036616991e+00,0.000000000000000000e+00
1.330000000000000000e+02,-9.818736463946898807e-01,0.000000000000000000e+00
1.340000000000000000e+02,-8.165989449117385668e-01,0.000000000000000000e+00
1.350000000000000000e+02,-7.882658178406195537e-01,0.000000000000000000e+00
1.360000000000000000e+02,-5.552452192964697497e-01,0.000000000000000000e+00
1.370000000000000000e+02,-5.442142264204958835e-01,0.000000000000000000e+00
1.380000000000000000e+02,-3.618695682194556507e-01,0.000000000000000000e+00
1.390000000000000000e+02,-2.433174876640940287e-01,0.000000000000000000e+00
1.400000000000000000e+02,-5.428226845470510153e-02,0.000000000000000000e+00
1.410000000000000000e+02,1.158727505890938259e-01,0.000000000000000000e+00
1.420000000000000000e+02,2.036399175820343410e-01,0.000000000000000000e+00
1.430000000000000000e+02,2.407753774040918282e-01,0.000000000000000000e+00
1.440000000000000000e+02,3.205173468650056590e-01,0.000000000000000000e+00
1.450000000000000000e+02,-8.803563041378158205e-02,0.000000000000000000e+00
1.460000000000000000e+02,-2.314847236305307698e-01,0.000000000000000000e+00
1.470000000000000000e+02,-3.694967097359675989e-01,0.000000000000000000e+00
1.480000000000000000e+02,-3.633286599858698840e-01,0.000000000000000000e+00
1.490000000000000000e+02,-3.616694025018986625e-01,0.000000000000000000e+00
1.500000000000000000e+02,-2.436068145062013357e-01,0.000000000000000000e+00
1.510000000000000000e+02,-2.440939135857361775e-01,0.000000000000000000e+00
1.520000000000000000e+02,-1.418887203195816349e-01,0.000000000000000000e+00
1.530000000000000000e+02,-2.384101489881060298e-01,0.000000000000000000e+00
1.540000000000000000e+02,-1.123591036907120311e-01,0.000000000000000000e+00
1.550000000000000000e+02,-4.425185949600724672e-02,0.000000000000000000e+00
1.560000000000000000e+02,-3.336927681668315493e-02,0.000000000000000000e+00
1.570000000000000000e+02,3.427310737948707775e-02,0.000000000000000000e+00
1.580000000000000000e+02,-4.782627014074282423e-02,0.000000000000000000e+00
1.590000000000000000e+02,4.790402858964195459e-02,0.000000000000000000e+00
1.600000000000000000e+02,2.085031397138944684e-02,0.000000000000000000e+00
1.610000000000000000e+02,2.797368791201543248e-02,0.000000000000000000e+00
1.620000000000000000e+02,1.300893844810670774e-01,0.000000000000000000e+00
1.630000000000000000e+02,2.275356908449209514e-01,0.000000000000000000e+00
1.640000000000000000e+02,2.389049721573532348e-01,0.000000000000000000e+00
1.650000000000000000e+02,2.501183942861963660e-01,0.000000000000000000e+00
1.660000000000000000e+02,3.617804625798195506e-01,0.000000000000000000e+00
1.670000000000000000e+02,3.295203352190029800e-01,0.000000000000000000e+00
1.680000000000000000e+02,4.650394389551831126e-02,0.000000000000000000e+00
1.690000000000000000e+02,-1.671143087417156434e-02,0.000000000000000000e+00
1.700000000000000000e+02,4.918752705141445775e-02,0.000000000000000000e+00
1.710000000000000000e+02,-5.674908748370468409e-02,0.000000000000000000e+00
1.720000000000000000e+02,1.474164026578276832e-01,0.000000000000000000e+00
1.730000000000000000e+02,1.377239407927493664e+00,0.000000000000000000e+00
1.740000000000000000e+02,5.106910241546244400e+00,0.000000000000000000e+00
1.750000000000000000e+02,1.427103019880670232e+00,1.000000000000000000e+00
1.760000000000000000e+02,-1.236431601714041539e+00,0.000000000000000000e+00
1.770000000000000000e+02,-1.041393495719623141e+00,0.000000000000000000e+00
1.780000000000000000e+02,-1.101795093419902116e+00,0.000000000000000000e+00
1.790000000000000000e+02,-9.730848313747656464e-01,0.000000000000000000e+00
1.800000000000000000e+02,-8.809857085448243863e-01,0.000000000000000000e+00
1.810000000000000000e+02,-6.690349329769442743e-01,0.000000000000000000e+00
1.820000000000000000e+02,-6.743555290576376260e-01,0.000000000000000000e+00
1.830000000000000000e+02,-5.591834764843371941e-01,0.000000000000000000e+00
1.840000000000000000e+02,-3.983586774963043253e-01,0.000000000000000000e+00
1.850000000000000000e+02,-3.625504093215168311e-01,0.000000000000000000e+00
1.860000000000000000e+02,-1.608849190700902543e-01,0.000000000000000000e+00
1.870000000000000000e+02,-9.005531700137413276e-02,0.000000000000000000e+00
1.880000000000000000e+02,7.643007493706341360e-02,0.000000000000000000e+00
1.890000000000000000e+02,2.812746220744328229e-01,0.000000000000000000e+00
1.900000000000000000e+02,2.842448282971637430e-01,0.000000000000000000e+00
1.910000000000000000e+02,2.483951655397623193e-01,0.000000000000000000e+00
1.920000000000000000e+02,-5.507055271107057226e-03,0.000000000000000000e+00
1.930000000000000000e+02,-2.684153530925346698e-01,0.000000000000000000e+00
1.940000000000000000e+02,-3.570144667097590041e-01,0.000000000000000000e+00
1.950000000000000000e+02,-3.654636803460875605e-01,0.000000000000000000e+00
1.960000000000000000e+02,-2.531196703142036264e-01,0.000000000000000000e+00
1.970000000000000000e+02,-2.813542339338531151e-01,0.000000000000000000e+00
1.980000000000000000e+02,-1.958942459756244092e-01,0.000000000000000000e+00
1.990000000000000000e+02,-1.074767244590245918e-01,0.000000000000000000e+00
2.000000000000000000e+02,-1.467166004397565948e-01,0.000000000000000000e+00
2.010000000000000000e+02,-1.686139249164798903e-02,0.000000000000000000e+00
2.020000000000000000e+02,-1.168265125427874196e-01,0.000000000000000000e+00
2.030000000000000000e+02,3.632696486476755249e-02,0.000000000000000000e+00
2.040000000000000000e+02,2.150405356755842254e-02,0.000000000000000000e+00
2.050000000000000000e+02,3.892699537116132286e-03,0.000000000000000000e+00
2.060000000000000000e+02,8.893202599424512855e-03,0.000000000000000000e+00
2.070000000000000000e+02,1.337674760489336034e-01,0.000000000000000000e+00
2.080000000000000000e+02,9.569078291476630638e-02,0.000000000000000000e+00
2.090000000000000000e+02,1.799361592304589974e-01,0.000000000000000000e+00
2.100000000000000000e+02,8.606835720430745795e-02,0.000000000000000000e+00
2.110000000000000000e+02,3.004701764615329007e-01,0.000000000000000000e+00
2.120000000000000000e+02,1.892368878188131764e-01,0.000000000000000000e+00
2.130000000000000000e+02,4.397464238498963729e-01,0.000000000000000000e+00
2.140000000000000000e+02,2.835545797106415189e-01,0.000000000000000000e+00
2.150000000000000000e+02,3.217230370762249048e-01,0.000000000000000000e+00
2.160000000000000000e+02,-1.268835990422804427e-01,0.000000000000000000e+00
2.170000000000000000e+02,4.017318050249781003e-02,0.000000000000000000e+00
2.180000000000000000e+02,-1.889255095324644806e-01,0.000000000000000000e+00
2.190000000000000000e+02,2.377739264211123360e-01,0.000000000000000000e+00
2.200000000000000000e+02,2.876931876580571812e-01,0.000000000000000000e+00
2.210000000000000000e+02,4.267027728592524660e+00,0.000000000000000000e+00
2.220000000000000000e+02,3.850717048350992489e+00,0.000000000000000000e+00
2.230000000000000000e+02,-1.049959532632066539e+00,1.000000000000000000e+00
2.240000000000000000e+02,-9.733615202610964579e-01,0.000000000000000000e+00
2.250000000000000000e+02,-1.317156617166582278e+00,0.000000000000000000e+00
2.260000000000000000e+02,-9.512930693602130727e-01,0.000000000000000000e+00
2.270000000000000000e+02,-1.103648616561860418e+00,0.000000000000000000e+00
2.280000000000000000e+02,-7.212618995803773414e-01,0.000000000000000000e+00
2.290000000000000000e+02,-7.556421285100844987e-01,0.000000000000000000e+00
2.300000000000000000e+02,-5.144046027777295915e-01,0.000000000000000000e+00
2.310000000000000000e+02,-6.059050975390366522e-01,0.000000000000000000e+00
2.320000000000000000e+02,-3.565994150484255720e-01,0.000000000000000000e+00
2.330000000000000000e+02,-3.812484514645015921e-01,0.000000000000000000e+00
2.340000000000000000e+02,-1.128337223673102491e-01,0.000000000000000000e+00
2.350000000000000000e+02,-4.573330801339649948e-02,0.000000000000000000e+00
2.360000000000000000e+02,2.019261062401598028e-01,0.000000000000000000e+00
2.370000000000000000e+02,2.343679779449920342e-01,0.000000000000000000e+00
2.380000000000000000e+02,2.482271758939618433e-01,0.000000000000000000e+00
2.390000000000000000e+02,-2.578851890320338781e-03,0.000000000000000000e+00
2.400000000000000000e+02,-1.083472883553506100e-01,0.000000000000000000e+00
2.410000000000000000e+02,-4.556226996503309201e-01,0.000000000000000000e+00
2.420000000000000000e+02,-3.234717563044424149e-01,0.000000000000000000e+00
2.430000000000000000e+02,-3.246375997544628800e-01,0.000000000000000000e+00
2.440000000000000000e+02,-3.002692370007183364e-01,0.000000000000000000e+00
2.450000000000000000e+02,-2.565646141048451567e-01,0.000000000000000000e+00
2.460000000000000000e+02,-1.033654320090612727e-01,0.000000000000000000e+00
2.470000000000000000e+02,-1.637458421148992593e-01,0.000000000000000000e+00
2.480000000000000000e+02,-9.290414822471769474e-02,0.000000000000000000e+00
2.490000000000000000e+02,-1.347008471349723235e-01,0.000000000000000000e+00
2.500000000000000000e+02,1.059295122895661384e-01,0.000000000000000000e+00
2.510000000000000000e+02,-4.041517591743114951e-02,0.000000000000000000e+00
2.520000000000000000e+02,5.260029269194905349e-02,0.000000000000000000e+00
2.530000000000000000e+02,1.489079557569640555e-01,0.000000000000000000e+00
2.540000000000000000e+02,7.856991173695254682e-02,0.000000000000000000e+00
2.550000000000000000e+02,6.351522139492954411e-02,0.000000000000000000e+00
2.560000000000000000e+02,8.548884718419139106e-02,0.000000000000000000e+00
2.570000000000000000e+02,1.880140186356640541e-01,0.000000000000000000e+00
2.580000000000000000e+02,1.256019189578758966e-01,0.000000000000000000e+00
2.590000000000000000e+02,3.203226785963129708e-01,0.000000000000000000e+00
2.600000000000000000e+02,3.476019108910593514e-01,0.000000000000000000e+00
2.610000000000000000e+02,3.649213209377496492e-01,0.000000000000000000e+00
2.620000000000000000e+02,3.445507791109598261e-01,0.000000000000000000e+00
2.630000000000000000e+02,-3.252627012628959285e-02,0.000000000000000000e+00
2.640000000000000000e+02,-5.620585054794600965e-02,0.000000000000000000e+00
2.650000000000000000e+02,-5.134536220129695683e-02,0.000000000000000000e+00
2.660000000000000000e+02,-5.186787319303644284e-02,0.000000000000000000e+00
2.670000000000000000e+02,9.274591813479811375e-02,0.000000000000000000e+00
2.680000000000000000e+02,1.462876553436033067e+00,0.000000000000000000e+00
2.690000000000000000e+02,5.639173733235665509e+00,0.000000000000000000e+00
2.700000000000000000e+02,1.615502656412607596e+00,1.000000000000000000e+00
2.710000000000000000e+02,-1.468859048065971340e+00,0.000000000000000000e+00
2.720000000000000000e+02,-1.119484679225106305e+00,0.000000000000000000e+00
2.730000000000000000e+02,-1.413768838870612443e+00,0.000000000000000000e+00
2.740000000000000000e+02,-9.369486212396042069e-01,0.000000000000000000e+00
2.750000000000000000e+02,-1.143350356058649764e+00,0.000000000000000000e+00
2.760000000000000000e+02,-7.679831562618611995e-01,0.000000000000000000e+00
2.770000000000000000e+02,-7.870812526232942030e-01,0.000000000000000000e+00
2.780000000000000000e+02,-5.723940336768854609e-01,0.000000000000000000e+00
2.790000000000000000e+02,-6.208936249216301384e-01,0.000000000000000000e+00
2.800000000000000000e+02,-3.493948182386543699e-01,0.000000000000000000e+00
2.810000000000000000e+02,-3.674058051072232600e-01,0.000000000000000000e+00
2.820000000000000000e+02,-1.010425663341108088e-01,0.000000000000000000e+00
2.830000000000000000e+02,-2.494803555862584732e-02,0.000000000000000000e+00
2.840000000000000000e+02,3.076395328372723004e-01,0.000000000000000000e+00
2.850000000000000000e+02,1.716273633696973333e-01,0.000000000000000000e+00
2.860000000000000000e+02,2.729671671532672428e-01,0.000000000000000000e+00
2.870000000000000000e+02,-1.900607612365129706e-01,0.000000000000000000e+00
2.880000000000000000e+02,-2.055919932396658156e-01,0.000000000000000000e+00
2.890000000000000000e+02,-4.994392346767385082e-01,0.000000000000000000e+00
2.900000000000000000e+02,-2.185032083097726840e-01,0.000000000000000000e+00
2.910000000000000000e+02,-5.116648485170461891e-01,0.000000000000000000e+00
2.920000000000000000e+02,-1.210765654147101938e-01,0.000000000000000000e+00
2.930000000000000000e+02,-3.062748852834464852e-01,0.000000000000000000e+00
2.940000000000000000e+02,-1.268596132362967421e-01,0.000000000000000000e+00
2.950000000000000000e+02,-2.463481202212834953e-01,0.000000000000000000e+00
2.960000000000000000e+02,2.636620134740162366e-02,0.000000000000000000e+00
2.970000000000000000e+02,-1.442811395940322705e-01,0.000000000000000000e+00
2.980000000000000000e+02,6.827078762830680880e-02,0.000000000000000000e+00
2.990000000000000000e+02,-2.214737077976538376e-02,0.000000000000000000e+00
3.000000000000000000e+02,1.103353984402028615e-01,0.000000000000000000e+00
3.010000000000000000e+02,-4.576299791861193622e-02,0.000000000000000000e+00
3.020000000000000000e+02,1.380276611440301171e-01,0.000000000000000000e+00
3.030000000000000000e+02,6.349702567880943262e-03,0.000000000000000000e+00
3.040000000000000000e+02,2.161613371659380778e-01,0.000000000000000000e+00
3.050000000000000000e+02,9.964031018698979447e-02,0.000000000000000000e+00
3.060000000000000000e+02,5.045685774425548997e-01,0.000000000000000000e+00
3.070000000000000000e+02,2.289639933356494017e-01,0.000000000000000000e+00
3.080000000000000000e+02,5.199272744204067598e-01,0.000000000000000000e+00
3.090000000000000000e+02,4.139162660291573759e-01,0.000000000000000000e+00
3.100000000000000000e+02,3.119829319408466972e-01,0.000000000000000000e+00
3.110000000000000000e+02,-2.036717939450777559e-01,0.000000000000000000e+00
3.120000000000000000e+02,1.621932359386883404e-01,0.000000000000000000e+00
3.130000000000000000e+02,-1.454766181080491272e-01,0.000000000000000000e+00
3.140000000000000000e+02,3.124537385938622180e-01,0.000000000000000000e+00
3.150000000000000000e+02,1.633559699243458674e-01,0.000000000000000000e+00
3.160000000000000000e+02,4.109019293106464410e+00,0.000000000000000000e+00
3.170000000000000000e+02,4.847910033425923970e+00,0.000000000000000000e+00
3.180000000000000000e+02,-6.655448485943770143e-01,1.000000000000000000e+00
3.190000000000000000e+02,-1.276943616982887608e+00,0.000000000000000000e+00
3.200000000000000000e+02,-1.424633536929242883e+00,0.000000000000000000e+00
3.210000000000000000e+02,-1.135960144420800066e+00,0.000000000000000000e+00
3.220000000000000000e+02,-1.096633441575479706e+00,0.000000000000000000e+00
3.230000000000000000e+02,-8.800345474883590757e-01,0.000000000000000000e+00
3.240000000000000000e+02,-8.368585908507000237e-01,0.000000000000000000e+00
3.250000000000000000e+02,-6.910947259339390580e-01,0.000000000000000000e+00
3.260000000000000000e+02,-6.465351875049467623e-01,0.000000000000000000e+00
3.270000000000000000e+02,-4.013034738229112608e-01,0.000000000000000000e+00
3.280000000000000000e+02,-3.258601295555760280e-01,0.000000000000000000e+00
3.290000000000000000e+02,-1.862426734436842812e-01,0.000000000000000000e+00
3.300000000000000000e+02,-4.284790589198164690e-02,0.000000000000000000e+00
3.310000000000000000e+02,9.528251556746057671e-02,0.000000000000000000e+00
3.320000000000000000e+02,2.190023665062194869e-01,0.000000000000000000e+00
3.330000000000000000e+02,3.004652902334745690e-01,0.000000000000000000e+00
3.340000000000000000e+02,1.356620386633061726e-01,0.000000000000000000e+00
3.350000000000000000e+02,-2.307157862877227961e-01,0.000000000000000000e+00
3.360000000000000000e+02,-2.235877383089336645e-01,0.000000000000000000e+00
3.370000000000000000e+02,-4.303534671820349322e-01,0.000000000000000000e+00
3.380000000000000000e+02,-2.811701897023162200e-01,0.000000000000000000e+00
3.390000000000000000e+02,-3.725953443439582458e-01,0.000000000000000000e+00
3.400000000000000000e+02,-3.084485916381324855e-01,0.000000000000000000e+00
3.410000000000000000e+02,-2.668884213097487135e-01,0.000000000000000000e+00
3.420000000000000000e+02,-1.759124988221125729e-01,0.000000000000000000e+00
3.430000000000000000e+02,-2.014303136958079110e-01,0.000000000000000000e+00
3.440000000000000000e+02,-5.602050930719935234e-02,0.000000000000000000e+00
3.450000000000000000e+02,-8.419193271918694321e-02,0.000000000000000000e+00
3.460000000000000000e+02,-4.145521455554558587e-02,0.000000000000000000e+00
3.470000000000000000e+02,-8.735741661001744651e-02,0.000000000000000000e+00
3.480000000000000000e+02,1.343312648172279855e-01,0.000000000000000000e+00
3.490000000000000000e+02,-3.062138668690167140e-02,0.000000000000000000e+00
3.500000000000000000e+02,1.447523539462245157e-01,0.000000000000000000e+00
3.510000000000000000e+02,3.256698234876325565e-02,0.000000000000000000e+00
3.520000000000000000e+02,1.574137558040724083e-01,0.000000000000000000e+00
3.530000000000000000e+02,1.007278929821862207e-01,0.000000000000000000e+00
3.540000000000000000e+02,3.716706710861065188e-01,0.000000000000000000e+00
3.550000000000000000e+02,2.443460810781520332e-01,0.000000000000000000e+00
3.560000000000000000e+02,4.587788181065515225e-01,0.000000000000000000e+00
3.570000000000000000e+02,4.014291297632954780e-01,0.000000000000000000e+00
3.580000000000000000e+02,1.229595400587271264e-01,0.000000000000000000e+00
3.590000000000000000e+02,-2.007105781958857804e-01,0.000000000000000000e+00
3.600000000000000000e+02,-1.754567577026078587e-02,0.000000000000000000e+00
3.610000000000000000e+02,-2.414156025102611458e-01,0.000000000000000000e+00
3.620000000000000000e+02,2.187545732170323720e-01,0.000000000000000000e+00
3.630000000000000000e+02,1.150664365361731445e+00,0.000000000000000000e+00
3.640000000000000000e+02,5.806671460767322657e+00,0.000000000000000000e+00
3.650000000000000000e+02,2.473821960521862540e+00,1.000000000000000000e+00
3.660000000000000000e+02,-1.492617114844943638e+00,0.000000000000000000e+00
3.670000000000000000e+02,-1.335932415884653501e+00,0.000000000000000000e+00
3.680000000000000000e+02,-1.463113772673124258e+00,0.000000000000000000e+00
3.690000000000000000e+02,-1.019737208960145747e+00,0.000000000000000000e+00
3.700000000000000000e+02,-1.094032468925685508e+00,0.000000000000000000e+00
3.710000000000000000e+02,-7.930559672062224008e-01,0.000000000000000000e+00
3.720000000000000000e+02,-8.224903536865001419e-01,0.000000000000000000e+00
3.730000000000000000e+02,-6.523485784098386198e-01,0.000000000000000000e+00
3.740000000000000000e+02,-6.686531718723897066e-01,0.000000000000000000e+00
3.750000000000000000e+02,-3.064625350407890747e-01,0.000000000000000000e+00
3.760000000000000000e+02,-3.244037266518604579e-01,0.000000000000000000e+00
3.770000000000000000e+02,2.367568752347975342e-02,0.000000000000000000e+00
3.780000000000000000e+02,-1.142425678911233693e-02,0.000000000000000000e+00
3.790000000000000000e+02,2.306228499988549618e-01,0.000000000000000000e+00
3.800000000000000000e+02,2.678082603584955312e-01,0.000000000000000000e+00
3.810000000000000000e+02,3.199066833089360684e-01,0.000000000000000000e+00
3.820000000000000000e+02,-7.794872928492870001e-02,0.000000000000000000e+00
3.830000000000000000e+02,-1.737376605339410740e-01,0.000000000000000000e+00
3.840000000000000000e+02,-3.535044057558502928e-01,0.000000000000000000e+00
3.850000000000000000e+02,-3.701218721039166160e-01,0.000000000000000000e+00
3.860000000000000000e+02,-4.195886703269938733e-01,0.000000000000000000e+00
3.870000000000000000e+02,-1.953522585448256577e-01,0.000000000000000000e+00
3.880000000000000000e+02,-2.226154976423588561e-01,0.000000000000000000e+00
3.890000000000000000e+02,-3.243621185288659420e-02,0.000000000000000000e+00
3.900000000000000000e+02,-1.147025270917611112e-01,0.000000000000000000e+00
3.910000000000000000e+02,-9.215625725876391838e-02,0.000000000000000000e+00
3.920000000000000000e+02,-1.175197602440020694e-01,0.000000000000000000e+00
3.930000000000000000e+02,-3.870768981293261357e-02,0.000000000000000000e+00
3.940000000000000000e+02,-2.200867511053693562e-02,0.000000000000000000e+00
3.950000000000000000e+02,2.809186205072002757e-02,0.000000000000000000e+00
3.960000000000000000e+02,8.733187470551546927e-02,0.000000000000000000e+00
3.970000000000000000e+02,1.840229738458361297e-01,0.000000000000000000e+00
3.980000000000000000e+02,-1.203745891477650022e-02,0.000000000000000000e+00
3.990000000000000000e+02,1.594879400088453636e-01,0.000000000000000000e+00
4.000000000000000000e+02,1.334235095557161632e-01,0.000000000000000000e+00
4.010000000000000000e+02,3.522891317545457923e-01,0.000000000000000000e+00
4.020000000000000000e+02,2.970254302923698853e-01,0.000000000000000000e+00
4.030000000000000000e+02,5.283266620195523622e-01,0.000000000000000000e+00
4.040000000000000000e+02,3.529201685055040616e-01,0.000000000000000000e+00
4.050000000000000000e+02,1.386405074874959009e-01,0.000000000000000000e+00
4.060000000000000000e+02,-1.283261670762876339e-01,0.000000000000000000e+00
4.070000000000000000e+02,1.246700447098936411e-02,0.000000000000000000e+00
4.080000000000000000e+02,-1.205351146299744325e-01,0.000000000000000000e+00
4.090000000000000000e+02,2.932318153805534289e-01,0.000000000000000000e+00
4.100000000000000000e+02,9.068635949848566913e-01,0.000000000000000000e+00
4.110000000000000000e+02,5.143336738452777723e+00,0.000000000000000000e+00
4.120000000000000000e+02,2.214289453726266288e+00,1.000000000000000000e+00
4.130000000000000000e+02,-1.271775918135958472e+00,0.000000000000000000e+00
4.140000000000000000e+02,-1.079326443120383283e+00,0.000000000000000000e+00
4.150000000000000000e+02,-1.202164108674318443e+00,0.000000000000000000e+00
4.160000000000000000e+02,-8.469108866179916317e-01,0.000000000000000000e+00
4.170000000000000000e+02,-8.735760595741345336e-01,0.000000000000000000e+00
4.180000000000000000e+02,-6.285856393283647536e-01,0.000000000000000000e+00
4.190000000000000000e+02,-7.635770474147746123e-01,0.000000000000000000e+00
4.200000000000000000e+02,-5.268758822077999060e-01,0.000000000000000000e+00
4.210000000000000000e+02,-5.363455105805539080e-01,0.000000000000000000e+00
4.220000000000000000e+02,-2.261896557666518981e-01,0.000000000000000000e+00
4.230000000000000000e+02,-3.002312125856458347e-01,0.000000000000000000e+00
4.240000000000000000e+02,-7.634442803629183129e-03,0.000000000000000000e+00
4.250000000000000000e+02,4.792999900345941422e-02,0.000000000000000000e+00
4.260000000000000000e+02,2.150032678987554291e-01,0.000000000000000000e+00
4.270000000000000000e+02,3.153182849024038781e-01,0.000000000000000000e+00
4.280000000000000000e+02,3.869418951459517864e-01,0.000000000000000000e+00
4.290000000000000000e+02,-2.486918224811580924e-02,0.000000000000000000e+00
4.300000000000000000e+02,-2.643861062560055597e-01,0.000000000000000000e+00
4.310000000000000000e+02,-4.712242443742096776e-01,0.000000000000000000e+00
4.320000000000000000e+02,-3.490865503122490554e-01,0.000000000000000000e+00
4.330000000000000000e+02,-3.559846989017675933e-01,0.000000000000000000e+00
4.340000000000000000e+02,-2.847517913873717221e-01,0.000000000000000000e+00
4.350000000000000000e+02,-3.608271436034063417e-01,0.000000000000000000e+00
4.360000000000000000e+02,-1.187589510873685028e-01,0.000000000000000000e+00
4.370000000000000000e+02,-2.758318806719997629e-01,0.000000000000000000e+00
4.380000000000000000e+02,-2.652786616514663312e-02,0.000000000000000000e+00
4.390000000000000000e+02,-1.199905347539287764e-01,0.000000000000000000e+00
4.400000000000000000e+02,7.768135658593743574e-03,0.000000000000000000e+00
4.410000000000000000e+02,-7.857650345858616103e-02,0.000000000000000000e+00
4.420000000000000000e+02,5.298587705502940531e-02,0.000000000000000000e+00
4.430000000000000000e+02,5.489484226721370397e-04,0.000000000000000000e+00
4.440000000000000000e+02,1.124986280919524073e-01,0.000000000000000000e+00
4.450000000000000000e+02,-3.234385376880238860e-02,0.000000000000000000e+00
4.460000000000000000e+02,1.714888880356480738e-01,0.000000000000000000e+00
4.470000000000000000e+02,1.035364827900225465e-01,0.000000000000000000e+00
4.480000000000000000e+02,2.272309285707641013e-01,0.000000000000000000e+00
4.490000000000000000e+02,2.759393192865166600e-01,0.000000000000000000e+00
4.500000000000000000e+02,3.803509571747658580e-01,0.000000000000000000e+00
4.510000000000000000e+02,2.535903700575339870e-01,0.000000000000000000e+00
4.520000000000000000e+02,1.610392054024879782e-01,0.000000000000000000e+00
4.530000000000000000e+02,-1.050703073800294957e-01,0.000000000000000000e+00
4.540000000000000000e+02,1.201280438819168073e-01,0.000000000000000000e+00
4.550000000000000000e+02,-4.406789867271020816e-02,0.000000000000000000e+00
4.560000000000000000e+02,1.790976466247761467e-01,0.000000000000000000e+00
4.570000000000000000e+02,1.009005615619048779e+00,0.000000000000000000e+00
4.580000000000000000e+02,4.798055450538370792e+00,0.000000000000000000e+00
4.590000000000000000e+02,1.562997835911231981e+00,1.000000000000000000e+00
4.600000000000000000e+02,-1.217036200012432179e+00,0.000000000000000000e+00
4.610000000000000000e+02,-9.607175638916009008e-01,0.000000000000000000e+00
4.620000000000000000e+02,-1.154605673254935905e+00,0.000000000000000000e+00
4.630000000000000000e+02,-8.195956545496732026e-01,0.000000000000000000e+00
4.640000000000000000e+02,-8.511984805114839459e-01,0.000000000000000000e+00
4.650000000000000000e+02,-5.979891604063007904e-01,0.000000000000000000e+00
4.660000000000000000e+02,-6.793945977687791959e-01,0.000000000000000000e+00
4.670000000000000000e+02,-5.106269603962684256e-01,0.000000000000000000e+00
4.680000000000000000e+02,-4.602306197098027796e-01,0.000000000000000000e+00
4.690000000000000000e+02,-1.858595995950563795e-01,0.000000000000000000e+00
4.700000000000000000e+02,-2.525085707839051508e-01,0.000000000000000000e+00
4.710000000000000000e+02,-4.937223592622748403e-02,0.000000000000000000e+00
4.720000000000000000e+02,1.762461227273125555e-02,0.000000000000000000e+00
4.730000000000000000e+02,1.909453944632233946e-01,0.000000000000000000e+00
4.740000000000000000e+02,4.068529429368998307e-01,0.000000000000000000e+00
4.750000000000000000e+02,2.960144659733962014e-01,0.000000000000000000e+00
4.760000000000000000e+02,-7.247415444152449648e-02,0.000000000000000000e+00
4.770000000000000000e+02,-2.344497032885361765e-01,0.000000000000000000e+00
4.780000000000000000e+02,-4.489633090482840760e-01,0.000000000000000000e+00
4.790000000000000000e+02,-3.182034882780997997e-01,0.000000000000000000e+00
4.800000000000000000e+02,-4.119199915394219369e-01,0.000000000000000000e+00
4.810000000000000000e+02,-3.094107052636898558e-01,0.000000000000000000e+00
4.820000000000000000e+02,-2.397120283326490409e-01,0.000000000000000000e+00
4.830000000000000000e+02,-1.677123371647301908e-01,0.000000000000000000e+00
4.840000000000000000e+02,-7.311658572895347874e-02,0.000000000000000000e+00
4.850000000000000000e+02,-1.227321569499472687e-01,0.000000000000000000e+00
4.860000000000000000e+02,-8.660264349487224733e-02,0.000000000000000000e+00
4.870000000000000000e+02,-7.894249222786096920e-02,0.000000000000000000e+00
4.880000000000000000e+02,-1.967809257945622378e-02,0.000000000000000000e+00
4.890000000000000000e+02,1.658830506736345273e-02,0.000000000000000000e+00
4.900000000000000000e+02,1.396548658039501178e-01,0.000000000000000000e+00
4.910000000000000000e+02,9.872937958862450236e-02,0.000000000000000000e+00
4.920000000000000000e+02,4.695078470067935023e-02,0.000000000000000000e+00
4.930000000000000000e+02,9.611409624161516840e-02,0.000000000000000000e+00
4.940000000000000000e+02,5.302637257963571660e-02,0.000000000000000000e+00
4.950000000000000000e+02,2.467626398846972380e-01,0.000000000000000000e+00
4.960000000000000000e+02,2.759491684722994997e-01,0.000000000000000000e+00
4.970000000000000000e+02,3.970844326761662768e-01,0.000000000000000000e+00
4.980000000000000000e+02,3.493747090288629731e-01,0.000000000000000000e+00
4.990000000000000000e+02,1.175306069122395713e-01,0.000000000000000000e+00
5.000000000000000000e+02,-1.117401708034026081e-01,0.000000000000000000e+00
5.010000000000000000e+02,5.709579631216661622e-02,0.000000000000000000e+00
5.020000000000000000e+02,-1.820634424208137647e-01,0.000000000000000000e+00
5.030000000000000000e+02,2.205700048706420446e-01,0.000000000000000000e+00
5.040000000000000000e+02,9.241371714178789887e-01,0.000000000000000000e+00
5.050000000000000000e+02,5.143034437961162553e+00,0.000000000000000000e+00
5.060000000000000000e+02,1.993203513944719285e+00,1.000000000000000000e+00
5.070000000000000000e+02,-1.341648557269373487e+00,0.000000000000000000e+00
5.080000000000000000e+02,-1.027264386794804807e+00,0.000000000000000000e+00
5.090000000000000000e+02,-1.339088845900618052e+00,0.000000000000000000e+00
5.100000000000000000e+02,-8.635380498149206607e-01,0.000000000000000000e+00
5.110000000000000000e+02,-9.683704490281002109e-01,0.000000000000000000e+00
5.120000000000000000e+02,-6.131647608034903607e-01,0.000000000000000000e+00
5.130000000000000000e+02,-6.371529891075011776e-01,0.000000000000000000e+00
5.140000000000000000e+02,-4.551036760082801669e-01,0.000000000000000000e+00
5.150000000000000000e+02,-4.413963851766697921e-01,0.000000000000000000e+00
5.160000000000000000e+02,-2.802651525413391576e-01,0.000000000000000000e+00
5.170000000000000000e+02,-3.326985126544497184e-01,0.000000000000000000e+00
5.180000000000000000e+02,4.868548886787888233e-03,0.000000000000000000e+00
5.190000000000000000e+02,3.925418471654969904e-02,0.000000000000000000e+00
5.200000000000000000e+02,3.341494557508996599e-01,0.000000000000000000e+00
5.210000000000000000e+02,3.224505559158378221e-01,0.000000000000000000e+00
5.220000000000000000e+02,3.478661163804125933e-01,0.000000000000000000e+00
5.230000000000000000e+02,-4.099413473831994142e-02,0.000000000000000000e+00
5.240000000000000000e+02,-1.781443158422260920e-01,0.000000000000000000e+00
5.250000000000000000e+02,-5.055151694416329944e-01,0.000000000000000000e+00
5.260000000000000000e+02,-3.022554430521202096e-01,0.000000000000000000e+00
5.270000000000000000e+02,-3.789795796337362965e-01,0.000000000000000000e+00
5.280000000000000000e+02,-2.597165347835047600e-01,0.000000000000000000e+00
5.290000000000000000e+02,-2.292106240927270222e-01,0.000000000000000000e+00
5.300000000000000000e+02,-2.037622317193795718e-01,0.000000000000000000e+00
5.310000000000000000e+02,-2.432130351345465069e-01,0.000000000000000000e+00
5.320000000000000000e+02,-6.239257651256274739e-02,0.000000000000000000e+00
5.330000000000000000e+02,-1.365836599912277627e-01,0.000000000000000000e+00
5.340000000000000000e+02,-4.197405375847658437e-02,0.000000000000000000e+00
5.350000000000000000e+02,4.825473938176046140e-02,0.000000000000000000e+00
5.360000000000000000e+02,4.690624672750556140e-02,0.000000000000000000e+00
5.370000000000000000e+02,-4.389683455865426437e-02,0.000000000000000000e+00
5.380000000000000000e+02,4.617135806735717107e-02,0.000000000000000000e+00
5.390000000000000000e+02,6.933078616931367955e-02,0.000000000000000000e+00
5.400000000000000000e+02,1.019148068625601866e-01,0.000000000000000000e+00
5.410000000000000000e+02,1.555698664922005314e-01,0.000000000000000000e+00
5.420000000000000000e+02,3.147877374195261480e-01,0.000000000000000000e+00
5.430000000000000000e+02,1.777426749536593908e-01,0.000000000000000000e+00
5.440000000000000000e+02,3.918773324042437167e-01,0.000000000000000000e+00
5.450000000000000000e+02,3.069583162747900329e-01,0.000000000000000000e+00
5.460000000000000000e+02,1.246546468750739378e-01,0.000000000000000000e+00
5.470000000000000000e+02,-1.777737088802063825e-01,0.000000000000000000e+00
5.480000000000000000e+02,1.548889635262698516e-01,0.000000000000000000e+00
5.490000000000000000e+02,-2.646007078876908003e-01,0.000000000000000000e+00
5.500000000000000000e+02,2.038866328174129272e-01,0.000000000000000000e+00
5.510000000000000000e+02,6.274332657656876977e-01,0.000000000000000000e+00
5.520000000000000000e+02,5.099312918660905858e+00,0.000000000000000000e+00
5.530000000000000000e+02,2.906321730228070166e+00,1.000000000000000000e+00
5.540000000000000000e+02,-1.332442479722268036e+00,0.000000000000000000e+00
5.550000000000000000e+02,-1.077008599851549731e+00,0.000000000000000000e+00
5.560000000000000000e+02,-1.387989369466610778e+00,0.000000000000000000e+00
5.570000000000000000e+02,-9.681870880716024752e-01,0.000000000000000000e+00
5.580000000000000000e+02,-1.135203337566957904e+00,0.000000000000000000e+00
5.590000000000000000e+02,-7.102594250421209177e-01,0.000000000000000000e+00
5.600000000000000000e+02,-8.673538997874349343e-01,0.000000000000000000e+00
5.610000000000000000e+02,-5.589398577604756113e-01,0.000000000000000000e+00
5.620000000000000000e+02,-5.233074246902081894e-01,0.000000000000000000e+00
5.630000000000000000e+02,-3.866063211003379907e-01,0.000000000000000000e+00
5.640000000000000000e+02,-3.617360141440215671e-01,0.000000000000000000e+00
5.650000000000000000e+02,-7.592563584767558771e-02,0.000000000000000000e+00
5.660000000000000000e+02,9.195821968816240630e-03,0.000000000000000000e+00
5.670000000000000000e+02,2.162560540260258790e-01,0.000000000000000000e+00
5.680000000000000000e+02,3.212500851262182766e-01,0.000000000000000000e+00
5.690000000000000000e+02,2.695062055114299526e-01,0.000000000000000000e+00
5.700000000000000000e+02,-3.228384000514130520e-02,0.000000000000000000e+00
5.710000000000000000e+02,-2.073832195580917748e-01,0.000000000000000000e+00
5.720000000000000000e+02,-4.671965018078315102e-01,0.000000000000000000e+00
5.730000000000000000e+02,-3.386958186772430768e-01,0.000000000000000000e+00
5.740000000000000000e+02,-2.266642839587558744e-01,0.000000000000000000e+00
5.750000000000000000e+02,-3.216763544987008006e-01,0.000000000000000000e+00
5.760000000000000000e+02,-2.117153798099569162e-01,0.000000000000000000e+00
5.770000000000000000e+02,-1.012872797398040731e-01,0.000000000000000000e+00
5.780000000000000000e+02,-2.428656675584232594e-01,0.000000000000000000e+00
5.790000000000000000e+02,-1.035175317965642827e-01,0.000000000000000000e+00
5.800000000000000000e+02,-1.158751840151688306e-01,0.000000000000000000e+00
5.810000000000000000e+02,8.560007734572754046e-02,0.000000000000000000e+00
5.820000000000000000e+02,-3.021922253704931519e-02,0.000000000000000000e+00
5.830000000000000000e+02,8.774234397492822191e-02,0.000000000000000000e+00
5.840000000000000000e+02,-2.971020793868816776e-02,0.000000000000000000e+00
5.850000000000000000e+02,3.586380103524141466e-02,0.000000000000000000e+00
5.860000000000000000e+02,4.009166606717346620e-02,0.000000000000000000e+00
5.870000000000000000e+02,2.643816488200915193e-01,0.000000000000000000e+00
5.880000000000000000e+02,1.704615857783412236e-01,0.000000000000000000e+00
5.890000000000000000e+02,3.989205967217516746e-01,0.000000000000000000e+00
5.900000000000000000e+02,2.801259858413655546e-01,0.000000000000000000e+00
5.910000000000000000e+02,4.191138434025917237e-01,0.000000000000000000e+00
5.920000000000000000e+02,3.290806170467192593e-01,0.000000000000000000e+00
5.930000000000000000e+02,2.309203839385693957e-01,0.000000000000000000e+00
5.940000000000000000e+02,-1.092988771185330887e-01,0.000000000000000000e+00
5.950000000000000000e+02,6.350217579471693907e-02,0.000000000000000000e+00
5.960000000000000000e+02,-2.196989829557707274e-01,0.000000000000000000e+00
5.970000000000000000e+02,2.258319795785459216e-01,0.000000000000000000e+00
5.980000000000000000e+02,4.407854235905884210e-01,0.000000000000000000e+00
5.990000000000000000e+02,4.852417173238494641e+00,0.000000000000000000e+00
6.000000000000000000e+02,3.795711858423025831e+00,0.000000000000000000e+00
6.010000000000000000e+02,-1.173598102783579566e+00,1.000000000000000000e+00
6.020000000000000000e+02,-1.100508175962350066e+00,0.000000000000000000e+00
6.030000000000000000e+02,-1.420875597232787113e+00,0.000000000000000000e+00
6.040000000000000000e+02,-1.059983424704455057e+00,0.000000000000000000e+00
6.050000000000000000e+02,-1.026044738963495684e+00,0.000000000000000000e+00
6.060000000000000000e+02,-7.703726508466025580e-01,0.000000000000000000e+00
6.070000000000000000e+02,-8.245853559499397578e-01,0.000000000000000000e+00
6.080000000000000000e+02,-6.778248218916453904e-01,0.000000000000000000e+00
6.090000000000000000e+02,-6.561286089971242186e-01,0.000000000000000000e+00
6.100000000000000000e+02,-3.358459828833497141e-01,0.000000000000000000e+00
6.110000000000000000e+02,-3.556157409166065264e-01,0.000000000000000000e+00
6.120000000000000000e+02,-1.038980395661385087e-01,0.000000000000000000e+00
6.130000000000000000e+02,-1.568463170888756419e-02,0.000000000000000000e+00
6.140000000000000000e+02,2.432562092246602914e-01,0.000000000000000000e+00
6.150000000000000000e+02,2.162085544274638393e-01,0.000000000000000000e+00
6.160000000000000000e+02,3.194763369323133650e-01,0.000000000000000000e+00
6.170000000000000000e+02,3.412799587030068693e-02,0.000000000000000000e+00
6.180000000000000000e+02,-6.086600498718580665e-02,0.000000000000000000e+00
6.190000000000000000e+02,-3.872744697298824978e-01,0.000000000000000000e+00
6.200000000000000000e+02,-3.349745359581862147e-01,0.000000000000000000e+00
6.210000000000000000e+02,-4.310288931371188403e-01,0.000000000000000000e+00
6.220000000000000000e+02,-2.546470406451011304e-01,0.000000000000000000e+00
6.230000000000000000e+02,-2.840435620781397441e-01,0.000000000000000000e+00
6.240000000000000000e+02,-1.962586850539467798e-01,0.000000000000000000e+00
6.250000000000000000e+02,-1.989343980562904013e-01,0.000000000000000000e+00
6.260000000000000000e+02,9.936501913554975085e-03,0.000000000000000000e+00
6.270000000000000000e+02,-1.502395057392514055e-01,0.000000000000000000e+00
6.280000000000000000e+02,7.262302519230197373e-02,0.000000000000000000e+00
6.290000000000000000e+02,-4.759407168700961754e-02,0.000000000000000000e+00
6.300000000000000000e+02,1.327144403517866167e-01,0.000000000000000000e+00
6.310000000000000000e+02,7.427068831383892844e-02,0.000000000000000000e+00
6.320000000000000000e+02,1.673263893825243931e-01,0.000000000000000000e+00
6.330000000000000000e+02,3.651920441221143815e-02,0.000000000000000000e+00
6.340000000000000000e+02,2.182133065817685458e-01,0.000000000000000000e+00
6.350000000000000000e+02,1.346724254362482998e-01,0.000000000000000000e+00
6.360000000000000000e+02,2.989235287091861482e-01,0.000000000000000000e+00
6.370000000000000000e+02,2.841792092595952779e-01,0.000000000000000000e+00
6.380000000000000000e+02,4.300450248924101992e-01,0.000000000000000000e+00
6.390000000000000000e+02,3.568141501988432718e-01,0.000000000000000000e+00
6.400000000000000000e+02,3.686467364000051150e-01,0.000000000000000000e+00
6.410000000000000000e+02,-1.346720339847420622e-01,0.000000000000000000e+00
6.420000000000000000e+02,9.195204527478140211e-02,0.000000000000000000e+00
6.430000000000000000e+02,-3.032404026363993976e-01,0.000000000000000000e+00
6.440000000000000000e+02,1.759917746749839473e-01,0.000000000000000000e+00
6.450000000000000000e+02,1.633250424931388944e-01,0.000000000000000000e+00
6.460000000000000000e+02,4.113910944268668324e+00,0.000000000000000000e+00
6.470000000000000000e+02,4.834514482197713292e+00,0.000000000000000000e+00
6.480000000000000000e+02,-6.916881994353596408e-01,1.000000000000000000e+00
6.490000000000000000e+02,-1.234592868328003190e+00,0.000000000000000000e+00
6.500000000000000000e+02,-1.558156593327284067e+00,0.000000000000000000e+00
6.510000000000000000e+02,-1.179481560984638522e+00,0.000000000000000000e+00
6.520000000000000000e+02,-1.266868225274826010e+00,0.000000000000000000e+00
6.530000000000000000e+02,-7.772951614643393015e-01,0.000000000000000000e+00
6.540000000000000000e+02,-9.203590503970037195e-01,0.000000000000000000e+00
6.550000000000000000e+02,-6.129580036546751209e-01,0.000000000000000000e+00
6.560000000000000000e+02,-6.958085879967730314e-01,0.000000000000000000e+00
6.570000000000000000e+02,-5.564048581605571808e-01,0.000000000000000000e+00
6.580000000000000000e+02,-3.154348124822584087e-01,0.000000000000000000e+00
6.590000000000000000e+02,-2.100583649632010441e-01,0.000000000000000000e+00
6.600000000000000000e+02,7.106290771901438430e-02,0.000000000000000000e+00
6.610000000000000000e+02,2.353928008253017568e-01,0.000000000000000000e+00
6.620000000000000000e+02,2.538196784593804156e-01,0.000000000000000000e+00
6.630000000000000000e+02,2.841624406031760808e-01,0.000000000000000000e+00
6.640000000000000000e+02,8.715269201189497494e-02,0.000000000000000000e+00
6.650000000000000000e+02,-1.682614151189479323e-01,0.000000000000000000e+00
6.660000000000000000e+02,-2.622276844473163115e-01,0.000000000000000000e+00
6.670000000000000000e+02,-3.359522026576851061e-01,0.000000000000000000e+00
6.680000000000000000e+02,-3.452882356868584579e-01,0.000000000000000000e+00
6.690000000000000000e+02,-1.936029186893158671e-01,0.000000000000000000e+00
6.700000000000000000e+02,-3.162316618429559245e-01,0.000000000000000000e+00
6.710000000000000000e+02,-2.010978928047452430e-01,0.000000000000000000e+00
6.720000000000000000e+02,-1.678514454510781351e-01,0.000000000000000000e+00
6.730000000000000000e+02,-1.230798858830499110e-01,0.000000000000000000e+00
6.740000000000000000e+02,-4.756796276313942501e-02,0.000000000000000000e+00
6.750000000000000000e+02,-4.303840643376999342e-02,0.000000000000000000e+00
6.760000000000000000e+02,-4.547224885864226476e-03,0.000000000000000000e+00
6.770000000000000000e+02,4.732421376358056375e-02,0.000000000000000000e+00
6.780000000000000000e+02,1.940470269317951663e-02,0.000000000000000000e+00
6.790000000000000000e+02,2.144383395044287960e-02,0.000000000000000000e+00
6.800000000000000000e+02,1.034830911522009178e-01,0.000000000000000000e+00
6.810000000000000000e+02,6.435511298056727225e-02,0.000000000000000000e+00
6.820000000000000000e+02,2.385439000027909928e-01,0.000000000000000000e+00
6.830000000000000000e+02,2.657853451292538360e-01,0.000000000000000000e+00
6.840000000000000000e+02,2.476555973667399491e-01,0.000000000000000000e+00
6.850000000000000000e+02,2.713790441143101306e-01,0.000000000000000000e+00
6.860000000000000000e+02,3.893126760655353236e-01,0.000000000000000000e+00
6.870000000000000000e+02,4.024063064745093121e-01,0.000000000000000000e+00
6.880000000000000000e+02,-1.679672908865871908e-02,0.000000000000000000e+00
6.890000000000000000e+02,-9.660296832619891944e-03,0.000000000000000000e+00
6.900000000000000000e+02,-1.413428401355232289e-01,0.000000000000000000e+00
6.910000000000000000e+02,5.127353997767068738e-02,0.000000000000000000e+00
6.920000000000000000e+02,2.857795373159252583e-02,0.000000000000000000e+00
6.930000000000000000e+02,2.471674002307385987e+00,0.000000000000000000e+00
6.940000000000000000e+02,5.906871786658149936e+00,0.000000000000000000e+00
6.950000000000000000e+02,5.240926907284947367e-01,1.000000000000000000e+00
6.960000000000000000e+02,-1.353277958585980656e+00,0.000000000000000000e+00
6.970000000000000000e+02,-1.358641357497751834e+00,0.000000000000000000e+00
6.980000000000000000e+02,-1.258180630684861301e+00,0.000000000000000000e+00
6.990000000000000000e+02,-1.140372824092429127e+00,0.000000000000000000e+00
7.000000000000000000e+02,-1.021516007575904661e+00,0.000000000000000000e+00
7.010000000000000000e+02,-9.093317704689957148e-01,0.000000000000000000e+00
7.020000000000000000e+02,-7.643399006671820484e-01,0.000000000000000000e+00
7.030000000000000000e+02,-5.577794598346479393e-01,0.000000000000000000e+00
7.040000000000000000e+02,-5.317261581212999744e-01,0.000000000000000000e+00
7.050000000000000000e+02,-4.129738378931495091e-01,0.000000000000000000e+00
7.060000000000000000e+02,-3.310160924677925665e-01,0.000000000000000000e+00
7.070000000000000000e+02,-1.892213718490811381e-01,0.000000000000000000e+00
7.080000000000000000e+02,1.088325434981088913e-01,0.000000000000000000e+00
7.090000000000000000e+02,2.046509074743838585e-01,0.000000000000000000e+00
7.100000000000000000e+02,2.598720370255211964e-01,0.000000000000000000e+00
7.110000000000000000e+02,1.552408062938035460e-01,0.000000000000000000e+00
7.120000000000000000e+02,-1.069928576324742364e-01,0.000000000000000000e+00
7.130000000000000000e+02,-3.391782107242320432e-01,0.000000000000000000e+00
7.140000000000000000e+02,-3.540532338721706362e-01,0.000000000000000000e+00
7.150000000000000000e+02,-4.100916994564571261e-01,0.000000000000000000e+00
7.160000000000000000e+02,-2.847681914160239414e-01,0.000000000000000000e+00
7.170000000000000000e+02,-2.786202041471225743e-01,0.000000000000000000e+00
7.180000000000000000e+02,-2.196394563429558688e-01,0.000000000000000000e+00
7.190000000000000000e+02,-1.726889775035756469e-01,0.000000000000000000e+00
7.200000000000000000e+02,-1.457921237983304634e-02,0.000000000000000000e+00
7.210000000000000000e+02,-9.477444950657636091e-02,0.000000000000000000e+00
7.220000000000000000e+02,-6.816176486096392484e-02,0.000000000000000000e+00
7.230000000000000000e+02,-8.572355105569019751e-02,0.000000000000000000e+00
7.240000000000000000e+02,3.404416127445008405e-02,0.000000000000000000e+00
7.250000000000000000e+02,4.726626599694996184e-02,0.000000000000000000e+00
7.260000000000000000e+02,9.111266821919879189e-02,0.000000000000000000e+00
7.270000000000000000e+02,4.659317601869997910e-02,0.000000000000000000e+00
7.280000000000000000e+02,1.060112132086631492e-01,0.000000000000000000e+00
7.290000000000000000e+02,1.735385249896026771e-01,0.000000000000000000e+00
7.300000000000000000e+02,2.906649271554967995e-01,0.000000000000000000e+00
7.310000000000000000e+02,3.235426538914031869e-01,0.000000000000000000e+00
7.320000000000000000e+02,2.796413682649032673e-01,0.000000000000000000e+00
7.330000000000000000e+02,3.740362532336666823e-01,0.000000000000000000e+00
7.340000000000000000e+02,2.770811189168095878e-01,0.000000000000000000e+00
7.350000000000000000e+02,-8.570036727956380218e-02,0.000000000000000000e+00
7.360000000000000000e+02,5.700306838162359085e-02,0.000000000000000000e+00
7.370000000000000000e+02,-1.413326160222608263e-01,0.000000000000000000e+00
7.380000000000000000e+02,7.739726463161065995e-02,0.000000000000000000e+00
7.390000000000000000e+02,4.914132867196480126e-02,0.000000000000000000e+00
7.400000000000000000e+02,2.211585251070125047e+00,0.000000000000000000e+00
7.410000000000000000e+02,5.329480948102784943e+00,0.000000000000000000e+00
7.420000000000000000e+02,3.774543553464001500e-01,1.000000000000000000e+00
7.430000000000000000e+02,-1.240770607192601016e+00,0.000000000000000000e+00
7.440000000000000000e+02,-1.161409939094060650e+00,0.000000000000000000e+00
7.450000000000000000e+02,-9.812422057351249949e-01,0.000000000000000000e+00
7.460000000000000000e+02,-9.716432245331745321e-01,0.000000000000000000e+00
7.470000000000000000e+02,-7.844746115329183089e-01,0.000000000000000000e+00
7.480000000000000000e+02,-7.158102960915216917e-01,0.000000000000000000e+00
7.490000000000000000e+02,-5.671834034862138774e-01,0.000000000000000000e+00
7.500000000000000000e+02,-4.840987375868419651e-01,0.000000000000000000e+00
7.510000000000000000e+02,-4.647878103386701154e-01,0.000000000000000000e+00
7.520000000000000000e+02,-2.001038094787541688e-01,0.000000000000000000e+00
7.530000000000000000e+02,-1.476807784228776066e-01,0.000000000000000000e+00
7.540000000000000000e+02,3.931372329329100440e-02,0.000000000000000000e+00
7.550000000000000000e+02,1.812285430059501212e-01,0.000000000000000000e+00
7.560000000000000000e+02,3.092985247222377887e-01,0.000000000000000000e+00
7.570000000000000000e+02,3.748618026262214298e-01,0.000000000000000000e+00
7.580000000000000000e+02,2.979371848233841602e-01,0.000000000000000000e+00
7.590000000000000000e+02,-1.676626118925350351e-01,0.000000000000000000e+00
7.600000000000000000e+02,-2.525558462534011062e-01,0.000000000000000000e+00
7.610000000000000000e+02,-3.953205325700233641e-01,0.000000000000000000e+00
7.620000000000000000e+02,-4.480957498332429068e-01,0.000000000000000000e+00
7.630000000000000000e+02,-3.479522704663482457e-01,0.000000000000000000e+00
7.640000000000000000e+02,-3.225211836444346614e-01,0.000000000000000000e+00
7.650000000000000000e+02,-1.747766156573898888e-01,0.000000000000000000e+00
7.660000000000000000e+02,-2.470858264228520396e-01,0.000000000000000000e+00
7.670000000000000000e+02,-1.829422139386803481e-01,0.000000000000000000e+00
7.680000000000000000e+02,-6.166007184806068103e-02,0.000000000000000000e+00
7.690000000000000000e+02,-8.046715692085078253e-02,0.000000000000000000e+00
7.700000000000000000e+02,-5.906446274798029909e-03,0.000000000000000000e+00
7.710000000000000000e+02,-5.659337145877603448e-02,0.000000000000000000e+00
7.720000000000000000e+02,1.083737627647874124e-01,0.000000000000000000e+00
7.730000000000000000e+02,-3.785884621832703856e-02,0.000000000000000000e+00
7.740000000000000000e+02,1.327785296064166176e-01,0.000000000000000000e+00
7.750000000000000000e+02,7.456978194554968187e-02,0.000000000000000000e+00
7.760000000000000000e+02,1.474763342943612165e-01,0.000000000000000000e+00
7.770000000000000000e+02,7.796195318311623101e-02,0.000000000000000000e+00
7.780000000000000000e+02,3.077483520346118162e-01,0.000000000000000000e+00
7.790000000000000000e+02,2.170418290027840424e-01,0.000000000000000000e+00
7.800000000000000000e+02,3.275408084867887371e-01,0.000000000000000000e+00
7.810000000000000000e+02,3.667764585864453086e-01,0.000000000000000000e+00
7.820000000000000000e+02,3.578734737717929187e-02,0.000000000000000000e+00
7.830000000000000000e+02,-9.882893465628456164e-02,0.000000000000000000e+00
7.840000000000000000e+02,7.094934009321814117e-02,0.000000000000000000e+00
7.850000000000000000e+02,-9.171246140880108533e-02,0.000000000000000000e+00
7.860000000000000000e+02,1.924252824364302283e-01,0.000000000000000000e+00
7.870000000000000000e+02,1.249471818976380044e+00,0.000000000000000000e+00
7.880000000000000000e+02,5.019821874558578756e+00,0.000000000000000000e+00
7.890000000000000000e+02,1.136796755796690261e+00,1.000000000000000000e+00
7.900000000000000000e+02,-1.185686751463264521e+00,0.000000000000000000e+00
7.910000000000000000e+02,-9.904407898996357984e-01,0.000000000000000000e+00
7.920000000000000000e+02,-1.129962735593405432e+00,0.000000000000000000e+00
7.930000000000000000e+02,-8.156624455875031154e-01,0.000000000000000000e+00
7.940000000000000000e+02,-8.562689667714034059e-01,0.000000000000000000e+00
7.950000000000000000e+02,-6.635769731904369584e-01,0.000000000000000000e+00
7.960000000000000000e+02,-5.854509049688724209e-01,0.000000000000000000e+00
7.970000000000000000e+02,-4.550541308311407684e-01,0.000000000000000000e+00
7.980000000000000000e+02,-3.981096198142977660e-01,0.000000000000000000e+00
7.990000000000000000e+02,-2.922867793718713636e-01,0.000000000000000000e+00
8.000000000000000000e+02,-2.270850462462182251e-01,0.000000000000000000e+00
8.010000000000000000e+02,4.389873727303669412e-03,0.000000000000000000e+00
8.020000000000000000e+02,8.121463643812402988e-02,0.000000000000000000e+00
8.030000000000000000e+02,3.474784546314438893e-01,0.000000000000000000e+00
8.040000000000000000e+02,3.142197004207569755e-01,0.000000000000000000e+00
8.050000000000000000e+02,2.943934823746396923e-01,0.000000000000000000e+00
8.060000000000000000e+02,-6.477036475106780211e-02,0.000000000000000000e+00
8.070000000000000000e+02,-2.725224834029513210e-01,0.000000000000000000e+00
8.080000000000000000e+02,-3.982701833692493532e-01,0.000000000000000000e+00
8.090000000000000000e+02,-3.467305577804125072e-01,0.000000000000000000e+00
8.100000000000000000e+02,-3.453742765743447740e-01,0.000000000000000000e+00
8.110000000000000000e+02,-3.064948784265658643e-01,0.000000000000000000e+00
8.120000000000000000e+02,-3.373254566032025115e-01,0.000000000000000000e+00
8.130000000000000000e+02,-1.000290799776831219e-01,0.000000000000000000e+00
8.140000000000000000e+02,-2.622907892398058660e-01,0.000000000000000000e+00
8.150000000000000000e+02,-5.473395183677149528e-02,0.000000000000000000e+00
8.160000000000000000e+02,-1.849513891959862766e-01,0.000000000000000000e+00
8.170000000000000000e+02,-5.818154479067053075e-02,0.000000000000000000e+00
8.180000000000000000e+02,5.434225422228326080e-02,0.000000000000000000e+00
8.190000000000000000e+02,-8.131119377441435592e-02,0.000000000000000000e+00
8.200000000000000000e+02,8.583553931279568061e-02,0.000000000000000000e+00
8.210000000000000000e+02,-1.177111899900639899e-03,0.000000000000000000e+00
8.220000000000000000e+02,5.317875095263766005e-02,0.000000000000000000e+00
8.230000000000000000e+02,1.402920837612499916e-01,0.000000000000000000e+00
8.240000000000000000e+02,8.147620622599680007e-02,0.000000000000000000e+00
8.250000000000000000e+02,3.374383550550464350e-01,0.000000000000000000e+00
8.260000000000000000e+02,2.396637857528652882e-01,0.000000000000000000e+00
8.270000000000000000e+02,3.410653653559071463e-01,0.000000000000000000e+00
8.280000000000000000e+02,3.014920498538722904e-01,0.000000000000000000e+00
8.290000000000000000e+02,2.661926870791331279e-01,0.000000000000000000e+00
8.300000000000000000e+02,-1.604990406999616259e-01,0.000000000000000000e+00
8.310000000000000000e+02,7.288199447231097361e-02,0.000000000000000000e+00
8.320000000000000000e+02,-2.005464967572942181e-01,0.000000000000000000e+00
8.330000000000000000e+02,3.027289312472336569e-01,0.000000000000000000e+00
8.340000000000000000e+02,3.740712374063784873e-01,0.000000000000000000e+00
8.350000000000000000e+02,4.426809071214685254e+00,0.000000000000000000e+00
8.360000000000000000e+02,3.090324673965812341e+00,0.000000000000000000e+00
8.370000000000000000e+02,-1.220651870454349863e+00,1.000000000000000000e+00
8.380000000000000000e+02,-1.036427693663632743e+00,0.000000000000000000e+00
8.390000000000000000e+02,-1.233469491100773752e+00,0.000000000000000000e+00
8.400000000000000000e+02,-8.664560874540978563e-01,0.000000000000000000e+00
8.410000000000000000e+02,-9.717007884139010621e-01,0.000000000000000000e+00
8.420000000000000000e+02,-7.120132437475168441e-01,0.000000000000000000e+00
8.430000000000000000e+02,-7.539571383791590087e-01,0.000000000000000000e+00
8.440000000000000000e+02,-4.518125248047539233e-01,0.000000000000000000e+00
8.450000000000000000e+02,-5.081901938247603834e-01,0.000000000000000000e+00
8.460000000000000000e+02,-2.850897391174200823e-01,0.000000000000000000e+00
8.470000000000000000e+02,-2.916985313685360737e-01,0.000000000000000000e+00
8.480000000000000000e+02,1.643058678756611352e-02,0.000000000000000000e+00
8.490000000000000000e+02,-2.533341305287790252e-02,0.000000000000000000e+00
8.500000000000000000e+02,2.515571310739495581e-01,0.000000000000000000e+00
8.510000000000000000e+02,2.936917393571205626e-01,0.000000000000000000e+00
8.520000000000000000e+02,3.441341851904353710e-01,0.000000000000000000e+00
8.530000000000000000e+02,-1.884308138932607943e-02,0.000000000000000000e+00
8.540000000000000000e+02,-1.836538480926120931e-01,0.000000000000000000e+00
8.550000000000000000e+02,-3.562413931503721209e-01,0.000000000000000000e+00
8.560000000000000000e+02,-3.129801793061732229e-01,0.000000000000000000e+00
8.570000000000000000e+02,-4.026134356705773909e-01,0.000000000000000000e+00
8.580000000000000000e+02,-2.310418151764798145e-01,0.000000000000000000e+00
8.590000000000000000e+02,-2.930585230437783295e-01,0.000000000000000000e+00
8.600000000000000000e+02,-1.645639127239832133e-01,0.000000000000000000e+00
8.610000000000000000e+02,-1.947176533415632405e-01,0.000000000000000000e+00
8.620000000000000000e+02,-1.234449650652496150e-01,0.000000000000000000e+00
8.630000000000000000e+02,-7.806059343666367500e-02,0.000000000000000000e+00
8.640000000000000000e+02,-2.285320282249921411e-02,0.000000000000000000e+00
8.650000000000000000e+02,-2.215763018375668109e-02,0.000000000000000000e+00
8.660000000000000000e+02,6.492868894022507447e-04,0.000000000000000000e+00
8.670000000000000000e+02,2.104974779866725099e-02,0.000000000000000000e+00
8.680000000000000000e+02,5.062942237390975070e-02,0.000000000000000000e+00
8.690000000000000000e+02,9.377832879508078701e-02,0.000000000000000000e+00
8.700000000000000000e+02,7.034249561416956731e-02,0.000000000000000000e+00
8.710000000000000000e+02,1.147877467888934744e-01,0.000000000000000000e+00
8.720000000000000000e+02,1.542578071210903568e-01,0.000000000000000000e+00
8.730000000000000000e+02,3.283137249631144505e-01,0.000000000000000000e+00
8.740000000000000000e+02,2.585333889943546293e-01,0.000000000000000000e+00
8.750000000000000000e+02,3.846442796219716187e-01,0.000000000000000000e+00
8.760000000000000000e+02,3.869624354412152800e-01,0.000000000000000000e+00
8.770000000000000000e+02,-1.084191286935676374e-01,0.000000000000000000e+00
8.780000000000000000e+02,6.408672220613567672e-02,0.000000000000000000e+00
8.790000000000000000e+02,-1.464576816777200530e-01,0.000000000000000000e+00
8.800000000000000000e+02,9.853734480539329266e-02,0.000000000000000000e+00
8.810000000000000000e+02,1.358043227950263276e-01,0.000000000000000000e+00
8.820000000000000000e+02,2.248420049728768522e+00,0.000000000000000000e+00
8.830000000000000000e+02,5.467681530792619427e+00,0.000000000000000000e+00
8.840000000000000000e+02,6.073556234098596018e-01,1.000000000000000000e+00
8.850000000000000000e+02,-1.348096611660030808e+00,0.000000000000000000e+00
8.860000000000000000e+02,-1.176536948986486975e+00,0.000000000000000000e+00
8.870000000000000000e+02,-1.184507204751259479e+00,0.000000000000000000e+00
8.880000000000000000e+02,-1.020121291156232957e+00,0.000000000000000000e+00
8.890000000000000000e+02,-8.480726900026779314e-01,0.000000000000000000e+00
8.900000000000000000e+02,-7.649878580801287020e-01,0.000000000000000000e+00
8.910000000000000000e+02,-6.578140570332573489e-01,0.000000000000000000e+00
8.920000000000000000e+02,-5.012454470760557834e-01,0.000000000000000000e+00
8.930000000000000000e+02,-4.897437921313892994e-01,0.000000000000000000e+00
8.940000000000000000e+02,-2.897355415105119514e-01,0.000000000000000000e+00
8.950000000000000000e+02,-1.988691806021365416e-01,0.000000000000000000e+00
8.960000000000000000e+02,-4.667518312895854726e-02,0.000000000000000000e+00
8.970000000000000000e+02,8.341269238755208426e-02,0.000000000000000000e+00
8.980000000000000000e+02,3.075217002810321509e-01,0.000000000000000000e+00
8.990000000000000000e+02,2.958385902921876198e-01,0.000000000000000000e+00
9.000000000000000000e+02,2.561131950347876329e-01,0.000000000000000000e+00
9.010000000000000000e+02,-1.383181786321920070e-01,0.000000000000000000e+00
9.020000000000000000e+02,-3.091867893506842768e-01,0.000000000000000000e+00
9.030000000000000000e+02,-4.193969580216827531e-01,0.000000000000000000e+00
9.040000000000000000e+02,-2.856651781370924681e-01,0.000000000000000000e+00
9.050000000000000000e+02,-3.594652795140736989e-01,0.000000000000000000e+00
9.060000000000000000e+02,-1.889624203900140686e-01,0.000000000000000000e+00
9.070000000000000000e+02,-3.251868413890673382e-01,0.000000000000000000e+00
9.080000000000000000e+02,-1.347521315487301974e-01,0.000000000000000000e+00
9.090000000000000000e+02,-2.035482684519962226e-01,0.000000000000000000e+00
9.100000000000000000e+02,-1.008781999107093985e-01,0.000000000000000000e+00
9.110000000000000000e+02,-5.554772410994519849e-02,0.000000000000000000e+00
9.120000000000000000e+02,-5.957222902014339128e-02,0.000000000000000000e+00
9.130000000000000000e+02,-2.328028943447454577e-02,0.000000000000000000e+00
9.140000000000000000e+02,1.128427605263076922e-01,0.000000000000000000e+00
9.150000000000000000e+02,-4.334772495815711335e-02,0.000000000000000000e+00
9.160000000000000000e+02,1.383721964720433240e-01,0.000000000000000000e+00
9.170000000000000000e+02,1.749834048622444724e-02,0.000000000000000000e+00
9.180000000000000000e+02,1.619513117413561576e-01,0.000000000000000000e+00
9.190000000000000000e+02,1.773450436716082768e-01,0.000000000000000000e+00
9.200000000000000000e+02,3.448310375162543795e-01,0.000000000000000000e+00
9.210000000000000000e+02,2.719538286286194428e-01,0.000000000000000000e+00
9.220000000000000000e+02,4.863293374191945961e-01,0.000000000000000000e+00
9.230000000000000000e+02,3.085245950722192987e-01,0.000000000000000000e+00
9.240000000000000000e+02,2.502392901000058956e-01,0.000000000000000000e+00
9.250000000000000000e+02,-1.362946493434196160e-01,0.000000000000000000e+00
9.260000000000000000e+02,1.036869207870302761e-01,0.000000000000000000e+00
9.270000000000000000e+02,-2.471653920916216940e-01,0.000000000000000000e+00
9.280000000000000000e+02,2.578021603555750163e-01,0.000000000000000000e+00
9.290000000000000000e+02,3.678623319100202682e-01,0.000000000000000000e+00
9.300000000000000000e+02,4.817416647160842835e+00,0.000000000000000000e+00
9.310000000000000000e+02,3.670501889159054620e+00,0.000000000000000000e+00
9.320000000000000000e+02,-1.232552983282348524e+00,1.000000000000000000e+00
9.330000000000000000e+02,-1.149015525358225709e+00,0.000000000000000000e+00
9.340000000000000000e+02,-1.468021117700029299e+00,0.000000000000000000e+00
9.350000000000000000e+02,-1.026671682097592742e+00,0.000000000000000000e+00
9.360000000000000000e+02,-1.154400773602440422e+00,0.000000000000000000e+00
9.370000000000000000e+02,-8.630900828150360748e-01,0.000000000000000000e+00
9.380000000000000000e+02,-8.739310769863591899e-01,0.000000000000000000e+00
9.390000000000000000e+02,-6.614271189955546193e-01,0.000000000000000000e+00
9.400000000000000000e+02,-6.184511393996088291e-01,0.000000000000000000e+00
9.410000000000000000e+02,-3.991758237143409604e-01,0.000000000000000000e+00
9.420000000000000000e+02,-3.791553363605293936e-01,0.000000000000000000e+00
9.430000000000000000e+02,-1.888448662102813480e-01,0.000000000000000000e+00
9.440000000000000000e+02,-5.791680713672832381e-02,0.000000000000000000e+00
9.450000000000000000e+02,1.122301198100027486e-01,0.000000000000000000e+00
9.460000000000000000e+02,1.908736389859949367e-01,0.000000000000000000e+00
9.470000000000000000e+02,2.759669737435633818e-01,0.000000000000000000e+00
9.480000000000000000e+02,4.163143380606534188e-02,0.000000000000000000e+00
9.490000000000000000e+02,-1.982227737778821663e-01,0.000000000000000000e+00
9.500000000000000000e+02,-3.791503551779030756e-01,0.000000000000000000e+00
9.510000000000000000e+02,-3.202181560387230563e-01,0.000000000000000000e+00
9.520000000000000000e+02,-4.142165126673060249e-01,0.000000000000000000e+00
9.530000000000000000e+02,-2.480136134225528477e-01,0.000000000000000000e+00
9.540000000000000000e+02,-3.049196902615365912e-01,0.000000000000000000e+00
9.550000000000000000e+02,-1.735408825319996184e-01,0.000000000000000000e+00
9.560000000000000000e+02,-2.661102383141428218e-01,0.000000000000000000e+00
9.570000000000000000e+02,-3.502995005187226757e-02,0.000000000000000000e+00
9.580000000000000000e+02,-1.657962288291673913e-01,0.000000000000000000e+00
9.590000000000000000e+02,3.789224147612613863e-02,0.000000000000000000e+00
9.600000000000000000e+02,-5.295432865258417610e-02,0.000000000000000000e+00
9.610000000000000000e+02,2.852688787592203706e-02,0.000000000000000000e+00
9.620000000000000000e+02,1.169558043518660467e-01,0.000000000000000000e+00
9.630000000000000000e+02,5.548029021426116592e-02,0.000000000000000000e+00
9.640000000000000000e+02,5.581561728627303792e-02,0.000000000000000000e+00
9.650000000000000000e+02,6.441015144157560823e-02,0.000000000000000000e+00
9.660000000000000000e+02,1.328202480801821406e-01,0.000000000000000000e+00
9.670000000000000000e+02,1.973308301373142282e-01,0.000000000000000000e+00
9.680000000000000000e+02,2.753117885827631728e-01,0.000000000000000000e+00
9.690000000000000000e+02,4.275535792927125933e-01,0.000000000000000000e+00
9.700000000000000000e+02,3.387297105870720193e-01,0.000000000000000000e+00
9.710000000000000000e+02,4.035511719945982789e-01,0.000000000000000000e+00
9.720000000000000000e+02,-8.053971793470469931e-03,0.000000000000000000e+00
9.730000000000000000e+02,-1.984258049350014902e-02,0.000000000000000000e+00
9.740000000000000000e+02,-8.069342459013791047e-02,0.000000000000000000e+00
9.750000000000000000e+02,-1.203097415084629362e-02,0.000000000000000000e+00
9.760000000000000000e+02,2.440496468793619811e-01,0.000000000000000000e+00
9.770000000000000000e+02,1.783910521551433703e+00,0.000000000000000000e+00
9.780000000000000000e+02,5.917083646317967016e+00,0.000000000000000000e+00
9.790000000000000000e+02,1.392030333035248812e+00,1.000000000000000000e+00
9.800000000000000000e+02,-1.431664805618315439e+00,0.000000000000000000e+00
9.810000000000000000e+02,-1.320802864082519568e+00,0.000000000000000000e+00
9.820000000000000000e+02,-1.330632836786349360e+00,0.000000000000000000e+00
9.830000000000000000e+02,-1.008490439696513086e+00,0.000000000000000000e+00
9.840000000000000000e+02,-1.039032646930749593e+00,0.000000000000000000e+00
9.850000000000000000e+02,-7.606796884959040606e-01,0.000000000000000000e+00
9.860000000000000000e+02,-7.982520108967863237e-01,0.000000000000000000e+00
9.870000000000000000e+02,-5.637721550291534545e-01,0.000000000000000000e+00
9.880000000000000000e+02,-5.924220054800427571e-01,0.000000000000000000e+00
9.890000000000000000e+02,-3.419251115275696584e-01,0.000000000000000000e+00
9.900000000000000000e+02,-2.564421557963287301e-01,0.000000000000000000e+00
9.910000000000000000e+02,-5.431747328831326022e-02,0.000000000000000000e+00
9.920000000000000000e+02,2.787099522471196689e-02,0.000000000000000000e+00
9.930000000000000000e+02,2.897021968809650461e-01,0.000000000000000000e+00
9.940000000000000000e+02,2.628083529701875087e-01,0.000000000000000000e+00
9.950000000000000000e+02,2.717851030289106795e-01,0.000000000000000000e+00
9.960000000000000000e+02,-3.725577699926726355e-02,0.000000000000000000e+00
9.970000000000000000e+02,-1.784297559027791524e-01,0.000000000000000000e+00
9.980000000000000000e+02,-3.907004144378704580e-01,0.000000000000000000e+00
9.990000000000000000e+02,-1.981528705024178105e-01,0.000000000000000000e+00
1.000000000000000000e+03,-3.301375024323600083e-01,0.000000000000000000e+00
1.001000000000000000e+03,-1.750903958912253811e-01,0.000000000000000000e+00
1.002000000000000000e+03,-2.192010899903513166e-01,0.000000000000000000e+00
1.003000000000000000e+03,-1.065100307951851455e-01,0.000000000000000000e+00
1.004000000000000000e+03,-7.465359617894538891e-02,0.000000000000000000e+00
1.005000000000000000e+03,-9.481839682812126524e-02,0.000000000000000000e+00
1.006000000000000000e+03,3.139392477634362494e-02,0.000000000000000000e+00
1.007000000000000000e+03,1.148349510751254798e-01,0.000000000000000000e+00
1.008000000000000000e+03,2.815063175983416321e-02,0.000000000000000000e+00
1.009000000000000000e+03,1.068635701586522491e-01,0.000000000000000000e+00
1.010000000000000000e+03,5.474707986388249736e-02,0.000000000000000000e+00
1.011000000000000000e+03,1.475591450076269850e-01,0.000000000000000000e+00
1.012000000000000000e+03,3.971197413107790952e-02,0.000000000000000000e+00
1.013000000000000000e+03,2.539181975971064875e-01,0.000000000000000000e+00
1.014000000000000000e+03,2.638489621738571711e-01,0.000000000000000000e+00
1.015000000000000000e+03,3.099196362920493830e-01,0.000000000000000000e+00
1.016000000000000000e+03,1.944300962398236299e-01,0.000000000000000000e+00
1.017000000000000000e+03,3.454236085165933168e-01,0.000000000000000000e+00
1.018000000000000000e+03,2.655277428563760922e-01,0.000000000000000000e+00
1.019000000000000000e+03,1.937889276545840533e-01,0.000000000000000000e+00
1.020000000000000000e+03,-3.119125050322228976e-01,0.000000000000000000e+00
1.021000000000000000e+03,-3.902166019265457253e-02,0.000000000000000000e+00
1.022000000000000000e+03,-3.366164784046748459e-01,0.000000000000000000e+00
1.023000000000000000e+03,2.802233988767459660e-01,0.000000000000000000e+00
1.024000000000000000e+03,1.601670035839149187e-01,0.000000000000000000e+00
1.025000000000000000e+03,4.457208926249564662e+00,0.000000000000000000e+00
1.026000000000000000e+03,4.409125471889884018e+00,0.000000000000000000e+00
1.027000000000000000e+03,-9.893726862216039031e-01,1.000000000000000000e+00
1.028000000000000000e+03,-1.178053262595039730e+00,0.000000000000000000e+00
1.029000000000000000e+03,-1.381321211828225204e+00,0.000000000000000000e+00
1.030000000000000000e+03,-1.042676573682877139e+00,0.000000000000000000e+00
1.031000000000000000e+03,-1.160937678996537104e+00,0.000000000000000000e+00
1.032000000000000000e+03,-7.938117784147634692e-01,0.000000000000000000e+00
1.033000000000000000e+03,-7.962405138749364397e-01,0.000000000000000000e+00
1.034000000000000000e+03,-5.553145100094096787e-01,0.000000000000000000e+00
1.035000000000000000e+03,-4.883133257414251083e-01,0.000000000000000000e+00
1.036000000000000000e+03,-3.807847847234104299e-01,0.000000000000000000e+00
1.037000000000000000e+03,-3.021359605613264665e-01,0.000000000000000000e+00
1.038000000000000000e+03,-5.837322176816697739e-02,0.000000000000000000e+00
1.039000000000000000e+03,-2.135129942451268262e-02,0.000000000000000000e+00
1.040000000000000000e+03,1.782794930187620863e-01,0.000000000000000000e+00
1.041000000000000000e+03,2.473436520715694698e-01,0.000000000000000000e+00
1.042000000000000000e+03,2.971759844020356311e-01,0.000000000000000000e+00
1.043000000000000000e+03,1.432994762423215052e-01,0.000000000000000000e+00
1.044000000000000000e+03,-1.526005017048251422e-01,0.000000000000000000e+00
1.045000000000000000e+03,-2.865509495959017161e-01,0.000000000000000000e+00
1.046000000000000000e+03,-3.489382514868864527e-01,0.000000000000000000e+00
1.047000000000000000e+03,-2.899600798215948849e-01,0.000000000000000000e+00
1.048000000000000000e+03,-2.280051684380438315e-01,0.000000000000000000e+00
1.049000000000000000e+03,-1.390011526245563123e-01,0.000000000000000000e+00
1.050000000000000000e+03,-1.941766819821610091e-01,0.000000000000000000e+00
1.051000000000000000e+03,-9.849167750841440749e-02,0.000000000000000000e+00
1.052000000000000000e+03,-2.900208859541743289e-02,0.000000000000000000e+00
1.053000000000000000e+03,-4.471131459724343032e-02,0.000000000000000000e+00
1.054000000000000000e+03,3.045152064717293952e-02,0.000000000000000000e+00
1.055000000000000000e+03,3.424927096074704969e-02,0.000000000000000000e+00
1.056000000000000000e+03,1.137980709755830912e-02,0.000000000000000000e+00
1.057000000000000000e+03,2.204899602144714740e-02,0.000000000000000000e+00
1.058000000000000000e+03,7.082042529733603708e-02,0.000000000000000000e+00
1.059000000000000000e+03,2.604319310758118969e-02,0.000000000000000000e+00
1.060000000000000000e+03,1.723517672234905485e-01,0.000000000000000000e+00
1.061000000000000000e+03,9.450912557525571744e-02,0.000000000000000000e+00
1.062000000000000000e+03,2.389590577471915334e-01,0.000000000000000000e+00
1.063000000000000000e+03,2.111213318868362387e-01,0.000000000000000000e+00
1.064000000000000000e+03,2.855651255382543607e-01,0.000000000000000000e+00
1.065000000000000000e+03,3.042152358277939728e-01,0.000000000000000000e+00
1.066000000000000000e+03,2.856197203779249905e-01,0.000000000000000000e+00
1.067000000000000000e+03,-1.536935921314305231e-01,0.000000000000000000e+00
1.068000000000000000e+03,-1.228553881036529988e-01,0.000000000000000000e+00
1.069000000000000000e+03,-1.552831503707183813e-01,0.000000000000000000e+00
1.070000000000000000e+03,-3.945033570015433338e-02,0.000000000000000000e+00
1.071000000000000000e+03,3.800422143705192712e-02,0.000000000000000000e+00
1.072000000000000000e+03,2.162266334449294281e+00,0.000000000000000000e+00
1.073000000000000000e+03,5.772305260179091846e+00,0.000000000000000000e+00
1.074000000000000000e+03,7.527671503268914543e-01,1.000000000000000000e+00
1.075000000000000000e+03,-1.433321286842286435e+00,0.000000000000000000e+00
1.076000000000000000e+03,-1.407236852569234697e+00,0.000000000000000000e+00
1.077000000000000000e+03,-1.319454431367975245e+00,0.000000000000000000e+00
1.078000000000000000e+03,-1.170948228655910084e+00,0.000000000000000000e+00
1.079000000000000000e+03,-1.012457072412421999e+00,0.000000000000000000e+00
1.080000000000000000e+03,-8.684023011641276435e-01,0.000000000000000000e+00
1.081000000000000000e+03,-7.346053842412051393e-01,0.000000000000000000e+00
1.082000000000000000e+03,-6.455972408588678269e-01,0.000000000000000000e+00
1.083000000000000000e+03,-5.917929982631880970e-01,0.000000000000000000e+00
1.084000000000000000e+03,-4.398063692149741244e-01,0.000000000000000000e+00
1.085000000000000000e+03,-3.505440237043290774e-01,0.000000000000000000e+00
1.086000000000000000e+03,-1.642574665496039366e-01,0.000000000000000000e+00
1.087000000000000000e+03,5.594948650352452035e-02,0.000000000000000000e+00
1.088000000000000000e+03,1.365302149281426847e-01,0.000000000000000000e+00
1.089000000000000000e+03,2.258351315765041445e-01,0.000000000000000000e+00
1.090000000000000000e+03,1.964676139907557129e-01,0.000000000000000000e+00
1.091000000000000000e+03,-9.567592871974830993e-02,0.000000000000000000e+00
1.092000000000000000e+03,-2.738501729017146502e-01,0.000000000000000000e+00
1.093000000000000000e+03,-4.146726666529689243e-01,0.000000000000000000e+00
1.094000000000000000e+03,-4.197148109628828783e-01,0.000000000000000000e+00
1.095000000000000000e+03,-3.541711594181954359e-01,0.000000000000000000e+00
1.096000000000000000e+03,-2.382289091450743301e-01,0.000000000000000000e+00
1.097000000000000000e+03,-2.998625952656328031e-01,0.000000000000000000e+00
1.098000000000000000e+03,-1.865811436403011780e-01,0.000000000000000000e+00
1.099000000000000000e+03,-1.736694701495002657e-01,0.000000000000000000e+00
1.100000000000000000e+03,-1.478535113969260684e-01,0.000000000000000000e+00
1.101000000000000000e+03,1.020430991179586619e-02,0.000000000000000000e+00
1.102000000000000000e+03,-1.153156682111433455e-02,0.000000000000000000e+00
1.103000000000000000e+03,2.292723444033546894e-03,0.000000000000000000e+00
1.104000000000000000e+03,1.170729500080876402e-02,0.000000000000000000e+00
1.105000000000000000e+03,1.063745832982562409e-02,0.000000000000000000e+00
1.106000000000000000e+03,4.914849314934528757e-02,0.000000000000000000e+00
1.107000000000000000e+03,1.049063201706319504e-01,0.000000000000000000e+00
1.108000000000000000e+03,1.538828511640320806e-01,0.000000000000000000e+00
1.109000000000000000e+03,2.376034245031506675e-01,0.000000000000000000e+00
1.110000000000000000e+03,2.574793812495012602e-01,0.000000000000000000e+00
1.111000000000000000e+03,3.081075786429657293e-01,0.000000000000000000e+00
1.112000000000000000e+03,4.107145394913015446e-01,0.000000000000000000e+00
1.113000000000000000e+03,3.683246081693497542e-01,0.000000000000000000e+00
1.114000000000000000e+03,-7.787608987498313706e-02,0.000000000000000000e+00
1.115000000000000000e+03,-3.741611618184905591e-02,0.000000000000000000e+00
1.116000000000000000e+03,1.556182891843440989e-02,0.000000000000000000e+00
1.117000000000000000e+03,-3.573953072963727013e-03,0.000000000000000000e+00
1.118000000000000000e+03,1.437165142860873379e-01,0.000000000000000000e+00
1.119000000000000000e+03,1.838745205995198306e+00,0.000000000000000000e+00
1.120000000000000000e+03,5.377647074054604737e+00,0.000000000000000000e+00
1.121000000000000000e+03,7.887476313408283701e-01,1.000000000000000000e+00
1.122000000000000000e+03,-1.297925982872018658e+00,0.000000000000000000e+00
1.123000000000000000e+03,-1.066413990745621820e+00,0.000000000000000000e+00
1.124000000000000000e+03,-1.013073520688040352e+00,0.000000000000000000e+00
1.125000000000000000e+03,-9.058593226705221602e-01,0.000000000000000000e+00
1.126000000000000000e+03,-8.405028184388331214e-01,0.000000000000000000e+00
1.127000000000000000e+03,-6.705137329626135179e-01,0.000000000000000000e+00
1.128000000000000000e+03,-5.778226167780543543e-01,0.000000000000000000e+00
1.129000000000000000e+03,-4.684565355113810559e-01,0.000000000000000000e+00
1.130000000000000000e+03,-3.189361930971919556e-01,0.000000000000000000e+00
1.131000000000000000e+03,-3.068485630439765077e-01,0.000000000000000000e+00
1.132000000000000000e+03,-4.507047248229221342e-02,0.000000000000000000e+00
1.133000000000000000e+03,2.451371209336662693e-02,0.000000000000000000e+00
1.134000000000000000e+03,1.431058510365704473e-01,0.000000000000000000e+00
1.135000000000000000e+03,2.991171830059811132e-01,0.000000000000000000e+00
1.136000000000000000e+03,3.565077794007038836e-01,0.000000000000000000e+00
1.137000000000000000e+03,2.663453107204129533e-01,0.000000000000000000e+00
1.138000000000000000e+03,-6.085323657445278200e-02,0.000000000000000000e+00
1.139000000000000000e+03,-2.015908479084993765e-01,0.000000000000000000e+00
1.140000000000000000e+03,-3.663323615221932283e-01,0.000000000000000000e+00
1.141000000000000000e+03,-3.108648801277714147e-01,0.000000000000000000e+00
1.142000000000000000e+03,-2.751512894928555553e-01,0.000000000000000000e+00
1.143000000000000000e+03,-3.030294224734565445e-01,0.000000000000000000e+00
1.144000000000000000e+03,-2.034428580056527047e-01,0.000000000000000000e+00
1.145000000000000000e+03,-1.454496927225826519e-01,0.000000000000000000e+00
1.146000000000000000e+03,-1.170210154007882142e-01,0.000000000000000000e+00
1.147000000000000000e+03,1.048480207327745755e-03,0.000000000000000000e+00
1.148000000000000000e+03,-7.303030175213905129e-02,0.000000000000000000e+00
1.149000000000000000e+03,8.516242021562886455e-02,0.000000000000000000e+00
1.150000000000000000e+03,7.268529733311175633e-02,0.000000000000000000e+00
1.151000000000000000e+03,-4.337298774417373132e-02,0.000000000000000000e+00
1.152000000000000000e+03,8.032248154893700809e-02,0.000000000000000000e+00
1.153000000000000000e+03,7.540523525901854374e-02,0.000000000000000000e+00
1.154000000000000000e+03,1.045719813481562344e-01,0.000000000000000000e+00
1.155000000000000000e+03,1.528156547291452949e-01,0.000000000000000000e+00
1.156000000000000000e+03,1.401441470454323213e-01,0.000000000000000000e+00
1.157000000000000000e+03,2.554255377097611190e-01,0.000000000000000000e+00
1.158000000000000000e+03,2.784640383414538345e-01,0.000000000000000000e+00
1.159000000000000000e+03,3.526803635519185631e-01,0.000000000000000000e+00
1.160000000000000000e+03,3.504503860942712046e-01,0.000000000000000000e+00
1.161000000000000000e+03,7.726572246433960345e-02,0.000000000000000000e+00
1.162000000000000000e+03,-6.392486486725605654e-02,0.000000000000000000e+00
1.163000000000000000e+03,-1.692493282615305586e-02,0.000000000000000000e+00
1.164000000000000000e+03,-1.205310699781641792e-01,0.000000000000000000e+00
1.165000000000000000e+03,2.198615709462999335e-01,0.000000000000000000e+00
1.166000000000000000e+03,1.361179303274575370e+00,0.000000000000000000e+00
1.167000000000000000e+03,5.147236770467824130e+00,0.000000000000000000e+00
1.168000000000000000e+03,1.000385931481027502e+00,1.000000000000000000e+00
1.169000000000000000e+03,-1.320282269813298992e+00,0.000000000000000000e+00
1.170000000000000000e+03,-1.023564562594646565e+00,0.000000000000000000e+00
1.171000000000000000e+03,-1.054627652404244165e+00,0.000000000000000000e+00
1.172000000000000000e+03,-9.083058008801095928e-01,0.000000000000000000e+00
1.173000000000000000e+03,-8.266332554671778077e-01,0.000000000000000000e+00
1.174000000000000000e+03,-6.702979876755247313e-01,0.000000000000000000e+00
1.175000000000000000e+03,-5.685761260939418138e-01,0.000000000000000000e+00
1.176000000000000000e+03,-5.164075839657177314e-01,0.000000000000000000e+00
1.177000000000000000e+03,-4.434503072721692196e-01,0.000000000000000000e+00
1.178000000000000000e+03,-3.462499729875007648e-01,0.000000000000000000e+00
1.179000000000000000e+03,-1.543478754465521796e-01,0.000000000000000000e+00
1.180000000000000000e+03,-6.779366259473945666e-02,0.000000000000000000e+00
1.181000000000000000e+03,9.031770449290593694e-02,0.000000000000000000e+00
1.182000000000000000e+03,3.000710507774867475e-01,0.000000000000000000e+00
1.183000000000000000e+03,2.269374642314634094e-01,0.000000000000000000e+00
1.184000000000000000e+03,2.736074469974079659e-01,0.000000000000000000e+00
1.185000000000000000e+03,-1.298784505537359524e-01,0.000000000000000000e+00
1.186000000000000000e+03,-2.984625329829654894e-01,0.000000000000000000e+00
1.187000000000000000e+03,-3.876741000220238487e-01,0.000000000000000000e+00
1.188000000000000000e+03,-3.411111930224784428e-01,0.000000000000000000e+00
1.189000000000000000e+03,-3.533606694310144070e-01,0.000000000000000000e+00
1.190000000000000000e+03,-3.182304255638981338e-01,0.000000000000000000e+00
1.191000000000000000e+03,-1.702732518409960094e-01,0.000000000000000000e+00
1.192000000000000000e+03,-2.329356363625970094e-01,0.000000000000000000e+00
1.193000000000000000e+03,-1.866576728053026824e-01,0.000000000000000000e+00
1.194000000000000000e+03,-8.788845582029412851e-02,0.000000000000000000e+00
1.195000000000000000e+03,-9.401010777176357913e-02,0.000000000000000000e+00
1.196000000000000000e+03,1.805251263612392409e-02,0.000000000000000000e+00
1.197000000000000000e+03,-2.028778679645440799e-02,0.000000000000000000e+00
1.198000000000000000e+03,3.324236597012358158e-02,0.000000000000000000e+00
1.199000000000000000e+03,-4.224158997152845790e-02,0.000000000000000000e+00
1.200000000000000000e+03,6.042176353830910202e-02,0.000000000000000000e+00
1.201000000000000000e+03,-5.844448042248710090e-03,0.000000000000000000e+00
1.202000000000000000e+03,1.197819968367847543e-01,0.000000000000000000e+00
1.203000000000000000e+03,2.047741881383570439e-01,0.000000000000000000e+00
1.204000000000000000e+03,2.141286790020801578e-01,0.000000000000000000e+00
1.205000000000000000e+03,2.945350098782262838e-01,0.000000000000000000e+00
1.206000000000000000e+03,3.384529728440700547e-01,0.000000000000000000e+00
1.207000000000000000e+03,2.997447063386941557e-01,0.000000000000000000e+00
1.208000000000000000e+03,-4.080734666035515379e-02,0.000000000000000000e+00
1.209000000000000000e+03,-3.426255691470111997e-02,0.000000000000000000e+00
1.210000000000000000e+03,-9.929965973154109005e-02,0.000000000000000000e+00
1.211000000000000000e+03,9.144731159878121936e-04,0.000000000000000000e+00
1.212000000000000000e+03,6.151044826612029476e-02,0.000000000000000000e+00
1.213000000000000000e+03,1.655130112641086892e+00,0.000000000000000000e+00
1.214000000000000000e+03,5.285118110802716096e+00,0.000000000000000000e+00
1.215000000000000000e+03,9.208492381427497708e-01,1.000000000000000000e+00
1.216000000000000000e+03,-1.276883279876050770e+00,0.000000000000000000e+00
1.217000000000000000e+03,-1.127463923174422122e+00,0.000000000000000000e+00
1.218000000000000000e+03,-1.192932034031036537e+00,0.000000000000000000e+00
1.219000000000000000e+03,-8.943128395611398274e-01,0.000000000000000000e+00
1.220000000000000000e+03,-7.634299080196754739e-01,0.000000000000000000e+00
1.221000000000000000e+03,-7.564339542013341910e-01,0.000000000000000000e+00
1.222000000000000000e+03,-6.378396772065262343e-01,0.000000000000000000e+00
1.223000000000000000e+03,-4.986292405743314449e-01,0.000000000000000000e+00
1.224000000000000000e+03,-4.417582374065689432e-01,0.000000000000000000e+00
1.225000000000000000e+03,-3.248139259312086136e-01,0.000000000000000000e+00
1.226000000000000000e+03,-2.089293136388603866e-01,0.000000000000000000e+00
1.227000000000000000e+03,-1.126636324666711597e-01,0.000000000000000000e+00
1.228000000000000000e+03,1.547383897592146118e-01,0.000000000000000000e+00
1.229000000000000000e+03,1.995106831407694736e-01,0.000000000000000000e+00
1.230000000000000000e+03,2.755405293811566958e-01,0.000000000000000000e+00
1.231000000000000000e+03,2.499359542317018124e-01,0.000000000000000000e+00
1.232000000000000000e+03,-1.449706981380333159e-01,0.000000000000000000e+00
1.233000000000000000e+03,-2.343124944070056614e-01,0.000000000000000000e+00
1.234000000000000000e+03,-4.700781450553044860e-01,0.000000000000000000e+00
1.235000000000000000e+03,-4.001721425184054381e-01,0.000000000000000000e+00
1.236000000000000000e+03,-3.366339338799744230e-01,0.000000000000000000e+00
1.237000000000000000e+03,-3.006135871689750161e-01,0.000000000000000000e+00
1.238000000000000000e+03,-2.286192277116549099e-01,0.000000000000000000e+00
1.239000000000000000e+03,-1.659957639362655002e-01,0.000000000000000000e+00
1.240000000000000000e+03,-1.875922912252344921e-01,0.000000000000000000e+00
1.241000000000000000e+03,-3.125728438857988678e-02,0.000000000000000000e+00
1.242000000000000000e+03,-3.879981612623564780e-02,0.000000000000000000e+00
1.243000000000000000e+03,-9.852118499626917603e-02,0.000000000000000000e+00
1.244000000000000000e+03,4.761094145574231926e-03,0.000000000000000000e+00
1.245000000000000000e+03,9.382612716981784950e-03,0.000000000000000000e+00
1.246000000000000000e+03,-2.217908178249776777e-02,0.000000000000000000e+00
1.247000000000000000e+03,-9.220176282904640752e-03,0.000000000000000000e+00
1.248000000000000000e+03,1.692278475660529691e-01,0.000000000000000000e+00
1.249000000000000000e+03,1.138295264761946118e-01,0.000000000000000000e+00
1.250000000000000000e+03,2.040023427605893447e-01,0.000000000000000000e+00
1.251000000000000000e+03,2.616014155205091951e-01,0.000000000000000000e+00
1.252000000000000000e+03,3.382435755081429907e-01,0.000000000000000000e+00
1.253000000000000000e+03,4.301650978994974173e-01,0.000000000000000000e+00
1.254000000000000000e+03,3.055144389769705593e-01,0.000000000000000000e+00
1.255000000000000000e+03,-3.086444845010384228e-02,0.000000000000000000e+00
1.256000000000000000e+03,-6.304512969912853815e-02,0.000000000000000000e+00
1.257000000000000000e+03,-7.703966212356674892e-02,0.000000000000000000e+00
1.258000000000000000e+03,5.313448331204806419e-02,0.000000000000000000e+00
1.259000000000000000e+03,1.360079061253587351e-01,0.000000000000000000e+00
1.260000000000000000e+03,2.158344521717721509e+00,0.000000000000000000e+00
1.261000000000000000e+03,5.662780740545559688e+00,0.000000000000000000e+00
1.262000000000000000e+03,6.619633418140657977e-01,1.000000000000000000e+00
1.263000000000000000e+03,-1.259181246366752216e+00,0.000000000000000000e+00
1.264000000000000000e+03,-1.253490103774350883e+00,0.000000000000000000e+00
1.265000000000000000e+03,-1.123550541272507086e+00,0.000000000000000000e+00
1.266000000000000000e+03,-9.854863172643298919e-01,0.000000000000000000e+00
1.267000000000000000e+03,-9.493693743559783460e-01,0.000000000000000000e+00
1.268000000000000000e+03,-7.453265047957650102e-01,0.000000000000000000e+00
1.269000000000000000e+03,-5.797190157468508076e-01,0.000000000000000000e+00
1.270000000000000000e+03,-6.101453766664078904e-01,0.000000000000000000e+00
1.271000000000000000e+03,-3.891995563588081519e-01,0.000000000000000000e+00
1.272000000000000000e+03,-3.821081581811169303e-01,0.000000000000000000e+00
1.273000000000000000e+03,-1.774356088363668593e-01,0.000000000000000000e+00
1.274000000000000000e+03,-9.055040724405773178e-02,0.000000000000000000e+00
1.275000000000000000e+03,1.283616924929287806e-01,0.000000000000000000e+00
1.276000000000000000e+03,2.901799777625623245e-01,0.000000000000000000e+00
1.277000000000000000e+03,3.302881630417620618e-01,0.000000000000000000e+00
1.278000000000000000e+03,2.052725446936435050e-01,0.000000000000000000e+00
1.279000000000000000e+03,-6.613443082742191670e-02,0.000000000000000000e+00
1.280000000000000000e+03,-3.541105063099673766e-01,0.000000000000000000e+00
1.281000000000000000e+03,-3.396527697667960366e-01,0.000000000000000000e+00
1.282000000000000000e+03,-3.468640411201988627e-01,0.000000000000000000e+00
1.283000000000000000e+03,-2.453771950626114640e-01,0.000000000000000000e+00
1.284000000000000000e+03,-2.656029613735406136e-01,0.000000000000000000e+00
1.285000000000000000e+03,-1.979260371485622727e-01,0.000000000000000000e+00
1.286000000000000000e+03,-2.469146117517907468e-01,0.000000000000000000e+00
1.287000000000000000e+03,-4.278654365734245631e-03,0.000000000000000000e+00
1.288000000000000000e+03,-1.182595919202814178e-01,0.000000000000000000e+00
1.289000000000000000e+03,3.871377100161164930e-02,0.000000000000000000e+00
1.290000000000000000e+03,-6.315847697095340607e-02,0.000000000000000000e+00
1.291000000000000000e+03,-8.163094760889989115e-03,0.000000000000000000e+00
1.292000000000000000e+03,3.816168214592437907e-02,0.000000000000000000e+00
1.293000000000000000e+03,5.161239598225593472e-02,0.000000000000000000e+00
1.294000000000000000e+03,5.404721324051761644e-02,0.000000000000000000e+00
1.295000000000000000e+03,9.202066227479913096e-02,0.000000000000000000e+00
1.296000000000000000e+03,1.612714776079271772e-01,0.000000000000000000e+00
1.297000000000000000e+03,2.063079396234208940e-01,0.000000000000000000e+00
1.298000000000000000e+03,2.826515151600049180e-01,0.000000000000000000e+00
1.299000000000000000e+03,3.392599866366257655e-01,0.000000000000000000e+00
1.300000000000000000e+03,3.712178570008915490e-01,0.000000000000000000e+00
1.301000000000000000e+03,3.671064522036779909e-01,0.000000000000000000e+00
1.302000000000000000e+03,-5.486837044373323730e-02,0.000000000000000000e+00
1.303000000000000000e+03,-7.028656153151457975e-03,0.000000000000000000e+00
1.304000000000000000e+03,-1.637372646514070884e-01,0.000000000000000000e+00
1.305000000000000000e+03,1.568098111579266651e-01,0.000000000000000000e+00
1.306000000000000000e+03,9.903217535181339792e-02,0.000000000000000000e+00
1.307000000000000000e+03,2.727366335878623982e+00,0.000000000000000000e+00
1.308000000000000000e+03,5.546273678141637298e+00,0.000000000000000000e+00
1.309000000000000000e+03,1.611994417019048387e-01,1.000000000000000000e+00
1.310000000000000000e+03,-1.318355143801883012e+00,0.000000000000000000e+00
1.311000000000000000e+03,-1.414092054207892968e+00,0.000000000000000000e+00
1.312000000000000000e+03,-1.126021862468411294e+00,0.000000000000000000e+00
1.313000000000000000e+03,-1.170488402460791555e+00,0.000000000000000000e+00
1.314000000000000000e+03,-8.844824013796551698e-01,0.000000000000000000e+00
1.315000000000000000e+03,-8.338367550680011453e-01,0.000000000000000000e+00
1.316000000000000000e+03,-6.978950131244707755e-01,0.000000000000000000e+00
1.317000000000000000e+03,-6.157200464500465209e-01,0.000000000000000000e+00
1.318000000000000000e+03,-4.716445882613836682e-01,0.000000000000000000e+00
1.319000000000000000e+03,-3.607502097064190782e-01,0.000000000000000000e+00
1.320000000000000000e+03,-2.110137999705947176e-01,0.000000000000000000e+00
1.321000000000000000e+03,-1.106380363865707289e-01,0.000000000000000000e+00
1.322000000000000000e+03,1.277168708607013536e-01,0.000000000000000000e+00
1.323000000000000000e+03,1.521131410716093091e-01,0.000000000000000000e+00
1.324000000000000000e+03,2.533730416014643438e-01,0.000000000000000000e+00
1.325000000000000000e+03,1.929911679635454014e-01,0.000000000000000000e+00
1.326000000000000000e+03,-7.384908030617086394e-02,0.000000000000000000e+00
1.327000000000000000e+03,-3.301115420902051012e-01,0.000000000000000000e+00
1.328000000000000000e+03,-3.534828444594641517e-01,0.000000000000000000e+00
1.329000000000000000e+03,-3.399967303632172588e-01,0.000000000000000000e+00
1.330000000000000000e+03,-3.130911387013138869e-01,0.000000000000000000e+00
1.331000000000000000e+03,-3.116126050731375385e-01,0.000000000000000000e+00
1.332000000000000000e+03,-1.368412511144300459e-01,0.000000000000000000e+00
1.333000000000000000e+03,-2.095936711810362507e-01,0.000000000000000000e+00
1.334000000000000000e+03,-4.942060633665502911e-02,0.000000000000000000e+00
1.335000000000000000e+03,-1.123321073609335335e-01,0.000000000000000000e+00
1.336000000000000000e+03,-2.412112618936012795e-02,0.000000000000000000e+00
1.337000000000000000e+03,4.390455866039076095e-03,0.000000000000000000e+00
1.338000000000000000e+03,4.191448804674112460e-02,0.000000000000000000e+00
1.339000000000000000e+03,5.268561661207634556e-02,0.000000000000000000e+00
1.340000000000000000e+03,1.236833524749520463e-01,0.000000000000000000e+00
1.341000000000000000e+03,5.086109350266672380e-02,0.000000000000000000e+00
1.342000000000000000e+03,1.504655356490956220e-01,0.000000000000000000e+00
1.343000000000000000e+03,1.149418506556031394e-01,0.000000000000000000e+00
1.344000000000000000e+03,3.304460812588625451e-01,0.000000000000000000e+00
1.345000000000000000e+03,2.956108014433990183e-01,0.000000000000000000e+00
1.346000000000000000e+03,3.665661707204742048e-01,0.000000000000000000e+00
1.347000000000000000e+03,4.059806938263056386e-01,0.000000000000000000e+00
1.348000000000000000e+03,3.200076030977791475e-01,0.000000000000000000e+00
1.349000000000000000e+03,-7.078105585674356048e-02,0.000000000000000000e+00
1.350000000000000000e+03,4.556666187184704709e-04,0.000000000000000000e+00
1.351000000000000000e+03,-1.662926651227966957e-01,0.000000000000000000e+00
1.352000000000000000e+03,7.698940565553691329e-02,0.000000000000000000e+00
1.353000000000000000e+03,8.041235440637842236e-02,0.000000000000000000e+00
1.354000000000000000e+03,2.848322495360775974e+00,0.000000000000000000e+00
1.355000000000000000e+03,5.684114762960681411e+00,0.000000000000000000e+00
1.356000000000000000e+03,4.980057596475654519e-02,1.000000000000000000e+00
1.357000000000000000e+03,-1.321707546605646044e+00,0.000000000000000000e+00
1.358000000000000000e+03,-1.420074534390876053e+00,0.000000000000000000e+00
1.359000000000000000e+03,-1.174988184526902568e+00,0.000000000000000000e+00
1.360000000000000000e+03,-1.170102169674365866e+00,0.000000000000000000e+00
1.361000000000000000e+03,-9.829828577668066059e-01,0.000000000000000000e+00
1.362000000000000000e+03,-8.865389193657612354e-01,0.000000000000000000e+00
1.363000000000000000e+03,-7.577207635439889843e-01,0.000000000000000000e+00
1.364000000000000000e+03,-6.206439656281198536e-01,0.000000000000000000e+00
1.365000000000000000e+03,-4.879148394783363596e-01,0.000000000000000000e+00
1.366000000000000000e+03,-3.941631159976374810e-01,0.000000000000000000e+00
1.367000000000000000e+03,-2.327375291146746850e-01,0.000000000000000000e+00
1.368000000000000000e+03,-1.713640205470937927e-01,0.000000000000000000e+00
1.369000000000000000e+03,7.722574904296032605e-02,0.000000000000000000e+00
1.370000000000000000e+03,1.503653926890846926e-01,0.000000000000000000e+00
1.371000000000000000e+03,2.440582907677092961e-01,0.000000000000000000e+00
1.372000000000000000e+03,9.987047862054382330e-02,0.000000000000000000e+00
1.373000000000000000e+03,-7.761316868766887644e-02,0.000000000000000000e+00
1.374000000000000000e+03,-3.786399659773832527e-01,0.000000000000000000e+00
1.375000000000000000e+03,-3.197741046439582790e-01,0.000000000000000000e+00
1.376000000000000000e+03,-3.508004140753069322e-01,0.000000000000000000e+00
1.377000000000000000e+03,-2.581934030743684994e-01,0.000000000000000000e+00
1.378000000000000000e+03,-2.178715850363806272e-01,0.000000000000000000e+00
1.379000000000000000e+03,-2.040515768386497175e-01,0.000000000000000000e+00
1.380000000000000000e+03,-1.491803751506257381e-01,0.000000000000000000e+00
1.381000000000000000e+03,-1.499616998431752349e-02,0.000000000000000000e+00
1.382000000000000000e+03,-1.061721620313731129e-01,0.000000000000000000e+00
1.383000000000000000e+03,2.767776653208215559e-02,0.000000000000000000e+00
1.384000000000000000e+03,7.841206590333549005e-05,0.000000000000000000e+00
1.385000000000000000e+03,1.061607933675144111e-01,0.000000000000000000e+00
1.386000000000000000e+03,3.374588406263016871e-02,0.000000000000000000e+00
1.387000000000000000e+03,1.414068263677067949e-01,0.000000000000000000e+00
1.388000000000000000e+03,1.158657482931638311e-01,0.000000000000000000e+00
1.389000000000000000e+03,1.473494265760277866e-01,0.000000000000000000e+00
1.390000000000000000e+03,2.259498210366341076e-01,0.000000000000000000e+00
1.391000000000000000e+03,3.000240107398383094e-01,0.000000000000000000e+00
1.392000000000000000e+03,2.973812972884105066e-01,0.000000000000000000e+00
1.393000000000000000e+03,4.221039361549043800e-01,0.000000000000000000e+00
1.394000000000000000e+03,3.905930407515251779e-01,0.000000000000000000e+00
1.395000000000000000e+03,3.257675678856680745e-01,0.000000000000000000e+00
1.396000000000000000e+03,-6.989326354207708869e-02,0.000000000000000000e+00
1.397000000000000000e+03,2.982052094705513884e-02,0.000000000000000000e+00
1.398000000000000000e+03,-7.574786836576778704e-02,0.000000000000000000e+00
1.399000000000000000e+03,8.565289913133014577e-02,0.000000000000000000e+00
1.400000000000000000e+03,1.293710831105365500e-01,0.000000000000000000e+00
1.401000000000000000e+03,3.002781979931265610e+00,0.000000000000000000e+00
1.402000000000000000e+03,5.665115360138260669e+00,0.000000000000000000e+00
1.403000000000000000e+03,-2.957073976964143258e-02,1.000000000000000000e+00
1.404000000000000000e+03,-1.243175506847530309e+00,0.000000000000000000e+00
1.405000000000000000e+03,-1.418943836723538965e+00,0.000000000000000000e+00
1.406000000000000000e+03,-1.162456902444410245e+00,0.000000000000000000e+00
1.407000000000000000e+03,-1.112125991539427261e+00,0.000000000000000000e+00
1.408000000000000000e+03,-9.178166720045745075e-01,0.000000000000000000e+00
1.409000000000000000e+03,-8.737569654496821769e-01,0.000000000000000000e+00
1.410000000000000000e+03,-6.564931278176537877e-01,0.000000000000000000e+00
1.411000000000000000e+03,-6.785704215556936925e-01,0.000000000000000000e+00
1.412000000000000000e+03,-3.801377786917746748e-01,0.000000000000000000e+00
1.413000000000000000e+03,-4.482841615127647339e-01,0.000000000000000000e+00
1.414000000000000000e+03,-2.391037145264189867e-01,0.000000000000000000e+00
1.415000000000000000e+03,-1.494592363519831324e-01,0.000000000000000000e+00
1.416000000000000000e+03,9.877658394742558357e-02,0.000000000000000000e+00
1.417000000000000000e+03,2.464729627266031564e-01,0.000000000000000000e+00
1.418000000000000000e+03,2.525482223671225435e-01,0.000000000000000000e+00
1.419000000000000000e+03,1.292028462384380572e-01,0.000000000000000000e+00
1.420000000000000000e+03,-1.161742868614468599e-01,0.000000000000000000e+00
1.421000000000000000e+03,-3.821156971275817549e-01,0.000000000000000000e+00
1.422000000000000000e+03,-3.550226889224586402e-01,0.000000000000000000e+00
1.423000000000000000e+03,-3.765677181267901297e-01,0.000000000000000000e+00
1.424000000000000000e+03,-2.940509786396889313e-01,0.000000000000000000e+00
1.425000000000000000e+03,-2.523666289426140796e-01,0.000000000000000000e+00
1.426000000000000000e+03,-1.996761902375292774e-01,0.000000000000000000e+00
1.427000000000000000e+03,-1.396761184106161957e-01,0.000000000000000000e+00
1.428000000000000000e+03,-1.062161777295579507e-01,0.000000000000000000e+00
1.429000000000000000e+03,-3.994724746319564673e-02,0.000000000000000000e+00
1.430000000000000000e+03,-1.058575888839080256e-02,0.000000000000000000e+00
1.431000000000000000e+03,-1.064909451563950116e-02,0.000000000000000000e+00
1.432000000000000000e+03,1.773228618388154876e-02,0.000000000000000000e+00
1.433000000000000000e+03,9.628819547941293300e-02,0.000000000000000000e+00
1.434000000000000000e+03,8.307864631329186719e-03,0.000000000000000000e+00
1.435000000000000000e+03,5.716536798197219271e-02,0.000000000000000000e+00
1.436000000000000000e+03,1.241840400961696927e-01,0.000000000000000000e+00
1.437000000000000000e+03,6.843527094847789982e-02,0.000000000000000000e+00
1.438000000000000000e+03,2.142612140838092982e-01,0.000000000000000000e+00
1.439000000000000000e+03,2.750391800445930457e-01,0.000000000000000000e+00
1.440000000000000000e+03,2.948266912193392431e-01,0.000000000000000000e+00
1.441000000000000000e+03,4.379311187948321527e-01,0.000000000000000000e+00
1.442000000000000000e+03,3.186678804939249154e-01,0.000000000000000000e+00
1.443000000000000000e+03,-2.776118390502702385e-02,0.000000000000000000e+00
1.444000000000000000e+03,-1.369438765887749376e-01,0.000000000000000000e+00
1.445000000000000000e+03,-6.960959006953808259e-02,0.000000000000000000e+00
1.446000000000000000e+03,-1.124328592673313060e-01,0.000000000000000000e+00
1.447000000000000000e+03,1.127239466394552442e-01,0.000000000000000000e+00
1.448000000000000000e+03,1.484241010238118941e+00,0.000000000000000000e+00
1.449000000000000000e+03,5.839647603229778383e+00,0.000000000000000000e+00
1.450000000000000000e+03,1.890070151431411549e+00,1.000000000000000000e+00
1.451000000000000000e+03,-1.529504397241909119e+00,0.000000000000000000e+00
1.452000000000000000e+03,-1.227446931717111500e+00,0.000000000000000000e+00
1.453000000000000000e+03,-1.411928606524619711e+00,0.000000000000000000e+00
1.454000000000000000e+03,-1.033560380666253442e+00,0.000000000000000000e+00
1.455000000000000000e+03,-1.126455003697868662e+00,0.000000000000000000e+00
1.456000000000000000e+03,-7.516703221338215668e-01,0.000000000000000000e+00
1.457000000000000000e+03,-8.677987224301634273e-01,0.000000000000000000e+00
1.458000000000000000e+03,-5.810966333110614279e-01,0.000000000000000000e+00
1.459000000000000000e+03,-6.227715310698095363e-01,0.000000000000000000e+00
1.460000000000000000e+03,-3.350370264958043576e-01,0.000000000000000000e+00
1.461000000000000000e+03,-3.917174248673973569e-01,0.000000000000000000e+00
1.462000000000000000e+03,8.782586132434484869e-05,0.000000000000000000e+00
1.463000000000000000e+03,-1.261466753955113318e-01,0.000000000000000000e+00
1.464000000000000000e+03,2.510083213224668097e-01,0.000000000000000000e+00
1.465000000000000000e+03,1.844778474336386531e-01,0.000000000000000000e+00
1.466000000000000000e+03,3.101424249140155576e-01,0.000000000000000000e+00
1.467000000000000000e+03,2.106642314703109989e-02,0.000000000000000000e+00
1.468000000000000000e+03,-2.282974038553786111e-01,0.000000000000000000e+00
1.469000000000000000e+03,-4.094074712237676938e-01,0.000000000000000000e+00
1.470000000000000000e+03,-3.411770963835376591e-01,0.000000000000000000e+00
1.471000000000000000e+03,-4.069981528050603536e-01,0.000000000000000000e+00
1.472000000000000000e+03,-2.247942716929464124e-01,0.000000000000000000e+00
1.473000000000000000e+03,-1.895563197477124762e-01,0.000000000000000000e+00
1.474000000000000000e+03,-1.205314125979676937e-01,0.000000000000000000e+00
1.475000000000000000e+03,-2.051477139518329551e-01,0.000000000000000000e+00
1.476000000000000000e+03,-7.519481358736825050e-02,0.000000000000000000e+00
1.477000000000000000e+03,-9.242220728451770728e-02,0.000000000000000000e+00
1.478000000000000000e+03,8.935295768123609206e-02,0.000000000000000000e+00
1.479000000000000000e+03,1.310559652405059519e-02,0.000000000000000000e+00
1.480000000000000000e+03,1.080771433541041493e-01,0.000000000000000000e+00
1.481000000000000000e+03,8.249856104520124356e-02,0.000000000000000000e+00
1.482000000000000000e+03,1.140649690406362049e-01,0.000000000000000000e+00
1.483000000000000000e+03,7.335586621012592234e-02,0.000000000000000000e+00
1.484000000000000000e+03,2.305703689499100095e-01,0.000000000000000000e+00
1.485000000000000000e+03,1.302830995352615706e-01,0.000000000000000000e+00
1.486000000000000000e+03,4.463996849358614627e-01,0.000000000000000000e+00
1.487000000000000000e+03,3.151343743772581085e-01,0.000000000000000000e+00
1.488000000000000000e+03,4.806729331046107334e-01,0.000000000000000000e+00
1.489000000000000000e+03,3.481094917879310469e-01,0.000000000000000000e+00
1.490000000000000000e+03,1.558236964797079238e-01,0.000000000000000000e+00
1.491000000000000000e+03,-1.912520181055975266e-01,0.000000000000000000e+00
1.492000000000000000e+03,1.026849837059826825e-01,0.000000000000000000e+00
1.493000000000000000e+03,-1.802556718632630783e-01,0.000000000000000000e+00
1.494000000000000000e+03,2.562650180423926005e-01,0.000000000000000000e+00
1.495000000000000000e+03,8.858475334103670384e-01,0.000000000000000000e+00
1.496000000000000000e+03,5.678161538882402049e+00,0.000000000000000000e+00
1.497000000000000000e+03,2.709694125201941972e+00,1.000000000000000000e+00
1.498000000000000000e+03,-1.449072196694007442e+00,0.000000000000000000e+00
1.499000000000000000e+03,-1.155493078088634773e+00,0.000000000000000000e+00
1.500000000000000000e+03,-1.392802963065580935e+00,0.000000000000000000e+00
1.501000000000000000e+03,-1.015837472658894791e+00,0.000000000000000000e+00
1.502000000000000000e+03,-1.086602393216384410e+00,0.000000000000000000e+00
1.503000000000000000e+03,-8.156151915657904317e-01,0.000000000000000000e+00
1.504000000000000000e+03,-7.463145762711461684e-01,0.000000000000000000e+00
1.505000000000000000e+03,-5.756014360463982404e-01,0.000000000000000000e+00
1.506000000000000000e+03,-5.623511470345040619e-01,0.000000000000000000e+00
1.507000000000000000e+03,-4.207013565927262833e-01,0.000000000000000000e+00
1.508000000000000000e+03,-4.051950107220450015e-01,0.000000000000000000e+00
1.509000000000000000e+03,-1.046970070069964537e-01,0.000000000000000000e+00
1.510000000000000000e+03,1.824430435276248874e-02,0.000000000000000000e+00
1.511000000000000000e+03,2.461036669802053045e-01,0.000000000000000000e+00
1.512000000000000000e+03,2.804352569920157134e-01,0.000000000000000000e+00
1.513000000000000000e+03,2.707465561033906565e-01,0.000000000000000000e+00
1.514000000000000000e+03,1.338400470524272329e-02,0.000000000000000000e+00
1.515000000000000000e+03,-1.842689249696669862e-01,0.000000000000000000e+00
1.516000000000000000e+03,-4.039900785290914120e-01,0.000000000000000000e+00
1.517000000000000000e+03,-3.899025522241886810e-01,0.000000000000000000e+00
1.518000000000000000e+03,-2.696831127444815346e-01,0.000000000000000000e+00
1.519000000000000000e+03,-2.832825448047869843e-01,0.000000000000000000e+00
1.520000000000000000e+03,-1.972837608127038234e-01,0.000000000000000000e+00
1.521000000000000000e+03,-2.121366771026655662e-01,0.000000000000000000e+00
1.522000000000000000e+03,-2.660006342980028582e-01,0.000000000000000000e+00
1.523000000000000000e+03,-7.109541024584686841e-02,0.000000000000000000e+00
1.524000000000000000e+03,-9.816223470333183820e-02,0.000000000000000000e+00
1.525000000000000000e+03,-3.720813662812404166e-02,0.000000000000000000e+00
1.526000000000000000e+03,-5.265498441023615944e-02,0.000000000000000000e+00
1.527000000000000000e+03,-1.423697467012088533e-02,0.000000000000000000e+00
1.528000000000000000e+03,4.610501638020154253e-02,0.000000000000000000e+00
1.529000000000000000e+03,6.952928505618913291e-02,0.000000000000000000e+00
1.530000000000000000e+03,-6.769251865010994518e-02,0.000000000000000000e+00
1.531000000000000000e+03,1.597722985415862829e-01,0.000000000000000000e+00
1.532000000000000000e+03,1.878558568563761522e-01,0.000000000000000000e+00
1.533000000000000000e+03,3.352993031497818466e-01,0.000000000000000000e+00
1.534000000000000000e+03,2.655337203949757474e-01,0.000000000000000000e+00
1.535000000000000000e+03,4.193121973338181929e-01,0.000000000000000000e+00
1.536000000000000000e+03,3.478722934872245376e-01,0.000000000000000000e+00
1.537000000000000000e+03,8.175478954915867125e-02,0.000000000000000000e+00
1.538000000000000000e+03,-1.097466194806482193e-01,0.000000000000000000e+00
1.539000000000000000e+03,4.968280966893480477e-02,0.000000000000000000e+00
1.540000000000000000e+03,-1.603772400582610669e-01,0.000000000000000000e+00
1.541000000000000000e+03,2.115614108396574045e-01,0.000000000000000000e+00
1.542000000000000000e+03,8.641978644426954181e-01,0.000000000000000000e+00
1.543000000000000000e+03,5.186323399954718916e+00,0.000000000000000000e+00
1.544000000000000000e+03,2.134150282501185103e+00,1.000000000000000000e+00
1.545000000000000000e+03,-1.390690835588771490e+00,0.000000000000000000e+00
1.546000000000000000e+03,-1.031939225047149744e+00,0.000000000000000000e+00
1.547000000000000000e+03,-1.259366611326634633e+00,0.000000000000000000e+00
1.548000000000000000e+03,-8.603154484063597618e-01,0.000000000000000000e+00
1.549000000000000000e+03,-9.647114755104054806e-01,0.000000000000000000e+00
1.550000000000000000e+03,-6.581508400960944805e-01,0.000000000000000000e+00
1.551000000000000000e+03,-6.901403566742065898e-01,0.000000000000000000e+00
1.552000000000000000e+03,-4.386721083723095771e-01,0.000000000000000000e+00
1.553000000000000000e+03,-5.746234092774846758e-01,0.000000000000000000e+00
1.554000000000000000e+03,-2.590254192794283483e-01,0.000000000000000000e+00
1.555000000000000000e+03,-2.425546082266087644e-01,0.000000000000000000e+00
1.556000000000000000e+03,1.469595479560600534e-02,0.000000000000000000e+00
1.557000000000000000e+03,1.320685736436877922e-01,0.000000000000000000e+00
1.558000000000000000e+03,2.644541602694664428e-01,0.000000000000000000e+00
1.559000000000000000e+03,3.452153053808131311e-01,0.000000000000000000e+00
1.560000000000000000e+03,3.094715489518338747e-01,0.000000000000000000e+00
1.561000000000000000e+03,3.838292030851792741e-02,0.000000000000000000e+00
1.562000000000000000e+03,-1.805147409861367624e-01,0.000000000000000000e+00
1.563000000000000000e+03,-4.029209079995771381e-01,0.000000000000000000e+00
1.564000000000000000e+03,-2.728491587421164044e-01,0.000000000000000000e+00
1.565000000000000000e+03,-3.194235240642170348e-01,0.000000000000000000e+00
1.566000000000000000e+03,-3.026313890832485476e-01,0.000000000000000000e+00
1.567000000000000000e+03,-2.586441820926728696e-01,0.000000000000000000e+00
1.568000000000000000e+03,-1.560439137320851766e-01,0.000000000000000000e+00
1.569000000000000000e+03,-1.796185043668075410e-01,0.000000000000000000e+00
1.570000000000000000e+03,2.743517337171769849e-02,0.000000000000000000e+00
1.571000000000000000e+03,-1.468866782532073645e-01,0.000000000000000000e+00
1.572000000000000000e+03,3.430211803368083540e-02,0.000000000000000000e+00
1.573000000000000000e+03,-1.384794944212539188e-02,0.000000000000000000e+00
1.574000000000000000e+03,3.461673612865142496e-02,0.000000000000000000e+00
1.575000000000000000e+03,-2.870651592251195761e-02,0.000000000000000000e+00
1.576000000000000000e+03,9.502734597640760672e-02,0.000000000000000000e+00
1.577000000000000000e+03,-1.029681587841672734e-02,0.000000000000000000e+00
1.578000000000000000e+03,9.934212055193217261e-02,0.000000000000000000e+00
1.579000000000000000e+03,8.522000983259327145e-02,0.000000000000000000e+00
1.580000000000000000e+03,2.336830661697093525e-01,0.000000000000000000e+00
1.581000000000000000e+03,2.825665699147345000e-01,0.000000000000000000e+00
1.582000000000000000e+03,3.463254346311601117e-01,0.000000000000000000e+00
1.583000000000000000e+03,2.442763893501956052e-01,0.000000000000000000e+00
1.584000000000000000e+03,1.631349370569730173e-01,0.000000000000000000e+00
1.585000000000000000e+03,-1.945531095977901248e-01,0.000000000000000000e+00
1.586000000000000000e+03,-4.292935514731878455e-02,0.000000000000000000e+00
