timestamp,ecg_measurement,qrs_detected
0.000000000000000000e+00,-1.075166316688928002e-02,0.000000000000000000e+00
1.000000000000000000e+00,-6.403420494538264451e-02,0.000000000000000000e+00
2.000000000000000000e+00,-1.785041378714393584e-02,0.000000000000000000e+00
3.000000000000000000e+00,-1.321956573084675235e-01,0.000000000000000000e+00
4.000000000000000000e+00,-2.562495978565378918e-01,0.000000000000000000e+00
5.000000000000000000e+00,-1.763180506416208056e-03,0.000000000000000000e+00
6.000000000000000000e+00,2.901815638683504783e-01,0.000000000000000000e+00
7.000000000000000000e+00,-8.702538809982661439e-02,0.000000000000000000e+00
8.000000000000000000e+00,1.992689115391517718e-01,0.000000000000000000e+00
9.000000000000000000e+00,2.403454022609329832e-01,0.000000000000000000e+00
1.000000000000000000e+01,9.390508838487596210e-02,0.000000000000000000e+00
1.100000000000000000e+01,1.504794500618685527e-01,0.000000000000000000e+00
1.200000000000000000e+01,4.768800939570265740e-01,0.000000000000000000e+00
1.300000000000000000e+01,3.373034083801980665e-01,0.000000000000000000e+00
1.400000000000000000e+01,2.752103299155641558e-01,0.000000000000000000e+00
1.500000000000000000e+01,7.194366436748152183e-02,0.000000000000000000e+00
1.600000000000000000e+01,3.037683123311458733e-01,0.000000000000000000e+00
1.700000000000000000e+01,6.556464828433972158e-03,0.000000000000000000e+00
1.800000000000000000e+01,2.788138795552471128e-01,0.000000000000000000e+00
1.900000000000000000e+01,1.525082924040314369e-01,0.000000000000000000e+00
2.000000000000000000e+01,-1.420212216818670381e-01,0.000000000000000000e+00
2.100000000000000000e+01,2.719976327993686160e-01,0.000000000000000000e+00
2.200000000000000000e+01,4.454157352725410135e+00,0.000000000000000000e+00
2.300000000000000000e+01,1.170067671476711091e+00,1.000000000000000000e+00
2.400000000000000000e+01,-2.411320460174366520e+00,0.000000000000000000e+00
2.500000000000000000e+01,-2.759170014957796457e+00,0.000000000000000000e+00
2.600000000000000000e+01,-2.309676988636623296e+00,0.000000000000000000e+00
2.700000000000000000e+01,-9.400841276701332738e-01,0.000000000000000000e+00
2.800000000000000000e+01,-8.828474025277863735e-01,0.000000000000000000e+00
2.900000000000000000e+01,-1.684584760782770196e-01,0.000000000000000000e+00
3.000000000000000000e+01,-4.687299357617767948e-01,0.000000000000000000e+00
3.100000000000000000e+01,-1.743361680802727187e-01,0.000000000000000000e+00
3.200000000000000000e+01,-2.605864539578121586e-01,0.000000000000000000e+00
3.300000000000000000e+01,1.004284690174259698e-01,0.000000000000000000e+00
3.400000000000000000e+01,1.507955941279933709e-01,0.000000000000000000e+00
3.500000000000000000e+01,-1.488431993321835678e-01,0.000000000000000000e+00
3.600000000000000000e+01,-1.290732631232602290e-01,0.000000000000000000e+00
3.700000000000000000e+01,-1.703991025694157058e-01,0.000000000000000000e+00
3.800000000000000000e+01,-1.732945921836566983e-01,0.000000000000000000e+00
3.900000000000000000e+01,4.652348493666036422e-01,0.000000000000000000e+00
4.000000000000000000e+01,1.373213725221159864e-01,0.000000000000000000e+00
4.100000000000000000e+01,6.306772562337400467e-01,0.000000000000000000e+00
4.200000000000000000e+01,2.752538167750168685e-01,0.000000000000000000e+00
4.300000000000000000e+01,1.117948425641461796e-01,0.000000000000000000e+00
4.400000000000000000e+01,1.347632568767013483e-01,0.000000000000000000e+00
4.500000000000000000e+01,9.996500333264685123e-02,0.000000000000000000e+00
4.600000000000000000e+01,2.595766321251030684e-01,0.000000000000000000e+00
4.700000000000000000e+01,2.832767768121008389e-01,0.000000000000000000e+00
4.800000000000000000e+01,8.803217911766041126e-02,0.000000000000000000e+00
4.900000000000000000e+01,1.272995996572028610e-01,0.000000000000000000e+00
5.000000000000000000e+01,2.076064048116894878e-01,0.000000000000000000e+00
5.100000000000000000e+01,3.410942928088742110e-02,0.000000000000000000e+00
5.200000000000000000e+01,3.722494886338841291e-01,0.000000000000000000e+00
5.300000000000000000e+01,1.405410880340848823e-01,0.000000000000000000e+00
5.400000000000000000e+01,1.943009558150683158e-01,0.000000000000000000e+00
5.500000000000000000e+01,3.112570455026648086e-01,0.000000000000000000e+00
5.600000000000000000e+01,4.219850362692727508e-01,0.000000000000000000e+00
5.700000000000000000e+01,2.879365163687595541e-01,0.000000000000000000e+00
5.800000000000000000e+01,4.402535904954987256e-01,0.000000000000000000e+00
5.900000000000000000e+01,2.716619986413539370e-02,0.000000000000000000e+00
6.000000000000000000e+01,1.705426776792212940e-01,0.000000000000000000e+00
6.100000000000000000e+01,-6.191986583189725835e-01,0.000000000000000000e+00
6.200000000000000000e+01,-4.853848499470163613e-01,0.000000000000000000e+00
6.300000000000000000e+01,-5.229470950770525040e-01,0.000000000000000000e+00
6.400000000000000000e+01,-2.269767260398407038e-01,0.000000000000000000e+00
6.500000000000000000e+01,-6.781193219838737019e-01,0.000000000000000000e+00
6.600000000000000000e+01,2.253304683646276896e+00,0.000000000000000000e+00
6.700000000000000000e+01,3.587068586274921866e+00,0.000000000000000000e+00
6.800000000000000000e+01,-1.285020380778217008e+00,1.000000000000000000e+00
6.900000000000000000e+01,-2.496892580880631041e+00,0.000000000000000000e+00
7.000000000000000000e+01,-2.531410261467195610e+00,0.000000000000000000e+00
7.100000000000000000e+01,-6.420875210784415810e-01,0.000000000000000000e+00
7.200000000000000000e+01,-5.219556964942176913e-01,0.000000000000000000e+00
7.300000000000000000e+01,-1.706245382115789688e-01,0.000000000000000000e+00
7.400000000000000000e+01,-1.530713819197787318e-01,0.000000000000000000e+00
7.500000000000000000e+01,-2.862415236674309416e-01,0.000000000000000000e+00
7.600000000000000000e+01,-3.156754622027410639e-01,0.000000000000000000e+00
7.700000000000000000e+01,-4.115832861524071351e-01,0.000000000000000000e+00
7.800000000000000000e+01,-4.427961107314754563e-01,0.000000000000000000e+00
7.900000000000000000e+01,-4.430995520106879582e-01,0.000000000000000000e+00
8.000000000000000000e+01,-4.910283004002862217e-01,0.000000000000000000e+00
8.100000000000000000e+01,-1.165337593615072553e-01,0.000000000000000000e+00
8.200000000000000000e+01,1.899015153036871240e-01,0.000000000000000000e+00
8.300000000000000000e+01,6.420399836511510028e-01,0.000000000000000000e+00
8.400000000000000000e+01,9.545841082000080524e-01,0.000000000000000000e+00
8.500000000000000000e+01,1.116262858432090832e+00,0.000000000000000000e+00
8.600000000000000000e+01,8.802699212583253718e-01,0.000000000000000000e+00
8.700000000000000000e+01,6.390534135544893024e-01,0.000000000000000000e+00
8.800000000000000000e+01,5.273710115613280403e-01,0.000000000000000000e+00
8.900000000000000000e+01,2.584650841961163015e-01,0.000000000000000000e+00
9.000000000000000000e+01,4.968661920973491131e-01,0.000000000000000000e+00
9.100000000000000000e+01,7.318882553794034407e-02,0.000000000000000000e+00
9.200000000000000000e+01,6.831218829576464827e-03,0.000000000000000000e+00
9.300000000000000000e+01,-1.761132793712226752e-01,0.000000000000000000e+00
9.400000000000000000e+01,-2.830671944004861662e-01,0.000000000000000000e+00
9.500000000000000000e+01,-2.674197186699285855e-01,0.000000000000000000e+00
9.600000000000000000e+01,-1.536331346996116787e-01,0.000000000000000000e+00
9.700000000000000000e+01,-7.532677757230533955e-02,0.000000000000000000e+00
9.800000000000000000e+01,3.176187766766434134e-02,0.000000000000000000e+00
9.900000000000000000e+01,-1.128085872225681463e-01,0.000000000000000000e+00
1.000000000000000000e+02,1.937504424220847232e-01,0.000000000000000000e+00
1.010000000000000000e+02,1.250197142182457588e-01,0.000000000000000000e+00
1.020000000000000000e+02,7.760472273683542699e-02,0.000000000000000000e+00
1.030000000000000000e+02,8.078449974200509198e-02,0.000000000000000000e+00
1.040000000000000000e+02,2.074532891405941881e-02,0.000000000000000000e+00
1.050000000000000000e+02,6.451742113086678110e-02,0.000000000000000000e+00
1.060000000000000000e+02,1.417946408549696224e-01,0.000000000000000000e+00
1.070000000000000000e+02,-1.108003563449127815e-01,0.000000000000000000e+00
1.080000000000000000e+02,-1.416737846999952533e-01,0.000000000000000000e+00
1.090000000000000000e+02,-2.782761381547687041e-01,0.000000000000000000e+00
1.100000000000000000e+02,-1.533755669744872596e-01,0.000000000000000000e+00
1.110000000000000000e+02,-1.651704204482641603e-01,0.000000000000000000e+00
1.120000000000000000e+02,4.020030022502385947e+00,0.000000000000000000e+00
1.130000000000000000e+02,1.346830322523846046e+00,0.000000000000000000e+00
1.140000000000000000e+02,-2.409421779764099991e+00,1.000000000000000000e+00
1.150000000000000000e+02,-2.997486707728670652e+00,0.000000000000000000e+00
1.160000000000000000e+02,-1.973978982132743365e+00,0.000000000000000000e+00
1.170000000000000000e+02,-1.269978782589233912e-01,0.000000000000000000e+00
1.180000000000000000e+02,-6.172832196905098101e-01,0.000000000000000000e+00
1.190000000000000000e+02,8.111990577893415932e-02,0.000000000000000000e+00
1.200000000000000000e+02,-2.552829977240536619e-01,0.000000000000000000e+00
1.210000000000000000e+02,7.273629238311234146e-02,0.000000000000000000e+00
1.220000000000000000e+02,-5.474568277162548263e-02,0.000000000000000000e+00
1.230000000000000000e+02,-1.088123942390571558e-01,0.000000000000000000e+00
1.240000000000000000e+02,-1.413550712835846546e-01,0.000000000000000000e+00
1.250000000000000000e+02,-1.919707735297705720e-01,0.000000000000000000e+00
1.260000000000000000e+02,-6.914782875278327468e-02,0.000000000000000000e+00
1.270000000000000000e+02,3.902348983148972578e-02,0.000000000000000000e+00
1.280000000000000000e+02,1.564610341648704495e-01,0.000000000000000000e+00
1.290000000000000000e+02,4.151734075721151829e-01,0.000000000000000000e+00
1.300000000000000000e+02,8.218511226819524840e-01,0.000000000000000000e+00
1.310000000000000000e+02,7.753536224380083164e-01,0.000000000000000000e+00
1.320000000000000000e+02,4.407557366803427912e-01,0.000000000000000000e+00
1.330000000000000000e+02,4.585533280994663619e-01,0.000000000000000000e+00
1.340000000000000000e+02,2.376837257936160741e-01,0.000000000000000000e+00
1.350000000000000000e+02,2.394738997996561092e-01,0.000000000000000000e+00
1.360000000000000000e+02,1.431355890043120027e-01,0.000000000000000000e+00
1.370000000000000000e+02,2.503434941287044913e-01,0.000000000000000000e+00
1.380000000000000000e+02,4.561731645533211726e-02,0.000000000000000000e+00
1.390000000000000000e+02,1.524421626180580136e-01,0.000000000000000000e+00
1.400000000000000000e+02,7.681874330846957463e-03,0.000000000000000000e+00
1.410000000000000000e+02,-2.170143086086362694e-01,0.000000000000000000e+00
1.420000000000000000e+02,-3.302320284386153770e-02,0.000000000000000000e+00
1.430000000000000000e+02,-1.132562566034680529e-01,0.000000000000000000e+00
1.440000000000000000e+02,-1.376159944783115485e-01,0.000000000000000000e+00
1.450000000000000000e+02,1.383595985876980849e-01,0.000000000000000000e+00
1.460000000000000000e+02,1.827205652091610233e-01,0.000000000000000000e+00
1.470000000000000000e+02,4.454811431220142004e-01,0.000000000000000000e+00
1.480000000000000000e+02,5.203147030340835588e-01,0.000000000000000000e+00
1.490000000000000000e+02,5.012643437456741902e-01,0.000000000000000000e+00
1.500000000000000000e+02,1.242263876085349938e-01,0.000000000000000000e+00
1.510000000000000000e+02,1.456738195379652101e-01,0.000000000000000000e+00
1.520000000000000000e+02,-1.128068492766386433e-01,0.000000000000000000e+00
1.530000000000000000e+02,-4.308252721338890479e-01,0.000000000000000000e+00
1.540000000000000000e+02,-3.120794016709059204e-01,0.000000000000000000e+00
1.550000000000000000e+02,-5.724967955082539417e-01,0.000000000000000000e+00
1.560000000000000000e+02,-3.323361961074565718e-01,0.000000000000000000e+00
1.570000000000000000e+02,-1.906805636891132916e-01,0.000000000000000000e+00
1.580000000000000000e+02,4.035113900048794555e+00,0.000000000000000000e+00
1.590000000000000000e+02,1.116137787834838413e+00,1.000000000000000000e+00
1.600000000000000000e+02,-2.486944838335016339e+00,0.000000000000000000e+00
1.610000000000000000e+02,-2.677096457456666023e+00,0.000000000000000000e+00
1.620000000000000000e+02,-1.602717102405371463e+00,0.000000000000000000e+00
1.630000000000000000e+02,8.817579957066055615e-03,0.000000000000000000e+00
1.640000000000000000e+02,-5.608746118180005791e-01,0.000000000000000000e+00
1.650000000000000000e+02,-3.333603802308480329e-02,0.000000000000000000e+00
1.660000000000000000e+02,-3.096891565705982008e-01,0.000000000000000000e+00
1.670000000000000000e+02,-1.319782262417438512e-01,0.000000000000000000e+00
1.680000000000000000e+02,-3.064274396389852773e-01,0.000000000000000000e+00
1.690000000000000000e+02,-2.282737588302126974e-01,0.000000000000000000e+00
1.700000000000000000e+02,-7.474840710694397039e-02,0.000000000000000000e+00
1.710000000000000000e+02,4.571760244324204331e-02,0.000000000000000000e+00
1.720000000000000000e+02,-3.666186295243056836e-02,0.000000000000000000e+00
1.730000000000000000e+02,3.773421835891011544e-01,0.000000000000000000e+00
1.740000000000000000e+02,3.053702233345941264e-01,0.000000000000000000e+00
1.750000000000000000e+02,5.759803538453769356e-01,0.000000000000000000e+00
1.760000000000000000e+02,6.245691808734565864e-01,0.000000000000000000e+00
1.770000000000000000e+02,8.644256009691372311e-01,0.000000000000000000e+00
1.780000000000000000e+02,4.695240738472796771e-01,0.000000000000000000e+00
1.790000000000000000e+02,1.883611224327703948e-01,0.000000000000000000e+00
1.800000000000000000e+02,1.680749924554796881e-01,0.000000000000000000e+00
1.810000000000000000e+02,-7.829989441328182032e-02,0.000000000000000000e+00
1.820000000000000000e+02,-2.975851613441574672e-01,0.000000000000000000e+00
1.830000000000000000e+02,2.898827323310879112e-01,0.000000000000000000e+00
1.840000000000000000e+02,-2.477529375429886327e-01,0.000000000000000000e+00
1.850000000000000000e+02,-9.243749280162551207e-02,0.000000000000000000e+00
1.860000000000000000e+02,4.755542201609134351e-02,0.000000000000000000e+00
1.870000000000000000e+02,-4.450892534258520106e-02,0.000000000000000000e+00
1.880000000000000000e+02,-8.945105584779021457e-02,0.000000000000000000e+00
1.890000000000000000e+02,3.164275281238448922e-02,0.000000000000000000e+00
1.900000000000000000e+02,-3.166113093019148894e-02,0.000000000000000000e+00
1.910000000000000000e+02,1.420430253709217272e-01,0.000000000000000000e+00
1.920000000000000000e+02,-1.037835996710283551e-02,0.000000000000000000e+00
1.930000000000000000e+02,7.694015164627637793e-02,0.000000000000000000e+00
1.940000000000000000e+02,7.240137509692130303e-03,0.000000000000000000e+00
1.950000000000000000e+02,1.067167088616922388e-01,0.000000000000000000e+00
1.960000000000000000e+02,-8.283496898573715350e-02,0.000000000000000000e+00
1.970000000000000000e+02,-1.248053562258641808e-01,0.000000000000000000e+00
1.980000000000000000e+02,-6.361516304918429787e-02,0.000000000000000000e+00
1.990000000000000000e+02,-2.198072007335343803e-01,0.000000000000000000e+00
2.000000000000000000e+02,-1.830633585459545687e-01,0.000000000000000000e+00
2.010000000000000000e+02,-3.131896768536361342e-01,0.000000000000000000e+00
2.020000000000000000e+02,-5.309293538706751914e-01,0.000000000000000000e+00
2.030000000000000000e+02,4.766467646130650992e-02,0.000000000000000000e+00
2.040000000000000000e+02,4.232058251586675368e+00,0.000000000000000000e+00
2.050000000000000000e+02,5.122894934563809732e-01,1.000000000000000000e+00
2.060000000000000000e+02,-2.222147700773489554e+00,0.000000000000000000e+00
2.070000000000000000e+02,-2.617411793093197048e+00,0.000000000000000000e+00
2.080000000000000000e+02,-1.908006775366049457e+00,0.000000000000000000e+00
2.090000000000000000e+02,-3.862115488178950451e-01,0.000000000000000000e+00
2.100000000000000000e+02,-6.454666029420005335e-01,0.000000000000000000e+00
2.110000000000000000e+02,-1.014655359450298416e-01,0.000000000000000000e+00
2.120000000000000000e+02,-2.783308213634732575e-01,0.000000000000000000e+00
2.130000000000000000e+02,-5.169469695752251098e-02,0.000000000000000000e+00
2.140000000000000000e+02,7.893358739606226582e-02,0.000000000000000000e+00
2.150000000000000000e+02,6.516635946372677235e-02,0.000000000000000000e+00
2.160000000000000000e+02,4.677664770614628487e-02,0.000000000000000000e+00
2.170000000000000000e+02,1.936149605537933471e-01,0.000000000000000000e+00
2.180000000000000000e+02,3.561030219809752182e-03,0.000000000000000000e+00
2.190000000000000000e+02,3.019716036611622689e-01,0.000000000000000000e+00
2.200000000000000000e+02,5.669055706516336057e-01,0.000000000000000000e+00
2.210000000000000000e+02,7.815535923693555098e-01,0.000000000000000000e+00
2.220000000000000000e+02,9.962879164337988813e-01,0.000000000000000000e+00
2.230000000000000000e+02,8.311730015582399211e-01,0.000000000000000000e+00
2.240000000000000000e+02,8.408683450458727116e-01,0.000000000000000000e+00
2.250000000000000000e+02,6.699376500513281041e-01,0.000000000000000000e+00
2.260000000000000000e+02,5.258919960231329682e-01,0.000000000000000000e+00
2.270000000000000000e+02,3.230363775649238156e-01,0.000000000000000000e+00
2.280000000000000000e+02,1.413833278783064584e-01,0.000000000000000000e+00
2.290000000000000000e+02,2.409473280505075865e-01,0.000000000000000000e+00
2.300000000000000000e+02,2.331062647841590160e-02,0.000000000000000000e+00
2.310000000000000000e+02,3.472994836980303757e-01,0.000000000000000000e+00
2.320000000000000000e+02,3.115454107606931422e-01,0.000000000000000000e+00
2.330000000000000000e+02,6.754497687992971899e-02,0.000000000000000000e+00
2.340000000000000000e+02,1.287054106781054530e-01,0.000000000000000000e+00
2.350000000000000000e+02,1.065979447837322597e-01,0.000000000000000000e+00
2.360000000000000000e+02,-4.820360006298757272e-01,0.000000000000000000e+00
2.370000000000000000e+02,-1.420521258105096780e-02,0.000000000000000000e+00
2.380000000000000000e+02,-2.496855276618022146e-01,0.000000000000000000e+00
2.390000000000000000e+02,1.992147718031168080e-01,0.000000000000000000e+00
2.400000000000000000e+02,-4.222287467861825239e-02,0.000000000000000000e+00
2.410000000000000000e+02,5.694768242138279479e-01,0.000000000000000000e+00
2.420000000000000000e+02,2.955558603999003386e-01,0.000000000000000000e+00
2.430000000000000000e+02,2.379173126493197843e-01,0.000000000000000000e+00
2.440000000000000000e+02,1.040701694410464534e-01,0.000000000000000000e+00
2.450000000000000000e+02,-6.838247833097463868e-01,0.000000000000000000e+00
2.460000000000000000e+02,-9.038829858315680088e-01,0.000000000000000000e+00
2.470000000000000000e+02,-5.454974567767048033e-01,0.000000000000000000e+00
2.480000000000000000e+02,-1.019374806508744236e+00,0.000000000000000000e+00
2.490000000000000000e+02,2.639216408611652742e+00,0.000000000000000000e+00
2.500000000000000000e+02,3.114372609792091851e+00,0.000000000000000000e+00
2.510000000000000000e+02,-2.060591073627274561e+00,1.000000000000000000e+00
2.520000000000000000e+02,-2.926085498619575009e+00,0.000000000000000000e+00
2.530000000000000000e+02,-2.817729494608296470e+00,0.000000000000000000e+00
2.540000000000000000e+02,-9.037770818895387581e-01,0.000000000000000000e+00
2.550000000000000000e+02,-9.457886246645930139e-01,0.000000000000000000e+00
2.560000000000000000e+02,-2.647803012880062812e-01,0.000000000000000000e+00
2.570000000000000000e+02,-4.643333353711460165e-01,0.000000000000000000e+00
2.580000000000000000e+02,-1.798944494843462139e-01,0.000000000000000000e+00
2.590000000000000000e+02,-5.100674767692492395e-01,0.000000000000000000e+00
2.600000000000000000e+02,-2.881257306957769604e-01,0.000000000000000000e+00
2.610000000000000000e+02,-3.225901441794263302e-01,0.000000000000000000e+00
2.620000000000000000e+02,-8.399019553468300980e-02,0.000000000000000000e+00
2.630000000000000000e+02,-1.525211126364307834e-01,0.000000000000000000e+00
2.640000000000000000e+02,-1.301102325982489156e-04,0.000000000000000000e+00
2.650000000000000000e+02,-1.087004136637699514e-02,0.000000000000000000e+00
2.660000000000000000e+02,2.725000710133988480e-01,0.000000000000000000e+00
2.670000000000000000e+02,5.703238091830947765e-01,0.000000000000000000e+00
2.680000000000000000e+02,8.474031344323827986e-01,0.000000000000000000e+00
2.690000000000000000e+02,5.056558291864249322e-01,0.000000000000000000e+00
2.700000000000000000e+02,2.908083490681234728e-01,0.000000000000000000e+00
2.710000000000000000e+02,2.826173888492201081e-01,0.000000000000000000e+00
2.720000000000000000e+02,8.624095110088952909e-02,0.000000000000000000e+00
2.730000000000000000e+02,2.739102954593517492e-01,0.000000000000000000e+00
2.740000000000000000e+02,5.109004925808016129e-01,0.000000000000000000e+00
2.750000000000000000e+02,2.832149684160770731e-01,0.000000000000000000e+00
2.760000000000000000e+02,2.249946031672094837e-01,0.000000000000000000e+00
2.770000000000000000e+02,1.768923857360746865e-01,0.000000000000000000e+00
2.780000000000000000e+02,6.785091885672796426e-03,0.000000000000000000e+00
2.790000000000000000e+02,2.138405954395593625e-02,0.000000000000000000e+00
2.800000000000000000e+02,-2.622555452883157390e-01,0.000000000000000000e+00
2.810000000000000000e+02,-9.357402988871313387e-02,0.000000000000000000e+00
2.820000000000000000e+02,-2.136171421403054715e-01,0.000000000000000000e+00
2.830000000000000000e+02,2.193249590187041353e-01,0.000000000000000000e+00
2.840000000000000000e+02,2.634230657636352224e-01,0.000000000000000000e+00
2.850000000000000000e+02,5.135104261885281574e-01,0.000000000000000000e+00
2.860000000000000000e+02,4.394143348201679511e-01,0.000000000000000000e+00
2.870000000000000000e+02,3.120086530944887748e-01,0.000000000000000000e+00
2.880000000000000000e+02,-1.974551749997345840e-01,0.000000000000000000e+00
2.890000000000000000e+02,1.563592117326424169e-01,0.000000000000000000e+00
2.900000000000000000e+02,-5.540926180088974196e-01,0.000000000000000000e+00
2.910000000000000000e+02,-4.872435988680416385e-01,0.000000000000000000e+00
2.920000000000000000e+02,-5.897866409208086802e-01,0.000000000000000000e+00
2.930000000000000000e+02,-1.489730299404891656e-01,0.000000000000000000e+00
2.940000000000000000e+02,-6.878721032940957603e-01,0.000000000000000000e+00
2.950000000000000000e+02,3.662464726878817523e+00,0.000000000000000000e+00
2.960000000000000000e+02,2.971973213630963784e+00,0.000000000000000000e+00
2.970000000000000000e+02,-1.995917447244194065e+00,1.000000000000000000e+00
2.980000000000000000e+02,-2.872591481914156919e+00,0.000000000000000000e+00
2.990000000000000000e+02,-2.418989261009609315e+00,0.000000000000000000e+00
3.000000000000000000e+02,-5.260199594762619002e-01,0.000000000000000000e+00
3.010000000000000000e+02,-5.593639479139358439e-01,0.000000000000000000e+00
3.020000000000000000e+02,2.404046593008436761e-02,0.000000000000000000e+00
3.030000000000000000e+02,-1.445581849909054195e-02,0.000000000000000000e+00
3.040000000000000000e+02,3.419890899543756579e-01,0.000000000000000000e+00
3.050000000000000000e+02,4.943375909319836642e-02,0.000000000000000000e+00
3.060000000000000000e+02,4.529844689914445249e-02,0.000000000000000000e+00
3.070000000000000000e+02,-2.352478520129744066e-01,0.000000000000000000e+00
3.080000000000000000e+02,-2.224058251524990704e-02,0.000000000000000000e+00
3.090000000000000000e+02,-1.683083959615775393e-01,0.000000000000000000e+00
3.100000000000000000e+02,6.737130862814535992e-02,0.000000000000000000e+00
3.110000000000000000e+02,1.228270758245821881e-01,0.000000000000000000e+00
3.120000000000000000e+02,8.089618992808488285e-01,0.000000000000000000e+00
3.130000000000000000e+02,1.237934783094975399e+00,0.000000000000000000e+00
3.140000000000000000e+02,1.169510803607819893e+00,0.000000000000000000e+00
3.150000000000000000e+02,6.268404259744012608e-01,0.000000000000000000e+00
3.160000000000000000e+02,5.796696103284424417e-01,0.000000000000000000e+00
3.170000000000000000e+02,4.005994892865654133e-01,0.000000000000000000e+00
3.180000000000000000e+02,2.414814408758754194e-01,0.000000000000000000e+00
3.190000000000000000e+02,5.988656092599366904e-02,0.000000000000000000e+00
3.200000000000000000e+02,3.764924897294597006e-01,0.000000000000000000e+00
3.210000000000000000e+02,1.770793331245526792e-01,0.000000000000000000e+00
3.220000000000000000e+02,4.162856615198012311e-01,0.000000000000000000e+00
3.230000000000000000e+02,3.286459733332634525e-01,0.000000000000000000e+00
3.240000000000000000e+02,2.677584267184134337e-01,0.000000000000000000e+00
3.250000000000000000e+02,1.379730801116131889e-01,0.000000000000000000e+00
3.260000000000000000e+02,1.336664735157015449e-01,0.000000000000000000e+00
3.270000000000000000e+02,1.313646456854652700e-01,0.000000000000000000e+00
3.280000000000000000e+02,2.237264324484695976e-01,0.000000000000000000e+00
3.290000000000000000e+02,3.197068489753847054e-01,0.000000000000000000e+00
3.300000000000000000e+02,3.591336901082829991e-01,0.000000000000000000e+00
3.310000000000000000e+02,4.269340834560390041e-01,0.000000000000000000e+00
3.320000000000000000e+02,1.504194893979877157e-01,0.000000000000000000e+00
3.330000000000000000e+02,2.536540702939024672e-01,0.000000000000000000e+00
3.340000000000000000e+02,-7.479975276862226019e-02,0.000000000000000000e+00
3.350000000000000000e+02,1.529082490434459721e-02,0.000000000000000000e+00
3.360000000000000000e+02,-6.463948264548068368e-01,0.000000000000000000e+00
3.370000000000000000e+02,-4.146219991067002786e-01,0.000000000000000000e+00
3.380000000000000000e+02,-4.441554052354471094e-01,0.000000000000000000e+00
3.390000000000000000e+02,-1.938032539814544541e-01,0.000000000000000000e+00
3.400000000000000000e+02,-8.558597618162926413e-01,0.000000000000000000e+00
3.410000000000000000e+02,2.943034390852394377e+00,0.000000000000000000e+00
3.420000000000000000e+02,3.032900996351791001e+00,0.000000000000000000e+00
3.430000000000000000e+02,-1.977462655809729908e+00,1.000000000000000000e+00
3.440000000000000000e+02,-2.676236224705840439e+00,0.000000000000000000e+00
3.450000000000000000e+02,-2.941868443582573711e+00,0.000000000000000000e+00
3.460000000000000000e+02,-1.124853323785141912e+00,0.000000000000000000e+00
3.470000000000000000e+02,-4.976086356946127776e-01,0.000000000000000000e+00
3.480000000000000000e+02,-2.830919132942156247e-01,0.000000000000000000e+00
3.490000000000000000e+02,-2.401574308475216968e-01,0.000000000000000000e+00
3.500000000000000000e+02,-4.428479996035936672e-01,0.000000000000000000e+00
3.510000000000000000e+02,-3.393785716417321852e-01,0.000000000000000000e+00
3.520000000000000000e+02,-4.821108393935174541e-01,0.000000000000000000e+00
3.530000000000000000e+02,-5.003934095286506345e-01,0.000000000000000000e+00
3.540000000000000000e+02,-4.383505925938388503e-01,0.000000000000000000e+00
3.550000000000000000e+02,-2.811466497812296073e-01,0.000000000000000000e+00
3.560000000000000000e+02,-2.731917838555134037e-01,0.000000000000000000e+00
3.570000000000000000e+02,3.876976842165716364e-01,0.000000000000000000e+00
3.580000000000000000e+02,5.458179014868423939e-01,0.000000000000000000e+00
3.590000000000000000e+02,6.419747479617872177e-01,0.000000000000000000e+00
3.600000000000000000e+02,7.589291203553540921e-01,0.000000000000000000e+00
3.610000000000000000e+02,3.528802621731644829e-01,0.000000000000000000e+00
3.620000000000000000e+02,1.230156079451515949e-01,0.000000000000000000e+00
3.630000000000000000e+02,-6.408719455133769782e-02,0.000000000000000000e+00
3.640000000000000000e+02,2.090252614126119346e-01,0.000000000000000000e+00
3.650000000000000000e+02,1.694985941669417406e-01,0.000000000000000000e+00
3.660000000000000000e+02,4.146780307545547273e-01,0.000000000000000000e+00
3.670000000000000000e+02,3.524712570340370332e-01,0.000000000000000000e+00
3.680000000000000000e+02,2.035533106057986485e-01,0.000000000000000000e+00
3.690000000000000000e+02,-2.577586848740643921e-01,0.000000000000000000e+00
3.700000000000000000e+02,-1.830747869301840580e-01,0.000000000000000000e+00
3.710000000000000000e+02,-4.666838762963266274e-01,0.000000000000000000e+00
3.720000000000000000e+02,-1.360524854393556360e-01,0.000000000000000000e+00
3.730000000000000000e+02,1.845338327826749336e-01,0.000000000000000000e+00
3.740000000000000000e+02,4.313854222128644111e-01,0.000000000000000000e+00
3.750000000000000000e+02,9.731878377739079378e-01,0.000000000000000000e+00
3.760000000000000000e+02,1.127406123309259156e+00,0.000000000000000000e+00
3.770000000000000000e+02,8.960839368579351927e-01,0.000000000000000000e+00
3.780000000000000000e+02,8.708476511110885276e-01,0.000000000000000000e+00
3.790000000000000000e+02,-1.540270461356882566e-02,0.000000000000000000e+00
3.800000000000000000e+02,-4.620418852379981102e-03,0.000000000000000000e+00
3.810000000000000000e+02,-9.356114401249445711e-01,0.000000000000000000e+00
3.820000000000000000e+02,-6.568264150440165094e-01,0.000000000000000000e+00
3.830000000000000000e+02,-8.355920281796104243e-01,0.000000000000000000e+00
3.840000000000000000e+02,-3.060589722698674464e-01,0.000000000000000000e+00
3.850000000000000000e+02,-2.678208951959581419e-01,0.000000000000000000e+00
3.860000000000000000e+02,4.029807772452840275e+00,0.000000000000000000e+00
3.870000000000000000e+02,1.580802832001543479e+00,0.000000000000000000e+00
3.880000000000000000e+02,-2.415948386909488210e+00,1.000000000000000000e+00
3.890000000000000000e+02,-2.849727673440141107e+00,0.000000000000000000e+00
3.900000000000000000e+02,-2.305120924849298536e+00,0.000000000000000000e+00
3.910000000000000000e+02,-6.410956700172220080e-01,0.000000000000000000e+00
3.920000000000000000e+02,-6.121993670608028015e-01,0.000000000000000000e+00
3.930000000000000000e+02,-3.238263094590010382e-01,0.000000000000000000e+00
3.940000000000000000e+02,-5.201866919321674887e-01,0.000000000000000000e+00
3.950000000000000000e+02,-1.429977318039782341e-01,0.000000000000000000e+00
3.960000000000000000e+02,-1.668392101806362438e-01,0.000000000000000000e+00
3.970000000000000000e+02,-2.579417067120160501e-01,0.000000000000000000e+00
3.980000000000000000e+02,-4.677303859993951485e-01,0.000000000000000000e+00
3.990000000000000000e+02,-3.737094007808671181e-01,0.000000000000000000e+00
4.000000000000000000e+02,-4.090271508159402658e-01,0.000000000000000000e+00
4.010000000000000000e+02,9.612722361472645846e-03,0.000000000000000000e+00
4.020000000000000000e+02,1.188241358624584493e-01,0.000000000000000000e+00
4.030000000000000000e+02,7.289818729092485405e-01,0.000000000000000000e+00
4.040000000000000000e+02,1.184438995584003118e+00,0.000000000000000000e+00
4.050000000000000000e+02,8.423086820192379198e-01,0.000000000000000000e+00
4.060000000000000000e+02,4.683821601794306844e-01,0.000000000000000000e+00
4.070000000000000000e+02,2.428458122746572911e-01,0.000000000000000000e+00
4.080000000000000000e+02,3.344856602742853763e-02,0.000000000000000000e+00
4.090000000000000000e+02,3.256332475491046513e-02,0.000000000000000000e+00
4.100000000000000000e+02,-8.148186363090741124e-02,0.000000000000000000e+00
4.110000000000000000e+02,3.198326215966214026e-01,0.000000000000000000e+00
4.120000000000000000e+02,3.618739724568562077e-01,0.000000000000000000e+00
4.130000000000000000e+02,1.072556950062285575e-01,0.000000000000000000e+00
4.140000000000000000e+02,3.763784246227562802e-01,0.000000000000000000e+00
4.150000000000000000e+02,2.615780396379741579e-01,0.000000000000000000e+00
4.160000000000000000e+02,6.294408387204193656e-02,0.000000000000000000e+00
4.170000000000000000e+02,3.755378952411788079e-03,0.000000000000000000e+00
4.180000000000000000e+02,-1.241138423789413803e-01,0.000000000000000000e+00
4.190000000000000000e+02,9.776890983630248666e-02,0.000000000000000000e+00
4.200000000000000000e+02,2.567206013872656567e-01,0.000000000000000000e+00
4.210000000000000000e+02,2.907357611026809563e-01,0.000000000000000000e+00
4.220000000000000000e+02,4.166703808554768074e-01,0.000000000000000000e+00
4.230000000000000000e+02,3.445292743135692781e-01,0.000000000000000000e+00
4.240000000000000000e+02,3.101683964928567683e-01,0.000000000000000000e+00
4.250000000000000000e+02,1.413099853865496247e-01,0.000000000000000000e+00
4.260000000000000000e+02,-2.491762091039236571e-01,0.000000000000000000e+00
4.270000000000000000e+02,-4.049524554681928068e-01,0.000000000000000000e+00
4.280000000000000000e+02,-2.036984703365924410e-01,0.000000000000000000e+00
4.290000000000000000e+02,-2.457708268885188951e-01,0.000000000000000000e+00
4.300000000000000000e+02,3.418437396768480574e-01,0.000000000000000000e+00
4.310000000000000000e+02,4.303658871899703087e+00,0.000000000000000000e+00
4.320000000000000000e+02,5.592842392727099821e-01,1.000000000000000000e+00
4.330000000000000000e+02,-2.687903888789060058e+00,0.000000000000000000e+00
4.340000000000000000e+02,-2.982794081773272765e+00,0.000000000000000000e+00
4.350000000000000000e+02,-1.695072339107568826e+00,0.000000000000000000e+00
4.360000000000000000e+02,-9.543540218128786223e-02,0.000000000000000000e+00
4.370000000000000000e+02,-2.392311243033462265e-01,0.000000000000000000e+00
4.380000000000000000e+02,1.413605942968265694e-01,0.000000000000000000e+00
4.390000000000000000e+02,-2.393773291465816633e-01,0.000000000000000000e+00
4.400000000000000000e+02,-9.183979827433350063e-02,0.000000000000000000e+00
4.410000000000000000e+02,-4.061222845573549400e-01,0.000000000000000000e+00
4.420000000000000000e+02,-2.920950809247953583e-01,0.000000000000000000e+00
4.430000000000000000e+02,-1.378073239237200820e-01,0.000000000000000000e+00
4.440000000000000000e+02,9.230452456698641506e-02,0.000000000000000000e+00
4.450000000000000000e+02,2.039252741747401426e-02,0.000000000000000000e+00
4.460000000000000000e+02,3.278498476301422437e-01,0.000000000000000000e+00
4.470000000000000000e+02,3.272360028373799690e-01,0.000000000000000000e+00
4.480000000000000000e+02,8.102835412741496990e-01,0.000000000000000000e+00
4.490000000000000000e+02,8.109584118168884359e-01,0.000000000000000000e+00
4.500000000000000000e+02,9.415385337338336713e-01,0.000000000000000000e+00
4.510000000000000000e+02,4.540755398072032767e-01,0.000000000000000000e+00
4.520000000000000000e+02,4.504008808811107989e-01,0.000000000000000000e+00
4.530000000000000000e+02,3.014772024469803968e-01,0.000000000000000000e+00
4.540000000000000000e+02,2.547945702528467415e-01,0.000000000000000000e+00
4.550000000000000000e+02,1.843476359074812942e-01,0.000000000000000000e+00
4.560000000000000000e+02,3.534668026258569462e-01,0.000000000000000000e+00
4.570000000000000000e+02,-5.298401096834767787e-02,0.000000000000000000e+00
4.580000000000000000e+02,1.257249716510663307e-01,0.000000000000000000e+00
4.590000000000000000e+02,1.777962224794842339e-01,0.000000000000000000e+00
4.600000000000000000e+02,4.589752238136295820e-02,0.000000000000000000e+00
4.610000000000000000e+02,4.208617623661415480e-02,0.000000000000000000e+00
4.620000000000000000e+02,2.484345278256185063e-02,0.000000000000000000e+00
4.630000000000000000e+02,2.604951649472107555e-01,0.000000000000000000e+00
4.640000000000000000e+02,2.507945766139377808e-01,0.000000000000000000e+00
4.650000000000000000e+02,2.245290637024549008e-01,0.000000000000000000e+00
4.660000000000000000e+02,5.577098494959802366e-01,0.000000000000000000e+00
4.670000000000000000e+02,3.336293752473821206e-01,0.000000000000000000e+00
4.680000000000000000e+02,2.918806367965722237e-01,0.000000000000000000e+00
4.690000000000000000e+02,-7.460743364998290161e-02,0.000000000000000000e+00
4.700000000000000000e+02,1.422113641452056598e-01,0.000000000000000000e+00
4.710000000000000000e+02,-7.178168127571107893e-02,0.000000000000000000e+00
4.720000000000000000e+02,-3.560966603563545108e-01,0.000000000000000000e+00
4.730000000000000000e+02,-2.964136518842426793e-01,0.000000000000000000e+00
4.740000000000000000e+02,-2.094407079125467849e-02,0.000000000000000000e+00
4.750000000000000000e+02,-5.494346568797130459e-01,0.000000000000000000e+00
4.760000000000000000e+02,3.051809677870995330e+00,0.000000000000000000e+00
4.770000000000000000e+02,3.322605667678464769e+00,0.000000000000000000e+00
4.780000000000000000e+02,-1.429570524468080528e+00,1.000000000000000000e+00
4.790000000000000000e+02,-2.262023951861346305e+00,0.000000000000000000e+00
4.800000000000000000e+02,-2.622800061105177605e+00,0.000000000000000000e+00
4.810000000000000000e+02,-8.481576316297230189e-01,0.000000000000000000e+00
4.820000000000000000e+02,-5.116712902906778160e-01,0.000000000000000000e+00
4.830000000000000000e+02,-4.173910774632624276e-01,0.000000000000000000e+00
4.840000000000000000e+02,-4.370752464997230691e-01,0.000000000000000000e+00
4.850000000000000000e+02,-3.814624115192592479e-01,0.000000000000000000e+00
4.860000000000000000e+02,-2.818732543040186611e-01,0.000000000000000000e+00
4.870000000000000000e+02,-2.688758857486031606e-01,0.000000000000000000e+00
4.880000000000000000e+02,7.826471513029278557e-03,0.000000000000000000e+00
4.890000000000000000e+02,-2.664521015854285912e-01,0.000000000000000000e+00
4.900000000000000000e+02,-1.987329364827416511e-01,0.000000000000000000e+00
4.910000000000000000e+02,3.725753994781828837e-02,0.000000000000000000e+00
4.920000000000000000e+02,1.846737753823746858e-02,0.000000000000000000e+00
4.930000000000000000e+02,2.700054517871015025e-01,0.000000000000000000e+00
4.940000000000000000e+02,4.196236918468276289e-01,0.000000000000000000e+00
4.950000000000000000e+02,6.137550198288881376e-01,0.000000000000000000e+00
4.960000000000000000e+02,1.741566110758537012e-01,0.000000000000000000e+00
4.970000000000000000e+02,2.262954770011032513e-01,0.000000000000000000e+00
4.980000000000000000e+02,-5.803940391630278695e-02,0.000000000000000000e+00
4.990000000000000000e+02,1.796390990562646006e-01,0.000000000000000000e+00
5.000000000000000000e+02,7.331660719786419096e-03,0.000000000000000000e+00
5.010000000000000000e+02,-2.054134029987321475e-01,0.000000000000000000e+00
5.020000000000000000e+02,-1.639470136876589601e-01,0.000000000000000000e+00
5.030000000000000000e+02,-1.689373827244386450e-02,0.000000000000000000e+00
5.040000000000000000e+02,-1.912147080889783080e-01,0.000000000000000000e+00
5.050000000000000000e+02,-7.430806306379833526e-02,0.000000000000000000e+00
5.060000000000000000e+02,-3.912746621978792083e-01,0.000000000000000000e+00
5.070000000000000000e+02,1.256612378334681090e-01,0.000000000000000000e+00
5.080000000000000000e+02,-1.872441482700670512e-01,0.000000000000000000e+00
5.090000000000000000e+02,-2.535228490704615756e-01,0.000000000000000000e+00
5.100000000000000000e+02,-2.608977114925055685e-01,0.000000000000000000e+00
5.110000000000000000e+02,-8.093072496803335736e-02,0.000000000000000000e+00
5.120000000000000000e+02,2.808852217488097547e-02,0.000000000000000000e+00
5.130000000000000000e+02,2.270268527352045929e-01,0.000000000000000000e+00
5.140000000000000000e+02,1.364485614202682051e-01,0.000000000000000000e+00
5.150000000000000000e+02,1.944841063170817119e-01,0.000000000000000000e+00
5.160000000000000000e+02,-1.392774187437106253e-03,0.000000000000000000e+00
5.170000000000000000e+02,1.027098919127877735e-01,0.000000000000000000e+00
5.180000000000000000e+02,-1.846735679032654731e-01,0.000000000000000000e+00
5.190000000000000000e+02,2.352464451153565561e-01,0.000000000000000000e+00
5.200000000000000000e+02,-5.425841277117697814e-01,0.000000000000000000e+00
5.210000000000000000e+02,3.267151379784580811e+00,0.000000000000000000e+00
5.220000000000000000e+02,3.050296728711391570e+00,0.000000000000000000e+00
5.230000000000000000e+02,-2.002352112006451357e+00,1.000000000000000000e+00
5.240000000000000000e+02,-2.957049238621162424e+00,0.000000000000000000e+00
5.250000000000000000e+02,-2.636956467484345534e+00,0.000000000000000000e+00
5.260000000000000000e+02,-9.588939869820223283e-01,0.000000000000000000e+00
5.270000000000000000e+02,-7.935137305298776145e-01,0.000000000000000000e+00
5.280000000000000000e+02,-5.544642808297896019e-01,0.000000000000000000e+00
5.290000000000000000e+02,-4.906994867097103086e-01,0.000000000000000000e+00
5.300000000000000000e+02,-3.447006783556145759e-01,0.000000000000000000e+00
5.310000000000000000e+02,-1.847667628059477818e-01,0.000000000000000000e+00
5.320000000000000000e+02,-1.362419986395102256e-01,0.000000000000000000e+00
5.330000000000000000e+02,-3.994571800214272717e-01,0.000000000000000000e+00
5.340000000000000000e+02,-3.033660149437288900e-01,0.000000000000000000e+00
5.350000000000000000e+02,-4.435100747963192092e-01,0.000000000000000000e+00
5.360000000000000000e+02,-2.385056639504821441e-01,0.000000000000000000e+00
5.370000000000000000e+02,1.126316221119356142e-01,0.000000000000000000e+00
5.380000000000000000e+02,4.142237884299116435e-01,0.000000000000000000e+00
5.390000000000000000e+02,6.433455658256549414e-01,0.000000000000000000e+00
5.400000000000000000e+02,9.407885399132667192e-01,0.000000000000000000e+00
5.410000000000000000e+02,4.900202653411940279e-01,0.000000000000000000e+00
5.420000000000000000e+02,1.663332717534745653e-01,0.000000000000000000e+00
5.430000000000000000e+02,1.849715514459801813e-01,0.000000000000000000e+00
5.440000000000000000e+02,-7.961116861628911301e-02,0.000000000000000000e+00
5.450000000000000000e+02,2.396325907807776712e-02,0.000000000000000000e+00
5.460000000000000000e+02,1.000933794607300475e-01,0.000000000000000000e+00
5.470000000000000000e+02,2.739001424513931582e-01,0.000000000000000000e+00
5.480000000000000000e+02,2.414024866785787760e-01,0.000000000000000000e+00
5.490000000000000000e+02,7.937926742867675023e-02,0.000000000000000000e+00
5.500000000000000000e+02,1.083091168533553000e-01,0.000000000000000000e+00
5.510000000000000000e+02,8.969842841953010182e-02,0.000000000000000000e+00
5.520000000000000000e+02,-2.423030699723137948e-01,0.000000000000000000e+00
5.530000000000000000e+02,1.265828914518132564e-01,0.000000000000000000e+00
5.540000000000000000e+02,2.313045894429169302e-01,0.000000000000000000e+00
5.550000000000000000e+02,3.609874067101044859e-01,0.000000000000000000e+00
5.560000000000000000e+02,2.814237347177295789e-01,0.000000000000000000e+00
5.570000000000000000e+02,2.639641578301059610e-01,0.000000000000000000e+00
5.580000000000000000e+02,2.749557067618630390e-01,0.000000000000000000e+00
5.590000000000000000e+02,-1.186766047973727839e-01,0.000000000000000000e+00
5.600000000000000000e+02,-3.347828658293893617e-02,0.000000000000000000e+00
5.610000000000000000e+02,-2.114878745280945882e-01,0.000000000000000000e+00
5.620000000000000000e+02,-4.336736752278384510e-01,0.000000000000000000e+00
5.630000000000000000e+02,-3.399786437027966790e-01,0.000000000000000000e+00
5.640000000000000000e+02,6.450480161073181284e-02,0.000000000000000000e+00
5.650000000000000000e+02,-7.280152148645424592e-01,0.000000000000000000e+00
5.660000000000000000e+02,2.547977438413400186e+00,0.000000000000000000e+00
5.670000000000000000e+02,4.453143131792513643e+00,0.000000000000000000e+00
5.680000000000000000e+02,-9.132991268311799749e-01,1.000000000000000000e+00
5.690000000000000000e+02,-2.294936726855790532e+00,0.000000000000000000e+00
5.700000000000000000e+02,-2.509435949506185981e+00,0.000000000000000000e+00
5.710000000000000000e+02,-6.188399279791076957e-01,0.000000000000000000e+00
5.720000000000000000e+02,-2.757700885283330683e-01,0.000000000000000000e+00
5.730000000000000000e+02,-1.118445614439076835e-01,0.000000000000000000e+00
5.740000000000000000e+02,-1.922030333586468853e-01,0.000000000000000000e+00
5.750000000000000000e+02,6.241208262846120042e-02,0.000000000000000000e+00
5.760000000000000000e+02,-2.076921936746631975e-02,0.000000000000000000e+00
5.770000000000000000e+02,-3.029812798194673681e-02,0.000000000000000000e+00
5.780000000000000000e+02,-8.065830046863398106e-03,0.000000000000000000e+00
5.790000000000000000e+02,2.851476507672809912e-01,0.000000000000000000e+00
5.800000000000000000e+02,2.016688764290595626e-01,0.000000000000000000e+00
5.810000000000000000e+02,3.180623818356190236e-01,0.000000000000000000e+00
5.820000000000000000e+02,1.754688164490309232e-01,0.000000000000000000e+00
5.830000000000000000e+02,4.150998196950936303e-01,0.000000000000000000e+00
5.840000000000000000e+02,7.475761442498290998e-01,0.000000000000000000e+00
5.850000000000000000e+02,8.946813716288569696e-01,0.000000000000000000e+00
5.860000000000000000e+02,5.483256834410950020e-01,0.000000000000000000e+00
5.870000000000000000e+02,5.141652943378496321e-01,0.000000000000000000e+00
5.880000000000000000e+02,2.279268701711164025e-01,0.000000000000000000e+00
5.890000000000000000e+02,4.772924641007209035e-01,0.000000000000000000e+00
5.900000000000000000e+02,2.713817669179603431e-01,0.000000000000000000e+00
5.910000000000000000e+02,3.757379998229340434e-01,0.000000000000000000e+00
5.920000000000000000e+02,3.337449281970114590e-02,0.000000000000000000e+00
5.930000000000000000e+02,1.866914297361953537e-02,0.000000000000000000e+00
5.940000000000000000e+02,3.705116699517955331e-02,0.000000000000000000e+00
5.950000000000000000e+02,9.942063700627773448e-02,0.000000000000000000e+00
5.960000000000000000e+02,1.838266932002520851e-02,0.000000000000000000e+00
5.970000000000000000e+02,3.109763534523483086e-01,0.000000000000000000e+00
5.980000000000000000e+02,1.015466779375883283e-01,0.000000000000000000e+00
5.990000000000000000e+02,-2.201848883867807971e-01,0.000000000000000000e+00
6.000000000000000000e+02,-5.167238103341675187e-02,0.000000000000000000e+00
6.010000000000000000e+02,3.064405878205470057e-01,0.000000000000000000e+00
6.020000000000000000e+02,1.602155144428042965e-01,0.000000000000000000e+00
6.030000000000000000e+02,4.723974409356545001e-01,0.000000000000000000e+00
6.040000000000000000e+02,2.053968565759585752e-01,0.000000000000000000e+00
6.050000000000000000e+02,1.636616564625981984e-01,0.000000000000000000e+00
6.060000000000000000e+02,-2.594972346243694661e-01,0.000000000000000000e+00
6.070000000000000000e+02,-2.850369184466003958e-01,0.000000000000000000e+00
6.080000000000000000e+02,-2.035882014272285823e-01,0.000000000000000000e+00
6.090000000000000000e+02,-7.951049974784470120e-02,0.000000000000000000e+00
6.100000000000000000e+02,-6.556998622877778793e-01,0.000000000000000000e+00
6.110000000000000000e+02,1.801963176701028679e+00,0.000000000000000000e+00
6.120000000000000000e+02,4.043352089868744947e+00,0.000000000000000000e+00
6.130000000000000000e+02,-9.975024128005766100e-01,1.000000000000000000e+00
6.140000000000000000e+02,-2.562005201215725947e+00,0.000000000000000000e+00
6.150000000000000000e+02,-2.708128394895783497e+00,0.000000000000000000e+00
6.160000000000000000e+02,-1.127482471730927749e+00,0.000000000000000000e+00
6.170000000000000000e+02,-3.330407358857233047e-01,0.000000000000000000e+00
6.180000000000000000e+02,-2.994160647097530714e-01,0.000000000000000000e+00
6.190000000000000000e+02,-1.457228788229776584e-01,0.000000000000000000e+00
6.200000000000000000e+02,-3.484782957685899074e-01,0.000000000000000000e+00
6.210000000000000000e+02,-2.332695095405061536e-01,0.000000000000000000e+00
6.220000000000000000e+02,-2.194904319583803887e-01,0.000000000000000000e+00
6.230000000000000000e+02,-4.370398981656698489e-01,0.000000000000000000e+00
6.240000000000000000e+02,-3.142337758121857560e-01,0.000000000000000000e+00
6.250000000000000000e+02,-3.597379888203357523e-01,0.000000000000000000e+00
6.260000000000000000e+02,-1.713591296644481066e-01,0.000000000000000000e+00
6.270000000000000000e+02,4.608811141032820302e-02,0.000000000000000000e+00
6.280000000000000000e+02,-1.123512636472048798e-01,0.000000000000000000e+00
6.290000000000000000e+02,4.050335751676075180e-01,0.000000000000000000e+00
6.300000000000000000e+02,7.178619038469261637e-01,0.000000000000000000e+00
6.310000000000000000e+02,5.072706660333323736e-01,0.000000000000000000e+00
6.320000000000000000e+02,6.097316673498719419e-01,0.000000000000000000e+00
6.330000000000000000e+02,5.225101554820876792e-01,0.000000000000000000e+00
6.340000000000000000e+02,2.568302861327887432e-01,0.000000000000000000e+00
6.350000000000000000e+02,9.484777121798824984e-02,0.000000000000000000e+00
6.360000000000000000e+02,2.023909428147001033e-01,0.000000000000000000e+00
6.370000000000000000e+02,9.727549579567066479e-03,0.000000000000000000e+00
6.380000000000000000e+02,-1.409527252328532376e-01,0.000000000000000000e+00
6.390000000000000000e+02,-5.364726908656820559e-01,0.000000000000000000e+00
6.400000000000000000e+02,-8.209478841661543846e-01,0.000000000000000000e+00
6.410000000000000000e+02,1.183228200405020081e+00,0.000000000000000000e+00
6.420000000000000000e+02,4.674140819811943182e+00,0.000000000000000000e+00
6.430000000000000000e+02,5.132787101590984946e+00,0.000000000000000000e+00
6.440000000000000000e+02,3.140625655637037106e+00,0.000000000000000000e+00
6.450000000000000000e+02,-1.370431684434551212e+00,1.000000000000000000e+00
6.460000000000000000e+02,-2.621989116117589447e+00,0.000000000000000000e+00
6.470000000000000000e+02,-2.561724547168878541e+00,0.000000000000000000e+00
6.480000000000000000e+02,-2.117390803879578787e+00,0.000000000000000000e+00
6.490000000000000000e+02,-2.227366711798418386e+00,0.000000000000000000e+00
6.500000000000000000e+02,-2.060187201506670451e+00,0.000000000000000000e+00
6.510000000000000000e+02,-1.829296246977853313e+00,0.000000000000000000e+00
6.520000000000000000e+02,-1.943940948782332701e+00,0.000000000000000000e+00
6.530000000000000000e+02,-1.605707683069268255e+00,0.000000000000000000e+00
6.540000000000000000e+02,-1.749303210886527404e+00,0.000000000000000000e+00
6.550000000000000000e+02,-1.517352327598233686e+00,0.000000000000000000e+00
6.560000000000000000e+02,-1.387571215925043733e+00,0.000000000000000000e+00
6.570000000000000000e+02,-9.783125888872876708e-01,0.000000000000000000e+00
6.580000000000000000e+02,-3.615626032403988499e-01,0.000000000000000000e+00
6.590000000000000000e+02,-2.446591715103742237e-01,0.000000000000000000e+00
6.600000000000000000e+02,9.316118733433870203e-02,0.000000000000000000e+00
6.610000000000000000e+02,3.615388431508691491e-01,0.000000000000000000e+00
6.620000000000000000e+02,7.247056540489856813e-01,0.000000000000000000e+00
6.630000000000000000e+02,6.276104151938627362e-01,0.000000000000000000e+00
6.640000000000000000e+02,7.614787362361787881e-01,0.000000000000000000e+00
6.650000000000000000e+02,5.187717035999340753e-01,0.000000000000000000e+00
6.660000000000000000e+02,7.272346075425256684e-01,0.000000000000000000e+00
6.670000000000000000e+02,4.196114376538088719e-01,0.000000000000000000e+00
6.680000000000000000e+02,9.041900625462404584e-01,0.000000000000000000e+00
6.690000000000000000e+02,4.990124729946050497e-01,0.000000000000000000e+00
6.700000000000000000e+02,5.530439487574557722e-01,0.000000000000000000e+00
6.710000000000000000e+02,5.003455802139750164e-01,0.000000000000000000e+00
6.720000000000000000e+02,2.191298218589226299e-01,0.000000000000000000e+00
6.730000000000000000e+02,3.458373272565341550e-01,0.000000000000000000e+00
6.740000000000000000e+02,5.642058003562665514e-01,0.000000000000000000e+00
6.750000000000000000e+02,5.500529352407503847e-01,0.000000000000000000e+00
6.760000000000000000e+02,7.350255838861187163e-01,0.000000000000000000e+00
6.770000000000000000e+02,5.029774350899208768e-01,0.000000000000000000e+00
6.780000000000000000e+02,5.171892232698984682e-01,0.000000000000000000e+00
6.790000000000000000e+02,1.462885176370882501e-01,0.000000000000000000e+00
6.800000000000000000e+02,3.780764562287117214e-01,0.000000000000000000e+00
6.810000000000000000e+02,-7.479467916371107528e-02,0.000000000000000000e+00
6.820000000000000000e+02,3.059522340493848191e-01,0.000000000000000000e+00
6.830000000000000000e+02,3.682004334330612472e-01,0.000000000000000000e+00
6.840000000000000000e+02,3.870711185744286076e-01,0.000000000000000000e+00
6.850000000000000000e+02,5.352275235740060477e-01,0.000000000000000000e+00
6.860000000000000000e+02,5.574849249074139701e-01,0.000000000000000000e+00
6.870000000000000000e+02,5.936613882430002292e-02,0.000000000000000000e+00
6.880000000000000000e+02,1.924645543732011466e-01,0.000000000000000000e+00
6.890000000000000000e+02,-1.220832555088627452e-01,0.000000000000000000e+00
6.900000000000000000e+02,7.368752361929359340e-02,0.000000000000000000e+00
6.910000000000000000e+02,7.937249078013899894e-02,0.000000000000000000e+00
6.920000000000000000e+02,4.812108936662323200e-01,0.000000000000000000e+00
6.930000000000000000e+02,4.183155908821595825e-01,0.000000000000000000e+00
6.940000000000000000e+02,1.000839955422091254e+00,0.000000000000000000e+00
6.950000000000000000e+02,5.064240464550482379e-01,0.000000000000000000e+00
6.960000000000000000e+02,5.459053645353735273e-01,0.000000000000000000e+00
6.970000000000000000e+02,-1.000007852968190919e-01,0.000000000000000000e+00
6.980000000000000000e+02,-2.821734265782751550e-01,0.000000000000000000e+00
6.990000000000000000e+02,-5.350601257152270973e-01,0.000000000000000000e+00
7.000000000000000000e+02,-4.481130746116918084e-01,0.000000000000000000e+00
7.010000000000000000e+02,4.112880948362355737e-01,0.000000000000000000e+00
7.020000000000000000e+02,4.714918331439834631e+00,0.000000000000000000e+00
7.030000000000000000e+02,1.446144922815491674e+00,1.000000000000000000e+00
7.040000000000000000e+02,-2.402641618839258530e+00,0.000000000000000000e+00
7.050000000000000000e+02,-2.957119653055082509e+00,0.000000000000000000e+00
7.060000000000000000e+02,-2.327017233178504618e+00,0.000000000000000000e+00
7.070000000000000000e+02,-8.558833778435886996e-01,0.000000000000000000e+00
7.080000000000000000e+02,-8.138280423344088632e-01,0.000000000000000000e+00
7.090000000000000000e+02,-6.847712723001471158e-01,0.000000000000000000e+00
7.100000000000000000e+02,-5.118372245096743933e-01,0.000000000000000000e+00
7.110000000000000000e+02,-1.031368485846348576e-01,0.000000000000000000e+00
7.120000000000000000e+02,-4.697599671929509890e-01,0.000000000000000000e+00
7.130000000000000000e+02,-2.482607470731687249e-01,0.000000000000000000e+00
7.140000000000000000e+02,-6.936390466070545546e-01,0.000000000000000000e+00
7.150000000000000000e+02,-4.606776501336238838e-01,0.000000000000000000e+00
7.160000000000000000e+02,-5.257461432822617686e-01,0.000000000000000000e+00
7.170000000000000000e+02,-3.760910188397677545e-01,0.000000000000000000e+00
7.180000000000000000e+02,-2.701376392365288925e-01,0.000000000000000000e+00
7.190000000000000000e+02,5.072334363704413818e-01,0.000000000000000000e+00
7.200000000000000000e+02,1.016662155817136703e+00,0.000000000000000000e+00
7.210000000000000000e+02,1.181783650515848105e+00,0.000000000000000000e+00
7.220000000000000000e+02,7.813370830134240830e-01,0.000000000000000000e+00
7.230000000000000000e+02,7.213637008054147870e-01,0.000000000000000000e+00
7.240000000000000000e+02,2.311291517304180088e-01,0.000000000000000000e+00
7.250000000000000000e+02,1.685801753285423588e-01,0.000000000000000000e+00
7.260000000000000000e+02,-2.796721081773420048e-01,0.000000000000000000e+00
7.270000000000000000e+02,-1.803901774686956783e-01,0.000000000000000000e+00
7.280000000000000000e+02,-2.452253523688268377e-01,0.000000000000000000e+00
7.290000000000000000e+02,-1.134256273375259250e-01,0.000000000000000000e+00
7.300000000000000000e+02,-3.325176353684680119e-01,0.000000000000000000e+00
7.310000000000000000e+02,-1.666958696868318934e-01,0.000000000000000000e+00
7.320000000000000000e+02,-6.243327714003160667e-01,0.000000000000000000e+00
7.330000000000000000e+02,-4.146110320053144616e-01,0.000000000000000000e+00
7.340000000000000000e+02,-3.517323856809826399e-01,0.000000000000000000e+00
7.350000000000000000e+02,-3.467857835000323075e-01,0.000000000000000000e+00
7.360000000000000000e+02,-3.441899313949185468e-01,0.000000000000000000e+00
7.370000000000000000e+02,-1.707797939284775024e-01,0.000000000000000000e+00
7.380000000000000000e+02,3.551536423872319603e-01,0.000000000000000000e+00
7.390000000000000000e+02,6.197721869266953343e-01,0.000000000000000000e+00
7.400000000000000000e+02,3.142484504628844100e-01,0.000000000000000000e+00
7.410000000000000000e+02,2.177388096353953251e-01,0.000000000000000000e+00
7.420000000000000000e+02,-3.529659581075675345e-01,0.000000000000000000e+00
7.430000000000000000e+02,-5.345484817317088799e-01,0.000000000000000000e+00
7.440000000000000000e+02,-6.027576160668477456e-01,0.000000000000000000e+00
7.450000000000000000e+02,-1.134588199751160459e-01,0.000000000000000000e+00
7.460000000000000000e+02,-2.268006714443771832e-01,0.000000000000000000e+00
7.470000000000000000e+02,-3.675586082343657718e-02,0.000000000000000000e+00
7.480000000000000000e+02,4.725568187743351523e+00,0.000000000000000000e+00
7.490000000000000000e+02,1.904656694862091548e+00,1.000000000000000000e+00
7.500000000000000000e+02,-2.265134303675871319e+00,0.000000000000000000e+00
7.510000000000000000e+02,-2.699121889222091841e+00,0.000000000000000000e+00
7.520000000000000000e+02,-2.579311920676141678e+00,0.000000000000000000e+00
7.530000000000000000e+02,-4.730998459134415079e-01,0.000000000000000000e+00
7.540000000000000000e+02,-6.099061235277208892e-01,0.000000000000000000e+00
7.550000000000000000e+02,-1.385332066401411266e-01,0.000000000000000000e+00
7.560000000000000000e+02,-4.035753664694891607e-01,0.000000000000000000e+00
7.570000000000000000e+02,-7.511367989301137582e-01,0.000000000000000000e+00
7.580000000000000000e+02,-6.184377154955669198e-01,0.000000000000000000e+00
7.590000000000000000e+02,-2.146256711285835228e-01,0.000000000000000000e+00
7.600000000000000000e+02,-1.486567519938033766e-01,0.000000000000000000e+00
7.610000000000000000e+02,-1.560348407242577971e-02,0.000000000000000000e+00
7.620000000000000000e+02,3.545836707506558327e-02,0.000000000000000000e+00
7.630000000000000000e+02,2.352533637847971093e-01,0.000000000000000000e+00
7.640000000000000000e+02,1.336037035659526084e-01,0.000000000000000000e+00
7.650000000000000000e+02,7.766263226378465889e-01,0.000000000000000000e+00
7.660000000000000000e+02,6.900126397297701164e-01,0.000000000000000000e+00
7.670000000000000000e+02,4.112504248602689705e-01,0.000000000000000000e+00
7.680000000000000000e+02,6.528988848918536592e-01,0.000000000000000000e+00
7.690000000000000000e+02,2.752424796246398797e-01,0.000000000000000000e+00
7.700000000000000000e+02,2.599769953686812407e-01,0.000000000000000000e+00
7.710000000000000000e+02,2.953172979921896979e-01,0.000000000000000000e+00
7.720000000000000000e+02,8.463051088930248489e-02,0.000000000000000000e+00
7.730000000000000000e+02,3.241345014301323380e-01,0.000000000000000000e+00
7.740000000000000000e+02,1.368426363105141319e-01,0.000000000000000000e+00
7.750000000000000000e+02,-1.073791131943724192e-01,0.000000000000000000e+00
7.760000000000000000e+02,-3.869469592538793967e-01,0.000000000000000000e+00
7.770000000000000000e+02,-8.614959897674438760e-02,0.000000000000000000e+00
7.780000000000000000e+02,-1.848984619415678099e-01,0.000000000000000000e+00
7.790000000000000000e+02,2.041130052866774458e-01,0.000000000000000000e+00
7.800000000000000000e+02,1.632205878359813400e-01,0.000000000000000000e+00
7.810000000000000000e+02,6.878896554106069816e-01,0.000000000000000000e+00
7.820000000000000000e+02,6.226583714899172062e-01,0.000000000000000000e+00
7.830000000000000000e+02,1.042741715940631364e+00,0.000000000000000000e+00
7.840000000000000000e+02,6.261350526747407885e-01,0.000000000000000000e+00
7.850000000000000000e+02,6.928773872872041606e-01,0.000000000000000000e+00
7.860000000000000000e+02,5.958399553775782787e-01,0.000000000000000000e+00
7.870000000000000000e+02,4.215553888533869475e-01,0.000000000000000000e+00
7.880000000000000000e+02,-1.178371964961725804e-01,0.000000000000000000e+00
7.890000000000000000e+02,4.684491953833404276e-02,0.000000000000000000e+00
7.900000000000000000e+02,-3.934488736856965596e-02,0.000000000000000000e+00
7.910000000000000000e+02,1.561240202605891081e-01,0.000000000000000000e+00
7.920000000000000000e+02,-5.393802219812893206e-01,0.000000000000000000e+00
7.930000000000000000e+02,2.710975568868325247e+00,0.000000000000000000e+00
7.940000000000000000e+02,4.259957582547867716e+00,0.000000000000000000e+00
7.950000000000000000e+02,-1.235777729350342247e+00,1.000000000000000000e+00
7.960000000000000000e+02,-2.872676858666917799e+00,0.000000000000000000e+00
7.970000000000000000e+02,-2.861173555998254958e+00,0.000000000000000000e+00
7.980000000000000000e+02,-6.510225606720984048e-01,0.000000000000000000e+00
7.990000000000000000e+02,-4.154934738693231711e-01,0.000000000000000000e+00
8.000000000000000000e+02,-9.945276197826116715e-02,0.000000000000000000e+00
8.010000000000000000e+02,-6.057613267829763393e-01,0.000000000000000000e+00
8.020000000000000000e+02,-2.460650323688804431e-01,0.000000000000000000e+00
8.030000000000000000e+02,-1.115924368431688157e-01,0.000000000000000000e+00
8.040000000000000000e+02,-1.588254033972665569e-01,0.000000000000000000e+00
8.050000000000000000e+02,-2.558924895185903381e-01,0.000000000000000000e+00
8.060000000000000000e+02,-2.090602695061657135e-01,0.000000000000000000e+00
8.070000000000000000e+02,-2.487781815955179276e-01,0.000000000000000000e+00
8.080000000000000000e+02,-3.908928567074105298e-01,0.000000000000000000e+00
8.090000000000000000e+02,-1.419223070520967134e-01,0.000000000000000000e+00
8.100000000000000000e+02,3.607011839443276524e-01,0.000000000000000000e+00
8.110000000000000000e+02,8.290488101866282378e-01,0.000000000000000000e+00
8.120000000000000000e+02,1.101514593170276113e+00,0.000000000000000000e+00
8.130000000000000000e+02,9.326513807757060848e-01,0.000000000000000000e+00
8.140000000000000000e+02,6.589534042763455224e-01,0.000000000000000000e+00
8.150000000000000000e+02,6.066510045202500034e-01,0.000000000000000000e+00
8.160000000000000000e+02,4.633700400918647211e-01,0.000000000000000000e+00
8.170000000000000000e+02,4.013988677694396157e-01,0.000000000000000000e+00
8.180000000000000000e+02,1.303740715139815876e-01,0.000000000000000000e+00
8.190000000000000000e+02,-4.310823125920778404e-02,0.000000000000000000e+00
8.200000000000000000e+02,2.444976478615381865e-01,0.000000000000000000e+00
8.210000000000000000e+02,-3.036007303548192704e-01,0.000000000000000000e+00
8.220000000000000000e+02,-5.342512531866142750e-02,0.000000000000000000e+00
8.230000000000000000e+02,-7.915376534471517400e-02,0.000000000000000000e+00
8.240000000000000000e+02,1.523184451385280538e-02,0.000000000000000000e+00
8.250000000000000000e+02,-4.491911904964387969e-02,0.000000000000000000e+00
8.260000000000000000e+02,5.772254638335098248e-02,0.000000000000000000e+00
8.270000000000000000e+02,9.155434915123709938e-02,0.000000000000000000e+00
8.280000000000000000e+02,2.292692555436281199e-01,0.000000000000000000e+00
8.290000000000000000e+02,-1.176878001167984454e-03,0.000000000000000000e+00
8.300000000000000000e+02,1.757474162060004286e-01,0.000000000000000000e+00
8.310000000000000000e+02,-2.997930000979124113e-02,0.000000000000000000e+00
8.320000000000000000e+02,-1.944387637320552920e-01,0.000000000000000000e+00
8.330000000000000000e+02,-3.357995155158661760e-01,0.000000000000000000e+00
8.340000000000000000e+02,-5.587560795208438291e-01,0.000000000000000000e+00
8.350000000000000000e+02,-5.165898929577507070e-01,0.000000000000000000e+00
8.360000000000000000e+02,-4.196193549614703477e-01,0.000000000000000000e+00
8.370000000000000000e+02,-1.032020506674428129e+00,0.000000000000000000e+00
8.380000000000000000e+02,-6.470589426664609400e-02,0.000000000000000000e+00
8.390000000000000000e+02,4.732756872902065481e+00,0.000000000000000000e+00
8.400000000000000000e+02,8.273787903664286958e-01,1.000000000000000000e+00
8.410000000000000000e+02,-2.478517465076668369e+00,0.000000000000000000e+00
8.420000000000000000e+02,-3.088954370404174199e+00,0.000000000000000000e+00
8.430000000000000000e+02,-2.319501194355728213e+00,0.000000000000000000e+00
8.440000000000000000e+02,-5.650056797320148760e-01,0.000000000000000000e+00
8.450000000000000000e+02,-7.632846469894243313e-01,0.000000000000000000e+00
8.460000000000000000e+02,-3.388358132232966446e-01,0.000000000000000000e+00
8.470000000000000000e+02,-5.105922845170586255e-01,0.000000000000000000e+00
8.480000000000000000e+02,-1.995566026350745203e-01,0.000000000000000000e+00
8.490000000000000000e+02,-2.405296919573287062e-01,0.000000000000000000e+00
8.500000000000000000e+02,-2.220012610353511717e-01,0.000000000000000000e+00
8.510000000000000000e+02,-3.161656495264026923e-01,0.000000000000000000e+00
8.520000000000000000e+02,-5.639248083623896873e-02,0.000000000000000000e+00
8.530000000000000000e+02,-2.833237790522074584e-01,0.000000000000000000e+00
8.540000000000000000e+02,1.681224152382168879e-01,0.000000000000000000e+00
8.550000000000000000e+02,1.441519324200358776e-01,0.000000000000000000e+00
8.560000000000000000e+02,5.258089805359217328e-01,0.000000000000000000e+00
8.570000000000000000e+02,8.200517922666310522e-01,0.000000000000000000e+00
8.580000000000000000e+02,5.804770869783832943e-01,0.000000000000000000e+00
8.590000000000000000e+02,3.198942884494053174e-01,0.000000000000000000e+00
8.600000000000000000e+02,3.482836765080877250e-01,0.000000000000000000e+00
8.610000000000000000e+02,2.925012410374506350e-02,0.000000000000000000e+00
8.620000000000000000e+02,2.855670308395067414e-01,0.000000000000000000e+00
8.630000000000000000e+02,1.596879719268285147e-01,0.000000000000000000e+00
8.640000000000000000e+02,1.435769764572069063e-01,0.000000000000000000e+00
8.650000000000000000e+02,1.419771676481980383e-01,0.000000000000000000e+00
8.660000000000000000e+02,1.683418919791707380e-01,0.000000000000000000e+00
8.670000000000000000e+02,-2.216269754267665912e-02,0.000000000000000000e+00
8.680000000000000000e+02,1.168806056713077440e-01,0.000000000000000000e+00
8.690000000000000000e+02,-1.173463489579591457e-01,0.000000000000000000e+00
8.700000000000000000e+02,-4.604813561499122854e-02,0.000000000000000000e+00
8.710000000000000000e+02,1.733310280776909351e-01,0.000000000000000000e+00
8.720000000000000000e+02,2.163835546461900794e-01,0.000000000000000000e+00
8.730000000000000000e+02,2.761686541424407393e-01,0.000000000000000000e+00
8.740000000000000000e+02,5.509172226902453451e-01,0.000000000000000000e+00
8.750000000000000000e+02,4.017945072421825192e-01,0.000000000000000000e+00
8.760000000000000000e+02,3.061352876189375460e-01,0.000000000000000000e+00
8.770000000000000000e+02,2.583968709604305136e-01,0.000000000000000000e+00
8.780000000000000000e+02,4.281128657825791772e-02,0.000000000000000000e+00
8.790000000000000000e+02,-2.169520187354242458e-01,0.000000000000000000e+00
8.800000000000000000e+02,-1.935026147658135964e-01,0.000000000000000000e+00
8.810000000000000000e+02,-1.706812111032179335e-01,0.000000000000000000e+00
8.820000000000000000e+02,-2.523810319134286995e-01,0.000000000000000000e+00
8.830000000000000000e+02,2.892033192483062232e-01,0.000000000000000000e+00
8.840000000000000000e+02,5.201652587869307176e+00,0.000000000000000000e+00
8.850000000000000000e+02,1.808529540310898520e+00,1.000000000000000000e+00
8.860000000000000000e+02,-1.538458584862882450e+00,0.000000000000000000e+00
8.870000000000000000e+02,-2.038163321087046675e+00,0.000000000000000000e+00
8.880000000000000000e+02,-1.868853294751514404e+00,0.000000000000000000e+00
8.890000000000000000e+02,2.352374363198339591e-02,0.000000000000000000e+00
8.900000000000000000e+02,-1.271115576892621890e-01,0.000000000000000000e+00
8.910000000000000000e+02,-2.172029276920505597e-02,0.000000000000000000e+00
8.920000000000000000e+02,-3.530857796828742318e-02,0.000000000000000000e+00
8.930000000000000000e+02,-2.353706607675756513e-01,0.000000000000000000e+00
8.940000000000000000e+02,-3.552509385874817460e-01,0.000000000000000000e+00
8.950000000000000000e+02,-4.095102784426575271e-01,0.000000000000000000e+00
8.960000000000000000e+02,-3.313053784677233438e-01,0.000000000000000000e+00
8.970000000000000000e+02,-2.952452609381667759e-01,0.000000000000000000e+00
8.980000000000000000e+02,-2.356004455799545205e-01,0.000000000000000000e+00
8.990000000000000000e+02,-7.832821289393587794e-01,0.000000000000000000e+00
9.000000000000000000e+02,1.128900197043468390e-01,0.000000000000000000e+00
9.010000000000000000e+02,4.776138232265209616e-01,0.000000000000000000e+00
9.020000000000000000e+02,6.002163330079740566e-01,0.000000000000000000e+00
9.030000000000000000e+02,3.848616467576724265e-01,0.000000000000000000e+00
9.040000000000000000e+02,-4.645018322425025631e-02,0.000000000000000000e+00
9.050000000000000000e+02,5.212694718617032208e-02,0.000000000000000000e+00
9.060000000000000000e+02,-1.554458925058014029e-01,0.000000000000000000e+00
9.070000000000000000e+02,-1.336625837276600448e-01,0.000000000000000000e+00
9.080000000000000000e+02,4.334121732717005626e-02,0.000000000000000000e+00
9.090000000000000000e+02,2.525367115898615733e-01,0.000000000000000000e+00
9.100000000000000000e+02,4.318156609638793553e-01,0.000000000000000000e+00
9.110000000000000000e+02,4.692047302683361454e-01,0.000000000000000000e+00
9.120000000000000000e+02,1.583499761703976993e-01,0.000000000000000000e+00
9.130000000000000000e+02,3.716021866977158861e-01,0.000000000000000000e+00
9.140000000000000000e+02,3.755385063268493750e-01,0.000000000000000000e+00
9.150000000000000000e+02,2.008047796629149617e-01,0.000000000000000000e+00
9.160000000000000000e+02,7.726270628993126000e-02,0.000000000000000000e+00
9.170000000000000000e+02,-3.511521430616270506e-02,0.000000000000000000e+00
9.180000000000000000e+02,-4.089681099270790487e-01,0.000000000000000000e+00
9.190000000000000000e+02,-1.447677113748098432e-01,0.000000000000000000e+00
9.200000000000000000e+02,-1.561654258975193055e-01,0.000000000000000000e+00
9.210000000000000000e+02,-2.724166492050187904e-01,0.000000000000000000e+00
9.220000000000000000e+02,-8.377863639478336233e-02,0.000000000000000000e+00
9.230000000000000000e+02,-2.291036198563496662e-01,0.000000000000000000e+00
9.240000000000000000e+02,-3.542639493351997237e-01,0.000000000000000000e+00
9.250000000000000000e+02,-2.527607185064092987e-01,0.000000000000000000e+00
9.260000000000000000e+02,-3.967623877576407776e-01,0.000000000000000000e+00
9.270000000000000000e+02,-8.099271456607276543e-01,0.000000000000000000e+00
9.280000000000000000e+02,1.804694176451464571e+00,0.000000000000000000e+00
9.290000000000000000e+02,3.782285583715157440e+00,0.000000000000000000e+00
9.300000000000000000e+02,-1.063241892500464747e+00,1.000000000000000000e+00
9.310000000000000000e+02,-2.431316043128932236e+00,0.000000000000000000e+00
9.320000000000000000e+02,-2.927930821736218103e+00,0.000000000000000000e+00
9.330000000000000000e+02,-1.074451581415539980e+00,0.000000000000000000e+00
9.340000000000000000e+02,-5.070699130566497237e-01,0.000000000000000000e+00
9.350000000000000000e+02,-4.464077290556012767e-01,0.000000000000000000e+00
9.360000000000000000e+02,-3.155185193362655127e-01,0.000000000000000000e+00
9.370000000000000000e+02,-3.825259034803801250e-01,0.000000000000000000e+00
9.380000000000000000e+02,-2.159280314075469609e-01,0.000000000000000000e+00
9.390000000000000000e+02,-2.281793843425191648e-01,0.000000000000000000e+00
9.400000000000000000e+02,-1.264983995420254637e-01,0.000000000000000000e+00
9.410000000000000000e+02,-3.956879441087505361e-02,0.000000000000000000e+00
9.420000000000000000e+02,-1.328006201986681734e-01,0.000000000000000000e+00
9.430000000000000000e+02,4.527750071236875257e-02,0.000000000000000000e+00
9.440000000000000000e+02,6.666381984211355860e-02,0.000000000000000000e+00
9.450000000000000000e+02,2.615111317545694147e-01,0.000000000000000000e+00
9.460000000000000000e+02,4.657701418319698528e-01,0.000000000000000000e+00
9.470000000000000000e+02,9.253409333255147029e-01,0.000000000000000000e+00
9.480000000000000000e+02,6.961018301287762444e-01,0.000000000000000000e+00
9.490000000000000000e+02,6.852134411691541693e-01,0.000000000000000000e+00
9.500000000000000000e+02,5.083611427542213956e-01,0.000000000000000000e+00
9.510000000000000000e+02,4.306206427947864013e-01,0.000000000000000000e+00
9.520000000000000000e+02,1.850227359312801301e-01,0.000000000000000000e+00
9.530000000000000000e+02,2.212178214932666587e-01,0.000000000000000000e+00
9.540000000000000000e+02,2.928466986903670646e-02,0.000000000000000000e+00
9.550000000000000000e+02,1.658325417554032677e-01,0.000000000000000000e+00
9.560000000000000000e+02,2.940166133388631003e-02,0.000000000000000000e+00
9.570000000000000000e+02,-1.100676653696833623e-01,0.000000000000000000e+00
9.580000000000000000e+02,-1.439955470846533414e-01,0.000000000000000000e+00
9.590000000000000000e+02,-2.216989100369733730e-03,0.000000000000000000e+00
9.600000000000000000e+02,5.153617273640257596e-02,0.000000000000000000e+00
9.610000000000000000e+02,1.229298878245665624e-03,0.000000000000000000e+00
9.620000000000000000e+02,2.966155155526790654e-01,0.000000000000000000e+00
9.630000000000000000e+02,3.858731393227714523e-01,0.000000000000000000e+00
9.640000000000000000e+02,6.654612862228720394e-01,0.000000000000000000e+00
9.650000000000000000e+02,6.383255727176383454e-01,0.000000000000000000e+00
9.660000000000000000e+02,1.174921750740340332e-01,0.000000000000000000e+00
9.670000000000000000e+02,5.341121232445216194e-01,0.000000000000000000e+00
9.680000000000000000e+02,-1.410599153114175941e-01,0.000000000000000000e+00
9.690000000000000000e+02,-9.626961263538956481e-02,0.000000000000000000e+00
9.700000000000000000e+02,-7.013991240381769465e-01,0.000000000000000000e+00
9.710000000000000000e+02,-3.064008466924868224e-02,0.000000000000000000e+00
9.720000000000000000e+02,-7.606688461556507797e-01,0.000000000000000000e+00
9.730000000000000000e+02,2.883357864950556682e+00,0.000000000000000000e+00
9.740000000000000000e+02,4.192371160384194440e+00,0.000000000000000000e+00
9.750000000000000000e+02,-1.330559270122243509e+00,1.000000000000000000e+00
9.760000000000000000e+02,-2.661934339560822149e+00,0.000000000000000000e+00
9.770000000000000000e+02,-2.599858807407434913e+00,0.000000000000000000e+00
9.780000000000000000e+02,-8.094643675239254765e-01,0.000000000000000000e+00
9.790000000000000000e+02,-5.602465933562563727e-01,0.000000000000000000e+00
9.800000000000000000e+02,-4.568645588262348345e-01,0.000000000000000000e+00
9.810000000000000000e+02,-4.479538210893524997e-01,0.000000000000000000e+00
9.820000000000000000e+02,-4.036209851283815708e-01,0.000000000000000000e+00
9.830000000000000000e+02,-5.151789482788787788e-01,0.000000000000000000e+00
9.840000000000000000e+02,-2.349092762910099386e-01,0.000000000000000000e+00
9.850000000000000000e+02,-9.632898470904296961e-02,0.000000000000000000e+00
9.860000000000000000e+02,6.746812272788424263e-03,0.000000000000000000e+00
9.870000000000000000e+02,-2.382272923954645294e-01,0.000000000000000000e+00
9.880000000000000000e+02,-3.188473977397756620e-01,0.000000000000000000e+00
9.890000000000000000e+02,-8.815633564427162450e-02,0.000000000000000000e+00
9.900000000000000000e+02,1.796497251177428534e-02,0.000000000000000000e+00
9.910000000000000000e+02,4.056989147696373199e-01,0.000000000000000000e+00
9.920000000000000000e+02,6.515310586796710934e-01,0.000000000000000000e+00
9.930000000000000000e+02,4.443066478373693950e-01,0.000000000000000000e+00
9.940000000000000000e+02,-2.703808566364075405e-01,0.000000000000000000e+00
9.950000000000000000e+02,4.647639705913910180e-01,0.000000000000000000e+00
9.960000000000000000e+02,7.856720575022065889e-01,0.000000000000000000e+00
9.970000000000000000e+02,7.303095196673009548e-02,0.000000000000000000e+00
9.980000000000000000e+02,1.809048774447129804e-01,0.000000000000000000e+00
9.990000000000000000e+02,2.057123852170325215e-02,0.000000000000000000e+00
1.000000000000000000e+03,1.279634790226137908e-01,0.000000000000000000e+00
1.001000000000000000e+03,2.217130778511342340e-02,0.000000000000000000e+00
1.002000000000000000e+03,4.335083853967258150e-01,0.000000000000000000e+00
1.003000000000000000e+03,6.547805024422255482e-02,0.000000000000000000e+00
1.004000000000000000e+03,1.600570500502906113e-01,0.000000000000000000e+00
1.005000000000000000e+03,1.362026283357548606e-01,0.000000000000000000e+00
1.006000000000000000e+03,2.577324328853997648e-01,0.000000000000000000e+00
1.007000000000000000e+03,2.958546980505833424e-01,0.000000000000000000e+00
1.008000000000000000e+03,8.427626799694830362e-02,0.000000000000000000e+00
1.009000000000000000e+03,1.741643949065772856e-01,0.000000000000000000e+00
1.010000000000000000e+03,1.186314054598649470e-01,0.000000000000000000e+00
1.011000000000000000e+03,4.881557341280629014e-01,0.000000000000000000e+00
1.012000000000000000e+03,3.998732886489406169e-01,0.000000000000000000e+00
1.013000000000000000e+03,2.892400084770264113e-01,0.000000000000000000e+00
1.014000000000000000e+03,-2.055566594964068627e-02,0.000000000000000000e+00
1.015000000000000000e+03,-4.625272349437550834e-02,0.000000000000000000e+00
1.016000000000000000e+03,-2.144025792764604754e-01,0.000000000000000000e+00
1.017000000000000000e+03,-1.207811139017748031e-01,0.000000000000000000e+00
1.018000000000000000e+03,-6.463063004234478326e-01,0.000000000000000000e+00
1.019000000000000000e+03,1.397785699150606575e+00,0.000000000000000000e+00
1.020000000000000000e+03,4.446782362899901031e+00,0.000000000000000000e+00
1.021000000000000000e+03,-3.199719340805943779e-01,1.000000000000000000e+00
1.022000000000000000e+03,-2.341941472448303863e+00,0.000000000000000000e+00
1.023000000000000000e+03,-2.880812678858729825e+00,0.000000000000000000e+00
1.024000000000000000e+03,-1.369087759862736009e+00,0.000000000000000000e+00
1.025000000000000000e+03,-4.384865805833788599e-01,0.000000000000000000e+00
1.026000000000000000e+03,-5.073898933688424373e-01,0.000000000000000000e+00
1.027000000000000000e+03,-1.005474500952034250e-01,0.000000000000000000e+00
1.028000000000000000e+03,-5.008543274639716270e-01,0.000000000000000000e+00
1.029000000000000000e+03,-2.125439887357505053e-01,0.000000000000000000e+00
1.030000000000000000e+03,-8.531975948023706735e-02,0.000000000000000000e+00
1.031000000000000000e+03,-9.389497858534724406e-01,0.000000000000000000e+00
1.032000000000000000e+03,-5.391281863632142457e-01,0.000000000000000000e+00
1.033000000000000000e+03,-2.307991235947123576e-01,0.000000000000000000e+00
1.034000000000000000e+03,3.484273432340941890e-01,0.000000000000000000e+00
1.035000000000000000e+03,4.670001590337502506e-01,0.000000000000000000e+00
1.036000000000000000e+03,3.034553322626020178e-01,0.000000000000000000e+00
1.037000000000000000e+03,1.267721400687923383e-01,0.000000000000000000e+00
1.038000000000000000e+03,5.117281012294643272e-01,0.000000000000000000e+00
1.039000000000000000e+03,7.873747243918977068e-02,0.000000000000000000e+00
1.040000000000000000e+03,1.250414423247419027e-01,0.000000000000000000e+00
1.041000000000000000e+03,2.011635747703146015e-01,0.000000000000000000e+00
1.042000000000000000e+03,6.362098669362777903e-01,0.000000000000000000e+00
1.043000000000000000e+03,2.145324946736980321e-01,0.000000000000000000e+00
1.044000000000000000e+03,7.066796983273487820e-01,0.000000000000000000e+00
1.045000000000000000e+03,3.022681729922581662e-01,0.000000000000000000e+00
1.046000000000000000e+03,1.972294361765840609e-01,0.000000000000000000e+00
1.047000000000000000e+03,-3.631523409311616102e-01,0.000000000000000000e+00
1.048000000000000000e+03,-2.903524266280894661e-01,0.000000000000000000e+00
1.049000000000000000e+03,-7.472772897316878327e-01,0.000000000000000000e+00
1.050000000000000000e+03,-5.988692832424196144e-01,0.000000000000000000e+00
1.051000000000000000e+03,-1.080827301143713476e-01,0.000000000000000000e+00
1.052000000000000000e+03,2.732784575586297282e-01,0.000000000000000000e+00
1.053000000000000000e+03,2.385019940962396223e-01,0.000000000000000000e+00
1.054000000000000000e+03,4.476945426758404678e-01,0.000000000000000000e+00
1.055000000000000000e+03,3.505839640976896598e-01,0.000000000000000000e+00
1.056000000000000000e+03,4.028838037175009879e-01,0.000000000000000000e+00
1.057000000000000000e+03,1.653237810772549554e-01,0.000000000000000000e+00
1.058000000000000000e+03,9.070544046849994199e-03,0.000000000000000000e+00
1.059000000000000000e+03,-2.614510574015662669e-01,0.000000000000000000e+00
1.060000000000000000e+03,-6.727776411344799090e-02,0.000000000000000000e+00
1.061000000000000000e+03,-6.546183244307119953e-01,0.000000000000000000e+00
1.062000000000000000e+03,-5.192879048722309765e-01,0.000000000000000000e+00
1.063000000000000000e+03,-1.037963762438092429e-02,0.000000000000000000e+00
1.064000000000000000e+03,-1.282625468951395231e-01,0.000000000000000000e+00
1.065000000000000000e+03,-1.708366868420038154e-01,0.000000000000000000e+00
1.066000000000000000e+03,4.168113190064413942e+00,0.000000000000000000e+00
1.067000000000000000e+03,1.977156157625849842e+00,0.000000000000000000e+00
1.068000000000000000e+03,-2.504892132211295586e+00,1.000000000000000000e+00
1.069000000000000000e+03,-3.286732520139737268e+00,0.000000000000000000e+00
1.070000000000000000e+03,-2.082019522684567470e+00,0.000000000000000000e+00
1.071000000000000000e+03,-4.525587908076735277e-01,0.000000000000000000e+00
1.072000000000000000e+03,-2.136875248973176267e-01,0.000000000000000000e+00
1.073000000000000000e+03,-1.295631270399451029e-01,0.000000000000000000e+00
1.074000000000000000e+03,-2.815396999971319092e-01,0.000000000000000000e+00
1.075000000000000000e+03,-3.358103051107292347e-01,0.000000000000000000e+00
1.076000000000000000e+03,-3.338386839920692850e-01,0.000000000000000000e+00
1.077000000000000000e+03,-3.433742248774195316e-01,0.000000000000000000e+00
1.078000000000000000e+03,-2.957721888778530595e-01,0.000000000000000000e+00
1.079000000000000000e+03,3.923768307706452380e-02,0.000000000000000000e+00
1.080000000000000000e+03,-2.721006321528000871e-02,0.000000000000000000e+00
1.081000000000000000e+03,5.760199735340408578e-02,0.000000000000000000e+00
1.082000000000000000e+03,2.136109428494202267e-01,0.000000000000000000e+00
1.083000000000000000e+03,5.072740118158450828e-01,0.000000000000000000e+00
1.084000000000000000e+03,8.881585686405697455e-01,0.000000000000000000e+00
1.085000000000000000e+03,8.262410950730370018e-01,0.000000000000000000e+00
1.086000000000000000e+03,1.980452015851777992e-01,0.000000000000000000e+00
1.087000000000000000e+03,2.708949950368282344e-01,0.000000000000000000e+00
1.088000000000000000e+03,-2.405323613647104841e-02,0.000000000000000000e+00
1.089000000000000000e+03,-4.329945973588295027e-02,0.000000000000000000e+00
1.090000000000000000e+03,1.503411776384853404e-01,0.000000000000000000e+00
1.091000000000000000e+03,3.924715265477607962e-01,0.000000000000000000e+00
1.092000000000000000e+03,1.119170940752564625e-01,0.000000000000000000e+00
1.093000000000000000e+03,1.971772350485519187e-01,0.000000000000000000e+00
1.094000000000000000e+03,8.781001138168148534e-02,0.000000000000000000e+00
1.095000000000000000e+03,2.755274912094788364e-01,0.000000000000000000e+00
1.096000000000000000e+03,-1.656515226276189245e-01,0.000000000000000000e+00
1.097000000000000000e+03,1.596810095520798112e-02,0.000000000000000000e+00
1.098000000000000000e+03,-2.050965347843254349e-01,0.000000000000000000e+00
1.099000000000000000e+03,1.610425233320283145e-01,0.000000000000000000e+00
1.100000000000000000e+03,6.899529691474447224e-02,0.000000000000000000e+00
1.101000000000000000e+03,2.565952958696972597e-01,0.000000000000000000e+00
1.102000000000000000e+03,6.741590642250380183e-01,0.000000000000000000e+00
1.103000000000000000e+03,8.349097953793285232e-01,0.000000000000000000e+00
1.104000000000000000e+03,7.421418872510899822e-01,0.000000000000000000e+00
1.105000000000000000e+03,6.998164239683705157e-01,0.000000000000000000e+00
1.106000000000000000e+03,2.415047954268860209e-01,0.000000000000000000e+00
1.107000000000000000e+03,1.835021464150009274e-01,0.000000000000000000e+00
1.108000000000000000e+03,-2.260674438838225497e-01,0.000000000000000000e+00
1.109000000000000000e+03,-1.508271326229573273e-01,0.000000000000000000e+00
1.110000000000000000e+03,-2.837172009240398474e-01,0.000000000000000000e+00
1.111000000000000000e+03,-4.125386804698374932e-01,0.000000000000000000e+00
1.112000000000000000e+03,-3.298765354269632133e-01,0.000000000000000000e+00
1.113000000000000000e+03,4.570734074816437342e+00,0.000000000000000000e+00
1.114000000000000000e+03,2.063558126487645694e+00,1.000000000000000000e+00
1.115000000000000000e+03,-2.141974431104186838e+00,0.000000000000000000e+00
1.116000000000000000e+03,-2.778916699044467808e+00,0.000000000000000000e+00
1.117000000000000000e+03,-2.054500067245944805e+00,0.000000000000000000e+00
1.118000000000000000e+03,-5.003921278894369884e-01,0.000000000000000000e+00
1.119000000000000000e+03,-4.402738121626110779e-01,0.000000000000000000e+00
1.120000000000000000e+03,-4.542833466529211939e-01,0.000000000000000000e+00
1.121000000000000000e+03,-7.828289210271011100e-02,0.000000000000000000e+00
1.122000000000000000e+03,-3.743820809414759032e-01,0.000000000000000000e+00
1.123000000000000000e+03,-1.927180701541977847e-01,0.000000000000000000e+00
1.124000000000000000e+03,-2.104719090043339347e-01,0.000000000000000000e+00
1.125000000000000000e+03,-3.051202859936935075e-01,0.000000000000000000e+00
1.126000000000000000e+03,-3.038112710038785580e-01,0.000000000000000000e+00
1.127000000000000000e+03,-4.695135587497510921e-01,0.000000000000000000e+00
1.128000000000000000e+03,-2.684321931637835279e-01,0.000000000000000000e+00
1.129000000000000000e+03,8.713560975026730937e-02,0.000000000000000000e+00
1.130000000000000000e+03,4.048905770991068076e-01,0.000000000000000000e+00
1.131000000000000000e+03,9.232016044268417376e-01,0.000000000000000000e+00
1.132000000000000000e+03,9.413455771589922527e-01,0.000000000000000000e+00
1.133000000000000000e+03,8.836782973572661071e-01,0.000000000000000000e+00
1.134000000000000000e+03,4.540521726563820359e-01,0.000000000000000000e+00
1.135000000000000000e+03,3.211604981424112659e-01,0.000000000000000000e+00
1.136000000000000000e+03,1.250999911787789853e-01,0.000000000000000000e+00
1.137000000000000000e+03,5.441150981072311044e-02,0.000000000000000000e+00
1.138000000000000000e+03,-6.081822810650375916e-02,0.000000000000000000e+00
1.139000000000000000e+03,-1.906307117551287594e-02,0.000000000000000000e+00
1.140000000000000000e+03,-2.863938420919219796e-01,0.000000000000000000e+00
1.141000000000000000e+03,-9.008416657714109210e-02,0.000000000000000000e+00
1.142000000000000000e+03,-1.369742951162099265e-02,0.000000000000000000e+00
1.143000000000000000e+03,-1.934442809976176791e-01,0.000000000000000000e+00
1.144000000000000000e+03,3.530036824082171537e-02,0.000000000000000000e+00
1.145000000000000000e+03,-1.754738762214741454e-01,0.000000000000000000e+00
1.146000000000000000e+03,-1.643316213391627645e-01,0.000000000000000000e+00
1.147000000000000000e+03,-3.490481766760485105e-02,0.000000000000000000e+00
1.148000000000000000e+03,1.548520969192242712e-02,0.000000000000000000e+00
1.149000000000000000e+03,1.841703864175593952e-01,0.000000000000000000e+00
1.150000000000000000e+03,5.170658336843771130e-02,0.000000000000000000e+00
1.151000000000000000e+03,2.885268602897510526e-01,0.000000000000000000e+00
1.152000000000000000e+03,2.973983051595566751e-01,0.000000000000000000e+00
1.153000000000000000e+03,1.935666579438714285e-01,0.000000000000000000e+00
1.154000000000000000e+03,2.619345125461700619e-01,0.000000000000000000e+00
1.155000000000000000e+03,2.455601638696423006e-01,0.000000000000000000e+00
1.156000000000000000e+03,-7.115947172302471146e-02,0.000000000000000000e+00
1.157000000000000000e+03,-1.958747765466955504e-01,0.000000000000000000e+00
1.158000000000000000e+03,-4.816987259020443224e-01,0.000000000000000000e+00
1.159000000000000000e+03,-1.693970415609672986e-01,0.000000000000000000e+00
1.160000000000000000e+03,-7.644788017109033218e-01,0.000000000000000000e+00
1.161000000000000000e+03,2.682995956595594755e+00,0.000000000000000000e+00
1.162000000000000000e+03,3.587719478106579540e+00,0.000000000000000000e+00
1.163000000000000000e+03,-1.990620167562703324e+00,1.000000000000000000e+00
1.164000000000000000e+03,-2.840187076707173297e+00,0.000000000000000000e+00
1.165000000000000000e+03,-2.947006196737730122e+00,0.000000000000000000e+00
1.166000000000000000e+03,-6.535344246565696347e-01,0.000000000000000000e+00
1.167000000000000000e+03,-4.538042759115467062e-01,0.000000000000000000e+00
1.168000000000000000e+03,-2.141519718055899524e-01,0.000000000000000000e+00
1.169000000000000000e+03,-3.696595150424504261e-01,0.000000000000000000e+00
1.170000000000000000e+03,-5.719111869682160787e-01,0.000000000000000000e+00
1.171000000000000000e+03,-3.122119127934450122e-01,0.000000000000000000e+00
1.172000000000000000e+03,-5.112597935508919056e-01,0.000000000000000000e+00
1.173000000000000000e+03,-4.378896726463923361e-01,0.000000000000000000e+00
1.174000000000000000e+03,-4.432873941621549574e-01,0.000000000000000000e+00
1.175000000000000000e+03,-2.762141916692517074e-01,0.000000000000000000e+00
1.176000000000000000e+03,4.901421845782939768e-02,0.000000000000000000e+00
1.177000000000000000e+03,-1.375087776740904766e-01,0.000000000000000000e+00
1.178000000000000000e+03,3.452064436162335936e-01,0.000000000000000000e+00
1.179000000000000000e+03,6.475001501941197724e-01,0.000000000000000000e+00
1.180000000000000000e+03,7.835160967855766545e-01,0.000000000000000000e+00
1.181000000000000000e+03,5.448479209295262748e-01,0.000000000000000000e+00
1.182000000000000000e+03,5.998744355410230433e-01,0.000000000000000000e+00
1.183000000000000000e+03,3.413702570431338956e-01,0.000000000000000000e+00
1.184000000000000000e+03,3.435422489126558343e-01,0.000000000000000000e+00
1.185000000000000000e+03,2.277250263257639684e-01,0.000000000000000000e+00
1.186000000000000000e+03,3.431104522728928297e-01,0.000000000000000000e+00
1.187000000000000000e+03,1.643459313958367807e-01,0.000000000000000000e+00
1.188000000000000000e+03,-2.804625598368882256e-01,0.000000000000000000e+00
1.189000000000000000e+03,-1.860805667717689016e-01,0.000000000000000000e+00
1.190000000000000000e+03,-8.957202945845154848e-03,0.000000000000000000e+00
1.191000000000000000e+03,9.921480543629060400e-02,0.000000000000000000e+00
1.192000000000000000e+03,1.680305680102342492e-01,0.000000000000000000e+00
1.193000000000000000e+03,3.231086299744039270e-01,0.000000000000000000e+00
1.194000000000000000e+03,2.550712637876641486e-01,0.000000000000000000e+00
1.195000000000000000e+03,2.158618266642907402e-01,0.000000000000000000e+00
1.196000000000000000e+03,1.066113132070267838e-01,0.000000000000000000e+00
1.197000000000000000e+03,1.461116657387465101e-01,0.000000000000000000e+00
1.198000000000000000e+03,2.586447101274027549e-01,0.000000000000000000e+00
1.199000000000000000e+03,2.003275178942312551e-02,0.000000000000000000e+00
1.200000000000000000e+03,3.366540650220893882e-01,0.000000000000000000e+00
1.201000000000000000e+03,3.636862112270978220e-01,0.000000000000000000e+00
1.202000000000000000e+03,4.237763325294310324e-01,0.000000000000000000e+00
1.203000000000000000e+03,7.874898650802768241e-02,0.000000000000000000e+00
1.204000000000000000e+03,-1.370844330747423012e-01,0.000000000000000000e+00
1.205000000000000000e+03,-2.495047648833444709e-01,0.000000000000000000e+00
1.206000000000000000e+03,-2.960392453129536694e-01,0.000000000000000000e+00
1.207000000000000000e+03,-1.384662603205282505e-01,0.000000000000000000e+00
1.208000000000000000e+03,-5.403900819556655133e-01,0.000000000000000000e+00
1.209000000000000000e+03,1.056906626637735380e+00,0.000000000000000000e+00
1.210000000000000000e+03,4.973517115051585336e+00,0.000000000000000000e+00
1.211000000000000000e+03,-1.320072549073191687e-02,1.000000000000000000e+00
1.212000000000000000e+03,-2.759535654660881132e+00,0.000000000000000000e+00
1.213000000000000000e+03,-3.072207537626779672e+00,0.000000000000000000e+00
1.214000000000000000e+03,-1.365898503252338303e+00,0.000000000000000000e+00
1.215000000000000000e+03,-3.949558364738471328e-01,0.000000000000000000e+00
1.216000000000000000e+03,-2.056855345561221238e-01,0.000000000000000000e+00
1.217000000000000000e+03,3.010591378991507236e-02,0.000000000000000000e+00
1.218000000000000000e+03,-4.667767265499307011e-02,0.000000000000000000e+00
1.219000000000000000e+03,1.652553175353974335e-01,0.000000000000000000e+00
1.220000000000000000e+03,-1.424387596764140618e-01,0.000000000000000000e+00
1.221000000000000000e+03,-3.532632348464478933e-02,0.000000000000000000e+00
1.222000000000000000e+03,-1.504507829572828415e-01,0.000000000000000000e+00
1.223000000000000000e+03,-2.365517095059902486e-01,0.000000000000000000e+00
1.224000000000000000e+03,-2.013192645836956729e-01,0.000000000000000000e+00
1.225000000000000000e+03,-4.532574484290342876e-02,0.000000000000000000e+00
1.226000000000000000e+03,3.520885565651778459e-01,0.000000000000000000e+00
1.227000000000000000e+03,4.676017939610633278e-01,0.000000000000000000e+00
1.228000000000000000e+03,9.127815804163961211e-01,0.000000000000000000e+00
1.229000000000000000e+03,9.718898451343555012e-01,0.000000000000000000e+00
1.230000000000000000e+03,7.734866192687170905e-01,0.000000000000000000e+00
1.231000000000000000e+03,5.248272736626348189e-01,0.000000000000000000e+00
1.232000000000000000e+03,3.228710383031691000e-01,0.000000000000000000e+00
1.233000000000000000e+03,4.216642348769413240e-01,0.000000000000000000e+00
1.234000000000000000e+03,2.776401755701476959e-01,0.000000000000000000e+00
1.235000000000000000e+03,3.519201738222557108e-01,0.000000000000000000e+00
1.236000000000000000e+03,2.212353779992544123e-01,0.000000000000000000e+00
1.237000000000000000e+03,1.768353304307705987e-01,0.000000000000000000e+00
1.238000000000000000e+03,-1.480801716414305580e-01,0.000000000000000000e+00
1.239000000000000000e+03,-3.162757591202823848e-01,0.000000000000000000e+00
1.240000000000000000e+03,-2.176400792515835181e-01,0.000000000000000000e+00
1.241000000000000000e+03,-1.671423106361889788e-01,0.000000000000000000e+00
1.242000000000000000e+03,3.462690713269363924e-02,0.000000000000000000e+00
1.243000000000000000e+03,1.461112615741679693e-02,0.000000000000000000e+00
1.244000000000000000e+03,1.246114011185605053e-01,0.000000000000000000e+00
1.245000000000000000e+03,-2.523270735188101188e-01,0.000000000000000000e+00
1.246000000000000000e+03,3.660215990732398894e-02,0.000000000000000000e+00
1.247000000000000000e+03,-1.555277518092695599e-01,0.000000000000000000e+00
1.248000000000000000e+03,8.864167127737179741e-02,0.000000000000000000e+00
1.249000000000000000e+03,1.830122679202652314e-01,0.000000000000000000e+00
1.250000000000000000e+03,1.756846985322859656e-01,0.000000000000000000e+00
1.251000000000000000e+03,1.686644392561302830e-01,0.000000000000000000e+00
1.252000000000000000e+03,1.406858475544282838e-01,0.000000000000000000e+00
1.253000000000000000e+03,-1.027371049316521817e-01,0.000000000000000000e+00
1.254000000000000000e+03,-4.012861726966736597e-01,0.000000000000000000e+00
1.255000000000000000e+03,-4.461320630302736401e-01,0.000000000000000000e+00
1.256000000000000000e+03,-5.518390961905135228e-01,0.000000000000000000e+00
1.257000000000000000e+03,-8.264090438920447257e-01,0.000000000000000000e+00
1.258000000000000000e+03,-4.500319898221253334e-01,0.000000000000000000e+00
1.259000000000000000e+03,4.817239849847219091e+00,0.000000000000000000e+00
1.260000000000000000e+03,1.877530736545100387e+00,1.000000000000000000e+00
1.261000000000000000e+03,-2.114061764914841657e+00,0.000000000000000000e+00
1.262000000000000000e+03,-2.814516835954489871e+00,0.000000000000000000e+00
1.263000000000000000e+03,-2.550121843096307739e+00,0.000000000000000000e+00
1.264000000000000000e+03,-5.468443548460809600e-01,0.000000000000000000e+00
1.265000000000000000e+03,-8.930012033182476161e-01,0.000000000000000000e+00
1.266000000000000000e+03,-2.714522469508743319e-01,0.000000000000000000e+00
1.267000000000000000e+03,-7.658932484406140162e-01,0.000000000000000000e+00
1.268000000000000000e+03,-2.682255917275143120e-01,0.000000000000000000e+00
1.269000000000000000e+03,-3.565706782450493995e-01,0.000000000000000000e+00
1.270000000000000000e+03,-8.631767901300388401e-02,0.000000000000000000e+00
1.271000000000000000e+03,-3.364651454893800575e-01,0.000000000000000000e+00
1.272000000000000000e+03,3.848098981278145342e-02,0.000000000000000000e+00
1.273000000000000000e+03,-4.538880524735540156e-01,0.000000000000000000e+00
1.274000000000000000e+03,-2.537783846775057972e-01,0.000000000000000000e+00
1.275000000000000000e+03,-1.196076992969022507e-01,0.000000000000000000e+00
1.276000000000000000e+03,2.339366850049172664e-01,0.000000000000000000e+00
1.277000000000000000e+03,7.107561863367751753e-01,0.000000000000000000e+00
1.278000000000000000e+03,9.376833904127409580e-01,0.000000000000000000e+00
1.279000000000000000e+03,6.094904004238127504e-01,0.000000000000000000e+00
1.280000000000000000e+03,3.326180734229206015e-01,0.000000000000000000e+00
1.281000000000000000e+03,2.560428407582637234e-01,0.000000000000000000e+00
1.282000000000000000e+03,9.532959414777253393e-02,0.000000000000000000e+00
1.283000000000000000e+03,1.009112509703800203e-01,0.000000000000000000e+00
1.284000000000000000e+03,5.538978403679313545e-02,0.000000000000000000e+00
1.285000000000000000e+03,-1.631014641725062053e-01,0.000000000000000000e+00
1.286000000000000000e+03,7.425387459480149721e-02,0.000000000000000000e+00
1.287000000000000000e+03,1.653941235210583116e-01,0.000000000000000000e+00
1.288000000000000000e+03,3.052183192946785195e-01,0.000000000000000000e+00
1.289000000000000000e+03,1.301974302929830574e-01,0.000000000000000000e+00
1.290000000000000000e+03,1.229459358871210495e-01,0.000000000000000000e+00
1.291000000000000000e+03,1.795906608838570562e-01,0.000000000000000000e+00
1.292000000000000000e+03,2.120568620591493092e-01,0.000000000000000000e+00
1.293000000000000000e+03,1.059526872943496872e-01,0.000000000000000000e+00
1.294000000000000000e+03,2.095013501380465770e-01,0.000000000000000000e+00
1.295000000000000000e+03,2.790388723726750508e-01,0.000000000000000000e+00
1.296000000000000000e+03,4.484302833030164859e-01,0.000000000000000000e+00
1.297000000000000000e+03,5.174503224700687243e-01,0.000000000000000000e+00
1.298000000000000000e+03,6.655872140228380474e-01,0.000000000000000000e+00
1.299000000000000000e+03,2.658092348484935030e-01,0.000000000000000000e+00
1.300000000000000000e+03,3.486434726364926462e-01,0.000000000000000000e+00
1.301000000000000000e+03,-1.400443535337942136e-01,0.000000000000000000e+00
1.302000000000000000e+03,-6.835833674622973644e-02,0.000000000000000000e+00
1.303000000000000000e+03,-1.431138229926173233e-01,0.000000000000000000e+00
1.304000000000000000e+03,-2.704132672016722888e-02,0.000000000000000000e+00
1.305000000000000000e+03,-4.382195560229651954e-01,0.000000000000000000e+00
1.306000000000000000e+03,2.138016015283624505e+00,0.000000000000000000e+00
1.307000000000000000e+03,4.832157283413129889e+00,0.000000000000000000e+00
1.308000000000000000e+03,-1.815255387766485373e-01,1.000000000000000000e+00
1.309000000000000000e+03,-2.377131648106629136e+00,0.000000000000000000e+00
1.310000000000000000e+03,-2.924000467872549969e+00,0.000000000000000000e+00
1.311000000000000000e+03,-1.410247932937472637e+00,0.000000000000000000e+00
1.312000000000000000e+03,-3.198283013445642475e-01,0.000000000000000000e+00
1.313000000000000000e+03,-5.346436917736494543e-01,0.000000000000000000e+00
1.314000000000000000e+03,-5.548743868961204286e-03,0.000000000000000000e+00
1.315000000000000000e+03,-2.547618952828944461e-01,0.000000000000000000e+00
1.316000000000000000e+03,-6.717552114360078597e-02,0.000000000000000000e+00
1.317000000000000000e+03,-1.713305820461152873e-01,0.000000000000000000e+00
1.318000000000000000e+03,-1.617411560642309509e-01,0.000000000000000000e+00
1.319000000000000000e+03,-4.417029186418193754e-01,0.000000000000000000e+00
1.320000000000000000e+03,-9.587465857653584833e-02,0.000000000000000000e+00
1.321000000000000000e+03,1.350737527639407284e-02,0.000000000000000000e+00
1.322000000000000000e+03,1.311428661841715915e-01,0.000000000000000000e+00
1.323000000000000000e+03,2.661188764312836241e-01,0.000000000000000000e+00
1.324000000000000000e+03,5.045744910775716852e-01,0.000000000000000000e+00
1.325000000000000000e+03,9.138252371888534453e-01,0.000000000000000000e+00
1.326000000000000000e+03,5.754254641313752971e-01,0.000000000000000000e+00
1.327000000000000000e+03,5.213736046720964801e-01,0.000000000000000000e+00
1.328000000000000000e+03,4.225174920593099959e-01,0.000000000000000000e+00
1.329000000000000000e+03,3.061649914060487476e-01,0.000000000000000000e+00
1.330000000000000000e+03,3.379553980734630314e-01,0.000000000000000000e+00
1.331000000000000000e+03,-1.027653323324708400e-02,0.000000000000000000e+00
1.332000000000000000e+03,2.447354595291229840e-01,0.000000000000000000e+00
1.333000000000000000e+03,1.167293990215613891e-01,0.000000000000000000e+00
1.334000000000000000e+03,2.046098732444174770e-02,0.000000000000000000e+00
1.335000000000000000e+03,-7.080474266828334397e-03,0.000000000000000000e+00
1.336000000000000000e+03,6.916868739072880301e-02,0.000000000000000000e+00
1.337000000000000000e+03,-3.734899404943485823e-01,0.000000000000000000e+00
1.338000000000000000e+03,-1.072614807982399526e-01,0.000000000000000000e+00
1.339000000000000000e+03,-3.740713338960598155e-02,0.000000000000000000e+00
1.340000000000000000e+03,-3.050538819529236001e-01,0.000000000000000000e+00
1.341000000000000000e+03,-2.350354823733586951e-01,0.000000000000000000e+00
1.342000000000000000e+03,-6.609692027061570344e-03,0.000000000000000000e+00
1.343000000000000000e+03,-1.600554191062797393e-01,0.000000000000000000e+00
1.344000000000000000e+03,5.681255310214711890e-02,0.000000000000000000e+00
1.345000000000000000e+03,7.856710818216332270e-02,0.000000000000000000e+00
1.346000000000000000e+03,-8.957725441456146354e-02,0.000000000000000000e+00
1.347000000000000000e+03,-4.560773457545144183e-01,0.000000000000000000e+00
1.348000000000000000e+03,-4.129135037099800343e-01,0.000000000000000000e+00
1.349000000000000000e+03,-6.387078331198049463e-01,0.000000000000000000e+00
1.350000000000000000e+03,-5.433470472468056034e-01,0.000000000000000000e+00
1.351000000000000000e+03,-5.646006157763514555e-01,0.000000000000000000e+00
1.352000000000000000e+03,-2.005312649075532694e-01,0.000000000000000000e+00
1.353000000000000000e+03,2.636939101006645012e-02,0.000000000000000000e+00
1.354000000000000000e+03,4.181488441154501245e+00,0.000000000000000000e+00
1.355000000000000000e+03,1.768050017376483707e+00,1.000000000000000000e+00
1.356000000000000000e+03,-2.129236241469330437e+00,0.000000000000000000e+00
1.357000000000000000e+03,-2.546825016463893920e+00,0.000000000000000000e+00
1.358000000000000000e+03,-2.392548712205760708e+00,0.000000000000000000e+00
1.359000000000000000e+03,-9.660103552813961159e-01,0.000000000000000000e+00
1.360000000000000000e+03,-5.845936009289158797e-01,0.000000000000000000e+00
1.361000000000000000e+03,-3.909425854698448388e-01,0.000000000000000000e+00
1.362000000000000000e+03,-6.247374210357535818e-01,0.000000000000000000e+00
1.363000000000000000e+03,-5.325569224708474048e-01,0.000000000000000000e+00
1.364000000000000000e+03,-4.740035256221328819e-01,0.000000000000000000e+00
1.365000000000000000e+03,-3.880436149596056539e-01,0.000000000000000000e+00
1.366000000000000000e+03,-8.870932465650097076e-02,0.000000000000000000e+00
1.367000000000000000e+03,-1.044611546793285800e-01,0.000000000000000000e+00
1.368000000000000000e+03,-5.120564931107456086e-02,0.000000000000000000e+00
1.369000000000000000e+03,2.154862976349705694e-01,0.000000000000000000e+00
1.370000000000000000e+03,5.099208788754638205e-02,0.000000000000000000e+00
1.371000000000000000e+03,4.231340996978759650e-01,0.000000000000000000e+00
1.372000000000000000e+03,5.384690797917180971e-01,0.000000000000000000e+00
1.373000000000000000e+03,5.454725566423914707e-01,0.000000000000000000e+00
1.374000000000000000e+03,4.066780592110216808e-01,0.000000000000000000e+00
1.375000000000000000e+03,2.630831394774241772e-01,0.000000000000000000e+00
1.376000000000000000e+03,-2.393054966783547330e-02,0.000000000000000000e+00
1.377000000000000000e+03,-2.519626036726949070e-01,0.000000000000000000e+00
1.378000000000000000e+03,1.922973720469781378e-01,0.000000000000000000e+00
1.379000000000000000e+03,1.105105557562112151e-01,0.000000000000000000e+00
1.380000000000000000e+03,2.361746761456583743e-01,0.000000000000000000e+00
1.381000000000000000e+03,1.761467628300041333e-01,0.000000000000000000e+00
1.382000000000000000e+03,8.105234161655076874e-02,0.000000000000000000e+00
1.383000000000000000e+03,6.345957588023325158e-02,0.000000000000000000e+00
1.384000000000000000e+03,1.211759294756162286e-01,0.000000000000000000e+00
1.385000000000000000e+03,2.635450538169260004e-01,0.000000000000000000e+00
1.386000000000000000e+03,-7.479728435664120823e-02,0.000000000000000000e+00
1.387000000000000000e+03,4.463748936589221131e-03,0.000000000000000000e+00
1.388000000000000000e+03,2.099787651003406641e-01,0.000000000000000000e+00
1.389000000000000000e+03,-9.384652500656934238e-02,0.000000000000000000e+00
1.390000000000000000e+03,1.328253526507895133e-01,0.000000000000000000e+00
1.391000000000000000e+03,4.718839800005147356e-01,0.000000000000000000e+00
1.392000000000000000e+03,4.571850507035613020e-01,0.000000000000000000e+00
1.393000000000000000e+03,4.069881110842599736e-01,0.000000000000000000e+00
1.394000000000000000e+03,4.601432024070534754e-01,0.000000000000000000e+00
1.395000000000000000e+03,-9.426450559082036329e-02,0.000000000000000000e+00
1.396000000000000000e+03,-2.263436756706012354e-02,0.000000000000000000e+00
1.397000000000000000e+03,-2.539551967770523611e-01,0.000000000000000000e+00
1.398000000000000000e+03,1.069827633433632777e-03,0.000000000000000000e+00
1.399000000000000000e+03,-4.741651625451873131e-01,0.000000000000000000e+00
1.400000000000000000e+03,2.656457261883059751e+00,0.000000000000000000e+00
1.401000000000000000e+03,3.425699718803057348e+00,0.000000000000000000e+00
1.402000000000000000e+03,-1.608963622495645618e+00,1.000000000000000000e+00
1.403000000000000000e+03,-2.788709552469701869e+00,0.000000000000000000e+00
1.404000000000000000e+03,-2.724941029930218583e+00,0.000000000000000000e+00
1.405000000000000000e+03,-7.443551824560300512e-01,0.000000000000000000e+00
1.406000000000000000e+03,-3.632595958371038769e-01,0.000000000000000000e+00
1.407000000000000000e+03,-3.991471748572005818e-01,0.000000000000000000e+00
1.408000000000000000e+03,-3.940683950812622349e-01,0.000000000000000000e+00
1.409000000000000000e+03,-5.620246960186943141e-01,0.000000000000000000e+00
1.410000000000000000e+03,-4.848105150928554430e-01,0.000000000000000000e+00
1.411000000000000000e+03,-9.818926162451585560e-01,0.000000000000000000e+00
1.412000000000000000e+03,-2.684220153232359518e-01,0.000000000000000000e+00
1.413000000000000000e+03,-9.588371946485459152e-02,0.000000000000000000e+00
1.414000000000000000e+03,5.284185479501887078e-02,0.000000000000000000e+00
1.415000000000000000e+03,1.114820310683224402e-01,0.000000000000000000e+00
1.416000000000000000e+03,6.064651847753207287e-02,0.000000000000000000e+00
1.417000000000000000e+03,4.068335670550325411e-01,0.000000000000000000e+00
1.418000000000000000e+03,6.911261890044891887e-01,0.000000000000000000e+00
1.419000000000000000e+03,1.119608353427752334e+00,0.000000000000000000e+00
1.420000000000000000e+03,1.034175841454512579e+00,0.000000000000000000e+00
1.421000000000000000e+03,6.959799544397107240e-01,0.000000000000000000e+00
1.422000000000000000e+03,7.524663711215034967e-01,0.000000000000000000e+00
1.423000000000000000e+03,7.429636226685825129e-01,0.000000000000000000e+00
1.424000000000000000e+03,5.784604704263900388e-01,0.000000000000000000e+00
1.425000000000000000e+03,4.630492815026809317e-01,0.000000000000000000e+00
1.426000000000000000e+03,1.883324708083583543e-01,0.000000000000000000e+00
1.427000000000000000e+03,8.399348563050054728e-02,0.000000000000000000e+00
1.428000000000000000e+03,-9.371657703372714143e-02,0.000000000000000000e+00
1.429000000000000000e+03,-1.582072901669228926e-01,0.000000000000000000e+00
1.430000000000000000e+03,1.255892892575513342e-01,0.000000000000000000e+00
1.431000000000000000e+03,8.221633735503082463e-02,0.000000000000000000e+00
1.432000000000000000e+03,1.608760018457818797e-01,0.000000000000000000e+00
1.433000000000000000e+03,3.244297671339756439e-01,0.000000000000000000e+00
1.434000000000000000e+03,2.764641101777286503e-01,0.000000000000000000e+00
1.435000000000000000e+03,3.438813709090522419e-01,0.000000000000000000e+00
1.436000000000000000e+03,2.146749934395922599e-01,0.000000000000000000e+00
1.437000000000000000e+03,2.114463877513621803e-01,0.000000000000000000e+00
1.438000000000000000e+03,9.107812668660542066e-02,0.000000000000000000e+00
1.439000000000000000e+03,2.858346783882608766e-01,0.000000000000000000e+00
1.440000000000000000e+03,2.749154351798396290e-01,0.000000000000000000e+00
1.441000000000000000e+03,1.457691069463921407e-01,0.000000000000000000e+00
1.442000000000000000e+03,-1.760367815218791820e-01,0.000000000000000000e+00
1.443000000000000000e+03,1.908846333958112429e-01,0.000000000000000000e+00
1.444000000000000000e+03,-1.046796754066809804e-01,0.000000000000000000e+00
1.445000000000000000e+03,-6.196027939262561957e-02,0.000000000000000000e+00
1.446000000000000000e+03,-1.379336701821378131e-01,0.000000000000000000e+00
1.447000000000000000e+03,4.144062298074500106e+00,0.000000000000000000e+00
1.448000000000000000e+03,2.065765914636320311e+00,0.000000000000000000e+00
1.449000000000000000e+03,-2.399050944345041181e+00,1.000000000000000000e+00
1.450000000000000000e+03,-2.705427455419083582e+00,0.000000000000000000e+00
1.451000000000000000e+03,-2.122997955286081151e+00,0.000000000000000000e+00
1.452000000000000000e+03,-3.741302120961682021e-01,0.000000000000000000e+00
1.453000000000000000e+03,-2.960895736509880916e-01,0.000000000000000000e+00
1.454000000000000000e+03,-2.008187110861194835e-01,0.000000000000000000e+00
1.455000000000000000e+03,-3.032508836973950572e-01,0.000000000000000000e+00
1.456000000000000000e+03,-2.195314547521540760e-01,0.000000000000000000e+00
1.457000000000000000e+03,-3.055700389040014731e-01,0.000000000000000000e+00
1.458000000000000000e+03,-3.907359665246036839e-01,0.000000000000000000e+00
1.459000000000000000e+03,-2.858780472591603838e-01,0.000000000000000000e+00
1.460000000000000000e+03,-3.784625572071953492e-01,0.000000000000000000e+00
1.461000000000000000e+03,-4.012604067434916155e-01,0.000000000000000000e+00
1.462000000000000000e+03,-3.433979787505533343e-01,0.000000000000000000e+00
1.463000000000000000e+03,-1.561694550857371244e-01,0.000000000000000000e+00
1.464000000000000000e+03,-9.426077189177869964e-02,0.000000000000000000e+00
1.465000000000000000e+03,4.043866785779611228e-01,0.000000000000000000e+00
1.466000000000000000e+03,6.067099196513887627e-01,0.000000000000000000e+00
1.467000000000000000e+03,6.087091025070437977e-01,0.000000000000000000e+00
1.468000000000000000e+03,3.184432815824869145e-01,0.000000000000000000e+00
1.469000000000000000e+03,2.253400596296320502e-01,0.000000000000000000e+00
1.470000000000000000e+03,4.524729214771421731e-02,0.000000000000000000e+00
1.471000000000000000e+03,-1.849206960889514251e-02,0.000000000000000000e+00
1.472000000000000000e+03,-2.105701068196201564e-01,0.000000000000000000e+00
1.473000000000000000e+03,4.565792864782913102e-02,0.000000000000000000e+00
1.474000000000000000e+03,-8.016221976825697870e-02,0.000000000000000000e+00
1.475000000000000000e+03,-1.233441325021949753e-01,0.000000000000000000e+00
1.476000000000000000e+03,-1.848634393068147030e-01,0.000000000000000000e+00
1.477000000000000000e+03,1.732544176817893966e-01,0.000000000000000000e+00
1.478000000000000000e+03,8.556936166024103896e-02,0.000000000000000000e+00
1.479000000000000000e+03,5.142414799544389042e-02,0.000000000000000000e+00
1.480000000000000000e+03,3.635032737021013927e-01,0.000000000000000000e+00
1.481000000000000000e+03,1.395364420842606090e-01,0.000000000000000000e+00
1.482000000000000000e+03,3.477204299349778704e-01,0.000000000000000000e+00
1.483000000000000000e+03,4.051956962992555034e-01,0.000000000000000000e+00
1.484000000000000000e+03,3.269398919169911322e-01,0.000000000000000000e+00
1.485000000000000000e+03,4.713509290649786632e-01,0.000000000000000000e+00
1.486000000000000000e+03,4.297393639615906258e-01,0.000000000000000000e+00
1.487000000000000000e+03,1.876436324582236859e-01,0.000000000000000000e+00
1.488000000000000000e+03,-1.141708039286694169e-02,0.000000000000000000e+00
1.489000000000000000e+03,-5.830556402032243124e-01,0.000000000000000000e+00
1.490000000000000000e+03,-5.251720678217729477e-01,0.000000000000000000e+00
1.491000000000000000e+03,-6.799683477241295071e-01,0.000000000000000000e+00
1.492000000000000000e+03,-3.080076384141288703e-01,0.000000000000000000e+00
1.493000000000000000e+03,-2.892365296443989986e-01,0.000000000000000000e+00
1.494000000000000000e+03,4.707898446377265955e+00,0.000000000000000000e+00
1.495000000000000000e+03,1.894061996033075790e+00,1.000000000000000000e+00
1.496000000000000000e+03,-2.268801473283098336e+00,0.000000000000000000e+00
1.497000000000000000e+03,-2.771353127209934986e+00,0.000000000000000000e+00
1.498000000000000000e+03,-2.239905578904802574e+00,0.000000000000000000e+00
1.499000000000000000e+03,-7.317253566876203985e-01,0.000000000000000000e+00
1.500000000000000000e+03,-6.068252456078638835e-01,0.000000000000000000e+00
1.501000000000000000e+03,-3.966478122239555093e-01,0.000000000000000000e+00
1.502000000000000000e+03,-2.465238693458655650e-01,0.000000000000000000e+00
1.503000000000000000e+03,-1.463813612539588971e-01,0.000000000000000000e+00
1.504000000000000000e+03,-3.103878160669900077e-01,0.000000000000000000e+00
1.505000000000000000e+03,1.625111977532134877e-01,0.000000000000000000e+00
1.506000000000000000e+03,2.520022973611622530e-01,0.000000000000000000e+00
1.507000000000000000e+03,6.798812001475672273e-02,0.000000000000000000e+00
1.508000000000000000e+03,1.729063707937227301e-01,0.000000000000000000e+00
1.509000000000000000e+03,6.169547257001358614e-03,0.000000000000000000e+00
1.510000000000000000e+03,3.555765267642742034e-01,0.000000000000000000e+00
1.511000000000000000e+03,6.476637543064740488e-01,0.000000000000000000e+00
1.512000000000000000e+03,9.533543754869151510e-01,0.000000000000000000e+00
1.513000000000000000e+03,6.586686654588043144e-01,0.000000000000000000e+00
1.514000000000000000e+03,2.144572884226474685e-01,0.000000000000000000e+00
1.515000000000000000e+03,6.831846253956506965e-02,0.000000000000000000e+00
1.516000000000000000e+03,1.679816385259884914e-01,0.000000000000000000e+00
1.517000000000000000e+03,1.866888584862206879e-01,0.000000000000000000e+00
1.518000000000000000e+03,7.269140744920812858e-02,0.000000000000000000e+00
1.519000000000000000e+03,2.838710360006594935e-01,0.000000000000000000e+00
1.520000000000000000e+03,2.459277590921005452e-01,0.000000000000000000e+00
1.521000000000000000e+03,-3.388513566103985575e-01,0.000000000000000000e+00
1.522000000000000000e+03,1.581054117464483766e-01,0.000000000000000000e+00
1.523000000000000000e+03,6.471296687357842858e-02,0.000000000000000000e+00
1.524000000000000000e+03,-1.242962043885239010e-01,0.000000000000000000e+00
1.525000000000000000e+03,-3.438439835241355880e-01,0.000000000000000000e+00
1.526000000000000000e+03,-2.425761644321354216e-01,0.000000000000000000e+00
1.527000000000000000e+03,-1.878181695498464254e-01,0.000000000000000000e+00
1.528000000000000000e+03,8.058286846669712733e-02,0.000000000000000000e+00
1.529000000000000000e+03,2.954072366702615859e-01,0.000000000000000000e+00
1.530000000000000000e+03,4.650233554049327256e-01,0.000000000000000000e+00
1.531000000000000000e+03,3.581711609852621936e-01,0.000000000000000000e+00
1.532000000000000000e+03,1.076544757962209914e-01,0.000000000000000000e+00
1.533000000000000000e+03,6.407143232406786737e-02,0.000000000000000000e+00
1.534000000000000000e+03,-9.459409014260700133e-02,0.000000000000000000e+00
1.535000000000000000e+03,-5.731886020348310185e-01,0.000000000000000000e+00
1.536000000000000000e+03,-1.142034631058949784e-01,0.000000000000000000e+00
1.537000000000000000e+03,-3.985092892619895855e-01,0.000000000000000000e+00
1.538000000000000000e+03,-4.114941972264163916e-01,0.000000000000000000e+00
1.539000000000000000e+03,2.835707367113672328e-01,0.000000000000000000e+00
1.540000000000000000e+03,4.362634149482416568e+00,0.000000000000000000e+00
1.541000000000000000e+03,5.925016235571869405e-01,1.000000000000000000e+00
1.542000000000000000e+03,-2.768437051129529092e+00,0.000000000000000000e+00
1.543000000000000000e+03,-3.209077690040930353e+00,0.000000000000000000e+00
1.544000000000000000e+03,-1.786398475983418388e+00,0.000000000000000000e+00
1.545000000000000000e+03,-5.581666127141980960e-01,0.000000000000000000e+00
1.546000000000000000e+03,-5.018463325933065766e-01,0.000000000000000000e+00
1.547000000000000000e+03,-3.108905410119732760e-01,0.000000000000000000e+00
1.548000000000000000e+03,-6.061262653637721209e-01,0.000000000000000000e+00
1.549000000000000000e+03,-1.836398534474743827e-01,0.000000000000000000e+00
1.550000000000000000e+03,-8.031505380747224754e-01,0.000000000000000000e+00
1.551000000000000000e+03,-5.875304104661129845e-01,0.000000000000000000e+00
1.552000000000000000e+03,-5.332240397947553001e-01,0.000000000000000000e+00
1.553000000000000000e+03,-4.653259745141170578e-01,0.000000000000000000e+00
1.554000000000000000e+03,-2.098831332002761563e-01,0.000000000000000000e+00
1.555000000000000000e+03,-2.029334574082052589e-01,0.000000000000000000e+00
1.556000000000000000e+03,5.466822563030485083e-02,0.000000000000000000e+00
1.557000000000000000e+03,3.372780054239535308e-01,0.000000000000000000e+00
1.558000000000000000e+03,8.499902617185044473e-01,0.000000000000000000e+00
1.559000000000000000e+03,7.512492809810616956e-01,0.000000000000000000e+00
1.560000000000000000e+03,5.406575137379119322e-01,0.000000000000000000e+00
1.561000000000000000e+03,3.693865288964985338e-01,0.000000000000000000e+00
1.562000000000000000e+03,5.580673927792531019e-01,0.000000000000000000e+00
1.563000000000000000e+03,5.435372838420464703e-01,0.000000000000000000e+00
1.564000000000000000e+03,3.651319338976519724e-01,0.000000000000000000e+00
1.565000000000000000e+03,4.220319206241158194e-01,0.000000000000000000e+00
1.566000000000000000e+03,1.860758497671875233e-01,0.000000000000000000e+00
1.567000000000000000e+03,2.754344423456845936e-01,0.000000000000000000e+00
1.568000000000000000e+03,9.167770390603763309e-02,0.000000000000000000e+00
1.569000000000000000e+03,1.091481769141753599e-01,0.000000000000000000e+00
1.570000000000000000e+03,-6.238666077574321622e-02,0.000000000000000000e+00
1.571000000000000000e+03,7.538477095329206012e-02,0.000000000000000000e+00
1.572000000000000000e+03,3.636672943846125383e-01,0.000000000000000000e+00
1.573000000000000000e+03,4.846546700374024241e-01,0.000000000000000000e+00
1.574000000000000000e+03,2.632031952941581987e-01,0.000000000000000000e+00
1.575000000000000000e+03,4.832854850037811012e-01,0.000000000000000000e+00
1.576000000000000000e+03,4.119635760741698904e-01,0.000000000000000000e+00
1.577000000000000000e+03,5.702447021751245737e-01,0.000000000000000000e+00
1.578000000000000000e+03,3.659501159535057946e-01,0.000000000000000000e+00
1.579000000000000000e+03,2.701481793932870024e-01,0.000000000000000000e+00
1.580000000000000000e+03,1.758340325654320080e-01,0.000000000000000000e+00
1.581000000000000000e+03,-1.031465482348872253e-01,0.000000000000000000e+00
1.582000000000000000e+03,5.379069413936030802e-02,0.000000000000000000e+00
1.583000000000000000e+03,-9.058950676131202751e-02,0.000000000000000000e+00
1.584000000000000000e+03,-6.382835881807006340e-01,0.000000000000000000e+00
1.585000000000000000e+03,1.132714462576880798e+00,0.000000000000000000e+00
1.586000000000000000e+03,4.413718296379330219e+00,0.000000000000000000e+00
1.587000000000000000e+03,-4.397094175604387423e-01,1.000000000000000000e+00
1.588000000000000000e+03,-2.843238710632647326e+00,0.000000000000000000e+00
