timestamp,ecg_measurement,qrs_detected
0.000000000000000000e+00,-6.402622320249936605e-01,0.000000000000000000e+00
1.000000000000000000e+00,-6.572409717307887700e-01,0.000000000000000000e+00
2.000000000000000000e+00,-5.143929409547551845e-01,0.000000000000000000e+00
3.000000000000000000e+00,-5.968324831183691170e-01,0.000000000000000000e+00
4.000000000000000000e+00,-2.080451307255503646e-01,0.000000000000000000e+00
5.000000000000000000e+00,-3.898940720527808712e-01,0.000000000000000000e+00
6.000000000000000000e+00,-1.948046162229039313e-01,0.000000000000000000e+00
7.000000000000000000e+00,-3.139629909572655420e-01,0.000000000000000000e+00
8.000000000000000000e+00,-2.902080960729104819e-01,0.000000000000000000e+00
9.000000000000000000e+00,-6.970250453482221276e-02,0.000000000000000000e+00
1.000000000000000000e+01,-7.148644695598700693e-02,0.000000000000000000e+00
1.100000000000000000e+01,-2.390314401332190378e-02,0.000000000000000000e+00
1.200000000000000000e+01,4.627509560854337761e-02,0.000000000000000000e+00
1.300000000000000000e+01,3.393827855112840214e-02,0.000000000000000000e+00
1.400000000000000000e+01,4.250430092256547998e-01,0.000000000000000000e+00
1.500000000000000000e+01,7.138193406517413520e-01,0.000000000000000000e+00
1.600000000000000000e+01,6.588531318469658116e-01,0.000000000000000000e+00
1.700000000000000000e+01,3.746762895812328908e-01,0.000000000000000000e+00
1.800000000000000000e+01,6.466680132623180144e-02,0.000000000000000000e+00
1.900000000000000000e+01,-1.701213492295542973e-01,0.000000000000000000e+00
2.000000000000000000e+01,-8.002478986479767686e-02,0.000000000000000000e+00
2.100000000000000000e+01,-3.975981385549746672e-01,0.000000000000000000e+00
2.200000000000000000e+01,1.720689118464271417e-01,0.000000000000000000e+00
2.300000000000000000e+01,-3.605471029128111682e-01,0.000000000000000000e+00
2.400000000000000000e+01,2.509328754838937137e+00,0.000000000000000000e+00
2.500000000000000000e+01,3.577736559326791355e+00,0.000000000000000000e+00
2.600000000000000000e+01,-2.337179865747531782e+00,1.000000000000000000e+00
2.700000000000000000e+01,-1.606441438505867847e+00,0.000000000000000000e+00
2.800000000000000000e+01,-3.593326436315567585e-01,0.000000000000000000e+00
2.900000000000000000e+01,2.818303586069509925e-01,0.000000000000000000e+00
3.000000000000000000e+01,1.645443671170696287e-01,0.000000000000000000e+00
3.100000000000000000e+01,4.719420951251530050e-01,0.000000000000000000e+00
3.200000000000000000e+01,5.121774062541815109e-01,0.000000000000000000e+00
3.300000000000000000e+01,6.126454436061681275e-01,0.000000000000000000e+00
3.400000000000000000e+01,5.737557942137612166e-01,0.000000000000000000e+00
3.500000000000000000e+01,7.833175534170211396e-01,0.000000000000000000e+00
3.600000000000000000e+01,1.013768177785921099e+00,0.000000000000000000e+00
3.700000000000000000e+01,1.577726605309905272e+00,0.000000000000000000e+00
3.800000000000000000e+01,1.389249004548961830e+00,0.000000000000000000e+00
3.900000000000000000e+01,1.470657248514844584e+00,0.000000000000000000e+00
4.000000000000000000e+01,8.690626069175272361e-01,0.000000000000000000e+00
4.100000000000000000e+01,7.390983907157772093e-02,0.000000000000000000e+00
4.200000000000000000e+01,-7.790594397949887062e-01,0.000000000000000000e+00
4.300000000000000000e+01,-9.346866543129347393e-01,0.000000000000000000e+00
4.400000000000000000e+01,-1.357155108528608212e+00,0.000000000000000000e+00
4.500000000000000000e+01,-1.132129060072990079e+00,0.000000000000000000e+00
4.600000000000000000e+01,-1.085240964221278803e+00,0.000000000000000000e+00
4.700000000000000000e+01,-9.456395143532689840e-01,0.000000000000000000e+00
4.800000000000000000e+01,-9.930744685746882849e-01,0.000000000000000000e+00
4.900000000000000000e+01,-8.838819121264699374e-01,0.000000000000000000e+00
5.000000000000000000e+01,-6.435768752465036435e-01,0.000000000000000000e+00
5.100000000000000000e+01,-6.180163292364628802e-01,0.000000000000000000e+00
5.200000000000000000e+01,-4.584137724833333150e-01,0.000000000000000000e+00
5.300000000000000000e+01,-4.585673153811611336e-01,0.000000000000000000e+00
5.400000000000000000e+01,-4.044043279022837001e-01,0.000000000000000000e+00
5.500000000000000000e+01,-6.130853052998977981e-01,0.000000000000000000e+00
5.600000000000000000e+01,-2.794744866690177520e-01,0.000000000000000000e+00
5.700000000000000000e+01,-2.892010521875522655e-01,0.000000000000000000e+00
5.800000000000000000e+01,-2.541902105367072062e-01,0.000000000000000000e+00
5.900000000000000000e+01,-3.025623522662053144e-01,0.000000000000000000e+00
6.000000000000000000e+01,-1.922092453057639705e-01,0.000000000000000000e+00
6.100000000000000000e+01,-7.408930440658638428e-02,0.000000000000000000e+00
6.200000000000000000e+01,-1.621560455409327695e-01,0.000000000000000000e+00
6.300000000000000000e+01,8.826949446177007053e-02,0.000000000000000000e+00
6.400000000000000000e+01,-1.083363190682995990e-02,0.000000000000000000e+00
6.500000000000000000e+01,3.009648760017819558e-01,0.000000000000000000e+00
6.600000000000000000e+01,4.184184129410733477e-01,0.000000000000000000e+00
6.700000000000000000e+01,7.525866089392052594e-01,0.000000000000000000e+00
6.800000000000000000e+01,3.596907934474065094e-01,0.000000000000000000e+00
6.900000000000000000e+01,3.685852882951810017e-01,0.000000000000000000e+00
7.000000000000000000e+01,-2.417455316620573114e-01,0.000000000000000000e+00
7.100000000000000000e+01,-1.952139123057671233e-01,0.000000000000000000e+00
7.200000000000000000e+01,-1.392498159542586711e-01,0.000000000000000000e+00
7.300000000000000000e+01,4.955725270888752809e-02,0.000000000000000000e+00
7.400000000000000000e+01,1.037300018931230049e-02,0.000000000000000000e+00
7.500000000000000000e+01,4.826533072735606500e-01,0.000000000000000000e+00
7.600000000000000000e+01,4.562332163962534715e+00,0.000000000000000000e+00
7.700000000000000000e+01,5.600139963028972351e-02,1.000000000000000000e+00
7.800000000000000000e+01,-2.880728943044015278e+00,0.000000000000000000e+00
7.900000000000000000e+01,-6.947938764253315247e-01,0.000000000000000000e+00
8.000000000000000000e+01,-1.211547173328407501e-01,0.000000000000000000e+00
8.100000000000000000e+01,3.032100204747110728e-01,0.000000000000000000e+00
8.200000000000000000e+01,3.193512158908997089e-01,0.000000000000000000e+00
8.300000000000000000e+01,4.325996496617806608e-01,0.000000000000000000e+00
8.400000000000000000e+01,3.819363163437503594e-01,0.000000000000000000e+00
8.500000000000000000e+01,7.046066243530766382e-01,0.000000000000000000e+00
8.600000000000000000e+01,6.849578683538686263e-01,0.000000000000000000e+00
8.700000000000000000e+01,1.010929186884412356e+00,0.000000000000000000e+00
8.800000000000000000e+01,1.276527075883503226e+00,0.000000000000000000e+00
8.900000000000000000e+01,1.467672847093788313e+00,0.000000000000000000e+00
9.000000000000000000e+01,1.567368136073662432e+00,0.000000000000000000e+00
9.100000000000000000e+01,1.032102898279028125e+00,0.000000000000000000e+00
9.200000000000000000e+01,4.843188839895353204e-01,0.000000000000000000e+00
9.300000000000000000e+01,-3.370769442429692453e-01,0.000000000000000000e+00
9.400000000000000000e+01,-8.972468486387253916e-01,0.000000000000000000e+00
9.500000000000000000e+01,-1.293094037230941185e+00,0.000000000000000000e+00
9.600000000000000000e+01,-1.375428488146817063e+00,0.000000000000000000e+00
9.700000000000000000e+01,-1.252457354547812374e+00,0.000000000000000000e+00
9.800000000000000000e+01,-1.129804225689586383e+00,0.000000000000000000e+00
9.900000000000000000e+01,-1.034049349701311904e+00,0.000000000000000000e+00
1.000000000000000000e+02,-9.240397734010203923e-01,0.000000000000000000e+00
1.010000000000000000e+02,-8.395226687432607582e-01,0.000000000000000000e+00
1.020000000000000000e+02,-7.206096239966941486e-01,0.000000000000000000e+00
1.030000000000000000e+02,-4.856095369364851200e-01,0.000000000000000000e+00
1.040000000000000000e+02,-6.221983986878345529e-01,0.000000000000000000e+00
1.050000000000000000e+02,-5.289288970557154412e-01,0.000000000000000000e+00
1.060000000000000000e+02,-4.459759652203284519e-01,0.000000000000000000e+00
1.070000000000000000e+02,-5.178396881060930435e-01,0.000000000000000000e+00
1.080000000000000000e+02,-2.913598392947525095e-01,0.000000000000000000e+00
1.090000000000000000e+02,-3.167159717692107912e-01,0.000000000000000000e+00
1.100000000000000000e+02,-3.140442965477956427e-01,0.000000000000000000e+00
1.110000000000000000e+02,-2.262653817681251622e-01,0.000000000000000000e+00
1.120000000000000000e+02,-5.034048184426321432e-02,0.000000000000000000e+00
1.130000000000000000e+02,-1.929094240043181530e-01,0.000000000000000000e+00
1.140000000000000000e+02,5.332227318606495153e-02,0.000000000000000000e+00
1.150000000000000000e+02,6.393593538207986704e-02,0.000000000000000000e+00
1.160000000000000000e+02,1.882612982920316147e-01,0.000000000000000000e+00
1.170000000000000000e+02,3.117221377023176587e-01,0.000000000000000000e+00
1.180000000000000000e+02,4.095512308995892803e-01,0.000000000000000000e+00
1.190000000000000000e+02,7.371111139654216160e-01,0.000000000000000000e+00
1.200000000000000000e+02,4.268340106251892752e-01,0.000000000000000000e+00
1.210000000000000000e+02,2.619631052692257822e-01,0.000000000000000000e+00
1.220000000000000000e+02,-1.171542238043282447e-01,0.000000000000000000e+00
1.230000000000000000e+02,-8.078314225216658151e-02,0.000000000000000000e+00
1.240000000000000000e+02,-1.683866616763484425e-01,0.000000000000000000e+00
1.250000000000000000e+02,1.507004269126231977e-01,0.000000000000000000e+00
1.260000000000000000e+02,-1.694739680468770049e-01,0.000000000000000000e+00
1.270000000000000000e+02,9.474496093001670838e-01,0.000000000000000000e+00
1.280000000000000000e+02,4.392284580347697087e+00,0.000000000000000000e+00
1.290000000000000000e+02,-8.875239876801204186e-01,1.000000000000000000e+00
1.300000000000000000e+02,-2.719757524141737992e+00,0.000000000000000000e+00
1.310000000000000000e+02,-5.269962551803016870e-01,0.000000000000000000e+00
1.320000000000000000e+02,1.392951118352436513e-01,0.000000000000000000e+00
1.330000000000000000e+02,2.302706588549395805e-01,0.000000000000000000e+00
1.340000000000000000e+02,4.524609812449825186e-01,0.000000000000000000e+00
1.350000000000000000e+02,5.683038168194340933e-01,0.000000000000000000e+00
1.360000000000000000e+02,5.177073674554497629e-01,0.000000000000000000e+00
1.370000000000000000e+02,7.056110170683099758e-01,0.000000000000000000e+00
1.380000000000000000e+02,9.439681889464088815e-01,0.000000000000000000e+00
1.390000000000000000e+02,1.160622696514101104e+00,0.000000000000000000e+00
1.400000000000000000e+02,1.335574383250528241e+00,0.000000000000000000e+00
1.410000000000000000e+02,1.659910357411408688e+00,0.000000000000000000e+00
1.420000000000000000e+02,1.320854850177269668e+00,0.000000000000000000e+00
1.430000000000000000e+02,1.294516687999941462e+00,0.000000000000000000e+00
1.440000000000000000e+02,5.062600009021105407e-01,0.000000000000000000e+00
1.450000000000000000e+02,-3.043844496734165461e-01,0.000000000000000000e+00
1.460000000000000000e+02,-9.765485108747576914e-01,0.000000000000000000e+00
1.470000000000000000e+02,-1.301913071887586426e+00,0.000000000000000000e+00
1.480000000000000000e+02,-1.274292385997771060e+00,0.000000000000000000e+00
1.490000000000000000e+02,-1.133889857571306115e+00,0.000000000000000000e+00
1.500000000000000000e+02,-9.534516495629205002e-01,0.000000000000000000e+00
1.510000000000000000e+02,-9.497703024520338655e-01,0.000000000000000000e+00
1.520000000000000000e+02,-7.902877702325870057e-01,0.000000000000000000e+00
1.530000000000000000e+02,-6.722416308349037362e-01,0.000000000000000000e+00
1.540000000000000000e+02,-7.349980904673173443e-01,0.000000000000000000e+00
1.550000000000000000e+02,-5.983059515799105110e-01,0.000000000000000000e+00
1.560000000000000000e+02,-5.489445344691652462e-01,0.000000000000000000e+00
1.570000000000000000e+02,-6.010691945846523554e-01,0.000000000000000000e+00
1.580000000000000000e+02,-4.805418251151148401e-01,0.000000000000000000e+00
1.590000000000000000e+02,-3.907702445239182865e-01,0.000000000000000000e+00
1.600000000000000000e+02,-2.050811159361349556e-01,0.000000000000000000e+00
1.610000000000000000e+02,-2.852217577795344572e-01,0.000000000000000000e+00
1.620000000000000000e+02,-1.585305414220629927e-01,0.000000000000000000e+00
1.630000000000000000e+02,-2.244962502804197513e-01,0.000000000000000000e+00
1.640000000000000000e+02,-1.113067788934691965e-01,0.000000000000000000e+00
1.650000000000000000e+02,-1.000959595583331141e-01,0.000000000000000000e+00
1.660000000000000000e+02,9.389870376131692620e-02,0.000000000000000000e+00
1.670000000000000000e+02,5.757753981136298771e-02,0.000000000000000000e+00
1.680000000000000000e+02,3.953173652968849372e-01,0.000000000000000000e+00
1.690000000000000000e+02,5.673008587272547754e-01,0.000000000000000000e+00
1.700000000000000000e+02,6.375530140208586216e-01,0.000000000000000000e+00
1.710000000000000000e+02,3.936812286095800473e-01,0.000000000000000000e+00
1.720000000000000000e+02,2.268370778575863889e-01,0.000000000000000000e+00
1.730000000000000000e+02,-2.554927869766805970e-01,0.000000000000000000e+00
1.740000000000000000e+02,4.355141381750962312e-03,0.000000000000000000e+00
1.750000000000000000e+02,-2.701620674455185167e-01,0.000000000000000000e+00
1.760000000000000000e+02,1.490740035980762102e-01,0.000000000000000000e+00
1.770000000000000000e+02,-4.632184599385563706e-01,0.000000000000000000e+00
1.780000000000000000e+02,2.818471144377483029e+00,0.000000000000000000e+00
1.790000000000000000e+02,3.071348732225913647e+00,0.000000000000000000e+00
1.800000000000000000e+02,-2.645968952350313597e+00,1.000000000000000000e+00
1.810000000000000000e+02,-2.250010479784913642e+00,0.000000000000000000e+00
1.820000000000000000e+02,-7.114982881467402098e-01,0.000000000000000000e+00
1.830000000000000000e+02,4.671780788007445229e-01,0.000000000000000000e+00
1.840000000000000000e+02,4.721360680917465191e-01,0.000000000000000000e+00
1.850000000000000000e+02,5.557978996216237366e-01,0.000000000000000000e+00
1.860000000000000000e+02,3.619240641073205311e-01,0.000000000000000000e+00
1.870000000000000000e+02,7.500710022475334249e-01,0.000000000000000000e+00
1.880000000000000000e+02,7.315205853898744115e-01,0.000000000000000000e+00
1.890000000000000000e+02,1.072715669172367159e+00,0.000000000000000000e+00
1.900000000000000000e+02,1.375285189984865486e+00,0.000000000000000000e+00
1.910000000000000000e+02,1.402713673147058193e+00,0.000000000000000000e+00
1.920000000000000000e+02,1.806997910415989672e+00,0.000000000000000000e+00
1.930000000000000000e+02,1.615686312602095498e+00,0.000000000000000000e+00
1.940000000000000000e+02,9.253863312390561147e-01,0.000000000000000000e+00
1.950000000000000000e+02,2.823180353301463219e-01,0.000000000000000000e+00
1.960000000000000000e+02,-6.708666616013927442e-01,0.000000000000000000e+00
1.970000000000000000e+02,-9.988807476434327093e-01,0.000000000000000000e+00
1.980000000000000000e+02,-1.309150483209868376e+00,0.000000000000000000e+00
1.990000000000000000e+02,-1.366024438473010028e+00,0.000000000000000000e+00
2.000000000000000000e+02,-9.947443467249021953e-01,0.000000000000000000e+00
2.010000000000000000e+02,-1.103939603239657563e+00,0.000000000000000000e+00
2.020000000000000000e+02,-9.099665412061120895e-01,0.000000000000000000e+00
2.030000000000000000e+02,-9.387605346567100550e-01,0.000000000000000000e+00
2.040000000000000000e+02,-7.086685714565690297e-01,0.000000000000000000e+00
2.050000000000000000e+02,-7.406930571324327195e-01,0.000000000000000000e+00
2.060000000000000000e+02,-5.215211337828322691e-01,0.000000000000000000e+00
2.070000000000000000e+02,-6.199904976147708746e-01,0.000000000000000000e+00
2.080000000000000000e+02,-5.279978649930578971e-01,0.000000000000000000e+00
2.090000000000000000e+02,-5.872444928894591243e-01,0.000000000000000000e+00
2.100000000000000000e+02,-3.158735723350339919e-01,0.000000000000000000e+00
2.110000000000000000e+02,-3.811390789781766153e-01,0.000000000000000000e+00
2.120000000000000000e+02,-5.091954906428372007e-01,0.000000000000000000e+00
2.130000000000000000e+02,-4.239293114145276098e-02,0.000000000000000000e+00
2.140000000000000000e+02,-1.838728401900155962e-01,0.000000000000000000e+00
2.150000000000000000e+02,-1.117690987056130375e-01,0.000000000000000000e+00
2.160000000000000000e+02,-1.649176467215713593e-01,0.000000000000000000e+00
2.170000000000000000e+02,4.165630909825188306e-03,0.000000000000000000e+00
2.180000000000000000e+02,4.034298845933310673e-01,0.000000000000000000e+00
2.190000000000000000e+02,6.903357442259127064e-01,0.000000000000000000e+00
2.200000000000000000e+02,4.130599488219471871e-01,0.000000000000000000e+00
2.210000000000000000e+02,1.282477552419403199e-01,0.000000000000000000e+00
2.220000000000000000e+02,-1.208904305787636586e-02,0.000000000000000000e+00
2.230000000000000000e+02,-3.712266092356230063e-01,0.000000000000000000e+00
2.240000000000000000e+02,-3.953790367283730595e-02,0.000000000000000000e+00
2.250000000000000000e+02,-9.859848654328730311e-02,0.000000000000000000e+00
2.260000000000000000e+02,-3.360705188035822272e-02,0.000000000000000000e+00
2.270000000000000000e+02,2.340509241774560434e-01,0.000000000000000000e+00
2.280000000000000000e+02,4.065905797442122882e+00,0.000000000000000000e+00
2.290000000000000000e+02,-4.275048186611374867e-01,1.000000000000000000e+00
2.300000000000000000e+02,-2.773605289037532007e+00,0.000000000000000000e+00
2.310000000000000000e+02,-1.170820328142050837e+00,0.000000000000000000e+00
2.320000000000000000e+02,3.270590674106211432e-02,0.000000000000000000e+00
2.330000000000000000e+02,5.581553187164385310e-01,0.000000000000000000e+00
2.340000000000000000e+02,3.623232994349460112e-01,0.000000000000000000e+00
2.350000000000000000e+02,4.942915083195981718e-01,0.000000000000000000e+00
2.360000000000000000e+02,6.138822848428111545e-01,0.000000000000000000e+00
2.370000000000000000e+02,8.721820442754182334e-01,0.000000000000000000e+00
2.380000000000000000e+02,8.215413792655199554e-01,0.000000000000000000e+00
2.390000000000000000e+02,1.056486968592986075e+00,0.000000000000000000e+00
2.400000000000000000e+02,1.219730641874428256e+00,0.000000000000000000e+00
2.410000000000000000e+02,1.639728312293395884e+00,0.000000000000000000e+00
2.420000000000000000e+02,1.665164453330853833e+00,0.000000000000000000e+00
2.430000000000000000e+02,1.380298166686197092e+00,0.000000000000000000e+00
2.440000000000000000e+02,5.000468569526502760e-01,0.000000000000000000e+00
2.450000000000000000e+02,-2.540277384923739779e-01,0.000000000000000000e+00
2.460000000000000000e+02,-9.187705076594381293e-01,0.000000000000000000e+00
2.470000000000000000e+02,-1.165012845113093443e+00,0.000000000000000000e+00
2.480000000000000000e+02,-1.185947821873156283e+00,0.000000000000000000e+00
2.490000000000000000e+02,-1.012147134352236577e+00,0.000000000000000000e+00
2.500000000000000000e+02,-1.140489174798021921e+00,0.000000000000000000e+00
2.510000000000000000e+02,-1.021813161861781838e+00,0.000000000000000000e+00
2.520000000000000000e+02,-5.906581762115047374e-01,0.000000000000000000e+00
2.530000000000000000e+02,-8.073285317390208604e-01,0.000000000000000000e+00
2.540000000000000000e+02,-4.903634859642852506e-01,0.000000000000000000e+00
2.550000000000000000e+02,-7.246225225266441639e-01,0.000000000000000000e+00
2.560000000000000000e+02,-5.229274117436043534e-01,0.000000000000000000e+00
2.570000000000000000e+02,-4.131265470846896548e-01,0.000000000000000000e+00
2.580000000000000000e+02,-4.201126952293132155e-01,0.000000000000000000e+00
2.590000000000000000e+02,-5.304468490036052808e-01,0.000000000000000000e+00
2.600000000000000000e+02,-4.551596732230472342e-01,0.000000000000000000e+00
2.610000000000000000e+02,-2.935533643473251519e-01,0.000000000000000000e+00
2.620000000000000000e+02,-2.350152944990610560e-01,0.000000000000000000e+00
2.630000000000000000e+02,-6.500942695513038661e-02,0.000000000000000000e+00
2.640000000000000000e+02,-2.591705371765473109e-01,0.000000000000000000e+00
2.650000000000000000e+02,-5.881022772523059050e-02,0.000000000000000000e+00
2.660000000000000000e+02,3.274561403001269300e-02,0.000000000000000000e+00
2.670000000000000000e+02,5.799864463248149277e-02,0.000000000000000000e+00
2.680000000000000000e+02,3.962403832494357792e-01,0.000000000000000000e+00
2.690000000000000000e+02,5.054884537293634628e-01,0.000000000000000000e+00
2.700000000000000000e+02,5.342138034292909232e-01,0.000000000000000000e+00
2.710000000000000000e+02,1.857559704091770458e-01,0.000000000000000000e+00
2.720000000000000000e+02,1.511729006210714710e-01,0.000000000000000000e+00
2.730000000000000000e+02,-1.928422690427458452e-01,0.000000000000000000e+00
2.740000000000000000e+02,-5.625689988814094877e-02,0.000000000000000000e+00
2.750000000000000000e+02,-3.045933242554520470e-01,0.000000000000000000e+00
2.760000000000000000e+02,1.366714907357098885e-01,0.000000000000000000e+00
2.770000000000000000e+02,-1.200930422637113693e-01,0.000000000000000000e+00
2.780000000000000000e+02,3.766157251932662042e+00,0.000000000000000000e+00
2.790000000000000000e+02,1.531462666135826378e+00,0.000000000000000000e+00
2.800000000000000000e+02,-2.856319835243414929e+00,0.000000000000000000e+00
2.810000000000000000e+02,-1.371004105327990885e+00,1.000000000000000000e+00
2.820000000000000000e+02,-6.057190191546599906e-02,0.000000000000000000e+00
2.830000000000000000e+02,3.442017794317245305e-01,0.000000000000000000e+00
2.840000000000000000e+02,3.746095167419011829e-01,0.000000000000000000e+00
2.850000000000000000e+02,5.096465830619349990e-01,0.000000000000000000e+00
2.860000000000000000e+02,3.627901850576176201e-01,0.000000000000000000e+00
2.870000000000000000e+02,7.512921926595059752e-01,0.000000000000000000e+00
2.880000000000000000e+02,6.227677788334936571e-01,0.000000000000000000e+00
2.890000000000000000e+02,1.092641260131572700e+00,0.000000000000000000e+00
2.900000000000000000e+02,1.066049499206313200e+00,0.000000000000000000e+00
2.910000000000000000e+02,1.610702656906366048e+00,0.000000000000000000e+00
2.920000000000000000e+02,1.349051582832806462e+00,0.000000000000000000e+00
2.930000000000000000e+02,1.255787540430522542e+00,0.000000000000000000e+00
2.940000000000000000e+02,6.855847717422035581e-01,0.000000000000000000e+00
2.950000000000000000e+02,-1.119652867141946173e-01,0.000000000000000000e+00
2.960000000000000000e+02,-6.956628075552186985e-01,0.000000000000000000e+00
2.970000000000000000e+02,-1.076894502219958749e+00,0.000000000000000000e+00
2.980000000000000000e+02,-1.215085723618209324e+00,0.000000000000000000e+00
2.990000000000000000e+02,-1.126408454223530864e+00,0.000000000000000000e+00
3.000000000000000000e+02,-1.037442007735474903e+00,0.000000000000000000e+00
3.010000000000000000e+02,-6.766134020145221362e-01,0.000000000000000000e+00
3.020000000000000000e+02,-9.167790121832443129e-01,0.000000000000000000e+00
3.030000000000000000e+02,-6.557411573781392056e-01,0.000000000000000000e+00
3.040000000000000000e+02,-6.767068998784578904e-01,0.000000000000000000e+00
3.050000000000000000e+02,-5.347899484240520307e-01,0.000000000000000000e+00
3.060000000000000000e+02,-5.111824565341431814e-01,0.000000000000000000e+00
3.070000000000000000e+02,-5.125994763187728953e-01,0.000000000000000000e+00
3.080000000000000000e+02,-5.441493115001131420e-01,0.000000000000000000e+00
3.090000000000000000e+02,-2.780643432017069760e-01,0.000000000000000000e+00
3.100000000000000000e+02,-3.511780914572943391e-01,0.000000000000000000e+00
3.110000000000000000e+02,-3.330131825179363791e-01,0.000000000000000000e+00
3.120000000000000000e+02,-2.392125433125370515e-01,0.000000000000000000e+00
3.130000000000000000e+02,-2.122306421260644616e-01,0.000000000000000000e+00
3.140000000000000000e+02,-1.361716769594626120e-01,0.000000000000000000e+00
3.150000000000000000e+02,1.614706449586499060e-02,0.000000000000000000e+00
3.160000000000000000e+02,-2.444522002919006370e-02,0.000000000000000000e+00
3.170000000000000000e+02,6.435875614090909302e-02,0.000000000000000000e+00
3.180000000000000000e+02,3.165371202707444320e-01,0.000000000000000000e+00
3.190000000000000000e+02,5.881883555428518706e-01,0.000000000000000000e+00
3.200000000000000000e+02,6.817594954595294077e-01,0.000000000000000000e+00
3.210000000000000000e+02,4.109723278459668783e-01,0.000000000000000000e+00
3.220000000000000000e+02,1.193173843473704504e-01,0.000000000000000000e+00
3.230000000000000000e+02,-2.194362743887344480e-01,0.000000000000000000e+00
3.240000000000000000e+02,-2.924016674113202527e-02,0.000000000000000000e+00
3.250000000000000000e+02,-2.131125052084510418e-01,0.000000000000000000e+00
3.260000000000000000e+02,2.275080721239874093e-01,0.000000000000000000e+00
3.270000000000000000e+02,-4.321115406773171630e-01,0.000000000000000000e+00
3.280000000000000000e+02,2.869965364301658717e+00,0.000000000000000000e+00
3.290000000000000000e+02,3.237262573038138580e+00,0.000000000000000000e+00
3.300000000000000000e+02,-2.552721844111230265e+00,1.000000000000000000e+00
3.310000000000000000e+02,-1.585825166335066649e+00,0.000000000000000000e+00
3.320000000000000000e+02,-4.067140885790715976e-01,0.000000000000000000e+00
3.330000000000000000e+02,3.072609526274477920e-01,0.000000000000000000e+00
3.340000000000000000e+02,1.305070843148932458e-01,0.000000000000000000e+00
3.350000000000000000e+02,4.366698374988907116e-01,0.000000000000000000e+00
3.360000000000000000e+02,2.496681933644162021e-01,0.000000000000000000e+00
3.370000000000000000e+02,5.627193183810048627e-01,0.000000000000000000e+00
3.380000000000000000e+02,5.863147218554295437e-01,0.000000000000000000e+00
3.390000000000000000e+02,7.618137282227883667e-01,0.000000000000000000e+00
3.400000000000000000e+02,9.234109264146156404e-01,0.000000000000000000e+00
3.410000000000000000e+02,1.363471095665967026e+00,0.000000000000000000e+00
3.420000000000000000e+02,1.584086850671534208e+00,0.000000000000000000e+00
3.430000000000000000e+02,1.185440383048221413e+00,0.000000000000000000e+00
3.440000000000000000e+02,7.180596098795554161e-01,0.000000000000000000e+00
3.450000000000000000e+02,-2.066902341018423545e-02,0.000000000000000000e+00
3.460000000000000000e+02,-5.093891114503573680e-01,0.000000000000000000e+00
3.470000000000000000e+02,-1.060015567481045862e+00,0.000000000000000000e+00
3.480000000000000000e+02,-1.193651207812709947e+00,0.000000000000000000e+00
3.490000000000000000e+02,-1.219114118398875846e+00,0.000000000000000000e+00
3.500000000000000000e+02,-1.020667793709377102e+00,0.000000000000000000e+00
3.510000000000000000e+02,-1.002858309620386690e+00,0.000000000000000000e+00
3.520000000000000000e+02,-8.542194336243831287e-01,0.000000000000000000e+00
3.530000000000000000e+02,-6.937403233790926382e-01,0.000000000000000000e+00
3.540000000000000000e+02,-8.242629650491466453e-01,0.000000000000000000e+00
3.550000000000000000e+02,-5.501952294081603467e-01,0.000000000000000000e+00
3.560000000000000000e+02,-6.045552321635895288e-01,0.000000000000000000e+00
3.570000000000000000e+02,-3.179922611950194433e-01,0.000000000000000000e+00
3.580000000000000000e+02,-5.435332111200021910e-01,0.000000000000000000e+00
3.590000000000000000e+02,-3.166020039851340506e-01,0.000000000000000000e+00
3.600000000000000000e+02,-3.506640187835884381e-01,0.000000000000000000e+00
3.610000000000000000e+02,-1.598066021689525107e-01,0.000000000000000000e+00
3.620000000000000000e+02,-1.988113721392096023e-01,0.000000000000000000e+00
3.630000000000000000e+02,-1.470086681621829150e-01,0.000000000000000000e+00
3.640000000000000000e+02,-2.331246651269782422e-01,0.000000000000000000e+00
3.650000000000000000e+02,-4.520251948198759223e-02,0.000000000000000000e+00
3.660000000000000000e+02,2.846414896672735603e-02,0.000000000000000000e+00
3.670000000000000000e+02,6.063790968455938513e-02,0.000000000000000000e+00
3.680000000000000000e+02,1.070759463164967229e-01,0.000000000000000000e+00
3.690000000000000000e+02,5.584224660190296730e-01,0.000000000000000000e+00
3.700000000000000000e+02,6.072039858770718057e-01,0.000000000000000000e+00
3.710000000000000000e+02,4.430528156143855867e-01,0.000000000000000000e+00
3.720000000000000000e+02,2.191398367822987858e-01,0.000000000000000000e+00
3.730000000000000000e+02,-2.837494711749001253e-01,0.000000000000000000e+00
3.740000000000000000e+02,-1.513464753773688387e-01,0.000000000000000000e+00
3.750000000000000000e+02,-1.605661844751302969e-01,0.000000000000000000e+00
3.760000000000000000e+02,1.011040487396442852e-02,0.000000000000000000e+00
3.770000000000000000e+02,-2.860620818041439972e-01,0.000000000000000000e+00
3.780000000000000000e+02,1.935207126546447665e+00,0.000000000000000000e+00
3.790000000000000000e+02,4.022309550241275566e+00,0.000000000000000000e+00
3.800000000000000000e+02,-2.020557488209333119e+00,1.000000000000000000e+00
3.810000000000000000e+02,-1.856242580925930863e+00,0.000000000000000000e+00
3.820000000000000000e+02,-4.468168673947411906e-01,0.000000000000000000e+00
3.830000000000000000e+02,1.979621048172617026e-01,0.000000000000000000e+00
3.840000000000000000e+02,6.676161349288031732e-02,0.000000000000000000e+00
3.850000000000000000e+02,3.729018511598412577e-01,0.000000000000000000e+00
3.860000000000000000e+02,3.272935573833916645e-01,0.000000000000000000e+00
3.870000000000000000e+02,6.599208210195577351e-01,0.000000000000000000e+00
3.880000000000000000e+02,3.982685095145617193e-01,0.000000000000000000e+00
3.890000000000000000e+02,8.471268224024721682e-01,0.000000000000000000e+00
3.900000000000000000e+02,9.826674361633446209e-01,0.000000000000000000e+00
3.910000000000000000e+02,1.294045291475179660e+00,0.000000000000000000e+00
3.920000000000000000e+02,1.528603097270627265e+00,0.000000000000000000e+00
3.930000000000000000e+02,1.406108524110596392e+00,0.000000000000000000e+00
3.940000000000000000e+02,8.419113441901917572e-01,0.000000000000000000e+00
3.950000000000000000e+02,2.363728243997171019e-01,0.000000000000000000e+00
3.960000000000000000e+02,-7.360933926336801214e-01,0.000000000000000000e+00
3.970000000000000000e+02,-9.909940989867890293e-01,0.000000000000000000e+00
3.980000000000000000e+02,-1.342983141475684983e+00,0.000000000000000000e+00
3.990000000000000000e+02,-1.093202911028314572e+00,0.000000000000000000e+00
4.000000000000000000e+02,-1.238913569519305424e+00,0.000000000000000000e+00
4.010000000000000000e+02,-8.869060787915306054e-01,0.000000000000000000e+00
4.020000000000000000e+02,-9.491285276814467320e-01,0.000000000000000000e+00
4.030000000000000000e+02,-8.485125941884998912e-01,0.000000000000000000e+00
4.040000000000000000e+02,-8.014435950737669456e-01,0.000000000000000000e+00
4.050000000000000000e+02,-4.718890253415469194e-01,0.000000000000000000e+00
4.060000000000000000e+02,-7.399345335936474699e-01,0.000000000000000000e+00
4.070000000000000000e+02,-3.766718757968364195e-01,0.000000000000000000e+00
4.080000000000000000e+02,-5.726106748520919387e-01,0.000000000000000000e+00
4.090000000000000000e+02,-4.012718490951423522e-01,0.000000000000000000e+00
4.100000000000000000e+02,-4.318693006844034898e-01,0.000000000000000000e+00
4.110000000000000000e+02,-2.459827573308636384e-01,0.000000000000000000e+00
4.120000000000000000e+02,-3.487125433392364582e-01,0.000000000000000000e+00
4.130000000000000000e+02,-7.084507030846418085e-02,0.000000000000000000e+00
4.140000000000000000e+02,-2.039075402480005073e-01,0.000000000000000000e+00
4.150000000000000000e+02,-1.317339169280650757e-01,0.000000000000000000e+00
4.160000000000000000e+02,3.463682584371881312e-02,0.000000000000000000e+00
4.170000000000000000e+02,5.745516010290262210e-02,0.000000000000000000e+00
4.180000000000000000e+02,8.841751149652782304e-02,0.000000000000000000e+00
4.190000000000000000e+02,4.769711217844928575e-01,0.000000000000000000e+00
4.200000000000000000e+02,5.364254642781691729e-01,0.000000000000000000e+00
4.210000000000000000e+02,8.055149652281009542e-01,0.000000000000000000e+00
4.220000000000000000e+02,2.832959536219462060e-01,0.000000000000000000e+00
4.230000000000000000e+02,3.395389058623532463e-01,0.000000000000000000e+00
4.240000000000000000e+02,-1.415115650004317438e-01,0.000000000000000000e+00
4.250000000000000000e+02,2.990233416368249034e-02,0.000000000000000000e+00
4.260000000000000000e+02,-2.560083285451210111e-01,0.000000000000000000e+00
4.270000000000000000e+02,3.247907761592336295e-01,0.000000000000000000e+00
4.280000000000000000e+02,-4.332524560697622040e-01,0.000000000000000000e+00
4.290000000000000000e+02,2.871542115285405039e+00,0.000000000000000000e+00
4.300000000000000000e+02,3.295147039051940840e+00,0.000000000000000000e+00
4.310000000000000000e+02,-2.575217292223052290e+00,1.000000000000000000e+00
4.320000000000000000e+02,-1.563145591241953181e+00,0.000000000000000000e+00
4.330000000000000000e+02,-3.942627637161903453e-01,0.000000000000000000e+00
4.340000000000000000e+02,3.325502945588976744e-01,0.000000000000000000e+00
4.350000000000000000e+02,2.368711746248848282e-01,0.000000000000000000e+00
4.360000000000000000e+02,4.239240966439392078e-01,0.000000000000000000e+00
4.370000000000000000e+02,5.675467447553940170e-01,0.000000000000000000e+00
4.380000000000000000e+02,5.134848628380004332e-01,0.000000000000000000e+00
4.390000000000000000e+02,7.055106206115933087e-01,0.000000000000000000e+00
4.400000000000000000e+02,9.626161845966608732e-01,0.000000000000000000e+00
4.410000000000000000e+02,9.703689914492490409e-01,0.000000000000000000e+00
4.420000000000000000e+02,1.415380724183824324e+00,0.000000000000000000e+00
4.430000000000000000e+02,1.414200076907287995e+00,0.000000000000000000e+00
4.440000000000000000e+02,1.494305825132667520e+00,0.000000000000000000e+00
4.450000000000000000e+02,8.479547008380355910e-01,0.000000000000000000e+00
4.460000000000000000e+02,8.819970406434876967e-03,0.000000000000000000e+00
4.470000000000000000e+02,-7.397636374263093506e-01,0.000000000000000000e+00
4.480000000000000000e+02,-9.728088593869272938e-01,0.000000000000000000e+00
4.490000000000000000e+02,-1.218821414668341818e+00,0.000000000000000000e+00
4.500000000000000000e+02,-1.227369045936640646e+00,0.000000000000000000e+00
4.510000000000000000e+02,-1.101254705850935878e+00,0.000000000000000000e+00
4.520000000000000000e+02,-8.791978121379458999e-01,0.000000000000000000e+00
4.530000000000000000e+02,-8.962615646767805311e-01,0.000000000000000000e+00
4.540000000000000000e+02,-9.027174175703744918e-01,0.000000000000000000e+00
4.550000000000000000e+02,-7.328670938585719608e-01,0.000000000000000000e+00
4.560000000000000000e+02,-5.210180557889829700e-01,0.000000000000000000e+00
4.570000000000000000e+02,-5.664523354100191588e-01,0.000000000000000000e+00
4.580000000000000000e+02,-5.836639293119380012e-01,0.000000000000000000e+00
4.590000000000000000e+02,-5.613388997500059485e-01,0.000000000000000000e+00
4.600000000000000000e+02,-4.209890003930263913e-01,0.000000000000000000e+00
4.610000000000000000e+02,-3.808168917748137594e-01,0.000000000000000000e+00
4.620000000000000000e+02,-2.483407664097565248e-01,0.000000000000000000e+00
4.630000000000000000e+02,-2.274839415933663789e-01,0.000000000000000000e+00
4.640000000000000000e+02,-2.967212515435600495e-01,0.000000000000000000e+00
4.650000000000000000e+02,-4.918061465305188090e-02,0.000000000000000000e+00
4.660000000000000000e+02,-1.990657163512324357e-01,0.000000000000000000e+00
4.670000000000000000e+02,1.880343902294460967e-02,0.000000000000000000e+00
4.680000000000000000e+02,-1.046521828810843269e-01,0.000000000000000000e+00
4.690000000000000000e+02,8.060192283254510870e-02,0.000000000000000000e+00
4.700000000000000000e+02,4.437315063012367000e-01,0.000000000000000000e+00
4.710000000000000000e+02,6.802493371568200109e-01,0.000000000000000000e+00
4.720000000000000000e+02,3.522727957780436014e-01,0.000000000000000000e+00
4.730000000000000000e+02,2.484667665434421302e-01,0.000000000000000000e+00
4.740000000000000000e+02,-1.594213898430373866e-01,0.000000000000000000e+00
4.750000000000000000e+02,-2.857549278777153368e-01,0.000000000000000000e+00
4.760000000000000000e+02,-1.697767369079312416e-01,0.000000000000000000e+00
4.770000000000000000e+02,9.934916830229872931e-02,0.000000000000000000e+00
4.780000000000000000e+02,-2.642188989525250942e-01,0.000000000000000000e+00
4.790000000000000000e+02,1.160108719723969672e+00,0.000000000000000000e+00
4.800000000000000000e+02,4.228304175950642119e+00,0.000000000000000000e+00
4.810000000000000000e+02,-8.419423667374428266e-01,1.000000000000000000e+00
4.820000000000000000e+02,-2.580792824576243483e+00,0.000000000000000000e+00
4.830000000000000000e+02,-5.793888135357242453e-01,0.000000000000000000e+00
4.840000000000000000e+02,1.494647662774841734e-01,0.000000000000000000e+00
4.850000000000000000e+02,9.603588333924560627e-02,0.000000000000000000e+00
4.860000000000000000e+02,4.179536875658955153e-01,0.000000000000000000e+00
4.870000000000000000e+02,4.251269693784665571e-01,0.000000000000000000e+00
4.880000000000000000e+02,5.111724885933967011e-01,0.000000000000000000e+00
4.890000000000000000e+02,5.597971768104404999e-01,0.000000000000000000e+00
4.900000000000000000e+02,6.789999648141504807e-01,0.000000000000000000e+00
4.910000000000000000e+02,1.199888490044406231e+00,0.000000000000000000e+00
4.920000000000000000e+02,1.165821335002585668e+00,0.000000000000000000e+00
4.930000000000000000e+02,1.455150860023209924e+00,0.000000000000000000e+00
4.940000000000000000e+02,1.428694829729781013e+00,0.000000000000000000e+00
4.950000000000000000e+02,1.030634132261788016e+00,0.000000000000000000e+00
4.960000000000000000e+02,4.580592522932970811e-01,0.000000000000000000e+00
4.970000000000000000e+02,-3.507252814941386188e-01,0.000000000000000000e+00
4.980000000000000000e+02,-1.024224508597973760e+00,0.000000000000000000e+00
4.990000000000000000e+02,-1.254126850688661365e+00,0.000000000000000000e+00
5.000000000000000000e+02,-1.141585050567748505e+00,0.000000000000000000e+00
5.010000000000000000e+02,-1.034083025324556981e+00,0.000000000000000000e+00
5.020000000000000000e+02,-1.085914605509312736e+00,0.000000000000000000e+00
5.030000000000000000e+02,-8.622495557276779188e-01,0.000000000000000000e+00
5.040000000000000000e+02,-1.057495183188606358e+00,0.000000000000000000e+00
5.050000000000000000e+02,-5.331211806333048253e-01,0.000000000000000000e+00
5.060000000000000000e+02,-6.531336849693119007e-01,0.000000000000000000e+00
5.070000000000000000e+02,-4.045480057887638203e-01,0.000000000000000000e+00
5.080000000000000000e+02,-5.094705122110715356e-01,0.000000000000000000e+00
5.090000000000000000e+02,-5.845172685446168304e-01,0.000000000000000000e+00
5.100000000000000000e+02,-3.375153230466502174e-01,0.000000000000000000e+00
5.110000000000000000e+02,-3.504418071795467049e-01,0.000000000000000000e+00
5.120000000000000000e+02,-3.320075040858672666e-01,0.000000000000000000e+00
5.130000000000000000e+02,-2.925893136934614724e-01,0.000000000000000000e+00
5.140000000000000000e+02,-2.438544262150123543e-01,0.000000000000000000e+00
5.150000000000000000e+02,5.851341862230450414e-02,0.000000000000000000e+00
5.160000000000000000e+02,-2.691165228212857863e-01,0.000000000000000000e+00
5.170000000000000000e+02,1.293858260989770026e-01,0.000000000000000000e+00
5.180000000000000000e+02,-2.471897599716595118e-02,0.000000000000000000e+00
5.190000000000000000e+02,1.948488750296217265e-01,0.000000000000000000e+00
5.200000000000000000e+02,3.995439616163229402e-01,0.000000000000000000e+00
5.210000000000000000e+02,6.962998486328998426e-01,0.000000000000000000e+00
5.220000000000000000e+02,5.355689941787979969e-01,0.000000000000000000e+00
5.230000000000000000e+02,4.736934144957276049e-01,0.000000000000000000e+00
5.240000000000000000e+02,1.817534678889350108e-02,0.000000000000000000e+00
5.250000000000000000e+02,-3.517492509825621005e-01,0.000000000000000000e+00
5.260000000000000000e+02,-1.897896698784330149e-01,0.000000000000000000e+00
5.270000000000000000e+02,-8.273404812171210321e-02,0.000000000000000000e+00
5.280000000000000000e+02,9.568779320417934720e-02,0.000000000000000000e+00
5.290000000000000000e+02,-5.937772293505500301e-04,0.000000000000000000e+00
5.300000000000000000e+02,3.875869959530599651e+00,0.000000000000000000e+00
5.310000000000000000e+02,7.892595553409157416e-01,1.000000000000000000e+00
5.320000000000000000e+02,-3.183785619231453534e+00,0.000000000000000000e+00
5.330000000000000000e+02,-1.253147790498963188e+00,0.000000000000000000e+00
5.340000000000000000e+02,4.270507817390598558e-03,0.000000000000000000e+00
5.350000000000000000e+02,4.586151835028987045e-01,0.000000000000000000e+00
5.360000000000000000e+02,3.631853008554059570e-01,0.000000000000000000e+00
5.370000000000000000e+02,6.409255138070947266e-01,0.000000000000000000e+00
5.380000000000000000e+02,5.209537165853709295e-01,0.000000000000000000e+00
5.390000000000000000e+02,8.957921478916563984e-01,0.000000000000000000e+00
5.400000000000000000e+02,8.106070961835157851e-01,0.000000000000000000e+00
5.410000000000000000e+02,1.170084967831772627e+00,0.000000000000000000e+00
5.420000000000000000e+02,1.305607189233838783e+00,0.000000000000000000e+00
5.430000000000000000e+02,1.662637476348006071e+00,0.000000000000000000e+00
5.440000000000000000e+02,1.648075698421223922e+00,0.000000000000000000e+00
5.450000000000000000e+02,1.465896343553443337e+00,0.000000000000000000e+00
5.460000000000000000e+02,7.498595841117933203e-01,0.000000000000000000e+00
5.470000000000000000e+02,-1.764710236836568649e-02,0.000000000000000000e+00
5.480000000000000000e+02,-7.128824077101367784e-01,0.000000000000000000e+00
5.490000000000000000e+02,-1.110325666665433308e+00,0.000000000000000000e+00
5.500000000000000000e+02,-1.313459981113427544e+00,0.000000000000000000e+00
5.510000000000000000e+02,-1.097574017352629383e+00,0.000000000000000000e+00
5.520000000000000000e+02,-1.084640706645336961e+00,0.000000000000000000e+00
5.530000000000000000e+02,-8.540918746244964277e-01,0.000000000000000000e+00
5.540000000000000000e+02,-8.889696735895408208e-01,0.000000000000000000e+00
5.550000000000000000e+02,-7.110307736955803204e-01,0.000000000000000000e+00
5.560000000000000000e+02,-6.719849609610689667e-01,0.000000000000000000e+00
5.570000000000000000e+02,-5.276828094331785790e-01,0.000000000000000000e+00
5.580000000000000000e+02,-6.584822031775776630e-01,0.000000000000000000e+00
5.590000000000000000e+02,-5.587674639337938398e-01,0.000000000000000000e+00
5.600000000000000000e+02,-5.342695824877670141e-01,0.000000000000000000e+00
5.610000000000000000e+02,-3.655858016056764970e-01,0.000000000000000000e+00
5.620000000000000000e+02,-4.527914890994664265e-01,0.000000000000000000e+00
5.630000000000000000e+02,-3.859075933960097182e-01,0.000000000000000000e+00
5.640000000000000000e+02,-4.101737211492060831e-01,0.000000000000000000e+00
5.650000000000000000e+02,-3.477622415870836037e-02,0.000000000000000000e+00
5.660000000000000000e+02,-2.207126088437066369e-01,0.000000000000000000e+00
5.670000000000000000e+02,-1.027485834812984639e-01,0.000000000000000000e+00
5.680000000000000000e+02,5.596269685327482507e-02,0.000000000000000000e+00
5.690000000000000000e+02,3.657943914517744477e-01,0.000000000000000000e+00
5.700000000000000000e+02,5.778480151256083497e-01,0.000000000000000000e+00
5.710000000000000000e+02,3.793536804563329423e-01,0.000000000000000000e+00
5.720000000000000000e+02,1.259977488832117187e-01,0.000000000000000000e+00
5.730000000000000000e+02,-2.568011148782022024e-02,0.000000000000000000e+00
5.740000000000000000e+02,-3.244093803401408294e-01,0.000000000000000000e+00
5.750000000000000000e+02,-1.364978082001474247e-01,0.000000000000000000e+00
5.760000000000000000e+02,-2.197859036635281260e-01,0.000000000000000000e+00
5.770000000000000000e+02,-2.380551899997614684e-01,0.000000000000000000e+00
5.780000000000000000e+02,2.033878709195235390e-01,0.000000000000000000e+00
5.790000000000000000e+02,4.200846638858119597e+00,0.000000000000000000e+00
5.800000000000000000e+02,-1.970143028309338518e-01,1.000000000000000000e+00
5.810000000000000000e+02,-3.245698075038864427e+00,0.000000000000000000e+00
5.820000000000000000e+02,-1.398225850212736709e+00,0.000000000000000000e+00
5.830000000000000000e+02,-1.714701183827156139e-01,0.000000000000000000e+00
5.840000000000000000e+02,4.099777439064176687e-01,0.000000000000000000e+00
5.850000000000000000e+02,3.917287491634618424e-01,0.000000000000000000e+00
5.860000000000000000e+02,3.562153450912949881e-01,0.000000000000000000e+00
5.870000000000000000e+02,6.740757780047833547e-01,0.000000000000000000e+00
5.880000000000000000e+02,7.841335251011646301e-01,0.000000000000000000e+00
5.890000000000000000e+02,8.266742043114244654e-01,0.000000000000000000e+00
5.900000000000000000e+02,9.736765903005620837e-01,0.000000000000000000e+00
5.910000000000000000e+02,1.343149018094253799e+00,0.000000000000000000e+00
5.920000000000000000e+02,1.649459894520539427e+00,0.000000000000000000e+00
5.930000000000000000e+02,1.476122574436443902e+00,0.000000000000000000e+00
5.940000000000000000e+02,1.532286861072096329e+00,0.000000000000000000e+00
5.950000000000000000e+02,5.934424644992489783e-01,0.000000000000000000e+00
5.960000000000000000e+02,-2.165806158470258980e-01,0.000000000000000000e+00
5.970000000000000000e+02,-8.325255567935131440e-01,0.000000000000000000e+00
5.980000000000000000e+02,-1.191018114270770090e+00,0.000000000000000000e+00
5.990000000000000000e+02,-1.164460947605762575e+00,0.000000000000000000e+00
6.000000000000000000e+02,-1.241747406770885798e+00,0.000000000000000000e+00
6.010000000000000000e+02,-1.009860122827721307e+00,0.000000000000000000e+00
6.020000000000000000e+02,-8.360796072518466016e-01,0.000000000000000000e+00
6.030000000000000000e+02,-7.691008376372799882e-01,0.000000000000000000e+00
6.040000000000000000e+02,-5.216682247672993489e-01,0.000000000000000000e+00
6.050000000000000000e+02,-7.581772524775136635e-01,0.000000000000000000e+00
6.060000000000000000e+02,-4.436436262268301789e-01,0.000000000000000000e+00
6.070000000000000000e+02,-5.287661471340892039e-01,0.000000000000000000e+00
6.080000000000000000e+02,-5.415433567289545946e-01,0.000000000000000000e+00
6.090000000000000000e+02,-3.601495940725434330e-01,0.000000000000000000e+00
6.100000000000000000e+02,-5.560173194116029283e-01,0.000000000000000000e+00
6.110000000000000000e+02,-4.663129595858744175e-02,0.000000000000000000e+00
6.120000000000000000e+02,-2.431415377091633578e-01,0.000000000000000000e+00
6.130000000000000000e+02,-2.178654970230555488e-01,0.000000000000000000e+00
6.140000000000000000e+02,-2.289949740612367557e-01,0.000000000000000000e+00
6.150000000000000000e+02,-1.676877352912536645e-01,0.000000000000000000e+00
6.160000000000000000e+02,-3.814077105043527094e-02,0.000000000000000000e+00
6.170000000000000000e+02,1.790612955449535082e-01,0.000000000000000000e+00
6.180000000000000000e+02,3.204783450282781554e-01,0.000000000000000000e+00
6.190000000000000000e+02,6.770864552670559089e-01,0.000000000000000000e+00
6.200000000000000000e+02,3.124043316111988489e-01,0.000000000000000000e+00
6.210000000000000000e+02,1.863351577085196886e-01,0.000000000000000000e+00
6.220000000000000000e+02,-1.853010534129086451e-01,0.000000000000000000e+00
6.230000000000000000e+02,-4.813817352585965381e-02,0.000000000000000000e+00
6.240000000000000000e+02,-4.113945989121329805e-01,0.000000000000000000e+00
6.250000000000000000e+02,2.213273534382172447e-01,0.000000000000000000e+00
6.260000000000000000e+02,-6.159746221162094582e-01,0.000000000000000000e+00
6.270000000000000000e+02,2.574480147569488508e+00,0.000000000000000000e+00
6.280000000000000000e+02,3.040325553810188985e+00,0.000000000000000000e+00
6.290000000000000000e+02,-2.564107476940332919e+00,1.000000000000000000e+00
6.300000000000000000e+02,-2.201629431765560252e+00,0.000000000000000000e+00
6.310000000000000000e+02,-5.141477404137980711e-01,0.000000000000000000e+00
6.320000000000000000e+02,6.798380361606534139e-01,0.000000000000000000e+00
6.330000000000000000e+02,3.751943451848435140e-01,0.000000000000000000e+00
6.340000000000000000e+02,5.363265912764035859e-01,0.000000000000000000e+00
6.350000000000000000e+02,6.110670643805394819e-01,0.000000000000000000e+00
6.360000000000000000e+02,8.023618651873597463e-01,0.000000000000000000e+00
6.370000000000000000e+02,6.803714782556720131e-01,0.000000000000000000e+00
6.380000000000000000e+02,1.179135061690776753e+00,0.000000000000000000e+00
6.390000000000000000e+02,9.899763511787477155e-01,0.000000000000000000e+00
6.400000000000000000e+02,1.550804538948920008e+00,0.000000000000000000e+00
6.410000000000000000e+02,1.614269964953541248e+00,0.000000000000000000e+00
6.420000000000000000e+02,1.508644623460116962e+00,0.000000000000000000e+00
6.430000000000000000e+02,1.014558657826721610e+00,0.000000000000000000e+00
6.440000000000000000e+02,1.998856727460819049e-01,0.000000000000000000e+00
6.450000000000000000e+02,-5.105011335427012131e-01,0.000000000000000000e+00
6.460000000000000000e+02,-8.222639531599070795e-01,0.000000000000000000e+00
6.470000000000000000e+02,-1.299883254041416025e+00,0.000000000000000000e+00
6.480000000000000000e+02,-1.131461340154692019e+00,0.000000000000000000e+00
6.490000000000000000e+02,-9.220698209914549581e-01,0.000000000000000000e+00
6.500000000000000000e+02,-9.931266698834479989e-01,0.000000000000000000e+00
6.510000000000000000e+02,-6.960785742940494014e-01,0.000000000000000000e+00
6.520000000000000000e+02,-7.281943142532402158e-01,0.000000000000000000e+00
6.530000000000000000e+02,-5.393887015700734588e-01,0.000000000000000000e+00
6.540000000000000000e+02,-5.835021614646265231e-01,0.000000000000000000e+00
6.550000000000000000e+02,-7.232940037673625255e-01,0.000000000000000000e+00
6.560000000000000000e+02,-3.222752900386774422e-01,0.000000000000000000e+00
6.570000000000000000e+02,-5.975240068394278570e-01,0.000000000000000000e+00
6.580000000000000000e+02,-4.172807249828200948e-01,0.000000000000000000e+00
6.590000000000000000e+02,-2.554525215417171036e-01,0.000000000000000000e+00
6.600000000000000000e+02,-3.174342973788986111e-01,0.000000000000000000e+00
6.610000000000000000e+02,-8.717788430595817262e-02,0.000000000000000000e+00
6.620000000000000000e+02,-2.996121838873446741e-01,0.000000000000000000e+00
6.630000000000000000e+02,-2.257486286837021849e-01,0.000000000000000000e+00
6.640000000000000000e+02,7.023272138429792477e-02,0.000000000000000000e+00
6.650000000000000000e+02,7.963400749326615333e-03,0.000000000000000000e+00
6.660000000000000000e+02,3.908914083446169419e-01,0.000000000000000000e+00
6.670000000000000000e+02,5.577546570476529242e-01,0.000000000000000000e+00
6.680000000000000000e+02,3.677361137262156743e-01,0.000000000000000000e+00
6.690000000000000000e+02,1.586947846011746432e-01,0.000000000000000000e+00
6.700000000000000000e+02,-1.674546371098358799e-01,0.000000000000000000e+00
6.710000000000000000e+02,-3.343075404578313425e-01,0.000000000000000000e+00
6.720000000000000000e+02,-1.968082223507483797e-01,0.000000000000000000e+00
6.730000000000000000e+02,-1.553695924225095004e-01,0.000000000000000000e+00
6.740000000000000000e+02,-3.309505535262987630e-01,0.000000000000000000e+00
6.750000000000000000e+02,1.260270330402317951e+00,0.000000000000000000e+00
6.760000000000000000e+02,3.771927529887656227e+00,0.000000000000000000e+00
6.770000000000000000e+02,-1.688118229949689297e+00,1.000000000000000000e+00
6.780000000000000000e+02,-2.479958478308803560e+00,0.000000000000000000e+00
6.790000000000000000e+02,-6.363787686104140917e-01,0.000000000000000000e+00
6.800000000000000000e+02,1.272884370031774903e-01,0.000000000000000000e+00
6.810000000000000000e+02,2.401133595013844324e-01,0.000000000000000000e+00
6.820000000000000000e+02,2.789299962438984148e-01,0.000000000000000000e+00
6.830000000000000000e+02,4.767846300564353990e-01,0.000000000000000000e+00
6.840000000000000000e+02,5.664425334639500154e-01,0.000000000000000000e+00
6.850000000000000000e+02,5.969341847961271430e-01,0.000000000000000000e+00
6.860000000000000000e+02,7.244988140735298954e-01,0.000000000000000000e+00
6.870000000000000000e+02,9.947174888355468925e-01,0.000000000000000000e+00
6.880000000000000000e+02,1.456309254651435126e+00,0.000000000000000000e+00
6.890000000000000000e+02,1.449304414965687959e+00,0.000000000000000000e+00
6.900000000000000000e+02,1.392720278497791231e+00,0.000000000000000000e+00
6.910000000000000000e+02,9.140108931207890919e-01,0.000000000000000000e+00
6.920000000000000000e+02,3.372749643534517228e-01,0.000000000000000000e+00
6.930000000000000000e+02,-3.731762920192248645e-01,0.000000000000000000e+00
6.940000000000000000e+02,-9.270136561785580209e-01,0.000000000000000000e+00
6.950000000000000000e+02,-1.019908538523184971e+00,0.000000000000000000e+00
6.960000000000000000e+02,-1.064620110555525967e+00,0.000000000000000000e+00
6.970000000000000000e+02,-1.105149739425871136e+00,0.000000000000000000e+00
6.980000000000000000e+02,-7.256948926175499359e-01,0.000000000000000000e+00
6.990000000000000000e+02,-9.268951658233828272e-01,0.000000000000000000e+00
7.000000000000000000e+02,-6.213814731768875221e-01,0.000000000000000000e+00
7.010000000000000000e+02,-6.989737691744268844e-01,0.000000000000000000e+00
7.020000000000000000e+02,-4.917747505746291603e-01,0.000000000000000000e+00
7.030000000000000000e+02,-5.304891561886247997e-01,0.000000000000000000e+00
7.040000000000000000e+02,-3.404013710493736800e-01,0.000000000000000000e+00
7.050000000000000000e+02,-5.756066600208809003e-01,0.000000000000000000e+00
7.060000000000000000e+02,-3.383609841160908349e-01,0.000000000000000000e+00
7.070000000000000000e+02,-2.050223999334070679e-01,0.000000000000000000e+00
7.080000000000000000e+02,-1.724015257673425505e-01,0.000000000000000000e+00
7.090000000000000000e+02,-2.468357955340136634e-01,0.000000000000000000e+00
7.100000000000000000e+02,-1.492981029222433809e-01,0.000000000000000000e+00
7.110000000000000000e+02,-6.745180323837929315e-02,0.000000000000000000e+00
7.120000000000000000e+02,4.695907376323490284e-02,0.000000000000000000e+00
7.130000000000000000e+02,-7.350228237050680791e-02,0.000000000000000000e+00
7.140000000000000000e+02,3.494536765842773951e-01,0.000000000000000000e+00
7.150000000000000000e+02,5.314483902972861884e-01,0.000000000000000000e+00
7.160000000000000000e+02,6.671007751027627775e-01,0.000000000000000000e+00
7.170000000000000000e+02,3.835926020912326373e-01,0.000000000000000000e+00
7.180000000000000000e+02,1.080611643521043330e-01,0.000000000000000000e+00
7.190000000000000000e+02,-2.449597257498401515e-01,0.000000000000000000e+00
7.200000000000000000e+02,-5.528607519753571398e-02,0.000000000000000000e+00
7.210000000000000000e+02,-3.433576235499679608e-01,0.000000000000000000e+00
7.220000000000000000e+02,2.788186569974057116e-01,0.000000000000000000e+00
7.230000000000000000e+02,-4.405162899103783891e-01,0.000000000000000000e+00
7.240000000000000000e+02,3.427025470115099726e+00,0.000000000000000000e+00
7.250000000000000000e+02,2.517980598156000394e+00,0.000000000000000000e+00
7.260000000000000000e+02,-2.882657288683296404e+00,1.000000000000000000e+00
7.270000000000000000e+02,-1.262510295882849354e+00,0.000000000000000000e+00
7.280000000000000000e+02,-2.880370295204650044e-01,0.000000000000000000e+00
7.290000000000000000e+02,4.171887017188968261e-01,0.000000000000000000e+00
7.300000000000000000e+02,9.250292545535600264e-02,0.000000000000000000e+00
7.310000000000000000e+02,5.020250905015276599e-01,0.000000000000000000e+00
7.320000000000000000e+02,2.362589515138031893e-01,0.000000000000000000e+00
7.330000000000000000e+02,5.159633669798742162e-01,0.000000000000000000e+00
7.340000000000000000e+02,6.147231345718757733e-01,0.000000000000000000e+00
7.350000000000000000e+02,7.438133919763459945e-01,0.000000000000000000e+00
7.360000000000000000e+02,8.918463274180340461e-01,0.000000000000000000e+00
7.370000000000000000e+02,1.343299887508979218e+00,0.000000000000000000e+00
7.380000000000000000e+02,1.293496516325219670e+00,0.000000000000000000e+00
7.390000000000000000e+02,1.120975799315636179e+00,0.000000000000000000e+00
7.400000000000000000e+02,6.361747509293703695e-01,0.000000000000000000e+00
7.410000000000000000e+02,-8.384623883118094700e-02,0.000000000000000000e+00
7.420000000000000000e+02,-8.271282395599589554e-01,0.000000000000000000e+00
7.430000000000000000e+02,-1.211697148080666864e+00,0.000000000000000000e+00
7.440000000000000000e+02,-1.297648242334792590e+00,0.000000000000000000e+00
7.450000000000000000e+02,-9.182747032229235939e-01,0.000000000000000000e+00
7.460000000000000000e+02,-1.070640552917156318e+00,0.000000000000000000e+00
7.470000000000000000e+02,-9.575355744850837514e-01,0.000000000000000000e+00
7.480000000000000000e+02,-8.646031475827719026e-01,0.000000000000000000e+00
7.490000000000000000e+02,-7.130592454091824184e-01,0.000000000000000000e+00
7.500000000000000000e+02,-5.293878907251686750e-01,0.000000000000000000e+00
7.510000000000000000e+02,-4.644474508054365902e-01,0.000000000000000000e+00
7.520000000000000000e+02,-5.785688640189986520e-01,0.000000000000000000e+00
7.530000000000000000e+02,-4.068762773824232681e-01,0.000000000000000000e+00
7.540000000000000000e+02,-4.124959595006844060e-01,0.000000000000000000e+00
7.550000000000000000e+02,-2.185996455002787442e-01,0.000000000000000000e+00
7.560000000000000000e+02,-2.429421236263432093e-01,0.000000000000000000e+00
7.570000000000000000e+02,-2.952815371907931419e-01,0.000000000000000000e+00
7.580000000000000000e+02,-1.765509668997931603e-01,0.000000000000000000e+00
7.590000000000000000e+02,-7.328932919325008288e-02,0.000000000000000000e+00
7.600000000000000000e+02,-1.016781550128859068e-01,0.000000000000000000e+00
7.610000000000000000e+02,-9.675100562522810296e-03,0.000000000000000000e+00
7.620000000000000000e+02,-2.328622860496135094e-02,0.000000000000000000e+00
7.630000000000000000e+02,3.246211642383837748e-01,0.000000000000000000e+00
7.640000000000000000e+02,6.546262413373983291e-01,0.000000000000000000e+00
7.650000000000000000e+02,5.281720136626548712e-01,0.000000000000000000e+00
7.660000000000000000e+02,2.259364612835612907e-01,0.000000000000000000e+00
7.670000000000000000e+02,1.592905836985669676e-01,0.000000000000000000e+00
7.680000000000000000e+02,-3.656437324237272191e-01,0.000000000000000000e+00
7.690000000000000000e+02,-1.110722991109970303e-01,0.000000000000000000e+00
7.700000000000000000e+02,-1.428801806545218489e-01,0.000000000000000000e+00
7.710000000000000000e+02,1.399252013811385364e-01,0.000000000000000000e+00
7.720000000000000000e+02,9.235046762369927831e-02,0.000000000000000000e+00
7.730000000000000000e+02,4.090495014705813226e+00,0.000000000000000000e+00
7.740000000000000000e+02,9.085807286826027562e-01,1.000000000000000000e+00
7.750000000000000000e+02,-2.939921661970874567e+00,0.000000000000000000e+00
7.760000000000000000e+02,-7.825517176083733872e-01,0.000000000000000000e+00
7.770000000000000000e+02,-3.914855553240652319e-02,0.000000000000000000e+00
7.780000000000000000e+02,1.905073081775229271e-01,0.000000000000000000e+00
7.790000000000000000e+02,1.488202298612219809e-01,0.000000000000000000e+00
7.800000000000000000e+02,4.667025681385045255e-01,0.000000000000000000e+00
7.810000000000000000e+02,2.907233047563261286e-01,0.000000000000000000e+00
7.820000000000000000e+02,5.467534993285111389e-01,0.000000000000000000e+00
7.830000000000000000e+02,4.896066757253503821e-01,0.000000000000000000e+00
7.840000000000000000e+02,8.987774898311178262e-01,0.000000000000000000e+00
7.850000000000000000e+02,1.052383003491163205e+00,0.000000000000000000e+00
7.860000000000000000e+02,1.418202591276480629e+00,0.000000000000000000e+00
7.870000000000000000e+02,1.369279874362005378e+00,0.000000000000000000e+00
7.880000000000000000e+02,1.183418837103155763e+00,0.000000000000000000e+00
7.890000000000000000e+02,4.426319480575226506e-01,0.000000000000000000e+00
7.900000000000000000e+02,-3.834069816694583854e-02,0.000000000000000000e+00
7.910000000000000000e+02,-1.025908213251924161e+00,0.000000000000000000e+00
7.920000000000000000e+02,-9.505426172372731797e-01,0.000000000000000000e+00
7.930000000000000000e+02,-1.239631620421549618e+00,0.000000000000000000e+00
7.940000000000000000e+02,-1.163113159570133837e+00,0.000000000000000000e+00
7.950000000000000000e+02,-8.716206352359419096e-01,0.000000000000000000e+00
7.960000000000000000e+02,-8.865909807768102002e-01,0.000000000000000000e+00
7.970000000000000000e+02,-8.470546734320291149e-01,0.000000000000000000e+00
7.980000000000000000e+02,-6.837736858187866140e-01,0.000000000000000000e+00
7.990000000000000000e+02,-7.238088986111430589e-01,0.000000000000000000e+00
8.000000000000000000e+02,-4.302151860436789210e-01,0.000000000000000000e+00
8.010000000000000000e+02,-5.912269189569283601e-01,0.000000000000000000e+00
8.020000000000000000e+02,-4.416297724238381628e-01,0.000000000000000000e+00
8.030000000000000000e+02,-4.007519325612686756e-01,0.000000000000000000e+00
8.040000000000000000e+02,-2.916292942628732621e-01,0.000000000000000000e+00
8.050000000000000000e+02,-3.639825085435277052e-01,0.000000000000000000e+00
8.060000000000000000e+02,-2.744093620696486102e-01,0.000000000000000000e+00
8.070000000000000000e+02,-1.478008057569974443e-01,0.000000000000000000e+00
8.080000000000000000e+02,-1.759914159916841914e-01,0.000000000000000000e+00
8.090000000000000000e+02,-6.151005248972114814e-02,0.000000000000000000e+00
8.100000000000000000e+02,-5.221887639212235976e-02,0.000000000000000000e+00
8.110000000000000000e+02,8.124137703365119645e-02,0.000000000000000000e+00
8.120000000000000000e+02,3.086205659028500858e-01,0.000000000000000000e+00
8.130000000000000000e+02,5.625580804051050210e-01,0.000000000000000000e+00
8.140000000000000000e+02,4.262453395178362192e-01,0.000000000000000000e+00
8.150000000000000000e+02,3.793487609122464521e-01,0.000000000000000000e+00
8.160000000000000000e+02,3.018383882995663292e-01,0.000000000000000000e+00
8.170000000000000000e+02,-2.453495824289363136e-01,0.000000000000000000e+00
8.180000000000000000e+02,-7.255654481772325082e-02,0.000000000000000000e+00
8.190000000000000000e+02,-2.776495301310153430e-01,0.000000000000000000e+00
8.200000000000000000e+02,1.308921444324120942e-01,0.000000000000000000e+00
8.210000000000000000e+02,-4.085266721036590054e-01,0.000000000000000000e+00
8.220000000000000000e+02,2.867892030946035398e+00,0.000000000000000000e+00
8.230000000000000000e+02,3.214442083547261131e+00,0.000000000000000000e+00
8.240000000000000000e+02,-2.592199350236245703e+00,1.000000000000000000e+00
8.250000000000000000e+02,-1.565633427921638843e+00,0.000000000000000000e+00
8.260000000000000000e+02,-2.783935244993662184e-01,0.000000000000000000e+00
8.270000000000000000e+02,2.289803711566170130e-01,0.000000000000000000e+00
8.280000000000000000e+02,3.194132461992831851e-01,0.000000000000000000e+00
8.290000000000000000e+02,5.110221291154309897e-01,0.000000000000000000e+00
8.300000000000000000e+02,2.204081008231177086e-01,0.000000000000000000e+00
8.310000000000000000e+02,6.811279355209635122e-01,0.000000000000000000e+00
8.320000000000000000e+02,5.819533749960592584e-01,0.000000000000000000e+00
8.330000000000000000e+02,1.007925393737969078e+00,0.000000000000000000e+00
8.340000000000000000e+02,9.628305544585935571e-01,0.000000000000000000e+00
8.350000000000000000e+02,1.495599895620097319e+00,0.000000000000000000e+00
8.360000000000000000e+02,1.505121511117274880e+00,0.000000000000000000e+00
8.370000000000000000e+02,1.302877913540447574e+00,0.000000000000000000e+00
8.380000000000000000e+02,8.796490917722552538e-01,0.000000000000000000e+00
8.390000000000000000e+02,1.278380961298933582e-01,0.000000000000000000e+00
8.400000000000000000e+02,-7.535302019030891696e-01,0.000000000000000000e+00
8.410000000000000000e+02,-9.362299332872267010e-01,0.000000000000000000e+00
8.420000000000000000e+02,-1.219549551138636057e+00,0.000000000000000000e+00
8.430000000000000000e+02,-1.106983044085709134e+00,0.000000000000000000e+00
8.440000000000000000e+02,-9.839366707677590362e-01,0.000000000000000000e+00
8.450000000000000000e+02,-8.952924343936775609e-01,0.000000000000000000e+00
8.460000000000000000e+02,-1.047232174287280548e+00,0.000000000000000000e+00
8.470000000000000000e+02,-5.508963194865017510e-01,0.000000000000000000e+00
8.480000000000000000e+02,-6.632131547111118630e-01,0.000000000000000000e+00
8.490000000000000000e+02,-4.758950240668066711e-01,0.000000000000000000e+00
8.500000000000000000e+02,-3.845892883188369860e-01,0.000000000000000000e+00
8.510000000000000000e+02,-4.805549677087574967e-01,0.000000000000000000e+00
8.520000000000000000e+02,-3.785692688193783573e-01,0.000000000000000000e+00
8.530000000000000000e+02,-3.808833893485987776e-01,0.000000000000000000e+00
8.540000000000000000e+02,-2.478442309806411781e-01,0.000000000000000000e+00
8.550000000000000000e+02,-1.138755385534987175e-01,0.000000000000000000e+00
8.560000000000000000e+02,-2.870264737603765437e-01,0.000000000000000000e+00
8.570000000000000000e+02,-9.256101541211479711e-02,0.000000000000000000e+00
8.580000000000000000e+02,-1.163599449961057464e-01,0.000000000000000000e+00
8.590000000000000000e+02,-2.905135350816106729e-02,0.000000000000000000e+00
8.600000000000000000e+02,-7.102754044150452750e-02,0.000000000000000000e+00
8.610000000000000000e+02,1.931346648013057554e-02,0.000000000000000000e+00
8.620000000000000000e+02,5.553440531588457185e-01,0.000000000000000000e+00
8.630000000000000000e+02,5.552192596220001386e-01,0.000000000000000000e+00
8.640000000000000000e+02,3.593265307851171708e-01,0.000000000000000000e+00
8.650000000000000000e+02,2.459339762744857938e-01,0.000000000000000000e+00
8.660000000000000000e+02,-3.629748835391400363e-01,0.000000000000000000e+00
8.670000000000000000e+02,-4.162244018990243766e-02,0.000000000000000000e+00
8.680000000000000000e+02,-4.680156947952539004e-01,0.000000000000000000e+00
8.690000000000000000e+02,1.698740375687055604e-01,0.000000000000000000e+00
8.700000000000000000e+02,-5.633870588522068568e-01,0.000000000000000000e+00
8.710000000000000000e+02,1.691671108442657223e+00,0.000000000000000000e+00
8.720000000000000000e+02,3.965589035901801118e+00,0.000000000000000000e+00
8.730000000000000000e+02,-1.703861166221347423e+00,1.000000000000000000e+00
8.740000000000000000e+02,-2.153626718948802310e+00,0.000000000000000000e+00
8.750000000000000000e+02,-5.452303918345741129e-01,0.000000000000000000e+00
8.760000000000000000e+02,1.906775456508877642e-01,0.000000000000000000e+00
8.770000000000000000e+02,4.213514235903650373e-01,0.000000000000000000e+00
8.780000000000000000e+02,3.116229704439117953e-01,0.000000000000000000e+00
8.790000000000000000e+02,6.406948756774945020e-01,0.000000000000000000e+00
8.800000000000000000e+02,3.091074843449531651e-01,0.000000000000000000e+00
8.810000000000000000e+02,6.280364186853509834e-01,0.000000000000000000e+00
8.820000000000000000e+02,9.571514218744965330e-01,0.000000000000000000e+00
8.830000000000000000e+02,9.330895038708105771e-01,0.000000000000000000e+00
8.840000000000000000e+02,1.457341057466012169e+00,0.000000000000000000e+00
8.850000000000000000e+02,1.443434982079911055e+00,0.000000000000000000e+00
8.860000000000000000e+02,1.223409824005586399e+00,0.000000000000000000e+00
8.870000000000000000e+02,9.389802948633757529e-01,0.000000000000000000e+00
8.880000000000000000e+02,1.976209173028461441e-01,0.000000000000000000e+00
8.890000000000000000e+02,-4.855757237970522722e-01,0.000000000000000000e+00
8.900000000000000000e+02,-1.170634686174911732e+00,0.000000000000000000e+00
8.910000000000000000e+02,-1.374231843371846784e+00,0.000000000000000000e+00
8.920000000000000000e+02,-1.281559371699362515e+00,0.000000000000000000e+00
8.930000000000000000e+02,-1.180247404479588091e+00,0.000000000000000000e+00
8.940000000000000000e+02,-1.131876234935495384e+00,0.000000000000000000e+00
8.950000000000000000e+02,-8.720167568590081464e-01,0.000000000000000000e+00
8.960000000000000000e+02,-8.340427061494484207e-01,0.000000000000000000e+00
8.970000000000000000e+02,-6.679464645260996258e-01,0.000000000000000000e+00
8.980000000000000000e+02,-6.496203844723070775e-01,0.000000000000000000e+00
8.990000000000000000e+02,-6.157350139221946517e-01,0.000000000000000000e+00
9.000000000000000000e+02,-4.977514183431022698e-01,0.000000000000000000e+00
9.010000000000000000e+02,-5.843437571323908397e-01,0.000000000000000000e+00
9.020000000000000000e+02,-4.177444341841186626e-01,0.000000000000000000e+00
9.030000000000000000e+02,-3.926723813426297727e-01,0.000000000000000000e+00
9.040000000000000000e+02,-4.097149240166655382e-01,0.000000000000000000e+00
9.050000000000000000e+02,-1.259009641704664784e-01,0.000000000000000000e+00
9.060000000000000000e+02,-3.271507694474286576e-01,0.000000000000000000e+00
9.070000000000000000e+02,-1.953344174164889646e-01,0.000000000000000000e+00
9.080000000000000000e+02,-2.844418365250256722e-02,0.000000000000000000e+00
9.090000000000000000e+02,-7.769137574137177649e-02,0.000000000000000000e+00
9.100000000000000000e+02,-2.214626816890932076e-02,0.000000000000000000e+00
9.110000000000000000e+02,2.002375855323057507e-01,0.000000000000000000e+00
9.120000000000000000e+02,6.362418481647120760e-01,0.000000000000000000e+00
9.130000000000000000e+02,6.957250793687089763e-01,0.000000000000000000e+00
9.140000000000000000e+02,3.040637200744643609e-01,0.000000000000000000e+00
9.150000000000000000e+02,1.128831315366876364e-01,0.000000000000000000e+00
9.160000000000000000e+02,-2.548199773125194856e-01,0.000000000000000000e+00
9.170000000000000000e+02,5.134244466473850826e-02,0.000000000000000000e+00
9.180000000000000000e+02,-9.057199146548679247e-02,0.000000000000000000e+00
9.190000000000000000e+02,9.005221470988154786e-02,0.000000000000000000e+00
9.200000000000000000e+02,-3.613533928873045586e-01,0.000000000000000000e+00
9.210000000000000000e+02,3.149279433035000242e+00,0.000000000000000000e+00
9.220000000000000000e+02,3.009279835868728714e+00,0.000000000000000000e+00
9.230000000000000000e+02,-2.680074699753389300e+00,1.000000000000000000e+00
9.240000000000000000e+02,-1.604477684705014839e+00,0.000000000000000000e+00
9.250000000000000000e+02,-3.364588199455139650e-01,0.000000000000000000e+00
9.260000000000000000e+02,3.993113362522308640e-01,0.000000000000000000e+00
9.270000000000000000e+02,3.097067342526589329e-01,0.000000000000000000e+00
9.280000000000000000e+02,5.595573823604571562e-01,0.000000000000000000e+00
9.290000000000000000e+02,3.878517988512421022e-01,0.000000000000000000e+00
9.300000000000000000e+02,7.531240542986644693e-01,0.000000000000000000e+00
9.310000000000000000e+02,5.963770686553840905e-01,0.000000000000000000e+00
9.320000000000000000e+02,9.715251674909246571e-01,0.000000000000000000e+00
9.330000000000000000e+02,1.189964587692096343e+00,0.000000000000000000e+00
9.340000000000000000e+02,1.428347984924292824e+00,0.000000000000000000e+00
9.350000000000000000e+02,1.508914419948055086e+00,0.000000000000000000e+00
9.360000000000000000e+02,1.298082799632204187e+00,0.000000000000000000e+00
9.370000000000000000e+02,9.475968863854959956e-01,0.000000000000000000e+00
9.380000000000000000e+02,1.087303581699416155e-01,0.000000000000000000e+00
9.390000000000000000e+02,-7.942624995331361015e-01,0.000000000000000000e+00
9.400000000000000000e+02,-9.792426971773514621e-01,0.000000000000000000e+00
9.410000000000000000e+02,-1.203087804092534130e+00,0.000000000000000000e+00
9.420000000000000000e+02,-1.205914078209632034e+00,0.000000000000000000e+00
9.430000000000000000e+02,-1.015217590968172656e+00,0.000000000000000000e+00
9.440000000000000000e+02,-1.126725637395406876e+00,0.000000000000000000e+00
9.450000000000000000e+02,-9.691428360709920531e-01,0.000000000000000000e+00
9.460000000000000000e+02,-7.138125652805633603e-01,0.000000000000000000e+00
9.470000000000000000e+02,-7.618803883635323348e-01,0.000000000000000000e+00
9.480000000000000000e+02,-5.087781462721889802e-01,0.000000000000000000e+00
9.490000000000000000e+02,-7.371402312664399048e-01,0.000000000000000000e+00
9.500000000000000000e+02,-5.644754137358140023e-01,0.000000000000000000e+00
9.510000000000000000e+02,-5.757486090538339596e-01,0.000000000000000000e+00
9.520000000000000000e+02,-3.747932649214677503e-01,0.000000000000000000e+00
9.530000000000000000e+02,-2.342731616798668370e-01,0.000000000000000000e+00
9.540000000000000000e+02,-3.091830548473303852e-01,0.000000000000000000e+00
9.550000000000000000e+02,-2.734117077944716034e-01,0.000000000000000000e+00
9.560000000000000000e+02,-1.539911114589442021e-01,0.000000000000000000e+00
9.570000000000000000e+02,-1.704299914514083858e-01,0.000000000000000000e+00
9.580000000000000000e+02,4.562827797221890441e-02,0.000000000000000000e+00
9.590000000000000000e+02,-4.024552811119068430e-02,0.000000000000000000e+00
9.600000000000000000e+02,1.341133043433794247e-01,0.000000000000000000e+00
9.610000000000000000e+02,2.109031263818020030e-01,0.000000000000000000e+00
9.620000000000000000e+02,7.002772863348349919e-01,0.000000000000000000e+00
9.630000000000000000e+02,5.272453881312733071e-01,0.000000000000000000e+00
9.640000000000000000e+02,1.083963136324049420e-01,0.000000000000000000e+00
9.650000000000000000e+02,2.967188561119665433e-02,0.000000000000000000e+00
9.660000000000000000e+02,-1.070966132109205937e-01,0.000000000000000000e+00
9.670000000000000000e+02,-2.190811160885435538e-01,0.000000000000000000e+00
9.680000000000000000e+02,-2.828786266943022695e-02,0.000000000000000000e+00
9.690000000000000000e+02,-5.600727622998622618e-02,0.000000000000000000e+00
9.700000000000000000e+02,5.282805327386400629e-01,0.000000000000000000e+00
9.710000000000000000e+02,4.255795705163356146e+00,0.000000000000000000e+00
9.720000000000000000e+02,-4.715650234108147432e-01,1.000000000000000000e+00
9.730000000000000000e+02,-2.959520908452295540e+00,0.000000000000000000e+00
9.740000000000000000e+02,-1.174584802906798897e+00,0.000000000000000000e+00
9.750000000000000000e+02,2.604147139372353648e-01,0.000000000000000000e+00
9.760000000000000000e+02,4.370552938619658434e-01,0.000000000000000000e+00
9.770000000000000000e+02,4.798295276808002274e-01,0.000000000000000000e+00
9.780000000000000000e+02,7.237618336146031117e-01,0.000000000000000000e+00
9.790000000000000000e+02,7.502593304449662881e-01,0.000000000000000000e+00
9.800000000000000000e+02,8.029498315337985082e-01,0.000000000000000000e+00
9.810000000000000000e+02,8.171260563969805490e-01,0.000000000000000000e+00
9.820000000000000000e+02,1.040770124384056361e+00,0.000000000000000000e+00
9.830000000000000000e+02,1.500104996139753011e+00,0.000000000000000000e+00
9.840000000000000000e+02,1.618602761747919283e+00,0.000000000000000000e+00
9.850000000000000000e+02,1.499353357992730063e+00,0.000000000000000000e+00
9.860000000000000000e+02,1.252357327211724769e+00,0.000000000000000000e+00
9.870000000000000000e+02,5.581734073623244585e-01,0.000000000000000000e+00
9.880000000000000000e+02,-1.258579127076221160e-01,0.000000000000000000e+00
9.890000000000000000e+02,-1.112677588443953258e+00,0.000000000000000000e+00
9.900000000000000000e+02,-1.068104584069315743e+00,0.000000000000000000e+00
9.910000000000000000e+02,-1.244333692344459452e+00,0.000000000000000000e+00
9.920000000000000000e+02,-1.168700476049370884e+00,0.000000000000000000e+00
9.930000000000000000e+02,-9.389935137038382118e-01,0.000000000000000000e+00
9.940000000000000000e+02,-1.067291177828231019e+00,0.000000000000000000e+00
9.950000000000000000e+02,-7.505234561422602368e-01,0.000000000000000000e+00
9.960000000000000000e+02,-8.186624990723850859e-01,0.000000000000000000e+00
9.970000000000000000e+02,-6.379901227335231795e-01,0.000000000000000000e+00
9.980000000000000000e+02,-6.455820456932390705e-01,0.000000000000000000e+00
9.990000000000000000e+02,-5.589112782418080849e-01,0.000000000000000000e+00
1.000000000000000000e+03,-5.544315772824373045e-01,0.000000000000000000e+00
1.001000000000000000e+03,-5.721374876548918076e-01,0.000000000000000000e+00
1.002000000000000000e+03,-3.500922583039867142e-01,0.000000000000000000e+00
1.003000000000000000e+03,-3.883885779891991241e-01,0.000000000000000000e+00
1.004000000000000000e+03,-4.074196683810595299e-01,0.000000000000000000e+00
1.005000000000000000e+03,-1.989156572916839505e-01,0.000000000000000000e+00
1.006000000000000000e+03,-3.029616273162329954e-01,0.000000000000000000e+00
1.007000000000000000e+03,-4.696646370137691831e-03,0.000000000000000000e+00
1.008000000000000000e+03,-1.196020626670185744e-01,0.000000000000000000e+00
1.009000000000000000e+03,1.777537501935865516e-01,0.000000000000000000e+00
1.010000000000000000e+03,4.400146170730854234e-01,0.000000000000000000e+00
1.011000000000000000e+03,5.932472008210477599e-01,0.000000000000000000e+00
1.012000000000000000e+03,4.688183068357132388e-01,0.000000000000000000e+00
1.013000000000000000e+03,3.114911540194960013e-02,0.000000000000000000e+00
1.014000000000000000e+03,-1.999730948424550403e-01,0.000000000000000000e+00
1.015000000000000000e+03,-2.174640692473281123e-01,0.000000000000000000e+00
1.016000000000000000e+03,-3.177782952885981338e-01,0.000000000000000000e+00
1.017000000000000000e+03,1.632502049554402090e-01,0.000000000000000000e+00
1.018000000000000000e+03,-2.363822746297059296e-01,0.000000000000000000e+00
1.019000000000000000e+03,3.507072467631143553e+00,0.000000000000000000e+00
1.020000000000000000e+03,1.191540509032079198e+00,0.000000000000000000e+00
1.021000000000000000e+03,-3.081286647169170223e+00,0.000000000000000000e+00
1.022000000000000000e+03,-1.572209876221878133e+00,1.000000000000000000e+00
1.023000000000000000e+03,-3.730990687334707068e-01,0.000000000000000000e+00
1.024000000000000000e+03,5.252215597951096493e-01,0.000000000000000000e+00
1.025000000000000000e+03,4.772991953192013415e-01,0.000000000000000000e+00
1.026000000000000000e+03,6.818612644504975506e-01,0.000000000000000000e+00
1.027000000000000000e+03,5.794958502676955669e-01,0.000000000000000000e+00
1.028000000000000000e+03,8.353095050321902582e-01,0.000000000000000000e+00
1.029000000000000000e+03,8.316409068878126698e-01,0.000000000000000000e+00
1.030000000000000000e+03,1.107521758816107704e+00,0.000000000000000000e+00
1.031000000000000000e+03,1.287358106230563681e+00,0.000000000000000000e+00
1.032000000000000000e+03,1.674871526723802129e+00,0.000000000000000000e+00
1.033000000000000000e+03,1.564511752596879468e+00,0.000000000000000000e+00
1.034000000000000000e+03,1.504489165920898097e+00,0.000000000000000000e+00
1.035000000000000000e+03,6.985737668070183259e-01,0.000000000000000000e+00
1.036000000000000000e+03,-3.758615193087189166e-02,0.000000000000000000e+00
1.037000000000000000e+03,-8.376128513686166288e-01,0.000000000000000000e+00
1.038000000000000000e+03,-1.039696350794051316e+00,0.000000000000000000e+00
1.039000000000000000e+03,-9.801400005531953896e-01,0.000000000000000000e+00
1.040000000000000000e+03,-1.116197115735591439e+00,0.000000000000000000e+00
1.041000000000000000e+03,-1.030121486504622430e+00,0.000000000000000000e+00
1.042000000000000000e+03,-8.419956992371242510e-01,0.000000000000000000e+00
1.043000000000000000e+03,-8.305759117891646781e-01,0.000000000000000000e+00
1.044000000000000000e+03,-7.160739651080743062e-01,0.000000000000000000e+00
1.045000000000000000e+03,-6.088217386316210344e-01,0.000000000000000000e+00
1.046000000000000000e+03,-5.198988144123188881e-01,0.000000000000000000e+00
1.047000000000000000e+03,-4.850236315288697919e-01,0.000000000000000000e+00
1.048000000000000000e+03,-4.455635044195335182e-01,0.000000000000000000e+00
1.049000000000000000e+03,-4.398084094250022114e-01,0.000000000000000000e+00
1.050000000000000000e+03,-4.475425530856984024e-01,0.000000000000000000e+00
1.051000000000000000e+03,-2.077493773707554392e-01,0.000000000000000000e+00
1.052000000000000000e+03,-3.466552418945479386e-01,0.000000000000000000e+00
1.053000000000000000e+03,-6.923779091186595125e-02,0.000000000000000000e+00
1.054000000000000000e+03,-3.023747569778719169e-01,0.000000000000000000e+00
1.055000000000000000e+03,-1.017007418843721561e-01,0.000000000000000000e+00
1.056000000000000000e+03,-1.688609755452581962e-01,0.000000000000000000e+00
1.057000000000000000e+03,2.073867092812898827e-01,0.000000000000000000e+00
1.058000000000000000e+03,3.535725922673315091e-01,0.000000000000000000e+00
1.059000000000000000e+03,5.359916164675807559e-01,0.000000000000000000e+00
1.060000000000000000e+03,1.585434405654704837e-01,0.000000000000000000e+00
1.061000000000000000e+03,9.682455523428361299e-02,0.000000000000000000e+00
1.062000000000000000e+03,-3.201357267384475902e-01,0.000000000000000000e+00
1.063000000000000000e+03,-6.833517167860464481e-02,0.000000000000000000e+00
1.064000000000000000e+03,-1.568372225549791166e-02,0.000000000000000000e+00
1.065000000000000000e+03,1.550233057493289679e-04,0.000000000000000000e+00
1.066000000000000000e+03,-1.741940792866334409e-01,0.000000000000000000e+00
1.067000000000000000e+03,3.369964186807801187e+00,0.000000000000000000e+00
1.068000000000000000e+03,9.985506033490086919e-01,0.000000000000000000e+00
1.069000000000000000e+03,-2.813183171573008678e+00,0.000000000000000000e+00
1.070000000000000000e+03,-1.458550196258235232e+00,1.000000000000000000e+00
1.071000000000000000e+03,-1.765090224614471459e-01,0.000000000000000000e+00
1.072000000000000000e+03,3.455850281722986361e-01,0.000000000000000000e+00
1.073000000000000000e+03,4.040120186387862744e-01,0.000000000000000000e+00
1.074000000000000000e+03,6.150888488075940685e-01,0.000000000000000000e+00
1.075000000000000000e+03,3.519989426814486011e-01,0.000000000000000000e+00
1.076000000000000000e+03,7.757309430872145750e-01,0.000000000000000000e+00
1.077000000000000000e+03,6.859743556645970797e-01,0.000000000000000000e+00
1.078000000000000000e+03,1.110045586101531923e+00,0.000000000000000000e+00
1.079000000000000000e+03,1.091219539937974936e+00,0.000000000000000000e+00
1.080000000000000000e+03,1.468562251694483178e+00,0.000000000000000000e+00
1.081000000000000000e+03,1.383503097692412309e+00,0.000000000000000000e+00
1.082000000000000000e+03,1.249081682766999490e+00,0.000000000000000000e+00
1.083000000000000000e+03,7.572065316589388084e-01,0.000000000000000000e+00
1.084000000000000000e+03,-2.415099838416142064e-01,0.000000000000000000e+00
1.085000000000000000e+03,-6.686051990054278082e-01,0.000000000000000000e+00
1.086000000000000000e+03,-9.952256685459962560e-01,0.000000000000000000e+00
1.087000000000000000e+03,-1.140315870468212145e+00,0.000000000000000000e+00
1.088000000000000000e+03,-1.043530977909358448e+00,0.000000000000000000e+00
1.089000000000000000e+03,-9.515275137336076661e-01,0.000000000000000000e+00
1.090000000000000000e+03,-8.470152993598033531e-01,0.000000000000000000e+00
1.091000000000000000e+03,-6.769707386105067171e-01,0.000000000000000000e+00
1.092000000000000000e+03,-5.970371363266349096e-01,0.000000000000000000e+00
1.093000000000000000e+03,-5.048393335829700623e-01,0.000000000000000000e+00
1.094000000000000000e+03,-3.787903360093603511e-01,0.000000000000000000e+00
1.095000000000000000e+03,-5.416583874471286864e-01,0.000000000000000000e+00
1.096000000000000000e+03,-2.340742538773341319e-01,0.000000000000000000e+00
1.097000000000000000e+03,-3.989232621249929611e-01,0.000000000000000000e+00
1.098000000000000000e+03,-2.720702875103020446e-01,0.000000000000000000e+00
1.099000000000000000e+03,-4.434594922748807400e-01,0.000000000000000000e+00
1.100000000000000000e+03,-1.890299389919696260e-01,0.000000000000000000e+00
1.101000000000000000e+03,-2.206216448423235776e-01,0.000000000000000000e+00
1.102000000000000000e+03,-1.921073446357345893e-01,0.000000000000000000e+00
1.103000000000000000e+03,3.633269554018970626e-03,0.000000000000000000e+00
1.104000000000000000e+03,-1.726692419833916192e-01,0.000000000000000000e+00
1.105000000000000000e+03,1.726553887681466226e-01,0.000000000000000000e+00
1.106000000000000000e+03,3.629504836410103463e-01,0.000000000000000000e+00
1.107000000000000000e+03,5.887312357452084699e-01,0.000000000000000000e+00
1.108000000000000000e+03,3.864696863453503384e-01,0.000000000000000000e+00
1.109000000000000000e+03,5.437524732133859617e-02,0.000000000000000000e+00
1.110000000000000000e+03,-3.554298518184114686e-01,0.000000000000000000e+00
1.111000000000000000e+03,-5.206911145491174148e-02,0.000000000000000000e+00
1.112000000000000000e+03,-2.770453797904994797e-01,0.000000000000000000e+00
1.113000000000000000e+03,4.386538834002309817e-02,0.000000000000000000e+00
1.114000000000000000e+03,-4.716732802150518378e-01,0.000000000000000000e+00
1.115000000000000000e+03,2.602649332812438931e+00,0.000000000000000000e+00
1.116000000000000000e+03,2.819034134067306407e+00,0.000000000000000000e+00
1.117000000000000000e+03,-2.644651793449370736e+00,1.000000000000000000e+00
1.118000000000000000e+03,-1.653682919242994487e+00,0.000000000000000000e+00
1.119000000000000000e+03,-4.530048881446325226e-01,0.000000000000000000e+00
1.120000000000000000e+03,3.818591604156250097e-01,0.000000000000000000e+00
1.121000000000000000e+03,3.283710743161763479e-01,0.000000000000000000e+00
1.122000000000000000e+03,4.644864626423790277e-01,0.000000000000000000e+00
1.123000000000000000e+03,4.011089872908188414e-01,0.000000000000000000e+00
1.124000000000000000e+03,6.992655259843963966e-01,0.000000000000000000e+00
1.125000000000000000e+03,6.761519718857559313e-01,0.000000000000000000e+00
1.126000000000000000e+03,8.110468216335423586e-01,0.000000000000000000e+00
1.127000000000000000e+03,1.007024092515843128e+00,0.000000000000000000e+00
1.128000000000000000e+03,1.345504165944319874e+00,0.000000000000000000e+00
1.129000000000000000e+03,1.417546412337701955e+00,0.000000000000000000e+00
1.130000000000000000e+03,1.134527915718071212e+00,0.000000000000000000e+00
1.131000000000000000e+03,9.379345663379804465e-01,0.000000000000000000e+00
1.132000000000000000e+03,1.267608323679433324e-01,0.000000000000000000e+00
1.133000000000000000e+03,-6.394322910847654029e-01,0.000000000000000000e+00
1.134000000000000000e+03,-9.518040434053641752e-01,0.000000000000000000e+00
1.135000000000000000e+03,-1.134767084717549945e+00,0.000000000000000000e+00
1.136000000000000000e+03,-1.112560332745386127e+00,0.000000000000000000e+00
1.137000000000000000e+03,-1.041914515534868135e+00,0.000000000000000000e+00
1.138000000000000000e+03,-8.044976557798703132e-01,0.000000000000000000e+00
1.139000000000000000e+03,-8.117386467874198042e-01,0.000000000000000000e+00
1.140000000000000000e+03,-7.539371526650908706e-01,0.000000000000000000e+00
1.141000000000000000e+03,-6.409849338190931611e-01,0.000000000000000000e+00
1.142000000000000000e+03,-5.169752491730771338e-01,0.000000000000000000e+00
1.143000000000000000e+03,-6.221956142800810774e-01,0.000000000000000000e+00
1.144000000000000000e+03,-5.012328859857992924e-01,0.000000000000000000e+00
1.145000000000000000e+03,-4.742081584177132991e-01,0.000000000000000000e+00
1.146000000000000000e+03,-3.401456875112449096e-01,0.000000000000000000e+00
1.147000000000000000e+03,-2.720129847936787471e-01,0.000000000000000000e+00
1.148000000000000000e+03,-2.877218229150534379e-01,0.000000000000000000e+00
1.149000000000000000e+03,-2.857580469007862112e-01,0.000000000000000000e+00
1.150000000000000000e+03,-4.689144359267331114e-02,0.000000000000000000e+00
1.151000000000000000e+03,-2.306929059267126270e-01,0.000000000000000000e+00
1.152000000000000000e+03,-7.946265592196846347e-03,0.000000000000000000e+00
1.153000000000000000e+03,5.493694489325410407e-02,0.000000000000000000e+00
1.154000000000000000e+03,1.510963196060913227e-01,0.000000000000000000e+00
1.155000000000000000e+03,4.808452525213970929e-01,0.000000000000000000e+00
1.156000000000000000e+03,5.833647682770370935e-01,0.000000000000000000e+00
1.157000000000000000e+03,2.769127953461765212e-01,0.000000000000000000e+00
1.158000000000000000e+03,2.298608423873723938e-01,0.000000000000000000e+00
1.159000000000000000e+03,-4.224795495983188487e-01,0.000000000000000000e+00
1.160000000000000000e+03,6.996973440480921957e-02,0.000000000000000000e+00
1.161000000000000000e+03,-3.668837811672407412e-01,0.000000000000000000e+00
1.162000000000000000e+03,5.254473665914995151e-02,0.000000000000000000e+00
1.163000000000000000e+03,-3.497570427035269769e-01,0.000000000000000000e+00
1.164000000000000000e+03,3.644870251136633765e+00,0.000000000000000000e+00
1.165000000000000000e+03,1.856475752596565165e+00,1.000000000000000000e+00
1.166000000000000000e+03,-2.945137724237115506e+00,0.000000000000000000e+00
1.167000000000000000e+03,-1.148558520102928249e+00,0.000000000000000000e+00
1.168000000000000000e+03,-3.005260248620663099e-01,0.000000000000000000e+00
1.169000000000000000e+03,3.970076938197709127e-01,0.000000000000000000e+00
1.170000000000000000e+03,2.404407098249889962e-01,0.000000000000000000e+00
1.171000000000000000e+03,5.091952933552944538e-01,0.000000000000000000e+00
1.172000000000000000e+03,3.642213593559661122e-01,0.000000000000000000e+00
1.173000000000000000e+03,6.388249400737986416e-01,0.000000000000000000e+00
1.174000000000000000e+03,6.064783972434243386e-01,0.000000000000000000e+00
1.175000000000000000e+03,8.946294261542422355e-01,0.000000000000000000e+00
1.176000000000000000e+03,1.110369744841310569e+00,0.000000000000000000e+00
1.177000000000000000e+03,1.331922455964014818e+00,0.000000000000000000e+00
1.178000000000000000e+03,1.555531814429308879e+00,0.000000000000000000e+00
1.179000000000000000e+03,1.252273112355716478e+00,0.000000000000000000e+00
1.180000000000000000e+03,6.788712694128054004e-01,0.000000000000000000e+00
1.181000000000000000e+03,-3.615876177768687777e-02,0.000000000000000000e+00
1.182000000000000000e+03,-7.417601656372554420e-01,0.000000000000000000e+00
1.183000000000000000e+03,-1.175395398509342160e+00,0.000000000000000000e+00
1.184000000000000000e+03,-9.954736128950881779e-01,0.000000000000000000e+00
1.185000000000000000e+03,-9.997451593907238365e-01,0.000000000000000000e+00
1.186000000000000000e+03,-1.015262467619511888e+00,0.000000000000000000e+00
1.187000000000000000e+03,-8.780451176854441320e-01,0.000000000000000000e+00
1.188000000000000000e+03,-8.026891907451790820e-01,0.000000000000000000e+00
1.189000000000000000e+03,-6.669279481494151396e-01,0.000000000000000000e+00
1.190000000000000000e+03,-5.881769874944408061e-01,0.000000000000000000e+00
1.191000000000000000e+03,-5.669090481594430964e-01,0.000000000000000000e+00
1.192000000000000000e+03,-4.769605970657763150e-01,0.000000000000000000e+00
1.193000000000000000e+03,-4.462617975575904339e-01,0.000000000000000000e+00
1.194000000000000000e+03,-3.098301656240161073e-01,0.000000000000000000e+00
1.195000000000000000e+03,-3.006958760894189453e-01,0.000000000000000000e+00
1.196000000000000000e+03,-3.948005931146464920e-01,0.000000000000000000e+00
1.197000000000000000e+03,-1.203835103629528752e-01,0.000000000000000000e+00
1.198000000000000000e+03,-3.292860749685590505e-01,0.000000000000000000e+00
1.199000000000000000e+03,-1.152908783315911151e-01,0.000000000000000000e+00
1.200000000000000000e+03,-7.281864577946785266e-02,0.000000000000000000e+00
1.201000000000000000e+03,-8.242379669870330411e-03,0.000000000000000000e+00
1.202000000000000000e+03,1.953942604173637687e-01,0.000000000000000000e+00
1.203000000000000000e+03,3.863504479437163686e-01,0.000000000000000000e+00
1.204000000000000000e+03,6.503919074579450621e-01,0.000000000000000000e+00
1.205000000000000000e+03,2.918315834189288971e-01,0.000000000000000000e+00
1.206000000000000000e+03,2.671652729289512584e-01,0.000000000000000000e+00
1.207000000000000000e+03,-2.408863018790663724e-01,0.000000000000000000e+00
1.208000000000000000e+03,-2.108976209030059001e-01,0.000000000000000000e+00
1.209000000000000000e+03,-3.503252781168011976e-01,0.000000000000000000e+00
1.210000000000000000e+03,1.196545730538715741e-01,0.000000000000000000e+00
1.211000000000000000e+03,-3.904655239232545094e-01,0.000000000000000000e+00
1.212000000000000000e+03,1.836169157264630591e+00,0.000000000000000000e+00
1.213000000000000000e+03,3.763879629924680170e+00,0.000000000000000000e+00
1.214000000000000000e+03,-1.859189484928803315e+00,1.000000000000000000e+00
1.215000000000000000e+03,-1.996062814674890440e+00,0.000000000000000000e+00
1.216000000000000000e+03,-3.339600408063316817e-01,0.000000000000000000e+00
1.217000000000000000e+03,4.651815941661838899e-02,0.000000000000000000e+00
1.218000000000000000e+03,3.529065937558652222e-02,0.000000000000000000e+00
1.219000000000000000e+03,4.079810782130917635e-01,0.000000000000000000e+00
1.220000000000000000e+03,3.830419814590136363e-01,0.000000000000000000e+00
1.221000000000000000e+03,4.540365191560400970e-01,0.000000000000000000e+00
1.222000000000000000e+03,5.853918166731526540e-01,0.000000000000000000e+00
1.223000000000000000e+03,5.846791125217212226e-01,0.000000000000000000e+00
1.224000000000000000e+03,9.637523252986980316e-01,0.000000000000000000e+00
1.225000000000000000e+03,1.318942503096910412e+00,0.000000000000000000e+00
1.226000000000000000e+03,1.422388489628031216e+00,0.000000000000000000e+00
1.227000000000000000e+03,1.391626815493494096e+00,0.000000000000000000e+00
1.228000000000000000e+03,8.942388383805874863e-01,0.000000000000000000e+00
1.229000000000000000e+03,8.313100473349147035e-02,0.000000000000000000e+00
1.230000000000000000e+03,-6.596147258501736665e-01,0.000000000000000000e+00
1.231000000000000000e+03,-1.042540138212324052e+00,0.000000000000000000e+00
1.232000000000000000e+03,-1.125027729682302580e+00,0.000000000000000000e+00
1.233000000000000000e+03,-1.101679604672929358e+00,0.000000000000000000e+00
1.234000000000000000e+03,-1.008808187493521302e+00,0.000000000000000000e+00
1.235000000000000000e+03,-1.142905098356758131e+00,0.000000000000000000e+00
1.236000000000000000e+03,-7.911026870560701196e-01,0.000000000000000000e+00
1.237000000000000000e+03,-5.883646720309669842e-01,0.000000000000000000e+00
1.238000000000000000e+03,-7.267885995313075886e-01,0.000000000000000000e+00
1.239000000000000000e+03,-5.623359401817357162e-01,0.000000000000000000e+00
1.240000000000000000e+03,-5.276499150603278787e-01,0.000000000000000000e+00
1.241000000000000000e+03,-3.397720440774052442e-01,0.000000000000000000e+00
1.242000000000000000e+03,-4.545779777395881904e-01,0.000000000000000000e+00
1.243000000000000000e+03,-1.762286183819505025e-01,0.000000000000000000e+00
1.244000000000000000e+03,-4.363989529521244970e-01,0.000000000000000000e+00
1.245000000000000000e+03,-1.944521757713117416e-01,0.000000000000000000e+00
1.246000000000000000e+03,-1.188832733057214597e-01,0.000000000000000000e+00
1.247000000000000000e+03,-2.828336697017826973e-01,0.000000000000000000e+00
1.248000000000000000e+03,-7.470742629296280024e-02,0.000000000000000000e+00
1.249000000000000000e+03,-4.292217315320284027e-02,0.000000000000000000e+00
1.250000000000000000e+03,4.736713965820513184e-02,0.000000000000000000e+00
1.251000000000000000e+03,5.581582793273094367e-01,0.000000000000000000e+00
1.252000000000000000e+03,5.645250895961353432e-01,0.000000000000000000e+00
1.253000000000000000e+03,5.511517154499426807e-01,0.000000000000000000e+00
1.254000000000000000e+03,2.318008854051830936e-01,0.000000000000000000e+00
1.255000000000000000e+03,2.644596373128967753e-03,0.000000000000000000e+00
1.256000000000000000e+03,-2.524706548540637807e-01,0.000000000000000000e+00
1.257000000000000000e+03,-5.236482668942969362e-03,0.000000000000000000e+00
1.258000000000000000e+03,-2.043634558316341776e-01,0.000000000000000000e+00
1.259000000000000000e+03,1.165796058425715015e-01,0.000000000000000000e+00
1.260000000000000000e+03,4.065228873452546125e-03,0.000000000000000000e+00
1.261000000000000000e+03,4.174299400635459456e+00,0.000000000000000000e+00
1.262000000000000000e+03,8.459323164236353110e-01,1.000000000000000000e+00
1.263000000000000000e+03,-2.817080461689492665e+00,0.000000000000000000e+00
1.264000000000000000e+03,-9.229783661030170894e-01,0.000000000000000000e+00
1.265000000000000000e+03,-1.723886812495162568e-01,0.000000000000000000e+00
1.266000000000000000e+03,3.230491831985735085e-01,0.000000000000000000e+00
1.267000000000000000e+03,2.161165123731395021e-01,0.000000000000000000e+00
1.268000000000000000e+03,2.705398545238228980e-01,0.000000000000000000e+00
1.269000000000000000e+03,4.532438480728661623e-01,0.000000000000000000e+00
1.270000000000000000e+03,6.405854945667530664e-01,0.000000000000000000e+00
1.271000000000000000e+03,4.967833312485052666e-01,0.000000000000000000e+00
1.272000000000000000e+03,9.323615872131392202e-01,0.000000000000000000e+00
1.273000000000000000e+03,1.091076478863164612e+00,0.000000000000000000e+00
1.274000000000000000e+03,1.515144435006680945e+00,0.000000000000000000e+00
1.275000000000000000e+03,1.474936641651040325e+00,0.000000000000000000e+00
1.276000000000000000e+03,9.849925669746117940e-01,0.000000000000000000e+00
1.277000000000000000e+03,6.613324609668523868e-01,0.000000000000000000e+00
1.278000000000000000e+03,-3.351232586369650157e-01,0.000000000000000000e+00
1.279000000000000000e+03,-7.170344449389821628e-01,0.000000000000000000e+00
1.280000000000000000e+03,-1.198028993637490380e+00,0.000000000000000000e+00
1.281000000000000000e+03,-1.084302033981215940e+00,0.000000000000000000e+00
1.282000000000000000e+03,-1.019116588071579788e+00,0.000000000000000000e+00
1.283000000000000000e+03,-1.021021900371212876e+00,0.000000000000000000e+00
1.284000000000000000e+03,-9.160007752858764229e-01,0.000000000000000000e+00
1.285000000000000000e+03,-8.174535215821097101e-01,0.000000000000000000e+00
1.286000000000000000e+03,-6.719838953022524430e-01,0.000000000000000000e+00
1.287000000000000000e+03,-4.587479992360276038e-01,0.000000000000000000e+00
1.288000000000000000e+03,-5.627297912782995848e-01,0.000000000000000000e+00
1.289000000000000000e+03,-3.296293367454374290e-01,0.000000000000000000e+00
1.290000000000000000e+03,-4.642160976330032551e-01,0.000000000000000000e+00
1.291000000000000000e+03,-3.836369552308018793e-01,0.000000000000000000e+00
1.292000000000000000e+03,-3.465908320308714319e-01,0.000000000000000000e+00
1.293000000000000000e+03,-2.214498982402906546e-01,0.000000000000000000e+00
1.294000000000000000e+03,-1.956317492650847811e-01,0.000000000000000000e+00
1.295000000000000000e+03,-3.307525052292968892e-01,0.000000000000000000e+00
1.296000000000000000e+03,-9.106271667300806782e-02,0.000000000000000000e+00
1.297000000000000000e+03,1.412071269050597933e-02,0.000000000000000000e+00
1.298000000000000000e+03,-6.344498273383188114e-03,0.000000000000000000e+00
1.299000000000000000e+03,5.103520482021384197e-02,0.000000000000000000e+00
1.300000000000000000e+03,2.790081020413938684e-01,0.000000000000000000e+00
1.301000000000000000e+03,6.960164073707858501e-01,0.000000000000000000e+00
1.302000000000000000e+03,7.031149619170623533e-01,0.000000000000000000e+00
1.303000000000000000e+03,2.198886727558480580e-01,0.000000000000000000e+00
1.304000000000000000e+03,-5.400877094410124792e-03,0.000000000000000000e+00
1.305000000000000000e+03,-3.199900504432526827e-01,0.000000000000000000e+00
1.306000000000000000e+03,-1.090899039503171047e-01,0.000000000000000000e+00
1.307000000000000000e+03,-3.102526476006944867e-01,0.000000000000000000e+00
1.308000000000000000e+03,2.530018143225715166e-01,0.000000000000000000e+00
1.309000000000000000e+03,-1.060603819872152354e-01,0.000000000000000000e+00
1.310000000000000000e+03,3.961677358916400937e+00,0.000000000000000000e+00
1.311000000000000000e+03,1.013475382472759145e+00,1.000000000000000000e+00
1.312000000000000000e+03,-2.932714617656462686e+00,0.000000000000000000e+00
1.313000000000000000e+03,-9.533093949304294323e-01,0.000000000000000000e+00
1.314000000000000000e+03,-1.492847345961663130e-01,0.000000000000000000e+00
1.315000000000000000e+03,2.462337961237397455e-01,0.000000000000000000e+00
1.316000000000000000e+03,2.594993870590762142e-01,0.000000000000000000e+00
1.317000000000000000e+03,4.373699053468521614e-01,0.000000000000000000e+00
1.318000000000000000e+03,5.006427016358746540e-01,0.000000000000000000e+00
1.319000000000000000e+03,6.703101321341000673e-01,0.000000000000000000e+00
1.320000000000000000e+03,6.082748501376109562e-01,0.000000000000000000e+00
1.321000000000000000e+03,8.765330292238645571e-01,0.000000000000000000e+00
1.322000000000000000e+03,1.128469099911164397e+00,0.000000000000000000e+00
1.323000000000000000e+03,1.376742989938305683e+00,0.000000000000000000e+00
1.324000000000000000e+03,1.616162879904323724e+00,0.000000000000000000e+00
1.325000000000000000e+03,9.708979400652395508e-01,0.000000000000000000e+00
1.326000000000000000e+03,5.563826038612514902e-01,0.000000000000000000e+00
1.327000000000000000e+03,-1.069605542500408485e-01,0.000000000000000000e+00
1.328000000000000000e+03,-8.641673659274883290e-01,0.000000000000000000e+00
1.329000000000000000e+03,-1.103553296058909838e+00,0.000000000000000000e+00
1.330000000000000000e+03,-1.139840889272125457e+00,0.000000000000000000e+00
1.331000000000000000e+03,-1.124874640005258275e+00,0.000000000000000000e+00
1.332000000000000000e+03,-9.129145077446261247e-01,0.000000000000000000e+00
1.333000000000000000e+03,-1.020130383234560068e+00,0.000000000000000000e+00
1.334000000000000000e+03,-7.140496621020789858e-01,0.000000000000000000e+00
1.335000000000000000e+03,-6.903318526484746309e-01,0.000000000000000000e+00
1.336000000000000000e+03,-6.345884781662876062e-01,0.000000000000000000e+00
1.337000000000000000e+03,-3.954872871529649392e-01,0.000000000000000000e+00
1.338000000000000000e+03,-5.469148665992150660e-01,0.000000000000000000e+00
1.339000000000000000e+03,-4.520389990639738786e-01,0.000000000000000000e+00
1.340000000000000000e+03,-4.285973847272095960e-01,0.000000000000000000e+00
1.341000000000000000e+03,-2.205064279915798509e-01,0.000000000000000000e+00
1.342000000000000000e+03,-3.669865174091132554e-01,0.000000000000000000e+00
1.343000000000000000e+03,-3.619380529423542603e-01,0.000000000000000000e+00
1.344000000000000000e+03,-5.093006798235322208e-02,0.000000000000000000e+00
1.345000000000000000e+03,-1.951718818404780398e-01,0.000000000000000000e+00
1.346000000000000000e+03,-1.938813663796588316e-01,0.000000000000000000e+00
1.347000000000000000e+03,-8.536110754473497098e-02,0.000000000000000000e+00
1.348000000000000000e+03,3.702605858871189926e-02,0.000000000000000000e+00
1.349000000000000000e+03,3.746641684203951828e-01,0.000000000000000000e+00
1.350000000000000000e+03,5.843074639383381008e-01,0.000000000000000000e+00
1.351000000000000000e+03,3.848221112742684080e-01,0.000000000000000000e+00
1.352000000000000000e+03,2.002954022608362805e-01,0.000000000000000000e+00
1.353000000000000000e+03,-9.633062443396885055e-02,0.000000000000000000e+00
1.354000000000000000e+03,-2.801931036172011225e-01,0.000000000000000000e+00
1.355000000000000000e+03,-2.711988097230995098e-01,0.000000000000000000e+00
1.356000000000000000e+03,-1.339958706781075315e-01,0.000000000000000000e+00
1.357000000000000000e+03,-3.182367525996582930e-02,0.000000000000000000e+00
1.358000000000000000e+03,4.071647323601385038e-01,0.000000000000000000e+00
1.359000000000000000e+03,4.164004237619662874e+00,0.000000000000000000e+00
1.360000000000000000e+03,1.435437946487926053e-01,1.000000000000000000e+00
1.361000000000000000e+03,-2.908044650490985372e+00,0.000000000000000000e+00
1.362000000000000000e+03,-8.744805997424743849e-01,0.000000000000000000e+00
1.363000000000000000e+03,-2.501361194805244367e-02,0.000000000000000000e+00
1.364000000000000000e+03,2.908454442262825013e-01,0.000000000000000000e+00
1.365000000000000000e+03,2.244814138825777516e-01,0.000000000000000000e+00
1.366000000000000000e+03,5.157764123521635380e-01,0.000000000000000000e+00
1.367000000000000000e+03,4.822532589707138606e-01,0.000000000000000000e+00
1.368000000000000000e+03,7.115777346284849481e-01,0.000000000000000000e+00
1.369000000000000000e+03,6.317770733492226176e-01,0.000000000000000000e+00
1.370000000000000000e+03,9.288015261940232303e-01,0.000000000000000000e+00
1.371000000000000000e+03,1.230052824333045303e+00,0.000000000000000000e+00
1.372000000000000000e+03,1.516359049113904955e+00,0.000000000000000000e+00
1.373000000000000000e+03,1.348466586427023106e+00,0.000000000000000000e+00
1.374000000000000000e+03,1.097846294903102038e+00,0.000000000000000000e+00
1.375000000000000000e+03,4.347048745701320160e-01,0.000000000000000000e+00
1.376000000000000000e+03,-1.564440542235018827e-01,0.000000000000000000e+00
1.377000000000000000e+03,-8.814857603221640803e-01,0.000000000000000000e+00
1.378000000000000000e+03,-1.186287197217336997e+00,0.000000000000000000e+00
1.379000000000000000e+03,-1.330298211609669989e+00,0.000000000000000000e+00
1.380000000000000000e+03,-1.160606168391052462e+00,0.000000000000000000e+00
1.381000000000000000e+03,-9.254755093185024206e-01,0.000000000000000000e+00
1.382000000000000000e+03,-8.517280755281376736e-01,0.000000000000000000e+00
1.383000000000000000e+03,-7.131939707127066264e-01,0.000000000000000000e+00
1.384000000000000000e+03,-7.191956161490600241e-01,0.000000000000000000e+00
1.385000000000000000e+03,-5.903854174050405801e-01,0.000000000000000000e+00
1.386000000000000000e+03,-4.825542223423318622e-01,0.000000000000000000e+00
1.387000000000000000e+03,-6.058595845025342985e-01,0.000000000000000000e+00
1.388000000000000000e+03,-4.334355878146156082e-01,0.000000000000000000e+00
1.389000000000000000e+03,-3.908215382394834014e-01,0.000000000000000000e+00
1.390000000000000000e+03,-3.529390814726912073e-01,0.000000000000000000e+00
1.391000000000000000e+03,-2.733808549249876485e-01,0.000000000000000000e+00
1.392000000000000000e+03,-3.240814280688273930e-01,0.000000000000000000e+00
1.393000000000000000e+03,-2.110679552268052983e-01,0.000000000000000000e+00
1.394000000000000000e+03,1.448489023582241741e-02,0.000000000000000000e+00
1.395000000000000000e+03,-2.233001893805933447e-01,0.000000000000000000e+00
1.396000000000000000e+03,1.623672495254444292e-01,0.000000000000000000e+00
1.397000000000000000e+03,-6.462875294749738375e-02,0.000000000000000000e+00
1.398000000000000000e+03,4.535389094358631135e-01,0.000000000000000000e+00
1.399000000000000000e+03,7.615563089536322439e-01,0.000000000000000000e+00
1.400000000000000000e+03,5.265016118016678792e-01,0.000000000000000000e+00
1.401000000000000000e+03,1.066398876901639842e-01,0.000000000000000000e+00
1.402000000000000000e+03,6.107641565077020357e-02,0.000000000000000000e+00
1.403000000000000000e+03,-1.058529104652532471e-01,0.000000000000000000e+00
1.404000000000000000e+03,-1.985804394466005734e-02,0.000000000000000000e+00
1.405000000000000000e+03,-1.978337585261383813e-01,0.000000000000000000e+00
1.406000000000000000e+03,6.703655017463436283e-02,0.000000000000000000e+00
1.407000000000000000e+03,4.436969351102643122e-01,0.000000000000000000e+00
1.408000000000000000e+03,4.125116450226075315e+00,0.000000000000000000e+00
1.409000000000000000e+03,2.804949882139034512e-01,1.000000000000000000e+00
1.410000000000000000e+03,-3.207760092323112211e+00,0.000000000000000000e+00
1.411000000000000000e+03,-9.454960474567731810e-01,0.000000000000000000e+00
1.412000000000000000e+03,1.256748397367947190e-01,0.000000000000000000e+00
1.413000000000000000e+03,5.289214496150562717e-01,0.000000000000000000e+00
1.414000000000000000e+03,4.432126554729833301e-01,0.000000000000000000e+00
1.415000000000000000e+03,4.969812319630282915e-01,0.000000000000000000e+00
1.416000000000000000e+03,6.460981526163646071e-01,0.000000000000000000e+00
1.417000000000000000e+03,8.372582427130850213e-01,0.000000000000000000e+00
1.418000000000000000e+03,8.362738702411012248e-01,0.000000000000000000e+00
1.419000000000000000e+03,1.094967817718135450e+00,0.000000000000000000e+00
1.420000000000000000e+03,1.232628689597794036e+00,0.000000000000000000e+00
1.421000000000000000e+03,1.742601348331475064e+00,0.000000000000000000e+00
1.422000000000000000e+03,1.484811067168291254e+00,0.000000000000000000e+00
1.423000000000000000e+03,1.302205348695048670e+00,0.000000000000000000e+00
1.424000000000000000e+03,6.845707519186846612e-01,0.000000000000000000e+00
1.425000000000000000e+03,-2.718367798420894266e-01,0.000000000000000000e+00
1.426000000000000000e+03,-7.354357785067493491e-01,0.000000000000000000e+00
1.427000000000000000e+03,-1.271109904817783409e+00,0.000000000000000000e+00
1.428000000000000000e+03,-1.224953219826805384e+00,0.000000000000000000e+00
1.429000000000000000e+03,-1.125730678444996968e+00,0.000000000000000000e+00
1.430000000000000000e+03,-1.018967615011503902e+00,0.000000000000000000e+00
1.431000000000000000e+03,-9.835530659021344269e-01,0.000000000000000000e+00
1.432000000000000000e+03,-7.180705903760831177e-01,0.000000000000000000e+00
1.433000000000000000e+03,-8.830302621741925595e-01,0.000000000000000000e+00
1.434000000000000000e+03,-6.400240796309146774e-01,0.000000000000000000e+00
1.435000000000000000e+03,-6.402751247559902437e-01,0.000000000000000000e+00
1.436000000000000000e+03,-6.367043959135217923e-01,0.000000000000000000e+00
1.437000000000000000e+03,-6.299460069592325295e-01,0.000000000000000000e+00
1.438000000000000000e+03,-4.745521981235141795e-01,0.000000000000000000e+00
1.439000000000000000e+03,-4.789970891530571095e-01,0.000000000000000000e+00
1.440000000000000000e+03,-2.174055663786921277e-01,0.000000000000000000e+00
1.441000000000000000e+03,-4.747354726032498307e-01,0.000000000000000000e+00
1.442000000000000000e+03,-1.398340939118654369e-01,0.000000000000000000e+00
1.443000000000000000e+03,-1.217480639335204173e-01,0.000000000000000000e+00
1.444000000000000000e+03,-9.760003947308246164e-02,0.000000000000000000e+00
1.445000000000000000e+03,-1.232190302787609416e-02,0.000000000000000000e+00
1.446000000000000000e+03,-2.828465178616983502e-02,0.000000000000000000e+00
1.447000000000000000e+03,5.780149499790878664e-01,0.000000000000000000e+00
1.448000000000000000e+03,4.841250782085068649e-01,0.000000000000000000e+00
1.449000000000000000e+03,1.456999657970810824e-01,0.000000000000000000e+00
1.450000000000000000e+03,1.245589436871472229e-02,0.000000000000000000e+00
1.451000000000000000e+03,-4.035132698815883101e-01,0.000000000000000000e+00
1.452000000000000000e+03,-2.058998189598218731e-01,0.000000000000000000e+00
1.453000000000000000e+03,-2.681889544362789923e-01,0.000000000000000000e+00
1.454000000000000000e+03,1.178240502142603729e-02,0.000000000000000000e+00
1.455000000000000000e+03,-6.470310480990472402e-02,0.000000000000000000e+00
1.456000000000000000e+03,3.839334723724642906e+00,0.000000000000000000e+00
1.457000000000000000e+03,7.251777640471043229e-01,1.000000000000000000e+00
1.458000000000000000e+03,-3.088408087144455916e+00,0.000000000000000000e+00
1.459000000000000000e+03,-1.722950004406608615e+00,0.000000000000000000e+00
1.460000000000000000e+03,-6.794714566140894196e-02,0.000000000000000000e+00
1.461000000000000000e+03,2.991215700682631762e-01,0.000000000000000000e+00
1.462000000000000000e+03,5.578570275056837779e-01,0.000000000000000000e+00
1.463000000000000000e+03,5.300528536326457596e-01,0.000000000000000000e+00
1.464000000000000000e+03,6.450871871583183648e-01,0.000000000000000000e+00
1.465000000000000000e+03,7.294059408233849462e-01,0.000000000000000000e+00
1.466000000000000000e+03,7.621126261463059270e-01,0.000000000000000000e+00
1.467000000000000000e+03,1.003132616968762214e+00,0.000000000000000000e+00
1.468000000000000000e+03,1.275640012513178601e+00,0.000000000000000000e+00
1.469000000000000000e+03,1.598165918810963371e+00,0.000000000000000000e+00
1.470000000000000000e+03,1.622565519542127577e+00,0.000000000000000000e+00
1.471000000000000000e+03,1.351904339808174038e+00,0.000000000000000000e+00
1.472000000000000000e+03,7.470746481674850337e-01,0.000000000000000000e+00
1.473000000000000000e+03,-3.406016697736780063e-02,0.000000000000000000e+00
1.474000000000000000e+03,-6.400990145010171384e-01,0.000000000000000000e+00
1.475000000000000000e+03,-1.143083117729720710e+00,0.000000000000000000e+00
1.476000000000000000e+03,-1.111059201834630361e+00,0.000000000000000000e+00
1.477000000000000000e+03,-1.154844709597004471e+00,0.000000000000000000e+00
1.478000000000000000e+03,-8.630427610676735251e-01,0.000000000000000000e+00
1.479000000000000000e+03,-8.863981139627841177e-01,0.000000000000000000e+00
1.480000000000000000e+03,-7.371030638057710638e-01,0.000000000000000000e+00
1.481000000000000000e+03,-6.379194547519057013e-01,0.000000000000000000e+00
1.482000000000000000e+03,-7.149473125746115265e-01,0.000000000000000000e+00
1.483000000000000000e+03,-4.080325385239655933e-01,0.000000000000000000e+00
1.484000000000000000e+03,-4.435091822914783433e-01,0.000000000000000000e+00
1.485000000000000000e+03,-5.330179025360792799e-01,0.000000000000000000e+00
1.486000000000000000e+03,-4.536230846106865111e-01,0.000000000000000000e+00
1.487000000000000000e+03,-4.131434526627096870e-01,0.000000000000000000e+00
1.488000000000000000e+03,-2.569260744822263187e-01,0.000000000000000000e+00
1.489000000000000000e+03,-3.226138634854678333e-01,0.000000000000000000e+00
1.490000000000000000e+03,-2.042955635493467204e-01,0.000000000000000000e+00
1.491000000000000000e+03,-3.624492382123726264e-01,0.000000000000000000e+00
1.492000000000000000e+03,1.368150277561566708e-01,0.000000000000000000e+00
1.493000000000000000e+03,1.145526450829920662e-01,0.000000000000000000e+00
1.494000000000000000e+03,5.229641249397101177e-01,0.000000000000000000e+00
1.495000000000000000e+03,3.945660604825598217e-01,0.000000000000000000e+00
1.496000000000000000e+03,1.793600159703131747e-01,0.000000000000000000e+00
1.497000000000000000e+03,-1.189153395070210728e-01,0.000000000000000000e+00
1.498000000000000000e+03,-1.600649927848657450e-01,0.000000000000000000e+00
1.499000000000000000e+03,-2.358076868675200444e-01,0.000000000000000000e+00
1.500000000000000000e+03,-1.217269245255017812e-01,0.000000000000000000e+00
1.501000000000000000e+03,-6.659865034773955472e-02,0.000000000000000000e+00
1.502000000000000000e+03,7.012721482632304770e-01,0.000000000000000000e+00
1.503000000000000000e+03,3.870494239700393635e+00,0.000000000000000000e+00
1.504000000000000000e+03,-6.405851108891706946e-01,1.000000000000000000e+00
1.505000000000000000e+03,-2.976506840249926622e+00,0.000000000000000000e+00
1.506000000000000000e+03,-9.788567791902708093e-01,0.000000000000000000e+00
1.507000000000000000e+03,7.072532288456361005e-02,0.000000000000000000e+00
1.508000000000000000e+03,5.370253809386861255e-01,0.000000000000000000e+00
1.509000000000000000e+03,5.135781670745512839e-01,0.000000000000000000e+00
1.510000000000000000e+03,5.567236676898328351e-01,0.000000000000000000e+00
1.511000000000000000e+03,7.685807931378045854e-01,0.000000000000000000e+00
1.512000000000000000e+03,5.767069936495692328e-01,0.000000000000000000e+00
1.513000000000000000e+03,9.664710318392568666e-01,0.000000000000000000e+00
1.514000000000000000e+03,9.600134963137766375e-01,0.000000000000000000e+00
1.515000000000000000e+03,1.318788416948465159e+00,0.000000000000000000e+00
1.516000000000000000e+03,1.627459581238363207e+00,0.000000000000000000e+00
1.517000000000000000e+03,1.415492742438685614e+00,0.000000000000000000e+00
1.518000000000000000e+03,1.302218861075964407e+00,0.000000000000000000e+00
1.519000000000000000e+03,4.772258224241670566e-01,0.000000000000000000e+00
1.520000000000000000e+03,-3.129300589784898556e-01,0.000000000000000000e+00
1.521000000000000000e+03,-7.411203054675445934e-01,0.000000000000000000e+00
1.522000000000000000e+03,-1.146473124084328887e+00,0.000000000000000000e+00
1.523000000000000000e+03,-1.235454556071461152e+00,0.000000000000000000e+00
1.524000000000000000e+03,-1.003876305723663709e+00,0.000000000000000000e+00
1.525000000000000000e+03,-8.618571993791708241e-01,0.000000000000000000e+00
1.526000000000000000e+03,-1.057247320428610582e+00,0.000000000000000000e+00
1.527000000000000000e+03,-7.405488925265389932e-01,0.000000000000000000e+00
1.528000000000000000e+03,-7.943852954569798897e-01,0.000000000000000000e+00
1.529000000000000000e+03,-7.172098981401877626e-01,0.000000000000000000e+00
1.530000000000000000e+03,-4.809107831419419110e-01,0.000000000000000000e+00
1.531000000000000000e+03,-6.141826304271205128e-01,0.000000000000000000e+00
1.532000000000000000e+03,-6.582883595782296204e-01,0.000000000000000000e+00
1.533000000000000000e+03,-4.092220290586084941e-01,0.000000000000000000e+00
1.534000000000000000e+03,-5.055202363560238332e-01,0.000000000000000000e+00
1.535000000000000000e+03,-2.880617663330340972e-01,0.000000000000000000e+00
1.536000000000000000e+03,-1.681750859779710117e-01,0.000000000000000000e+00
1.537000000000000000e+03,-3.988881764832451493e-01,0.000000000000000000e+00
1.538000000000000000e+03,-8.478261160551210651e-02,0.000000000000000000e+00
1.539000000000000000e+03,-6.644752586440702546e-02,0.000000000000000000e+00
1.540000000000000000e+03,2.436964582815658031e-01,0.000000000000000000e+00
1.541000000000000000e+03,3.182321488523212061e-01,0.000000000000000000e+00
1.542000000000000000e+03,7.023516917946405202e-01,0.000000000000000000e+00
1.543000000000000000e+03,1.775528487504991759e-01,0.000000000000000000e+00
1.544000000000000000e+03,8.063040140072098849e-02,0.000000000000000000e+00
1.545000000000000000e+03,-2.194603030299421831e-01,0.000000000000000000e+00
1.546000000000000000e+03,-1.637861906240389298e-01,0.000000000000000000e+00
1.547000000000000000e+03,-3.381329994195652056e-01,0.000000000000000000e+00
1.548000000000000000e+03,2.039128145640830281e-01,0.000000000000000000e+00
1.549000000000000000e+03,-4.223984365543578812e-01,0.000000000000000000e+00
1.550000000000000000e+03,3.363248263412462524e+00,0.000000000000000000e+00
1.551000000000000000e+03,2.042894659132971746e+00,0.000000000000000000e+00
1.552000000000000000e+03,-2.838599645713051345e+00,0.000000000000000000e+00
1.553000000000000000e+03,-1.571237619683426345e+00,1.000000000000000000e+00
1.554000000000000000e+03,-1.016963182371635743e-01,0.000000000000000000e+00
1.555000000000000000e+03,3.880004800665737275e-01,0.000000000000000000e+00
1.556000000000000000e+03,1.897351019929834626e-01,0.000000000000000000e+00
1.557000000000000000e+03,5.453369620984903632e-01,0.000000000000000000e+00
1.558000000000000000e+03,3.018306299634787027e-01,0.000000000000000000e+00
1.559000000000000000e+03,9.196457028617305296e-01,0.000000000000000000e+00
1.560000000000000000e+03,5.710416570125499414e-01,0.000000000000000000e+00
1.561000000000000000e+03,9.748093175435257329e-01,0.000000000000000000e+00
1.562000000000000000e+03,1.170549991691101743e+00,0.000000000000000000e+00
1.563000000000000000e+03,1.441318143976207500e+00,0.000000000000000000e+00
1.564000000000000000e+03,1.334068466743908221e+00,0.000000000000000000e+00
1.565000000000000000e+03,1.478317701671326034e+00,0.000000000000000000e+00
1.566000000000000000e+03,6.145900455896899928e-01,0.000000000000000000e+00
1.567000000000000000e+03,4.086757630724949242e-02,0.000000000000000000e+00
1.568000000000000000e+03,-7.270636478290245508e-01,0.000000000000000000e+00
1.569000000000000000e+03,-8.434018675136226717e-01,0.000000000000000000e+00
1.570000000000000000e+03,-1.142053800098988381e+00,0.000000000000000000e+00
1.571000000000000000e+03,-1.216780135225549841e+00,0.000000000000000000e+00
1.572000000000000000e+03,-1.038697535993018617e+00,0.000000000000000000e+00
1.573000000000000000e+03,-7.782176266478854076e-01,0.000000000000000000e+00
1.574000000000000000e+03,-6.812639338895650765e-01,0.000000000000000000e+00
1.575000000000000000e+03,-4.600508943544027729e-01,0.000000000000000000e+00
1.576000000000000000e+03,-7.178996323448368910e-01,0.000000000000000000e+00
1.577000000000000000e+03,-4.198472688387752672e-01,0.000000000000000000e+00
1.578000000000000000e+03,-5.620130907759693928e-01,0.000000000000000000e+00
1.579000000000000000e+03,-2.453091851493268694e-01,0.000000000000000000e+00
1.580000000000000000e+03,-4.398596141474392374e-01,0.000000000000000000e+00
1.581000000000000000e+03,-5.507041503608145483e-01,0.000000000000000000e+00
1.582000000000000000e+03,-7.228702540029410817e-02,0.000000000000000000e+00
1.583000000000000000e+03,-3.158897228642463251e-01,0.000000000000000000e+00
1.584000000000000000e+03,-2.123907196845374601e-01,0.000000000000000000e+00
1.585000000000000000e+03,-2.829261267208751929e-01,0.000000000000000000e+00
1.586000000000000000e+03,-1.653061689998303885e-01,0.000000000000000000e+00
