timestamp,ecg_measurement,qrs_detected
0.000000000000000000e+00,3.797301407983726951e-01,0.000000000000000000e+00
1.000000000000000000e+00,3.250795293535125863e-01,0.000000000000000000e+00
2.000000000000000000e+00,2.005267245778271246e-03,0.000000000000000000e+00
3.000000000000000000e+00,5.267610194913163041e-02,0.000000000000000000e+00
4.000000000000000000e+00,-2.924813903386423442e-01,0.000000000000000000e+00
5.000000000000000000e+00,-1.669888753702586659e-01,0.000000000000000000e+00
6.000000000000000000e+00,-1.880657492990719104e-01,0.000000000000000000e+00
7.000000000000000000e+00,-7.050367963892507917e-02,0.000000000000000000e+00
8.000000000000000000e+00,2.330400643551685524e-01,0.000000000000000000e+00
9.000000000000000000e+00,3.252487086419409756e+00,0.000000000000000000e+00
1.000000000000000000e+01,7.648368909633140866e-02,1.000000000000000000e+00
1.100000000000000000e+01,-2.727268902427237407e+00,0.000000000000000000e+00
1.200000000000000000e+01,-1.051541787177000975e+00,0.000000000000000000e+00
1.300000000000000000e+01,5.829069796770873502e-02,0.000000000000000000e+00
1.400000000000000000e+01,2.432727768549077518e-01,0.000000000000000000e+00
1.500000000000000000e+01,3.825071080563260395e-01,0.000000000000000000e+00
1.600000000000000000e+01,6.250434787508186707e-01,0.000000000000000000e+00
1.700000000000000000e+01,4.731248331682063601e-01,0.000000000000000000e+00
1.800000000000000000e+01,7.542860053206398296e-01,0.000000000000000000e+00
1.900000000000000000e+01,7.211023866472928701e-01,0.000000000000000000e+00
2.000000000000000000e+01,8.754666097391572421e-01,0.000000000000000000e+00
2.100000000000000000e+01,1.192161894132582445e+00,0.000000000000000000e+00
2.200000000000000000e+01,1.535385887064082411e+00,0.000000000000000000e+00
2.300000000000000000e+01,1.287960910468815445e+00,0.000000000000000000e+00
2.400000000000000000e+01,1.192425457044841597e+00,0.000000000000000000e+00
2.500000000000000000e+01,6.139137768700081432e-01,0.000000000000000000e+00
2.600000000000000000e+01,-2.252596616161418874e-01,0.000000000000000000e+00
2.700000000000000000e+01,-7.606268788716584739e-01,0.000000000000000000e+00
2.800000000000000000e+01,-8.700994266154685741e-01,0.000000000000000000e+00
2.900000000000000000e+01,-9.709968843614995571e-01,0.000000000000000000e+00
3.000000000000000000e+01,-8.809939808776291459e-01,0.000000000000000000e+00
3.100000000000000000e+01,-6.962396322725242781e-01,0.000000000000000000e+00
3.200000000000000000e+01,-7.666420731958901724e-01,0.000000000000000000e+00
3.300000000000000000e+01,-7.193157837635686391e-01,0.000000000000000000e+00
3.400000000000000000e+01,-4.448119957160930338e-01,0.000000000000000000e+00
3.500000000000000000e+01,-4.498112832397743732e-01,0.000000000000000000e+00
3.600000000000000000e+01,-3.864613002484918458e-01,0.000000000000000000e+00
3.700000000000000000e+01,-3.845588628832021239e-01,0.000000000000000000e+00
3.800000000000000000e+01,-3.429233770259056957e-01,0.000000000000000000e+00
3.900000000000000000e+01,-4.188065956094108033e-01,0.000000000000000000e+00
4.000000000000000000e+01,-3.034283623121184631e-02,0.000000000000000000e+00
4.100000000000000000e+01,-3.222925690992104464e-01,0.000000000000000000e+00
4.200000000000000000e+01,-5.245283866390397509e-02,0.000000000000000000e+00
4.300000000000000000e+01,-3.272036601990299109e-01,0.000000000000000000e+00
4.400000000000000000e+01,4.658700773519377017e-03,0.000000000000000000e+00
4.500000000000000000e+01,-1.772951456633233280e-01,0.000000000000000000e+00
4.600000000000000000e+01,2.877730485359858426e-01,0.000000000000000000e+00
4.700000000000000000e+01,3.113452651902526291e-01,0.000000000000000000e+00
4.800000000000000000e+01,5.626638126300768095e-01,0.000000000000000000e+00
4.900000000000000000e+01,1.867271917765788714e-01,0.000000000000000000e+00
5.000000000000000000e+01,1.648074580678205725e-01,0.000000000000000000e+00
5.100000000000000000e+01,-2.083980784747656856e-01,0.000000000000000000e+00
5.200000000000000000e+01,-7.241177668045956084e-02,0.000000000000000000e+00
5.300000000000000000e+01,-2.453594552353588198e-01,0.000000000000000000e+00
5.400000000000000000e+01,2.537773419493390969e-01,0.000000000000000000e+00
5.500000000000000000e+01,-3.560274314277990793e-01,0.000000000000000000e+00
5.600000000000000000e+01,2.967430908952630730e+00,0.000000000000000000e+00
5.700000000000000000e+01,1.158041463049015452e+00,0.000000000000000000e+00
5.800000000000000000e+01,-2.453921708816431568e+00,0.000000000000000000e+00
5.900000000000000000e+01,-1.179635236157763778e+00,1.000000000000000000e+00
6.000000000000000000e+01,-2.589347591176522911e-01,0.000000000000000000e+00
6.100000000000000000e+01,4.096563440347401608e-01,0.000000000000000000e+00
6.200000000000000000e+01,3.847452513644387673e-01,0.000000000000000000e+00
6.300000000000000000e+01,3.624968336596888774e-01,0.000000000000000000e+00
6.400000000000000000e+01,4.707675292144748447e-01,0.000000000000000000e+00
6.500000000000000000e+01,6.742961623544811989e-01,0.000000000000000000e+00
6.600000000000000000e+01,5.141693281157362350e-01,0.000000000000000000e+00
6.700000000000000000e+01,1.012726809419640661e+00,0.000000000000000000e+00
6.800000000000000000e+01,8.600101620508033839e-01,0.000000000000000000e+00
6.900000000000000000e+01,1.354483050733169103e+00,0.000000000000000000e+00
7.000000000000000000e+01,1.269936711089279413e+00,0.000000000000000000e+00
7.100000000000000000e+01,1.096042022719918574e+00,0.000000000000000000e+00
7.200000000000000000e+01,6.980496835545551004e-01,0.000000000000000000e+00
7.300000000000000000e+01,-1.438370698512364716e-02,0.000000000000000000e+00
7.400000000000000000e+01,-6.290885147895475260e-01,0.000000000000000000e+00
7.500000000000000000e+01,-9.415230369894914686e-01,0.000000000000000000e+00
7.600000000000000000e+01,-9.687975344711264869e-01,0.000000000000000000e+00
7.700000000000000000e+01,-8.797545193717110079e-01,0.000000000000000000e+00
7.800000000000000000e+01,-9.409955849984031895e-01,0.000000000000000000e+00
7.900000000000000000e+01,-7.368377905764089686e-01,0.000000000000000000e+00
8.000000000000000000e+01,-7.701709504828726516e-01,0.000000000000000000e+00
8.100000000000000000e+01,-4.071213622932528531e-01,0.000000000000000000e+00
8.200000000000000000e+01,-6.571733791352123433e-01,0.000000000000000000e+00
8.300000000000000000e+01,-3.175580609001081300e-01,0.000000000000000000e+00
8.400000000000000000e+01,-5.121018704454269876e-01,0.000000000000000000e+00
8.500000000000000000e+01,-3.969990365532682364e-01,0.000000000000000000e+00
8.600000000000000000e+01,-3.442973252949850793e-01,0.000000000000000000e+00
8.700000000000000000e+01,-3.452205830677398390e-01,0.000000000000000000e+00
8.800000000000000000e+01,-2.436775149625304004e-01,0.000000000000000000e+00
8.900000000000000000e+01,-1.405505333492597653e-01,0.000000000000000000e+00
9.000000000000000000e+01,-2.292893925920224396e-01,0.000000000000000000e+00
9.100000000000000000e+01,-1.517869118161696007e-01,0.000000000000000000e+00
9.200000000000000000e+01,-1.334361059974168706e-01,0.000000000000000000e+00
9.300000000000000000e+01,6.758233519316381166e-02,0.000000000000000000e+00
9.400000000000000000e+01,3.407479871561795992e-01,0.000000000000000000e+00
9.500000000000000000e+01,4.475197365446368369e-01,0.000000000000000000e+00
9.600000000000000000e+01,2.560889073835539986e-01,0.000000000000000000e+00
9.700000000000000000e+01,6.797896847660889197e-02,0.000000000000000000e+00
9.800000000000000000e+01,-1.841878888064980846e-01,0.000000000000000000e+00
9.900000000000000000e+01,-3.637219154219696604e-02,0.000000000000000000e+00
1.000000000000000000e+02,-1.841000752818616748e-01,0.000000000000000000e+00
1.010000000000000000e+02,5.636060615718672256e-02,0.000000000000000000e+00
1.020000000000000000e+02,-3.983225285628003709e-01,0.000000000000000000e+00
1.030000000000000000e+02,1.768187572254164674e+00,0.000000000000000000e+00
1.040000000000000000e+02,2.811759335462791665e+00,0.000000000000000000e+00
1.050000000000000000e+02,-1.964935342322324141e+00,1.000000000000000000e+00
1.060000000000000000e+02,-1.662589203410782090e+00,0.000000000000000000e+00
1.070000000000000000e+02,-3.687307940145584939e-01,0.000000000000000000e+00
1.080000000000000000e+02,2.478540072062952043e-02,0.000000000000000000e+00
1.090000000000000000e+02,2.525674236179137333e-01,0.000000000000000000e+00
1.100000000000000000e+02,2.370709547585959642e-01,0.000000000000000000e+00
1.110000000000000000e+02,4.507388513121949325e-01,0.000000000000000000e+00
1.120000000000000000e+02,5.376747992315273894e-01,0.000000000000000000e+00
1.130000000000000000e+02,4.222896545900338139e-01,0.000000000000000000e+00
1.140000000000000000e+02,6.420728750120021644e-01,0.000000000000000000e+00
1.150000000000000000e+02,7.949230928105216476e-01,0.000000000000000000e+00
1.160000000000000000e+02,1.303221286812944246e+00,0.000000000000000000e+00
1.170000000000000000e+02,1.185701135332304146e+00,0.000000000000000000e+00
1.180000000000000000e+02,1.117203114963206456e+00,0.000000000000000000e+00
1.190000000000000000e+02,7.581032491056624023e-01,0.000000000000000000e+00
1.200000000000000000e+02,2.685973684596517086e-01,0.000000000000000000e+00
1.210000000000000000e+02,-5.152058406306170291e-01,0.000000000000000000e+00
1.220000000000000000e+02,-8.573192457139344747e-01,0.000000000000000000e+00
1.230000000000000000e+02,-7.672605515409784971e-01,0.000000000000000000e+00
1.240000000000000000e+02,-1.195131786132330287e+00,0.000000000000000000e+00
1.250000000000000000e+02,-7.149176297563747395e-01,0.000000000000000000e+00
1.260000000000000000e+02,-8.079234187057645622e-01,0.000000000000000000e+00
1.270000000000000000e+02,-6.352449784251937848e-01,0.000000000000000000e+00
1.280000000000000000e+02,-6.977351635000791363e-01,0.000000000000000000e+00
1.290000000000000000e+02,-5.329230361762450352e-01,0.000000000000000000e+00
1.300000000000000000e+02,-4.012039717781668569e-01,0.000000000000000000e+00
1.310000000000000000e+02,-3.769240214524388621e-01,0.000000000000000000e+00
1.320000000000000000e+02,-3.879607025363445150e-01,0.000000000000000000e+00
1.330000000000000000e+02,-3.394616698632232366e-01,0.000000000000000000e+00
1.340000000000000000e+02,-2.236219374561063122e-01,0.000000000000000000e+00
1.350000000000000000e+02,-3.482794720145381273e-01,0.000000000000000000e+00
1.360000000000000000e+02,-9.925347547813447024e-02,0.000000000000000000e+00
1.370000000000000000e+02,-2.011462259427491406e-01,0.000000000000000000e+00
1.380000000000000000e+02,-1.799619319611589774e-01,0.000000000000000000e+00
1.390000000000000000e+02,-1.569151807557545323e-03,0.000000000000000000e+00
1.400000000000000000e+02,-1.235462694385423416e-01,0.000000000000000000e+00
1.410000000000000000e+02,2.442143145764302248e-01,0.000000000000000000e+00
1.420000000000000000e+02,5.696858937864829331e-01,0.000000000000000000e+00
1.430000000000000000e+02,3.022861816548098601e-01,0.000000000000000000e+00
1.440000000000000000e+02,1.769133503518078854e-01,0.000000000000000000e+00
1.450000000000000000e+02,-9.396099898018515917e-02,0.000000000000000000e+00
1.460000000000000000e+02,-1.604196764817620302e-01,0.000000000000000000e+00
1.470000000000000000e+02,-1.192562703446259781e-01,0.000000000000000000e+00
1.480000000000000000e+02,-1.922419100084534482e-01,0.000000000000000000e+00
1.490000000000000000e+02,-6.497326681576635898e-02,0.000000000000000000e+00
1.500000000000000000e+02,2.236910799625662638e-01,0.000000000000000000e+00
1.510000000000000000e+02,3.493069745031253781e+00,0.000000000000000000e+00
1.520000000000000000e+02,1.251581207357952141e-01,1.000000000000000000e+00
1.530000000000000000e+02,-2.413550816925510212e+00,0.000000000000000000e+00
1.540000000000000000e+02,-6.674506483598569018e-01,0.000000000000000000e+00
1.550000000000000000e+02,-1.806840009367464417e-01,0.000000000000000000e+00
1.560000000000000000e+02,1.441491261674816005e-01,0.000000000000000000e+00
1.570000000000000000e+02,2.859121741382385506e-01,0.000000000000000000e+00
1.580000000000000000e+02,4.998949240691720752e-01,0.000000000000000000e+00
1.590000000000000000e+02,2.066627672959012452e-01,0.000000000000000000e+00
1.600000000000000000e+02,6.129037171350679714e-01,0.000000000000000000e+00
1.610000000000000000e+02,6.148162571894612016e-01,0.000000000000000000e+00
1.620000000000000000e+02,8.336801056948719424e-01,0.000000000000000000e+00
1.630000000000000000e+02,9.090736506496704949e-01,0.000000000000000000e+00
1.640000000000000000e+02,1.281718217792044312e+00,0.000000000000000000e+00
1.650000000000000000e+02,1.372999296964564797e+00,0.000000000000000000e+00
1.660000000000000000e+02,9.634509403865122446e-01,0.000000000000000000e+00
1.670000000000000000e+02,3.721207921857022094e-01,0.000000000000000000e+00
1.680000000000000000e+02,-2.462821872990387795e-01,0.000000000000000000e+00
1.690000000000000000e+02,-6.878812084394069215e-01,0.000000000000000000e+00
1.700000000000000000e+02,-9.164290159096737387e-01,0.000000000000000000e+00
1.710000000000000000e+02,-8.218252056724759669e-01,0.000000000000000000e+00
1.720000000000000000e+02,-8.947865216760572116e-01,0.000000000000000000e+00
1.730000000000000000e+02,-9.062869805166083870e-01,0.000000000000000000e+00
1.740000000000000000e+02,-7.111447639371845098e-01,0.000000000000000000e+00
1.750000000000000000e+02,-5.837316975794265561e-01,0.000000000000000000e+00
1.760000000000000000e+02,-7.060352472384583411e-01,0.000000000000000000e+00
1.770000000000000000e+02,-4.076340209255359670e-01,0.000000000000000000e+00
1.780000000000000000e+02,-4.669772454646081705e-01,0.000000000000000000e+00
1.790000000000000000e+02,-4.591465741376042353e-01,0.000000000000000000e+00
1.800000000000000000e+02,-2.570675644239499569e-01,0.000000000000000000e+00
1.810000000000000000e+02,-3.306365064210053384e-01,0.000000000000000000e+00
1.820000000000000000e+02,-2.788109368110192055e-01,0.000000000000000000e+00
1.830000000000000000e+02,-1.674891034545485935e-01,0.000000000000000000e+00
1.840000000000000000e+02,-2.518282200949706340e-01,0.000000000000000000e+00
1.850000000000000000e+02,-1.597250450129816257e-01,0.000000000000000000e+00
1.860000000000000000e+02,-3.310490114658133642e-02,0.000000000000000000e+00
1.870000000000000000e+02,-7.445275716411406397e-02,0.000000000000000000e+00
1.880000000000000000e+02,1.901846034762487703e-01,0.000000000000000000e+00
1.890000000000000000e+02,3.260423310152608112e-01,0.000000000000000000e+00
1.900000000000000000e+02,4.693642518153521292e-01,0.000000000000000000e+00
1.910000000000000000e+02,2.966533508361500204e-01,0.000000000000000000e+00
1.920000000000000000e+02,1.125183623600299054e-01,0.000000000000000000e+00
1.930000000000000000e+02,-2.031380174725587184e-01,0.000000000000000000e+00
1.940000000000000000e+02,-8.026128458050275222e-03,0.000000000000000000e+00
1.950000000000000000e+02,-3.147550006423080471e-01,0.000000000000000000e+00
1.960000000000000000e+02,3.193123440788370876e-02,0.000000000000000000e+00
1.970000000000000000e+02,-3.419105406418976867e-01,0.000000000000000000e+00
1.980000000000000000e+02,1.735390399429681541e+00,0.000000000000000000e+00
1.990000000000000000e+02,3.076242844540099330e+00,0.000000000000000000e+00
2.000000000000000000e+02,-1.694163457432361186e+00,1.000000000000000000e+00
2.010000000000000000e+02,-1.726340159839747646e+00,0.000000000000000000e+00
2.020000000000000000e+02,-3.042821837339160784e-01,0.000000000000000000e+00
2.030000000000000000e+02,8.648367413406322923e-02,0.000000000000000000e+00
2.040000000000000000e+02,2.967523829123013823e-01,0.000000000000000000e+00
2.050000000000000000e+02,2.000021262434450164e-01,0.000000000000000000e+00
2.060000000000000000e+02,3.205291708779451354e-01,0.000000000000000000e+00
2.070000000000000000e+02,4.608630456236427753e-01,0.000000000000000000e+00
2.080000000000000000e+02,6.078326497661364902e-01,0.000000000000000000e+00
2.090000000000000000e+02,7.372947321215620464e-01,0.000000000000000000e+00
2.100000000000000000e+02,7.239062616446916287e-01,0.000000000000000000e+00
2.110000000000000000e+02,1.049200318206311211e+00,0.000000000000000000e+00
2.120000000000000000e+02,1.318842610283522676e+00,0.000000000000000000e+00
2.130000000000000000e+02,1.127163246096767546e+00,0.000000000000000000e+00
2.140000000000000000e+02,8.161787329529835988e-01,0.000000000000000000e+00
2.150000000000000000e+02,1.407865528206581340e-01,0.000000000000000000e+00
2.160000000000000000e+02,-4.831728255351384616e-01,0.000000000000000000e+00
2.170000000000000000e+02,-9.833879369321176789e-01,0.000000000000000000e+00
2.180000000000000000e+02,-1.022054941834175334e+00,0.000000000000000000e+00
2.190000000000000000e+02,-9.125091065227657339e-01,0.000000000000000000e+00
2.200000000000000000e+02,-8.884457830594578720e-01,0.000000000000000000e+00
2.210000000000000000e+02,-7.417398525776365270e-01,0.000000000000000000e+00
2.220000000000000000e+02,-7.195968153947817081e-01,0.000000000000000000e+00
2.230000000000000000e+02,-7.182063092022872297e-01,0.000000000000000000e+00
2.240000000000000000e+02,-5.661874411656639960e-01,0.000000000000000000e+00
2.250000000000000000e+02,-5.077523596138823203e-01,0.000000000000000000e+00
2.260000000000000000e+02,-4.038147797659805693e-01,0.000000000000000000e+00
2.270000000000000000e+02,-4.118081547120467922e-01,0.000000000000000000e+00
2.280000000000000000e+02,-2.358071554052827423e-01,0.000000000000000000e+00
2.290000000000000000e+02,-3.781635507456384548e-01,0.000000000000000000e+00
2.300000000000000000e+02,-3.612714372533835649e-01,0.000000000000000000e+00
2.310000000000000000e+02,-1.868632792513721663e-01,0.000000000000000000e+00
2.320000000000000000e+02,-1.028868230505703418e-01,0.000000000000000000e+00
2.330000000000000000e+02,-2.123276552434552600e-01,0.000000000000000000e+00
2.340000000000000000e+02,1.893247469122691720e-02,0.000000000000000000e+00
2.350000000000000000e+02,-3.099470713763941357e-02,0.000000000000000000e+00
2.360000000000000000e+02,3.204415699672144013e-01,0.000000000000000000e+00
2.370000000000000000e+02,4.175892277066485803e-01,0.000000000000000000e+00
2.380000000000000000e+02,4.966585594828142325e-01,0.000000000000000000e+00
2.390000000000000000e+02,3.468552297746263502e-01,0.000000000000000000e+00
2.400000000000000000e+02,1.235183484261516279e-01,0.000000000000000000e+00
2.410000000000000000e+02,-3.065208093100764142e-01,0.000000000000000000e+00
2.420000000000000000e+02,3.610591309140663563e-02,0.000000000000000000e+00
2.430000000000000000e+02,-3.334990208854776150e-01,0.000000000000000000e+00
2.440000000000000000e+02,1.263594111528179298e-01,0.000000000000000000e+00
2.450000000000000000e+02,-2.727558974186716778e-01,0.000000000000000000e+00
2.460000000000000000e+02,2.680525686448606670e+00,0.000000000000000000e+00
2.470000000000000000e+02,2.083498359227030861e+00,0.000000000000000000e+00
2.480000000000000000e+02,-2.459202330166589512e+00,1.000000000000000000e+00
2.490000000000000000e+02,-1.108349022333306122e+00,0.000000000000000000e+00
2.500000000000000000e+02,-1.122434718944918669e-01,0.000000000000000000e+00
2.510000000000000000e+02,2.360102235520500080e-01,0.000000000000000000e+00
2.520000000000000000e+02,2.189135627114562888e-01,0.000000000000000000e+00
2.530000000000000000e+02,4.530499408182816490e-01,0.000000000000000000e+00
2.540000000000000000e+02,2.187068338695865310e-01,0.000000000000000000e+00
2.550000000000000000e+02,5.511708683672470466e-01,0.000000000000000000e+00
2.560000000000000000e+02,4.861924572632956298e-01,0.000000000000000000e+00
2.570000000000000000e+02,7.171318694483216349e-01,0.000000000000000000e+00
2.580000000000000000e+02,1.000760401722618598e+00,0.000000000000000000e+00
2.590000000000000000e+02,1.048230020360520598e+00,0.000000000000000000e+00
2.600000000000000000e+02,1.379566999498522240e+00,0.000000000000000000e+00
2.610000000000000000e+02,1.129161895533139059e+00,0.000000000000000000e+00
2.620000000000000000e+02,5.709884941258343005e-01,0.000000000000000000e+00
2.630000000000000000e+02,-8.716518951394104653e-02,0.000000000000000000e+00
2.640000000000000000e+02,-5.279956415727076191e-01,0.000000000000000000e+00
2.650000000000000000e+02,-9.079554563731497829e-01,0.000000000000000000e+00
2.660000000000000000e+02,-8.398948885807226983e-01,0.000000000000000000e+00
2.670000000000000000e+02,-1.011194151282001963e+00,0.000000000000000000e+00
2.680000000000000000e+02,-9.310828895396144889e-01,0.000000000000000000e+00
2.690000000000000000e+02,-7.115778913003120154e-01,0.000000000000000000e+00
2.700000000000000000e+02,-7.260590430873887779e-01,0.000000000000000000e+00
2.710000000000000000e+02,-5.334688291208876665e-01,0.000000000000000000e+00
2.720000000000000000e+02,-5.548187210148376458e-01,0.000000000000000000e+00
2.730000000000000000e+02,-4.316893278064729556e-01,0.000000000000000000e+00
2.740000000000000000e+02,-4.350614806191636097e-01,0.000000000000000000e+00
2.750000000000000000e+02,-3.490019608036659671e-01,0.000000000000000000e+00
2.760000000000000000e+02,-2.878903764314715841e-01,0.000000000000000000e+00
2.770000000000000000e+02,-2.758692642271087236e-01,0.000000000000000000e+00
2.780000000000000000e+02,-3.041310326447448920e-01,0.000000000000000000e+00
2.790000000000000000e+02,-1.755515807653588722e-01,0.000000000000000000e+00
2.800000000000000000e+02,-1.775503427380878962e-01,0.000000000000000000e+00
2.810000000000000000e+02,-7.661860782114844615e-02,0.000000000000000000e+00
2.820000000000000000e+02,-1.276215954396509589e-01,0.000000000000000000e+00
2.830000000000000000e+02,9.966589473282591594e-02,0.000000000000000000e+00
2.840000000000000000e+02,1.326008654791052677e-01,0.000000000000000000e+00
2.850000000000000000e+02,3.898075888979901094e-01,0.000000000000000000e+00
2.860000000000000000e+02,5.361693893535158795e-01,0.000000000000000000e+00
2.870000000000000000e+02,1.210103193016182493e-01,0.000000000000000000e+00
2.880000000000000000e+02,1.267870132476428824e-01,0.000000000000000000e+00
2.890000000000000000e+02,-2.272891328456224658e-01,0.000000000000000000e+00
2.900000000000000000e+02,-1.675971791974947833e-01,0.000000000000000000e+00
2.910000000000000000e+02,-2.364464292105296905e-01,0.000000000000000000e+00
2.920000000000000000e+02,8.686868536726437273e-02,0.000000000000000000e+00
2.930000000000000000e+02,-2.094152847793569194e-01,0.000000000000000000e+00
2.940000000000000000e+02,3.207461285553307562e+00,0.000000000000000000e+00
2.950000000000000000e+02,1.483126895785403354e+00,1.000000000000000000e+00
2.960000000000000000e+02,-2.504809181296533627e+00,0.000000000000000000e+00
2.970000000000000000e+02,-1.035511864171444252e+00,0.000000000000000000e+00
2.980000000000000000e+02,-1.900049584684094517e-01,0.000000000000000000e+00
2.990000000000000000e+02,2.945374454658722385e-01,0.000000000000000000e+00
3.000000000000000000e+02,3.408604566968187477e-01,0.000000000000000000e+00
3.010000000000000000e+02,4.275884983616113910e-01,0.000000000000000000e+00
3.020000000000000000e+02,2.580970129454954742e-01,0.000000000000000000e+00
3.030000000000000000e+02,3.870453184770664690e-01,0.000000000000000000e+00
3.040000000000000000e+02,4.654210102705854113e-01,0.000000000000000000e+00
3.050000000000000000e+02,8.500077775645745737e-01,0.000000000000000000e+00
3.060000000000000000e+02,1.014705355638282791e+00,0.000000000000000000e+00
3.070000000000000000e+02,1.204661099366468369e+00,0.000000000000000000e+00
3.080000000000000000e+02,1.108440413673766667e+00,0.000000000000000000e+00
3.090000000000000000e+02,1.152412371150164372e+00,0.000000000000000000e+00
3.100000000000000000e+02,5.412732333542717988e-01,0.000000000000000000e+00
3.110000000000000000e+02,-2.105129777249754863e-01,0.000000000000000000e+00
3.120000000000000000e+02,-6.869109050542521189e-01,0.000000000000000000e+00
3.130000000000000000e+02,-8.290280373632089583e-01,0.000000000000000000e+00
3.140000000000000000e+02,-1.098769728276828950e+00,0.000000000000000000e+00
3.150000000000000000e+02,-9.597905459196918176e-01,0.000000000000000000e+00
3.160000000000000000e+02,-9.780232263761315936e-01,0.000000000000000000e+00
3.170000000000000000e+02,-8.215976022776957377e-01,0.000000000000000000e+00
3.180000000000000000e+02,-7.385338627590734006e-01,0.000000000000000000e+00
3.190000000000000000e+02,-5.418921236510527706e-01,0.000000000000000000e+00
3.200000000000000000e+02,-4.412384591425634883e-01,0.000000000000000000e+00
3.210000000000000000e+02,-5.268862438438373097e-01,0.000000000000000000e+00
3.220000000000000000e+02,-4.883009574810730502e-01,0.000000000000000000e+00
3.230000000000000000e+02,-3.373136002355927032e-01,0.000000000000000000e+00
3.240000000000000000e+02,-4.811625304604766895e-01,0.000000000000000000e+00
3.250000000000000000e+02,-1.819848140711891882e-01,0.000000000000000000e+00
3.260000000000000000e+02,-2.011515229338709798e-01,0.000000000000000000e+00
3.270000000000000000e+02,-2.617631889143953172e-01,0.000000000000000000e+00
3.280000000000000000e+02,-1.800669242951057347e-01,0.000000000000000000e+00
3.290000000000000000e+02,-7.157301093538043224e-02,0.000000000000000000e+00
3.300000000000000000e+02,-3.983542827647081758e-02,0.000000000000000000e+00
3.310000000000000000e+02,2.947580482954272399e-02,0.000000000000000000e+00
3.320000000000000000e+02,1.818979488924796495e-01,0.000000000000000000e+00
3.330000000000000000e+02,3.915745987130099803e-01,0.000000000000000000e+00
3.340000000000000000e+02,5.313989466943307427e-01,0.000000000000000000e+00
3.350000000000000000e+02,5.026633661212460691e-01,0.000000000000000000e+00
3.360000000000000000e+02,4.023837435547462926e-02,0.000000000000000000e+00
3.370000000000000000e+02,-1.511738084514637759e-01,0.000000000000000000e+00
3.380000000000000000e+02,-1.344192482217018703e-01,0.000000000000000000e+00
3.390000000000000000e+02,-8.784898869622004280e-02,0.000000000000000000e+00
3.400000000000000000e+02,1.657794303208701969e-01,0.000000000000000000e+00
3.410000000000000000e+02,-3.441539180348228699e-01,0.000000000000000000e+00
3.420000000000000000e+02,1.644267146595003171e+00,0.000000000000000000e+00
3.430000000000000000e+02,3.060455746490801765e+00,0.000000000000000000e+00
3.440000000000000000e+02,-1.573532981559710775e+00,1.000000000000000000e+00
3.450000000000000000e+02,-1.987929917027923876e+00,0.000000000000000000e+00
3.460000000000000000e+02,-3.814347598903237713e-01,0.000000000000000000e+00
3.470000000000000000e+02,2.705588382913152734e-01,0.000000000000000000e+00
3.480000000000000000e+02,2.021546833374536500e-01,0.000000000000000000e+00
3.490000000000000000e+02,3.304752071923333645e-01,0.000000000000000000e+00
3.500000000000000000e+02,4.227655009198202363e-01,0.000000000000000000e+00
3.510000000000000000e+02,4.941418222950093031e-01,0.000000000000000000e+00
3.520000000000000000e+02,4.613733135222051196e-01,0.000000000000000000e+00
3.530000000000000000e+02,8.138955681603687875e-01,0.000000000000000000e+00
3.540000000000000000e+02,8.662797834215767434e-01,0.000000000000000000e+00
3.550000000000000000e+02,1.217636283419131882e+00,0.000000000000000000e+00
3.560000000000000000e+02,1.398905292418860524e+00,0.000000000000000000e+00
3.570000000000000000e+02,1.136303814809960011e+00,0.000000000000000000e+00
3.580000000000000000e+02,6.934908666942738442e-01,0.000000000000000000e+00
3.590000000000000000e+02,4.211095911478776599e-01,0.000000000000000000e+00
3.600000000000000000e+02,-5.065094140520193244e-01,0.000000000000000000e+00
3.610000000000000000e+02,-6.952675413936546533e-01,0.000000000000000000e+00
3.620000000000000000e+02,-1.119930679226660342e+00,0.000000000000000000e+00
3.630000000000000000e+02,-1.016102837885591859e+00,0.000000000000000000e+00
3.640000000000000000e+02,-8.744779535594647824e-01,0.000000000000000000e+00
3.650000000000000000e+02,-8.188610363685637772e-01,0.000000000000000000e+00
3.660000000000000000e+02,-7.187335195597691628e-01,0.000000000000000000e+00
3.670000000000000000e+02,-6.621033767051118790e-01,0.000000000000000000e+00
3.680000000000000000e+02,-5.580084950260284504e-01,0.000000000000000000e+00
3.690000000000000000e+02,-4.774270815250540312e-01,0.000000000000000000e+00
3.700000000000000000e+02,-4.622618893276943530e-01,0.000000000000000000e+00
3.710000000000000000e+02,-4.231408922320000765e-01,0.000000000000000000e+00
3.720000000000000000e+02,-3.526686436868982089e-01,0.000000000000000000e+00
3.730000000000000000e+02,-2.825676980374549063e-01,0.000000000000000000e+00
3.740000000000000000e+02,-3.877715325761545984e-01,0.000000000000000000e+00
3.750000000000000000e+02,-1.471855587536513021e-01,0.000000000000000000e+00
3.760000000000000000e+02,-3.286389286614724292e-01,0.000000000000000000e+00
3.770000000000000000e+02,-3.205364889077769175e-02,0.000000000000000000e+00
3.780000000000000000e+02,-1.606331495872962145e-01,0.000000000000000000e+00
3.790000000000000000e+02,-7.719359909006025255e-03,0.000000000000000000e+00
3.800000000000000000e+02,5.010880367244510691e-02,0.000000000000000000e+00
3.810000000000000000e+02,3.237242878228530629e-01,0.000000000000000000e+00
3.820000000000000000e+02,5.184451497848510115e-01,0.000000000000000000e+00
3.830000000000000000e+02,3.084823074458811765e-01,0.000000000000000000e+00
3.840000000000000000e+02,1.547657848055034313e-01,0.000000000000000000e+00
3.850000000000000000e+02,-2.686930042906261751e-02,0.000000000000000000e+00
3.860000000000000000e+02,-2.474422161846124846e-01,0.000000000000000000e+00
3.870000000000000000e+02,-1.782276079911082264e-02,0.000000000000000000e+00
3.880000000000000000e+02,-2.841448028749549159e-01,0.000000000000000000e+00
3.890000000000000000e+02,-1.734895347597727178e-02,0.000000000000000000e+00
3.900000000000000000e+02,1.512100328102930491e-02,0.000000000000000000e+00
3.910000000000000000e+02,3.548899776028339836e+00,0.000000000000000000e+00
3.920000000000000000e+02,2.580849075475586535e-02,1.000000000000000000e+00
3.930000000000000000e+02,-2.644227948387343208e+00,0.000000000000000000e+00
3.940000000000000000e+02,-8.948360286512636597e-01,0.000000000000000000e+00
3.950000000000000000e+02,-9.510270989401588271e-02,0.000000000000000000e+00
3.960000000000000000e+02,5.352117619019979289e-01,0.000000000000000000e+00
3.970000000000000000e+02,2.792511806283777820e-01,0.000000000000000000e+00
3.980000000000000000e+02,5.348354145661796677e-01,0.000000000000000000e+00
3.990000000000000000e+02,2.961266901825118092e-01,0.000000000000000000e+00
4.000000000000000000e+02,6.315517359446370937e-01,0.000000000000000000e+00
4.010000000000000000e+02,6.830272125624680113e-01,0.000000000000000000e+00
4.020000000000000000e+02,8.312114050373342611e-01,0.000000000000000000e+00
4.030000000000000000e+02,1.189995920691399478e+00,0.000000000000000000e+00
4.040000000000000000e+02,1.416314153674485876e+00,0.000000000000000000e+00
4.050000000000000000e+02,1.247086494910162324e+00,0.000000000000000000e+00
4.060000000000000000e+02,1.073571510477324464e+00,0.000000000000000000e+00
4.070000000000000000e+02,5.630441331961871798e-01,0.000000000000000000e+00
4.080000000000000000e+02,-2.012273219585316575e-01,0.000000000000000000e+00
4.090000000000000000e+02,-7.498489363504370342e-01,0.000000000000000000e+00
4.100000000000000000e+02,-9.704899657350524178e-01,0.000000000000000000e+00
4.110000000000000000e+02,-1.015688287483681451e+00,0.000000000000000000e+00
4.120000000000000000e+02,-9.050903719931272517e-01,0.000000000000000000e+00
4.130000000000000000e+02,-9.253619657912837138e-01,0.000000000000000000e+00
4.140000000000000000e+02,-7.738545599769663941e-01,0.000000000000000000e+00
4.150000000000000000e+02,-6.571798770285027791e-01,0.000000000000000000e+00
4.160000000000000000e+02,-6.194847334190948240e-01,0.000000000000000000e+00
4.170000000000000000e+02,-7.071333124739629383e-01,0.000000000000000000e+00
4.180000000000000000e+02,-4.312468304816173825e-01,0.000000000000000000e+00
4.190000000000000000e+02,-4.215827789202917786e-01,0.000000000000000000e+00
4.200000000000000000e+02,-4.207658908528418285e-01,0.000000000000000000e+00
4.210000000000000000e+02,-4.553084021199499398e-01,0.000000000000000000e+00
4.220000000000000000e+02,-3.120471332319806890e-01,0.000000000000000000e+00
4.230000000000000000e+02,-2.256802273156332805e-01,0.000000000000000000e+00
4.240000000000000000e+02,-3.293448305104980101e-01,0.000000000000000000e+00
4.250000000000000000e+02,-2.217362133521358913e-01,0.000000000000000000e+00
4.260000000000000000e+02,-1.551120147636145252e-01,0.000000000000000000e+00
4.270000000000000000e+02,6.134288296617648739e-02,0.000000000000000000e+00
4.280000000000000000e+02,1.812351593285731477e-01,0.000000000000000000e+00
4.290000000000000000e+02,3.835999969407397070e-01,0.000000000000000000e+00
4.300000000000000000e+02,4.692092941784593019e-01,0.000000000000000000e+00
4.310000000000000000e+02,1.223220522515533065e-01,0.000000000000000000e+00
4.320000000000000000e+02,9.992263196420750337e-02,0.000000000000000000e+00
4.330000000000000000e+02,-2.509674121753572296e-01,0.000000000000000000e+00
4.340000000000000000e+02,-5.435426870680841460e-02,0.000000000000000000e+00
4.350000000000000000e+02,-2.336067920833265477e-01,0.000000000000000000e+00
4.360000000000000000e+02,1.771972589200957182e-01,0.000000000000000000e+00
4.370000000000000000e+02,-1.732420591327379078e-01,0.000000000000000000e+00
4.380000000000000000e+02,3.017659135891466615e+00,0.000000000000000000e+00
4.390000000000000000e+02,1.157912041183023932e+00,0.000000000000000000e+00
4.400000000000000000e+02,-2.615499278719105813e+00,0.000000000000000000e+00
4.410000000000000000e+02,-1.154032169498891092e+00,1.000000000000000000e+00
4.420000000000000000e+02,-2.873098348690292791e-01,0.000000000000000000e+00
4.430000000000000000e+02,5.685515590471486025e-01,0.000000000000000000e+00
4.440000000000000000e+02,2.890476559261900835e-01,0.000000000000000000e+00
4.450000000000000000e+02,4.512408764000387373e-01,0.000000000000000000e+00
4.460000000000000000e+02,4.748675156055737201e-01,0.000000000000000000e+00
4.470000000000000000e+02,7.117312047089665583e-01,0.000000000000000000e+00
4.480000000000000000e+02,5.684678981497020001e-01,0.000000000000000000e+00
4.490000000000000000e+02,8.623060460977248765e-01,0.000000000000000000e+00
4.500000000000000000e+02,1.302051529936728347e+00,0.000000000000000000e+00
4.510000000000000000e+02,1.210773362717300516e+00,0.000000000000000000e+00
4.520000000000000000e+02,1.387083662558661112e+00,0.000000000000000000e+00
4.530000000000000000e+02,1.149918102966673183e+00,0.000000000000000000e+00
4.540000000000000000e+02,6.366833655661306990e-01,0.000000000000000000e+00
4.550000000000000000e+02,1.092388840109780740e-01,0.000000000000000000e+00
4.560000000000000000e+02,-7.272490146043223413e-01,0.000000000000000000e+00
4.570000000000000000e+02,-7.699209576957590784e-01,0.000000000000000000e+00
4.580000000000000000e+02,-1.090583524123101666e+00,0.000000000000000000e+00
4.590000000000000000e+02,-9.191366574676269607e-01,0.000000000000000000e+00
4.600000000000000000e+02,-9.868758603981572231e-01,0.000000000000000000e+00
4.610000000000000000e+02,-7.542016910944524533e-01,0.000000000000000000e+00
4.620000000000000000e+02,-5.493157069897295353e-01,0.000000000000000000e+00
4.630000000000000000e+02,-6.639280440738118960e-01,0.000000000000000000e+00
4.640000000000000000e+02,-5.248239233998802655e-01,0.000000000000000000e+00
4.650000000000000000e+02,-5.002997462460373468e-01,0.000000000000000000e+00
4.660000000000000000e+02,-4.172136450143622555e-01,0.000000000000000000e+00
4.670000000000000000e+02,-4.743174516474057412e-01,0.000000000000000000e+00
4.680000000000000000e+02,-3.728614682811315362e-01,0.000000000000000000e+00
4.690000000000000000e+02,-4.214505675349629055e-01,0.000000000000000000e+00
4.700000000000000000e+02,-3.595003147921065345e-01,0.000000000000000000e+00
4.710000000000000000e+02,-1.576553863302044278e-01,0.000000000000000000e+00
4.720000000000000000e+02,-3.678868313471971296e-01,0.000000000000000000e+00
4.730000000000000000e+02,1.447988533165131715e-02,0.000000000000000000e+00
4.740000000000000000e+02,-1.994185089903797448e-01,0.000000000000000000e+00
4.750000000000000000e+02,1.389475363515801642e-01,0.000000000000000000e+00
4.760000000000000000e+02,1.926780953609021074e-01,0.000000000000000000e+00
4.770000000000000000e+02,5.644071692899302883e-01,0.000000000000000000e+00
4.780000000000000000e+02,8.641539588414881568e-02,0.000000000000000000e+00
4.790000000000000000e+02,2.398641780296391079e-01,0.000000000000000000e+00
4.800000000000000000e+02,-3.381961379574329185e-01,0.000000000000000000e+00
4.810000000000000000e+02,-1.349896606586800107e-01,0.000000000000000000e+00
4.820000000000000000e+02,-2.273539132379567285e-01,0.000000000000000000e+00
4.830000000000000000e+02,6.707180534616827283e-02,0.000000000000000000e+00
4.840000000000000000e+02,-2.272114605748513649e-01,0.000000000000000000e+00
4.850000000000000000e+02,2.204634579034799202e+00,0.000000000000000000e+00
4.860000000000000000e+02,2.073437272492278716e+00,0.000000000000000000e+00
4.870000000000000000e+02,-2.131600165750819897e+00,1.000000000000000000e+00
4.880000000000000000e+02,-1.668795587951721116e+00,0.000000000000000000e+00
4.890000000000000000e+02,-3.483252643320212116e-01,0.000000000000000000e+00
4.900000000000000000e+02,4.678344634845363892e-01,0.000000000000000000e+00
4.910000000000000000e+02,2.176104233623723239e-01,0.000000000000000000e+00
4.920000000000000000e+02,5.963365499491581900e-01,0.000000000000000000e+00
4.930000000000000000e+02,4.935814114471128167e-01,0.000000000000000000e+00
4.940000000000000000e+02,4.653809457468675026e-01,0.000000000000000000e+00
4.950000000000000000e+02,7.150609245080440379e-01,0.000000000000000000e+00
4.960000000000000000e+02,9.000801886255485051e-01,0.000000000000000000e+00
4.970000000000000000e+02,8.626034241761952881e-01,0.000000000000000000e+00
4.980000000000000000e+02,1.232340681110688285e+00,0.000000000000000000e+00
4.990000000000000000e+02,1.276206779287951010e+00,0.000000000000000000e+00
5.000000000000000000e+02,1.324012933131006209e+00,0.000000000000000000e+00
5.010000000000000000e+02,8.331879428511125285e-01,0.000000000000000000e+00
5.020000000000000000e+02,1.773019796570836359e-02,0.000000000000000000e+00
5.030000000000000000e+02,-4.445365009609053009e-01,0.000000000000000000e+00
5.040000000000000000e+02,-8.031476603370564238e-01,0.000000000000000000e+00
5.050000000000000000e+02,-7.696902998406729424e-01,0.000000000000000000e+00
5.060000000000000000e+02,-1.079539620016223944e+00,0.000000000000000000e+00
5.070000000000000000e+02,-8.775388101739417523e-01,0.000000000000000000e+00
5.080000000000000000e+02,-7.261206564898574634e-01,0.000000000000000000e+00
5.090000000000000000e+02,-5.452240449809218070e-01,0.000000000000000000e+00
5.100000000000000000e+02,-6.671194679261398530e-01,0.000000000000000000e+00
5.110000000000000000e+02,-3.730181008490486838e-01,0.000000000000000000e+00
5.120000000000000000e+02,-4.188024370275030828e-01,0.000000000000000000e+00
5.130000000000000000e+02,-6.035340958788797394e-01,0.000000000000000000e+00
5.140000000000000000e+02,-2.492502105195588402e-01,0.000000000000000000e+00
5.150000000000000000e+02,-3.422257720200203024e-01,0.000000000000000000e+00
5.160000000000000000e+02,-2.707241217166748148e-01,0.000000000000000000e+00
5.170000000000000000e+02,-3.553531078385885889e-01,0.000000000000000000e+00
5.180000000000000000e+02,-2.676983068762662232e-01,0.000000000000000000e+00
5.190000000000000000e+02,-2.028865759681732772e-01,0.000000000000000000e+00
5.200000000000000000e+02,-1.736313751204117684e-01,0.000000000000000000e+00
5.210000000000000000e+02,-1.531038739353274003e-01,0.000000000000000000e+00
5.220000000000000000e+02,-6.348955672800403460e-02,0.000000000000000000e+00
5.230000000000000000e+02,2.329976361916651084e-01,0.000000000000000000e+00
5.240000000000000000e+02,4.407411188563217785e-01,0.000000000000000000e+00
5.250000000000000000e+02,2.333830682647388410e-01,0.000000000000000000e+00
5.260000000000000000e+02,2.990668597233840376e-01,0.000000000000000000e+00
5.270000000000000000e+02,-1.185244264800467684e-01,0.000000000000000000e+00
5.280000000000000000e+02,-2.495174665614858511e-01,0.000000000000000000e+00
5.290000000000000000e+02,-1.392988197097664027e-01,0.000000000000000000e+00
5.300000000000000000e+02,-3.020944274548859748e-02,0.000000000000000000e+00
5.310000000000000000e+02,-2.853719505953933866e-01,0.000000000000000000e+00
5.320000000000000000e+02,5.135399503482063199e-01,0.000000000000000000e+00
5.330000000000000000e+02,3.268220749620247112e+00,0.000000000000000000e+00
5.340000000000000000e+02,-5.221074678212408449e-01,1.000000000000000000e+00
5.350000000000000000e+02,-2.281625336699531825e+00,0.000000000000000000e+00
5.360000000000000000e+02,-8.747740584169338973e-01,0.000000000000000000e+00
5.370000000000000000e+02,6.776381940771482315e-02,0.000000000000000000e+00
5.380000000000000000e+02,3.875659232694581013e-01,0.000000000000000000e+00
5.390000000000000000e+02,2.705809216668705330e-01,0.000000000000000000e+00
5.400000000000000000e+02,4.089404489004160870e-01,0.000000000000000000e+00
5.410000000000000000e+02,3.509042438835748290e-01,0.000000000000000000e+00
5.420000000000000000e+02,6.462155100166002697e-01,0.000000000000000000e+00
5.430000000000000000e+02,5.940598601679317747e-01,0.000000000000000000e+00
5.440000000000000000e+02,8.549289480732270574e-01,0.000000000000000000e+00
5.450000000000000000e+02,1.041786545669996844e+00,0.000000000000000000e+00
5.460000000000000000e+02,1.114262276575217703e+00,0.000000000000000000e+00
5.470000000000000000e+02,1.317401674898770247e+00,0.000000000000000000e+00
5.480000000000000000e+02,8.485800339556166527e-01,0.000000000000000000e+00
5.490000000000000000e+02,4.296759498375926634e-01,0.000000000000000000e+00
5.500000000000000000e+02,-1.693937732909996940e-01,0.000000000000000000e+00
5.510000000000000000e+02,-7.546196708626529137e-01,0.000000000000000000e+00
5.520000000000000000e+02,-8.506557332234182534e-01,0.000000000000000000e+00
5.530000000000000000e+02,-1.055154232178182827e+00,0.000000000000000000e+00
5.540000000000000000e+02,-7.210001656442523998e-01,0.000000000000000000e+00
5.550000000000000000e+02,-7.734505372944622259e-01,0.000000000000000000e+00
5.560000000000000000e+02,-7.635709336482994214e-01,0.000000000000000000e+00
5.570000000000000000e+02,-5.717757159531913214e-01,0.000000000000000000e+00
5.580000000000000000e+02,-5.709482018119030888e-01,0.000000000000000000e+00
5.590000000000000000e+02,-3.481618713512350527e-01,0.000000000000000000e+00
5.600000000000000000e+02,-4.871376321075246429e-01,0.000000000000000000e+00
5.610000000000000000e+02,-2.483085581692507093e-01,0.000000000000000000e+00
5.620000000000000000e+02,-4.169702276993174639e-01,0.000000000000000000e+00
5.630000000000000000e+02,-2.064057578344122013e-01,0.000000000000000000e+00
5.640000000000000000e+02,-2.808164880879527869e-01,0.000000000000000000e+00
5.650000000000000000e+02,-1.446082186956786919e-01,0.000000000000000000e+00
5.660000000000000000e+02,-1.453663255060639037e-01,0.000000000000000000e+00
5.670000000000000000e+02,-2.011025489869647936e-02,0.000000000000000000e+00
5.680000000000000000e+02,-1.270333387037086148e-01,0.000000000000000000e+00
5.690000000000000000e+02,2.753749467808597196e-02,0.000000000000000000e+00
5.700000000000000000e+02,-4.735722671842223369e-02,0.000000000000000000e+00
5.710000000000000000e+02,3.684835397365685550e-01,0.000000000000000000e+00
5.720000000000000000e+02,3.165807865135903398e-01,0.000000000000000000e+00
5.730000000000000000e+02,6.099984879952713435e-01,0.000000000000000000e+00
5.740000000000000000e+02,9.371118023864427604e-02,0.000000000000000000e+00
5.750000000000000000e+02,1.005644696214719608e-01,0.000000000000000000e+00
5.760000000000000000e+02,-2.852706483198796938e-01,0.000000000000000000e+00
5.770000000000000000e+02,6.411337455143706343e-02,0.000000000000000000e+00
5.780000000000000000e+02,-2.844994791154458191e-01,0.000000000000000000e+00
5.790000000000000000e+02,1.636261462280461376e-01,0.000000000000000000e+00
5.800000000000000000e+02,-1.431607181709128596e-01,0.000000000000000000e+00
5.810000000000000000e+02,3.209281408492672405e+00,0.000000000000000000e+00
5.820000000000000000e+02,7.809377443244767125e-01,1.000000000000000000e+00
5.830000000000000000e+02,-2.320523632886358545e+00,0.000000000000000000e+00
5.840000000000000000e+02,-9.839253645262245884e-01,0.000000000000000000e+00
5.850000000000000000e+02,-1.275273137347018582e-01,0.000000000000000000e+00
5.860000000000000000e+02,3.547760254485745612e-01,0.000000000000000000e+00
5.870000000000000000e+02,3.202996174426897547e-01,0.000000000000000000e+00
5.880000000000000000e+02,1.770056881871191201e-01,0.000000000000000000e+00
5.890000000000000000e+02,4.151873806020371371e-01,0.000000000000000000e+00
5.900000000000000000e+02,4.702942551617220190e-01,0.000000000000000000e+00
5.910000000000000000e+02,4.971767089769995041e-01,0.000000000000000000e+00
5.920000000000000000e+02,8.492341060272124986e-01,0.000000000000000000e+00
5.930000000000000000e+02,8.036060812813462517e-01,0.000000000000000000e+00
5.940000000000000000e+02,1.225502893572048446e+00,0.000000000000000000e+00
5.950000000000000000e+02,1.080514293128745917e+00,0.000000000000000000e+00
5.960000000000000000e+02,1.128429885676238698e+00,0.000000000000000000e+00
5.970000000000000000e+02,4.553843288973267733e-01,0.000000000000000000e+00
5.980000000000000000e+02,-1.439474592116699314e-01,0.000000000000000000e+00
5.990000000000000000e+02,-7.725143104454097465e-01,0.000000000000000000e+00
6.000000000000000000e+02,-9.804685307669879224e-01,0.000000000000000000e+00
6.010000000000000000e+02,-8.290246269220430397e-01,0.000000000000000000e+00
6.020000000000000000e+02,-9.861235087398962929e-01,0.000000000000000000e+00
6.030000000000000000e+02,-7.897390743367390664e-01,0.000000000000000000e+00
6.040000000000000000e+02,-9.262955095035106945e-01,0.000000000000000000e+00
6.050000000000000000e+02,-6.877346381428773858e-01,0.000000000000000000e+00
6.060000000000000000e+02,-6.068326191534948455e-01,0.000000000000000000e+00
6.070000000000000000e+02,-5.708171442957695740e-01,0.000000000000000000e+00
6.080000000000000000e+02,-5.075513044394760476e-01,0.000000000000000000e+00
6.090000000000000000e+02,-4.088105688381819536e-01,0.000000000000000000e+00
6.100000000000000000e+02,-2.926563824777228540e-01,0.000000000000000000e+00
6.110000000000000000e+02,-4.206010536696571656e-01,0.000000000000000000e+00
6.120000000000000000e+02,-3.459576765594971071e-01,0.000000000000000000e+00
6.130000000000000000e+02,-1.390702137632277013e-01,0.000000000000000000e+00
6.140000000000000000e+02,-2.567885890273468585e-01,0.000000000000000000e+00
6.150000000000000000e+02,-6.651241564301083042e-02,0.000000000000000000e+00
6.160000000000000000e+02,-2.158410409093454718e-01,0.000000000000000000e+00
6.170000000000000000e+02,-4.830046874207256924e-02,0.000000000000000000e+00
6.180000000000000000e+02,3.397055544188352233e-02,0.000000000000000000e+00
6.190000000000000000e+02,3.743444978113532051e-01,0.000000000000000000e+00
6.200000000000000000e+02,4.934668827734591812e-01,0.000000000000000000e+00
6.210000000000000000e+02,2.995213937880971677e-01,0.000000000000000000e+00
6.220000000000000000e+02,1.841159734702178807e-01,0.000000000000000000e+00
6.230000000000000000e+02,-1.463274595479189810e-01,0.000000000000000000e+00
6.240000000000000000e+02,-1.568504469766888731e-01,0.000000000000000000e+00
6.250000000000000000e+02,-7.258411392724088695e-02,0.000000000000000000e+00
6.260000000000000000e+02,-2.428779658408375119e-01,0.000000000000000000e+00
6.270000000000000000e+02,1.090824772229223999e-01,0.000000000000000000e+00
6.280000000000000000e+02,-6.252846971684594690e-02,0.000000000000000000e+00
6.290000000000000000e+02,3.393962424306784520e+00,0.000000000000000000e+00
6.300000000000000000e+02,7.118385650877268045e-01,1.000000000000000000e+00
6.310000000000000000e+02,-2.332167480006334337e+00,0.000000000000000000e+00
6.320000000000000000e+02,-8.387485347425097659e-01,0.000000000000000000e+00
6.330000000000000000e+02,-1.212382050785838078e-01,0.000000000000000000e+00
6.340000000000000000e+02,3.176054448388959672e-01,0.000000000000000000e+00
6.350000000000000000e+02,2.130470650371064645e-01,0.000000000000000000e+00
6.360000000000000000e+02,4.062141070302952017e-01,0.000000000000000000e+00
6.370000000000000000e+02,3.355638063780925773e-01,0.000000000000000000e+00
6.380000000000000000e+02,5.082810151816826716e-01,0.000000000000000000e+00
6.390000000000000000e+02,5.721294624533236339e-01,0.000000000000000000e+00
6.400000000000000000e+02,8.496725071168612642e-01,0.000000000000000000e+00
6.410000000000000000e+02,8.146982960121880168e-01,0.000000000000000000e+00
6.420000000000000000e+02,1.207534858444761827e+00,0.000000000000000000e+00
6.430000000000000000e+02,1.297368705088335794e+00,0.000000000000000000e+00
6.440000000000000000e+02,9.247181267482170730e-01,0.000000000000000000e+00
6.450000000000000000e+02,5.477967035851164512e-01,0.000000000000000000e+00
6.460000000000000000e+02,-2.128131830709554251e-01,0.000000000000000000e+00
6.470000000000000000e+02,-5.199052232592076273e-01,0.000000000000000000e+00
6.480000000000000000e+02,-9.716485471620988079e-01,0.000000000000000000e+00
6.490000000000000000e+02,-9.234093170854460464e-01,0.000000000000000000e+00
6.500000000000000000e+02,-9.748672932385249457e-01,0.000000000000000000e+00
6.510000000000000000e+02,-7.524412825779358549e-01,0.000000000000000000e+00
6.520000000000000000e+02,-6.787796223611222146e-01,0.000000000000000000e+00
6.530000000000000000e+02,-6.636259874557656202e-01,0.000000000000000000e+00
6.540000000000000000e+02,-6.366936398582215828e-01,0.000000000000000000e+00
6.550000000000000000e+02,-5.742882753955931285e-01,0.000000000000000000e+00
6.560000000000000000e+02,-2.968872307188434867e-01,0.000000000000000000e+00
6.570000000000000000e+02,-5.346067133068516108e-01,0.000000000000000000e+00
6.580000000000000000e+02,-2.398537416364534824e-01,0.000000000000000000e+00
6.590000000000000000e+02,-2.645036290851838223e-01,0.000000000000000000e+00
6.600000000000000000e+02,-3.091625633289542541e-01,0.000000000000000000e+00
6.610000000000000000e+02,-2.823208316791823713e-01,0.000000000000000000e+00
6.620000000000000000e+02,-1.966920989825041433e-01,0.000000000000000000e+00
6.630000000000000000e+02,-2.233625859807825687e-01,0.000000000000000000e+00
6.640000000000000000e+02,1.589085967623694515e-02,0.000000000000000000e+00
6.650000000000000000e+02,-4.558722690468632738e-02,0.000000000000000000e+00
6.660000000000000000e+02,9.286001178534517356e-03,0.000000000000000000e+00
6.670000000000000000e+02,1.550492671251759158e-01,0.000000000000000000e+00
6.680000000000000000e+02,2.092067846825401423e-01,0.000000000000000000e+00
6.690000000000000000e+02,6.320611559688802394e-01,0.000000000000000000e+00
6.700000000000000000e+02,3.624860929533088583e-01,0.000000000000000000e+00
6.710000000000000000e+02,2.505645385191522245e-01,0.000000000000000000e+00
6.720000000000000000e+02,1.301859595532204282e-02,0.000000000000000000e+00
6.730000000000000000e+02,-1.760078357004121186e-01,0.000000000000000000e+00
6.740000000000000000e+02,-1.118185972180856247e-01,0.000000000000000000e+00
6.750000000000000000e+02,-1.378029184193975687e-01,0.000000000000000000e+00
6.760000000000000000e+02,6.266454487742413593e-03,0.000000000000000000e+00
6.770000000000000000e+02,1.573308616651435954e-01,0.000000000000000000e+00
6.780000000000000000e+02,3.592773123254730638e+00,0.000000000000000000e+00
6.790000000000000000e+02,5.777696067263862756e-02,1.000000000000000000e+00
6.800000000000000000e+02,-2.338755500525855346e+00,0.000000000000000000e+00
6.810000000000000000e+02,-7.498737141746469881e-01,0.000000000000000000e+00
6.820000000000000000e+02,-2.263439716578810948e-02,0.000000000000000000e+00
6.830000000000000000e+02,1.816693398386846625e-01,0.000000000000000000e+00
6.840000000000000000e+02,1.054533544889667968e-01,0.000000000000000000e+00
6.850000000000000000e+02,4.363168192565946013e-01,0.000000000000000000e+00
6.860000000000000000e+02,2.679667738310063663e-01,0.000000000000000000e+00
6.870000000000000000e+02,6.630235776198618591e-01,0.000000000000000000e+00
6.880000000000000000e+02,3.604920250519692559e-01,0.000000000000000000e+00
6.890000000000000000e+02,8.503321204107386899e-01,0.000000000000000000e+00
6.900000000000000000e+02,7.602362059716707421e-01,0.000000000000000000e+00
6.910000000000000000e+02,1.326271088685029520e+00,0.000000000000000000e+00
6.920000000000000000e+02,1.158621294875179286e+00,0.000000000000000000e+00
6.930000000000000000e+02,1.052034415936078604e+00,0.000000000000000000e+00
6.940000000000000000e+02,3.976511203540756267e-01,0.000000000000000000e+00
6.950000000000000000e+02,-2.519685069896258067e-01,0.000000000000000000e+00
6.960000000000000000e+02,-7.413205343087794219e-01,0.000000000000000000e+00
6.970000000000000000e+02,-1.019452043669152319e+00,0.000000000000000000e+00
6.980000000000000000e+02,-8.778702368014726920e-01,0.000000000000000000e+00
6.990000000000000000e+02,-8.564716215247616393e-01,0.000000000000000000e+00
7.000000000000000000e+02,-9.098303779258157808e-01,0.000000000000000000e+00
7.010000000000000000e+02,-6.756730005477261658e-01,0.000000000000000000e+00
7.020000000000000000e+02,-8.268450751546175814e-01,0.000000000000000000e+00
7.030000000000000000e+02,-3.409602661278882674e-01,0.000000000000000000e+00
7.040000000000000000e+02,-6.723981497090200099e-01,0.000000000000000000e+00
7.050000000000000000e+02,-1.589530013911213124e-01,0.000000000000000000e+00
7.060000000000000000e+02,-5.230480900325528149e-01,0.000000000000000000e+00
7.070000000000000000e+02,-1.501488130425779333e-01,0.000000000000000000e+00
7.080000000000000000e+02,-3.379499429456280790e-01,0.000000000000000000e+00
7.090000000000000000e+02,-9.538429166991521657e-02,0.000000000000000000e+00
7.100000000000000000e+02,-3.200353867606037239e-01,0.000000000000000000e+00
7.110000000000000000e+02,-1.552624534553792013e-01,0.000000000000000000e+00
7.120000000000000000e+02,-1.696447206696237442e-01,0.000000000000000000e+00
7.130000000000000000e+02,-1.078765414959946371e-02,0.000000000000000000e+00
7.140000000000000000e+02,-2.352026550775437319e-01,0.000000000000000000e+00
7.150000000000000000e+02,1.860980449609813681e-01,0.000000000000000000e+00
7.160000000000000000e+02,-1.180093528949186475e-02,0.000000000000000000e+00
7.170000000000000000e+02,2.059487302960330835e-01,0.000000000000000000e+00
7.180000000000000000e+02,4.085769415542455651e-01,0.000000000000000000e+00
7.190000000000000000e+02,4.767790818069009284e-01,0.000000000000000000e+00
7.200000000000000000e+02,3.260271981680973319e-01,0.000000000000000000e+00
7.210000000000000000e+02,1.208074809916841602e-01,0.000000000000000000e+00
7.220000000000000000e+02,-2.744328089482633293e-01,0.000000000000000000e+00
7.230000000000000000e+02,4.768505890773480291e-03,0.000000000000000000e+00
7.240000000000000000e+02,-2.619282330857336527e-01,0.000000000000000000e+00
7.250000000000000000e+02,1.456477577079027530e-01,0.000000000000000000e+00
7.260000000000000000e+02,-2.897083291478442790e-01,0.000000000000000000e+00
7.270000000000000000e+02,2.459438672562729522e+00,0.000000000000000000e+00
7.280000000000000000e+02,2.258727310600280092e+00,0.000000000000000000e+00
7.290000000000000000e+02,-2.310327179932023078e+00,1.000000000000000000e+00
7.300000000000000000e+02,-1.264692005737541258e+00,0.000000000000000000e+00
7.310000000000000000e+02,-2.424904195906713300e-01,0.000000000000000000e+00
7.320000000000000000e+02,1.770415337562405989e-01,0.000000000000000000e+00
7.330000000000000000e+02,2.377718653223667433e-01,0.000000000000000000e+00
7.340000000000000000e+02,2.804541399773394783e-01,0.000000000000000000e+00
7.350000000000000000e+02,5.473972114687638557e-01,0.000000000000000000e+00
7.360000000000000000e+02,2.548715072473722310e-01,0.000000000000000000e+00
7.370000000000000000e+02,5.072573580883834587e-01,0.000000000000000000e+00
7.380000000000000000e+02,8.678408223234013175e-01,0.000000000000000000e+00
7.390000000000000000e+02,8.200626576564149506e-01,0.000000000000000000e+00
7.400000000000000000e+02,1.239687978291684534e+00,0.000000000000000000e+00
7.410000000000000000e+02,1.352657451622212292e+00,0.000000000000000000e+00
7.420000000000000000e+02,1.080514573663737377e+00,0.000000000000000000e+00
7.430000000000000000e+02,7.164022377614991388e-01,0.000000000000000000e+00
7.440000000000000000e+02,4.972574213195224933e-03,0.000000000000000000e+00
7.450000000000000000e+02,-5.581893621773609260e-01,0.000000000000000000e+00
7.460000000000000000e+02,-9.510221119124094846e-01,0.000000000000000000e+00
7.470000000000000000e+02,-9.427226370422192581e-01,0.000000000000000000e+00
7.480000000000000000e+02,-8.219757440885268052e-01,0.000000000000000000e+00
7.490000000000000000e+02,-9.561620377775347235e-01,0.000000000000000000e+00
7.500000000000000000e+02,-7.048417097992453195e-01,0.000000000000000000e+00
7.510000000000000000e+02,-8.351216041373963339e-01,0.000000000000000000e+00
7.520000000000000000e+02,-5.997106778502041546e-01,0.000000000000000000e+00
7.530000000000000000e+02,-5.263363697666253449e-01,0.000000000000000000e+00
7.540000000000000000e+02,-4.254842545520287622e-01,0.000000000000000000e+00
7.550000000000000000e+02,-4.550656575428489448e-01,0.000000000000000000e+00
7.560000000000000000e+02,-4.539421148836533804e-01,0.000000000000000000e+00
7.570000000000000000e+02,-3.960773567211248181e-01,0.000000000000000000e+00
7.580000000000000000e+02,-3.584859831807423736e-01,0.000000000000000000e+00
7.590000000000000000e+02,-2.975569406575530040e-01,0.000000000000000000e+00
7.600000000000000000e+02,-4.327178232694081084e-01,0.000000000000000000e+00
7.610000000000000000e+02,-1.369957729432326743e-01,0.000000000000000000e+00
7.620000000000000000e+02,-3.294758908039195355e-01,0.000000000000000000e+00
7.630000000000000000e+02,3.009645993161626232e-02,0.000000000000000000e+00
7.640000000000000000e+02,-1.326079485072432229e-01,0.000000000000000000e+00
7.650000000000000000e+02,6.330674626933339988e-02,0.000000000000000000e+00
7.660000000000000000e+02,-1.245416071064636282e-01,0.000000000000000000e+00
7.670000000000000000e+02,3.378020278139133858e-01,0.000000000000000000e+00
7.680000000000000000e+02,6.559797896841025322e-01,0.000000000000000000e+00
7.690000000000000000e+02,4.563569264153519156e-01,0.000000000000000000e+00
7.700000000000000000e+02,2.803878124328483268e-01,0.000000000000000000e+00
7.710000000000000000e+02,-2.019956982221100816e-02,0.000000000000000000e+00
7.720000000000000000e+02,-2.006720688708786282e-01,0.000000000000000000e+00
7.730000000000000000e+02,-1.317903427553886453e-01,0.000000000000000000e+00
7.740000000000000000e+02,-1.046937172289975765e-01,0.000000000000000000e+00
7.750000000000000000e+02,1.422390760248134489e-01,0.000000000000000000e+00
7.760000000000000000e+02,-3.562603353997777500e-01,0.000000000000000000e+00
7.770000000000000000e+02,2.507737589949500467e+00,0.000000000000000000e+00
7.780000000000000000e+02,2.145250313153129973e+00,0.000000000000000000e+00
7.790000000000000000e+02,-2.395036290337014151e+00,1.000000000000000000e+00
7.800000000000000000e+02,-1.295684975718772947e+00,0.000000000000000000e+00
7.810000000000000000e+02,-1.817242902829882822e-01,0.000000000000000000e+00
7.820000000000000000e+02,1.073824377341539849e-01,0.000000000000000000e+00
7.830000000000000000e+02,2.239776807116841961e-01,0.000000000000000000e+00
7.840000000000000000e+02,3.964347928262922927e-01,0.000000000000000000e+00
7.850000000000000000e+02,1.935657095611750533e-01,0.000000000000000000e+00
7.860000000000000000e+02,6.605125327108991584e-01,0.000000000000000000e+00
7.870000000000000000e+02,3.834671910437725817e-01,0.000000000000000000e+00
7.880000000000000000e+02,8.183797461178611288e-01,0.000000000000000000e+00
7.890000000000000000e+02,9.145054626597631797e-01,0.000000000000000000e+00
7.900000000000000000e+02,1.207046538446698403e+00,0.000000000000000000e+00
7.910000000000000000e+02,1.310192034171536513e+00,0.000000000000000000e+00
7.920000000000000000e+02,1.187822070879672065e+00,0.000000000000000000e+00
7.930000000000000000e+02,7.254220954107405417e-01,0.000000000000000000e+00
7.940000000000000000e+02,-3.647329178742444999e-02,0.000000000000000000e+00
7.950000000000000000e+02,-4.914849206313237073e-01,0.000000000000000000e+00
7.960000000000000000e+02,-8.162209592539665381e-01,0.000000000000000000e+00
7.970000000000000000e+02,-9.607197506892687366e-01,0.000000000000000000e+00
7.980000000000000000e+02,-9.351047140558842452e-01,0.000000000000000000e+00
7.990000000000000000e+02,-8.590369909565412909e-01,0.000000000000000000e+00
8.000000000000000000e+02,-9.889311826728390820e-01,0.000000000000000000e+00
8.010000000000000000e+02,-5.566114596174490670e-01,0.000000000000000000e+00
8.020000000000000000e+02,-6.402075290237493332e-01,0.000000000000000000e+00
8.030000000000000000e+02,-4.967411869419905424e-01,0.000000000000000000e+00
8.040000000000000000e+02,-4.636045598647944299e-01,0.000000000000000000e+00
8.050000000000000000e+02,-4.927025131277771308e-01,0.000000000000000000e+00
8.060000000000000000e+02,-4.207462931854229482e-01,0.000000000000000000e+00
8.070000000000000000e+02,-3.511728426039841255e-01,0.000000000000000000e+00
8.080000000000000000e+02,-3.477279929694584437e-01,0.000000000000000000e+00
8.090000000000000000e+02,-3.417700433446251851e-01,0.000000000000000000e+00
8.100000000000000000e+02,-2.535589374493021353e-01,0.000000000000000000e+00
8.110000000000000000e+02,-3.189835140233090449e-01,0.000000000000000000e+00
8.120000000000000000e+02,-3.676929008491042206e-02,0.000000000000000000e+00
8.130000000000000000e+02,-2.468610449037965671e-01,0.000000000000000000e+00
8.140000000000000000e+02,-1.386145650147689590e-01,0.000000000000000000e+00
8.150000000000000000e+02,1.139092666405289167e-01,0.000000000000000000e+00
8.160000000000000000e+02,-9.201764698006795196e-02,0.000000000000000000e+00
8.170000000000000000e+02,4.049888061424854468e-01,0.000000000000000000e+00
8.180000000000000000e+02,3.556583119300172902e-01,0.000000000000000000e+00
8.190000000000000000e+02,5.256062673319380485e-01,0.000000000000000000e+00
8.200000000000000000e+02,3.534142120877800108e-01,0.000000000000000000e+00
8.210000000000000000e+02,2.173901083522109534e-01,0.000000000000000000e+00
8.220000000000000000e+02,-1.998833228976504839e-01,0.000000000000000000e+00
8.230000000000000000e+02,-1.412499010438597324e-01,0.000000000000000000e+00
8.240000000000000000e+02,-1.461944069104343102e-01,0.000000000000000000e+00
8.250000000000000000e+02,9.254751766910260247e-02,0.000000000000000000e+00
8.260000000000000000e+02,-2.474336495020946214e-01,0.000000000000000000e+00
8.270000000000000000e+02,1.315417614314546402e+00,0.000000000000000000e+00
8.280000000000000000e+02,3.086923822594033862e+00,0.000000000000000000e+00
8.290000000000000000e+02,-1.325517746709043543e+00,1.000000000000000000e+00
8.300000000000000000e+02,-2.081367969614263291e+00,0.000000000000000000e+00
8.310000000000000000e+02,-3.529905666617962900e-01,0.000000000000000000e+00
8.320000000000000000e+02,3.105085416420901856e-01,0.000000000000000000e+00
8.330000000000000000e+02,2.669999057243030993e-01,0.000000000000000000e+00
8.340000000000000000e+02,4.750662952910382764e-01,0.000000000000000000e+00
8.350000000000000000e+02,4.716178445005866360e-01,0.000000000000000000e+00
8.360000000000000000e+02,5.026450548680631014e-01,0.000000000000000000e+00
8.370000000000000000e+02,6.502615908017073121e-01,0.000000000000000000e+00
8.380000000000000000e+02,9.293705562863981973e-01,0.000000000000000000e+00
8.390000000000000000e+02,7.667685347283531572e-01,0.000000000000000000e+00
8.400000000000000000e+02,1.181370758339469029e+00,0.000000000000000000e+00
8.410000000000000000e+02,1.380147522643463409e+00,0.000000000000000000e+00
8.420000000000000000e+02,1.238234932856564052e+00,0.000000000000000000e+00
8.430000000000000000e+02,8.920496382557147053e-01,0.000000000000000000e+00
8.440000000000000000e+02,3.064805290416052763e-01,0.000000000000000000e+00
8.450000000000000000e+02,-3.494845790109337713e-01,0.000000000000000000e+00
8.460000000000000000e+02,-8.062885445779343074e-01,0.000000000000000000e+00
8.470000000000000000e+02,-1.054102195503755057e+00,0.000000000000000000e+00
8.480000000000000000e+02,-1.050034138924810012e+00,0.000000000000000000e+00
8.490000000000000000e+02,-9.946863089724731211e-01,0.000000000000000000e+00
8.500000000000000000e+02,-8.502896456064951147e-01,0.000000000000000000e+00
8.510000000000000000e+02,-7.928453200549834268e-01,0.000000000000000000e+00
8.520000000000000000e+02,-6.389221808714001805e-01,0.000000000000000000e+00
8.530000000000000000e+02,-5.752873699275653507e-01,0.000000000000000000e+00
8.540000000000000000e+02,-5.598617875825374623e-01,0.000000000000000000e+00
8.550000000000000000e+02,-5.244427087456010605e-01,0.000000000000000000e+00
8.560000000000000000e+02,-3.560364420368802296e-01,0.000000000000000000e+00
8.570000000000000000e+02,-5.814890676398994929e-01,0.000000000000000000e+00
8.580000000000000000e+02,-2.271795633983870466e-01,0.000000000000000000e+00
8.590000000000000000e+02,-3.200505734890859988e-01,0.000000000000000000e+00
8.600000000000000000e+02,-4.341773378818183371e-01,0.000000000000000000e+00
8.610000000000000000e+02,-1.243263723024045503e-01,0.000000000000000000e+00
8.620000000000000000e+02,-2.413659158590122367e-01,0.000000000000000000e+00
8.630000000000000000e+02,-2.225753494148794143e-01,0.000000000000000000e+00
8.640000000000000000e+02,-1.514188640422730325e-01,0.000000000000000000e+00
8.650000000000000000e+02,-4.016744363855371657e-04,0.000000000000000000e+00
8.660000000000000000e+02,1.807078432030626569e-01,0.000000000000000000e+00
8.670000000000000000e+02,2.756050798263819379e-01,0.000000000000000000e+00
8.680000000000000000e+02,4.587084584769758333e-01,0.000000000000000000e+00
8.690000000000000000e+02,3.323342307266280438e-01,0.000000000000000000e+00
8.700000000000000000e+02,1.854096319087869260e-01,0.000000000000000000e+00
8.710000000000000000e+02,-2.493664889664614498e-02,0.000000000000000000e+00
8.720000000000000000e+02,-2.515653126024353647e-01,0.000000000000000000e+00
8.730000000000000000e+02,-8.211380026011438904e-02,0.000000000000000000e+00
8.740000000000000000e+02,-1.487485409784245483e-01,0.000000000000000000e+00
8.750000000000000000e+02,2.269984852737801928e-01,0.000000000000000000e+00
8.760000000000000000e+02,-1.476420313276129714e-01,0.000000000000000000e+00
8.770000000000000000e+02,3.603903049062569863e+00,0.000000000000000000e+00
8.780000000000000000e+02,2.181005199838043640e-01,1.000000000000000000e+00
8.790000000000000000e+02,-2.465324426878093167e+00,0.000000000000000000e+00
8.800000000000000000e+02,-1.091771797138493039e+00,0.000000000000000000e+00
8.810000000000000000e+02,-2.087548954200043883e-01,0.000000000000000000e+00
8.820000000000000000e+02,4.170795521671932238e-01,0.000000000000000000e+00
8.830000000000000000e+02,3.594320222982145263e-01,0.000000000000000000e+00
8.840000000000000000e+02,5.986916996487885445e-01,0.000000000000000000e+00
8.850000000000000000e+02,5.046150897238551591e-01,0.000000000000000000e+00
8.860000000000000000e+02,5.125942237696824444e-01,0.000000000000000000e+00
8.870000000000000000e+02,6.504975857506359871e-01,0.000000000000000000e+00
8.880000000000000000e+02,9.339666401528242679e-01,0.000000000000000000e+00
8.890000000000000000e+02,1.223888247664140838e+00,0.000000000000000000e+00
8.900000000000000000e+02,1.342887840273516487e+00,0.000000000000000000e+00
8.910000000000000000e+02,1.289483960745026581e+00,0.000000000000000000e+00
8.920000000000000000e+02,1.016665342515731707e+00,0.000000000000000000e+00
8.930000000000000000e+02,6.102967683013750255e-01,0.000000000000000000e+00
8.940000000000000000e+02,-9.281399950375870955e-02,0.000000000000000000e+00
8.950000000000000000e+02,-8.056839022363784242e-01,0.000000000000000000e+00
8.960000000000000000e+02,-8.689321382823793627e-01,0.000000000000000000e+00
8.970000000000000000e+02,-9.695884592619219422e-01,0.000000000000000000e+00
8.980000000000000000e+02,-9.688299013226436829e-01,0.000000000000000000e+00
8.990000000000000000e+02,-9.452794746050594554e-01,0.000000000000000000e+00
9.000000000000000000e+02,-8.873026828252810194e-01,0.000000000000000000e+00
9.010000000000000000e+02,-5.487139064960686596e-01,0.000000000000000000e+00
9.020000000000000000e+02,-6.083377224552469764e-01,0.000000000000000000e+00
9.030000000000000000e+02,-5.029613079626342742e-01,0.000000000000000000e+00
9.040000000000000000e+02,-6.472286295256424182e-01,0.000000000000000000e+00
9.050000000000000000e+02,-4.336398671887654044e-01,0.000000000000000000e+00
9.060000000000000000e+02,-3.536545249612033648e-01,0.000000000000000000e+00
9.070000000000000000e+02,-4.499621038146726648e-01,0.000000000000000000e+00
9.080000000000000000e+02,-3.014801400656427210e-01,0.000000000000000000e+00
9.090000000000000000e+02,-3.345388164376844609e-01,0.000000000000000000e+00
9.100000000000000000e+02,-2.282960556310948963e-01,0.000000000000000000e+00
9.110000000000000000e+02,-2.750990449912207314e-01,0.000000000000000000e+00
9.120000000000000000e+02,-1.523346898750867762e-01,0.000000000000000000e+00
9.130000000000000000e+02,-3.387789832026873171e-02,0.000000000000000000e+00
9.140000000000000000e+02,2.649931363299923141e-04,0.000000000000000000e+00
9.150000000000000000e+02,1.665698665601858530e-01,0.000000000000000000e+00
9.160000000000000000e+02,3.290803795697859191e-01,0.000000000000000000e+00
9.170000000000000000e+02,6.619580815823190578e-01,0.000000000000000000e+00
9.180000000000000000e+02,3.072810086592224210e-01,0.000000000000000000e+00
9.190000000000000000e+02,9.883188947800872204e-02,0.000000000000000000e+00
9.200000000000000000e+02,-4.592003064031718318e-01,0.000000000000000000e+00
9.210000000000000000e+02,-9.776887339679138367e-02,0.000000000000000000e+00
9.220000000000000000e+02,-2.654176447753946455e-01,0.000000000000000000e+00
9.230000000000000000e+02,2.283792277187612352e-01,0.000000000000000000e+00
9.240000000000000000e+02,-3.274513832321507278e-01,0.000000000000000000e+00
9.250000000000000000e+02,2.110281953109951925e+00,0.000000000000000000e+00
9.260000000000000000e+02,2.243442048420824175e+00,0.000000000000000000e+00
9.270000000000000000e+02,-2.291828431588720960e+00,1.000000000000000000e+00
9.280000000000000000e+02,-1.536096626435961010e+00,0.000000000000000000e+00
9.290000000000000000e+02,-3.898134536006164219e-01,0.000000000000000000e+00
9.300000000000000000e+02,4.245570767223739161e-01,0.000000000000000000e+00
9.310000000000000000e+02,2.331494723052689733e-01,0.000000000000000000e+00
9.320000000000000000e+02,6.111841843527020535e-01,0.000000000000000000e+00
9.330000000000000000e+02,5.525308607753447454e-01,0.000000000000000000e+00
9.340000000000000000e+02,5.532817143498127699e-01,0.000000000000000000e+00
9.350000000000000000e+02,5.535155174973467318e-01,0.000000000000000000e+00
9.360000000000000000e+02,9.129084675380123581e-01,0.000000000000000000e+00
9.370000000000000000e+02,7.642438910989610701e-01,0.000000000000000000e+00
9.380000000000000000e+02,1.433543548300103998e+00,0.000000000000000000e+00
9.390000000000000000e+02,1.316595934601112239e+00,0.000000000000000000e+00
9.400000000000000000e+02,1.176604267810501092e+00,0.000000000000000000e+00
9.410000000000000000e+02,8.564614229092629705e-01,0.000000000000000000e+00
9.420000000000000000e+02,3.300943154425283518e-03,0.000000000000000000e+00
9.430000000000000000e+02,-3.930180445306484804e-01,0.000000000000000000e+00
9.440000000000000000e+02,-8.318344063818861045e-01,0.000000000000000000e+00
9.450000000000000000e+02,-9.129518488680722355e-01,0.000000000000000000e+00
9.460000000000000000e+02,-1.035186194374647650e+00,0.000000000000000000e+00
9.470000000000000000e+02,-9.116454301150040962e-01,0.000000000000000000e+00
9.480000000000000000e+02,-6.910732783952451275e-01,0.000000000000000000e+00
9.490000000000000000e+02,-7.167448134445660868e-01,0.000000000000000000e+00
9.500000000000000000e+02,-6.422628377396286670e-01,0.000000000000000000e+00
9.510000000000000000e+02,-5.973232927568322692e-01,0.000000000000000000e+00
9.520000000000000000e+02,-3.690329775683123814e-01,0.000000000000000000e+00
9.530000000000000000e+02,-3.462485664414136077e-01,0.000000000000000000e+00
9.540000000000000000e+02,-4.098421874459500236e-01,0.000000000000000000e+00
9.550000000000000000e+02,-3.779397551903407315e-01,0.000000000000000000e+00
9.560000000000000000e+02,-4.335919322892712868e-01,0.000000000000000000e+00
9.570000000000000000e+02,-2.273094852524213116e-01,0.000000000000000000e+00
9.580000000000000000e+02,-1.256980835565172094e-01,0.000000000000000000e+00
9.590000000000000000e+02,-2.760645090926937550e-01,0.000000000000000000e+00
9.600000000000000000e+02,-1.798035953883040383e-01,0.000000000000000000e+00
9.610000000000000000e+02,-1.311603357530481961e-01,0.000000000000000000e+00
9.620000000000000000e+02,-7.011522990831733915e-02,0.000000000000000000e+00
9.630000000000000000e+02,1.790538886739966862e-01,0.000000000000000000e+00
9.640000000000000000e+02,2.930158257387240894e-01,0.000000000000000000e+00
9.650000000000000000e+02,3.217171940345635583e-01,0.000000000000000000e+00
9.660000000000000000e+02,2.460475919351000351e-01,0.000000000000000000e+00
9.670000000000000000e+02,1.766490332967555754e-01,0.000000000000000000e+00
9.680000000000000000e+02,-3.551276628785002276e-02,0.000000000000000000e+00
9.690000000000000000e+02,-1.801280334504887504e-01,0.000000000000000000e+00
9.700000000000000000e+02,-2.941950575762862785e-01,0.000000000000000000e+00
9.710000000000000000e+02,5.443216749113224078e-06,0.000000000000000000e+00
9.720000000000000000e+02,-3.464909563916483415e-01,0.000000000000000000e+00
9.730000000000000000e+02,1.038604402826987183e+00,0.000000000000000000e+00
9.740000000000000000e+02,3.127132895972879467e+00,0.000000000000000000e+00
9.750000000000000000e+02,-1.420537386897831045e+00,1.000000000000000000e+00
9.760000000000000000e+02,-2.103627227379977427e+00,0.000000000000000000e+00
9.770000000000000000e+02,-6.564852117689372601e-01,0.000000000000000000e+00
9.780000000000000000e+02,2.107127986834696209e-01,0.000000000000000000e+00
9.790000000000000000e+02,3.321776902502106554e-01,0.000000000000000000e+00
9.800000000000000000e+02,4.424910184761792764e-01,0.000000000000000000e+00
9.810000000000000000e+02,5.057712490575221320e-01,0.000000000000000000e+00
9.820000000000000000e+02,4.847309878789607951e-01,0.000000000000000000e+00
9.830000000000000000e+02,6.776851579225158240e-01,0.000000000000000000e+00
9.840000000000000000e+02,6.203652626916631441e-01,0.000000000000000000e+00
9.850000000000000000e+02,9.859765487756612101e-01,0.000000000000000000e+00
9.860000000000000000e+02,1.129868749718285770e+00,0.000000000000000000e+00
9.870000000000000000e+02,1.252133876137227153e+00,0.000000000000000000e+00
9.880000000000000000e+02,1.132082868547261256e+00,0.000000000000000000e+00
9.890000000000000000e+02,8.824179197566143218e-01,0.000000000000000000e+00
9.900000000000000000e+02,3.713437951945507409e-01,0.000000000000000000e+00
9.910000000000000000e+02,-3.634555418494566648e-01,0.000000000000000000e+00
9.920000000000000000e+02,-9.428363351817110605e-01,0.000000000000000000e+00
9.930000000000000000e+02,-8.737504506858916331e-01,0.000000000000000000e+00
9.940000000000000000e+02,-9.062282823145504373e-01,0.000000000000000000e+00
9.950000000000000000e+02,-7.860178363754636299e-01,0.000000000000000000e+00
9.960000000000000000e+02,-6.771630394634955419e-01,0.000000000000000000e+00
9.970000000000000000e+02,-8.130273830076079067e-01,0.000000000000000000e+00
9.980000000000000000e+02,-5.618642069796568883e-01,0.000000000000000000e+00
9.990000000000000000e+02,-5.263084682000550574e-01,0.000000000000000000e+00
1.000000000000000000e+03,-5.089717428207405359e-01,0.000000000000000000e+00
1.001000000000000000e+03,-3.896900447027684122e-01,0.000000000000000000e+00
1.002000000000000000e+03,-2.350172156275466828e-01,0.000000000000000000e+00
1.003000000000000000e+03,-3.638351000263112534e-01,0.000000000000000000e+00
1.004000000000000000e+03,-3.759997935508500588e-01,0.000000000000000000e+00
1.005000000000000000e+03,-2.468147741143792984e-01,0.000000000000000000e+00
1.006000000000000000e+03,-1.993426609566548158e-01,0.000000000000000000e+00
1.007000000000000000e+03,-1.190934940495546879e-01,0.000000000000000000e+00
1.008000000000000000e+03,-1.563295949861535916e-01,0.000000000000000000e+00
1.009000000000000000e+03,-6.292441006128542125e-02,0.000000000000000000e+00
1.010000000000000000e+03,-1.105982417476815277e-01,0.000000000000000000e+00
1.011000000000000000e+03,1.185200006940641398e-01,0.000000000000000000e+00
1.012000000000000000e+03,4.008733782188155792e-01,0.000000000000000000e+00
1.013000000000000000e+03,4.422216511567806929e-01,0.000000000000000000e+00
1.014000000000000000e+03,1.472985367973887461e-01,0.000000000000000000e+00
1.015000000000000000e+03,1.105648678441442240e-01,0.000000000000000000e+00
1.016000000000000000e+03,-1.773302113770084121e-01,0.000000000000000000e+00
1.017000000000000000e+03,-1.747526527285214182e-01,0.000000000000000000e+00
1.018000000000000000e+03,-1.576381169278741057e-01,0.000000000000000000e+00
1.019000000000000000e+03,4.491677185254389082e-02,0.000000000000000000e+00
1.020000000000000000e+03,-4.637610472538837292e-01,0.000000000000000000e+00
1.021000000000000000e+03,2.029558755928105196e+00,0.000000000000000000e+00
1.022000000000000000e+03,2.492995529297791002e+00,0.000000000000000000e+00
1.023000000000000000e+03,-2.039061502230736345e+00,1.000000000000000000e+00
1.024000000000000000e+03,-1.507738123019206400e+00,0.000000000000000000e+00
1.025000000000000000e+03,-2.934874707807965111e-01,0.000000000000000000e+00
1.026000000000000000e+03,1.597128776747053502e-01,0.000000000000000000e+00
1.027000000000000000e+03,2.361479687393631954e-01,0.000000000000000000e+00
1.028000000000000000e+03,3.715305270603954657e-01,0.000000000000000000e+00
1.029000000000000000e+03,4.321754879909458502e-01,0.000000000000000000e+00
1.030000000000000000e+03,5.389113751551269926e-01,0.000000000000000000e+00
1.031000000000000000e+03,4.927687321249565322e-01,0.000000000000000000e+00
1.032000000000000000e+03,7.677341034367669570e-01,0.000000000000000000e+00
1.033000000000000000e+03,8.554295766269582879e-01,0.000000000000000000e+00
1.034000000000000000e+03,1.154832575583327747e+00,0.000000000000000000e+00
1.035000000000000000e+03,1.122470504237308431e+00,0.000000000000000000e+00
1.036000000000000000e+03,1.277793381850972132e+00,0.000000000000000000e+00
1.037000000000000000e+03,6.275516596001451397e-01,0.000000000000000000e+00
1.038000000000000000e+03,1.835053963355018636e-01,0.000000000000000000e+00
1.039000000000000000e+03,-5.417354318482121567e-01,0.000000000000000000e+00
1.040000000000000000e+03,-7.900004836741608694e-01,0.000000000000000000e+00
1.041000000000000000e+03,-8.314901878612551700e-01,0.000000000000000000e+00
1.042000000000000000e+03,-8.858602184030597293e-01,0.000000000000000000e+00
1.043000000000000000e+03,-8.708066231246530675e-01,0.000000000000000000e+00
1.044000000000000000e+03,-5.994322363290197631e-01,0.000000000000000000e+00
1.045000000000000000e+03,-6.528860048244778946e-01,0.000000000000000000e+00
1.046000000000000000e+03,-5.764033948510158822e-01,0.000000000000000000e+00
1.047000000000000000e+03,-6.234310503567402906e-01,0.000000000000000000e+00
1.048000000000000000e+03,-4.535698508970593679e-01,0.000000000000000000e+00
1.049000000000000000e+03,-3.931308430924883024e-01,0.000000000000000000e+00
1.050000000000000000e+03,-2.829094939462485914e-01,0.000000000000000000e+00
1.051000000000000000e+03,-4.420344087419997847e-01,0.000000000000000000e+00
1.052000000000000000e+03,-3.865676029314243367e-01,0.000000000000000000e+00
1.053000000000000000e+03,-3.295914695405207095e-01,0.000000000000000000e+00
1.054000000000000000e+03,-1.256525635911545646e-01,0.000000000000000000e+00
1.055000000000000000e+03,-2.056447418766696456e-01,0.000000000000000000e+00
1.056000000000000000e+03,-1.287739894906382576e-01,0.000000000000000000e+00
1.057000000000000000e+03,-5.788771929175571401e-04,0.000000000000000000e+00
1.058000000000000000e+03,-1.253715561980713877e-01,0.000000000000000000e+00
1.059000000000000000e+03,1.397201505945336042e-01,0.000000000000000000e+00
1.060000000000000000e+03,4.608074276208339315e-01,0.000000000000000000e+00
1.061000000000000000e+03,5.143242551273399243e-01,0.000000000000000000e+00
1.062000000000000000e+03,2.071728687251725987e-01,0.000000000000000000e+00
1.063000000000000000e+03,1.690271839963571610e-01,0.000000000000000000e+00
1.064000000000000000e+03,-2.284519979251046773e-01,0.000000000000000000e+00
1.065000000000000000e+03,-6.233083014282692069e-02,0.000000000000000000e+00
1.066000000000000000e+03,-2.739567344596537390e-01,0.000000000000000000e+00
1.067000000000000000e+03,-2.205762278645397555e-03,0.000000000000000000e+00
1.068000000000000000e+03,-2.767383892811918211e-01,0.000000000000000000e+00
1.069000000000000000e+03,1.223490175164994032e+00,0.000000000000000000e+00
1.070000000000000000e+03,3.306318305612110375e+00,0.000000000000000000e+00
1.071000000000000000e+03,-1.416519433589931598e+00,1.000000000000000000e+00
1.072000000000000000e+03,-1.851623679390853150e+00,0.000000000000000000e+00
1.073000000000000000e+03,-3.007286850739272488e-01,0.000000000000000000e+00
1.074000000000000000e+03,-4.527681857243532476e-02,0.000000000000000000e+00
1.075000000000000000e+03,2.200791409717959557e-01,0.000000000000000000e+00
1.076000000000000000e+03,2.885179658495171107e-01,0.000000000000000000e+00
1.077000000000000000e+03,3.139332112035386202e-01,0.000000000000000000e+00
1.078000000000000000e+03,3.504070831938025377e-01,0.000000000000000000e+00
1.079000000000000000e+03,4.890028202415342418e-01,0.000000000000000000e+00
1.080000000000000000e+03,6.119020143184937810e-01,0.000000000000000000e+00
1.081000000000000000e+03,9.022947207206735154e-01,0.000000000000000000e+00
1.082000000000000000e+03,1.155719305434237176e+00,0.000000000000000000e+00
1.083000000000000000e+03,1.149211265605791343e+00,0.000000000000000000e+00
1.084000000000000000e+03,1.286878060875494389e+00,0.000000000000000000e+00
1.085000000000000000e+03,8.484788488743495449e-01,0.000000000000000000e+00
1.086000000000000000e+03,3.740369948941675848e-01,0.000000000000000000e+00
1.087000000000000000e+03,-5.952431232902428704e-01,0.000000000000000000e+00
1.088000000000000000e+03,-5.942698708282005970e-01,0.000000000000000000e+00
1.089000000000000000e+03,-1.012408148878593872e+00,0.000000000000000000e+00
1.090000000000000000e+03,-1.022744444029821231e+00,0.000000000000000000e+00
1.091000000000000000e+03,-7.963796611965540118e-01,0.000000000000000000e+00
1.092000000000000000e+03,-7.393156671618661413e-01,0.000000000000000000e+00
1.093000000000000000e+03,-7.782104015870531244e-01,0.000000000000000000e+00
1.094000000000000000e+03,-7.248583917150587252e-01,0.000000000000000000e+00
1.095000000000000000e+03,-5.303181241757528586e-01,0.000000000000000000e+00
1.096000000000000000e+03,-4.285955856392493768e-01,0.000000000000000000e+00
1.097000000000000000e+03,-3.849470353419333080e-01,0.000000000000000000e+00
1.098000000000000000e+03,-4.422681340443654352e-01,0.000000000000000000e+00
1.099000000000000000e+03,-3.382151751370057746e-01,0.000000000000000000e+00
1.100000000000000000e+03,-2.355136193026018121e-01,0.000000000000000000e+00
1.101000000000000000e+03,-2.308558853774640707e-01,0.000000000000000000e+00
1.102000000000000000e+03,-8.066632087624585334e-03,0.000000000000000000e+00
1.103000000000000000e+03,-3.393807095115051742e-01,0.000000000000000000e+00
1.104000000000000000e+03,-2.405602593091147878e-01,0.000000000000000000e+00
1.105000000000000000e+03,3.516729585828783089e-02,0.000000000000000000e+00
1.106000000000000000e+03,-5.684842140998015714e-02,0.000000000000000000e+00
1.107000000000000000e+03,5.901361545428838312e-02,0.000000000000000000e+00
1.108000000000000000e+03,3.117407632502135484e-01,0.000000000000000000e+00
1.109000000000000000e+03,3.360638631065434034e-01,0.000000000000000000e+00
1.110000000000000000e+03,5.069558320008015206e-01,0.000000000000000000e+00
1.111000000000000000e+03,1.949374670714918156e-01,0.000000000000000000e+00
1.112000000000000000e+03,-2.535862120544463486e-02,0.000000000000000000e+00
1.113000000000000000e+03,-3.944626934770370519e-01,0.000000000000000000e+00
1.114000000000000000e+03,-8.788909853650855863e-02,0.000000000000000000e+00
1.115000000000000000e+03,-7.278594431782987872e-02,0.000000000000000000e+00
1.116000000000000000e+03,8.437827536306899412e-02,0.000000000000000000e+00
1.117000000000000000e+03,-4.833683427269340749e-01,0.000000000000000000e+00
1.118000000000000000e+03,2.645743870867351966e+00,0.000000000000000000e+00
1.119000000000000000e+03,2.190348051478690383e+00,0.000000000000000000e+00
1.120000000000000000e+03,-2.253532676855270811e+00,1.000000000000000000e+00
1.121000000000000000e+03,-1.088167316906230697e+00,0.000000000000000000e+00
1.122000000000000000e+03,-2.145288711736887399e-01,0.000000000000000000e+00
1.123000000000000000e+03,9.882398800342044598e-02,0.000000000000000000e+00
1.124000000000000000e+03,9.966019186946042940e-02,0.000000000000000000e+00
1.125000000000000000e+03,4.024942271943474092e-01,0.000000000000000000e+00
1.126000000000000000e+03,2.692953870667088023e-01,0.000000000000000000e+00
1.127000000000000000e+03,3.631988562127939635e-01,0.000000000000000000e+00
1.128000000000000000e+03,5.594363330310166971e-01,0.000000000000000000e+00
1.129000000000000000e+03,5.814029070245874120e-01,0.000000000000000000e+00
1.130000000000000000e+03,8.264654074141337681e-01,0.000000000000000000e+00
1.131000000000000000e+03,1.293764314197967780e+00,0.000000000000000000e+00
1.132000000000000000e+03,1.112143472795909638e+00,0.000000000000000000e+00
1.133000000000000000e+03,1.022669031075573498e+00,0.000000000000000000e+00
1.134000000000000000e+03,6.239939999348796951e-01,0.000000000000000000e+00
1.135000000000000000e+03,-3.626893043835390656e-02,0.000000000000000000e+00
1.136000000000000000e+03,-7.315626683614082637e-01,0.000000000000000000e+00
1.137000000000000000e+03,-9.694182584736826813e-01,0.000000000000000000e+00
1.138000000000000000e+03,-9.608012543273014572e-01,0.000000000000000000e+00
1.139000000000000000e+03,-8.759180500829477634e-01,0.000000000000000000e+00
1.140000000000000000e+03,-9.307644482649066742e-01,0.000000000000000000e+00
1.141000000000000000e+03,-7.804234465380083252e-01,0.000000000000000000e+00
1.142000000000000000e+03,-7.747076227970337570e-01,0.000000000000000000e+00
1.143000000000000000e+03,-5.920866506979033383e-01,0.000000000000000000e+00
1.144000000000000000e+03,-6.092529707352828394e-01,0.000000000000000000e+00
1.145000000000000000e+03,-4.197898632488327175e-01,0.000000000000000000e+00
1.146000000000000000e+03,-3.368014636855598543e-01,0.000000000000000000e+00
1.147000000000000000e+03,-4.230904789522997311e-01,0.000000000000000000e+00
1.148000000000000000e+03,-2.002082234523610282e-01,0.000000000000000000e+00
1.149000000000000000e+03,-2.396273816276917046e-01,0.000000000000000000e+00
1.150000000000000000e+03,-2.037212168619660924e-01,0.000000000000000000e+00
1.151000000000000000e+03,-2.248154004339065759e-01,0.000000000000000000e+00
1.152000000000000000e+03,9.261876830724832810e-02,0.000000000000000000e+00
1.153000000000000000e+03,-2.101178422429717807e-01,0.000000000000000000e+00
1.154000000000000000e+03,2.720414538628981686e-03,0.000000000000000000e+00
1.155000000000000000e+03,4.156709444095539607e-02,0.000000000000000000e+00
1.156000000000000000e+03,2.456657707865037010e-02,0.000000000000000000e+00
1.157000000000000000e+03,2.451565205100474931e-01,0.000000000000000000e+00
1.158000000000000000e+03,4.210280660562966126e-01,0.000000000000000000e+00
1.159000000000000000e+03,6.264515662632803572e-01,0.000000000000000000e+00
1.160000000000000000e+03,5.128847767279932635e-01,0.000000000000000000e+00
1.161000000000000000e+03,3.060963033101218311e-01,0.000000000000000000e+00
1.162000000000000000e+03,-2.186825160190503936e-01,0.000000000000000000e+00
1.163000000000000000e+03,-1.957380662995060194e-01,0.000000000000000000e+00
1.164000000000000000e+03,-6.338994572864714572e-02,0.000000000000000000e+00
1.165000000000000000e+03,1.064185588383022713e-01,0.000000000000000000e+00
1.166000000000000000e+03,-1.520647937792077020e-01,0.000000000000000000e+00
1.167000000000000000e+03,7.561698960731912944e-01,0.000000000000000000e+00
1.168000000000000000e+03,3.589251216042763648e+00,0.000000000000000000e+00
1.169000000000000000e+03,-6.052261490059294147e-01,1.000000000000000000e+00
1.170000000000000000e+03,-2.082606798244086121e+00,0.000000000000000000e+00
1.171000000000000000e+03,-4.893825078695330233e-01,0.000000000000000000e+00
1.172000000000000000e+03,3.255439443347163397e-02,0.000000000000000000e+00
1.173000000000000000e+03,3.080534912029039285e-01,0.000000000000000000e+00
1.174000000000000000e+03,3.354683677372120032e-01,0.000000000000000000e+00
1.175000000000000000e+03,2.763159442000903687e-01,0.000000000000000000e+00
1.176000000000000000e+03,3.444826374121722212e-01,0.000000000000000000e+00
1.177000000000000000e+03,4.883964283653067784e-01,0.000000000000000000e+00
1.178000000000000000e+03,7.231855385327686792e-01,0.000000000000000000e+00
1.179000000000000000e+03,7.494191027923762238e-01,0.000000000000000000e+00
1.180000000000000000e+03,1.060200556807147532e+00,0.000000000000000000e+00
1.181000000000000000e+03,1.156682032606208166e+00,0.000000000000000000e+00
1.182000000000000000e+03,1.199320087371534616e+00,0.000000000000000000e+00
1.183000000000000000e+03,9.246541772342595777e-01,0.000000000000000000e+00
1.184000000000000000e+03,3.731886857212739494e-01,0.000000000000000000e+00
1.185000000000000000e+03,-3.763569296958571009e-01,0.000000000000000000e+00
1.186000000000000000e+03,-7.959382443671685348e-01,0.000000000000000000e+00
1.187000000000000000e+03,-9.936510022616417137e-01,0.000000000000000000e+00
1.188000000000000000e+03,-1.081079993929822125e+00,0.000000000000000000e+00
1.189000000000000000e+03,-9.275148577162238839e-01,0.000000000000000000e+00
1.190000000000000000e+03,-8.506766581104199254e-01,0.000000000000000000e+00
1.191000000000000000e+03,-8.923779883387106260e-01,0.000000000000000000e+00
1.192000000000000000e+03,-7.330241352339184058e-01,0.000000000000000000e+00
1.193000000000000000e+03,-7.100209482532485739e-01,0.000000000000000000e+00
1.194000000000000000e+03,-4.952834450264487209e-01,0.000000000000000000e+00
1.195000000000000000e+03,-5.829616820271933397e-01,0.000000000000000000e+00
1.196000000000000000e+03,-3.980375601502771366e-01,0.000000000000000000e+00
1.197000000000000000e+03,-4.693328523962412291e-01,0.000000000000000000e+00
1.198000000000000000e+03,-2.649896329150073782e-01,0.000000000000000000e+00
1.199000000000000000e+03,-2.060618993560043299e-01,0.000000000000000000e+00
1.200000000000000000e+03,-2.564368221471612364e-01,0.000000000000000000e+00
1.201000000000000000e+03,-2.453324104599429456e-01,0.000000000000000000e+00
1.202000000000000000e+03,-2.205735892364115713e-01,0.000000000000000000e+00
1.203000000000000000e+03,-8.617498291368573538e-02,0.000000000000000000e+00
1.204000000000000000e+03,-2.944555057843292745e-02,0.000000000000000000e+00
1.205000000000000000e+03,3.257538356939099211e-02,0.000000000000000000e+00
1.206000000000000000e+03,-6.310177498111324557e-02,0.000000000000000000e+00
1.207000000000000000e+03,2.528774162802838177e-01,0.000000000000000000e+00
1.208000000000000000e+03,4.984472305181595897e-01,0.000000000000000000e+00
1.209000000000000000e+03,6.540009151835222134e-01,0.000000000000000000e+00
1.210000000000000000e+03,1.497049959480236114e-01,0.000000000000000000e+00
1.211000000000000000e+03,1.195547870236651072e-01,0.000000000000000000e+00
1.212000000000000000e+03,-2.579182261811111543e-01,0.000000000000000000e+00
1.213000000000000000e+03,1.622027338142128725e-02,0.000000000000000000e+00
1.214000000000000000e+03,-3.341921101006960493e-01,0.000000000000000000e+00
1.215000000000000000e+03,1.367098667317243055e-01,0.000000000000000000e+00
1.216000000000000000e+03,-4.066755389986099201e-01,0.000000000000000000e+00
1.217000000000000000e+03,1.980068025349934979e+00,0.000000000000000000e+00
1.218000000000000000e+03,2.912563190649673395e+00,0.000000000000000000e+00
1.219000000000000000e+03,-1.891386007254985735e+00,1.000000000000000000e+00
1.220000000000000000e+03,-1.613961562618627665e+00,0.000000000000000000e+00
1.221000000000000000e+03,-4.110378473359770912e-01,0.000000000000000000e+00
1.222000000000000000e+03,2.059528109736759038e-01,0.000000000000000000e+00
1.223000000000000000e+03,1.483930628246904193e-01,0.000000000000000000e+00
1.224000000000000000e+03,4.461886254208868863e-01,0.000000000000000000e+00
1.225000000000000000e+03,2.151564157885773876e-01,0.000000000000000000e+00
1.226000000000000000e+03,5.034944459048203980e-01,0.000000000000000000e+00
1.227000000000000000e+03,5.588545708140122414e-01,0.000000000000000000e+00
1.228000000000000000e+03,6.535013894782599753e-01,0.000000000000000000e+00
1.229000000000000000e+03,8.763611784759487433e-01,0.000000000000000000e+00
1.230000000000000000e+03,1.132012197516459873e+00,0.000000000000000000e+00
1.231000000000000000e+03,1.274661879782989615e+00,0.000000000000000000e+00
1.232000000000000000e+03,1.272798866080121716e+00,0.000000000000000000e+00
1.233000000000000000e+03,7.907167660783628316e-01,0.000000000000000000e+00
1.234000000000000000e+03,2.185501593667481257e-01,0.000000000000000000e+00
1.235000000000000000e+03,-5.136263553999235176e-01,0.000000000000000000e+00
1.236000000000000000e+03,-8.024743628747822433e-01,0.000000000000000000e+00
1.237000000000000000e+03,-1.008552665702995510e+00,0.000000000000000000e+00
1.238000000000000000e+03,-1.151246118032436039e+00,0.000000000000000000e+00
1.239000000000000000e+03,-7.262487337512860686e-01,0.000000000000000000e+00
1.240000000000000000e+03,-8.846559827055832104e-01,0.000000000000000000e+00
1.241000000000000000e+03,-6.718984074068362622e-01,0.000000000000000000e+00
1.242000000000000000e+03,-7.270653189578800690e-01,0.000000000000000000e+00
1.243000000000000000e+03,-5.140556829970105435e-01,0.000000000000000000e+00
1.244000000000000000e+03,-4.314521463966655701e-01,0.000000000000000000e+00
1.245000000000000000e+03,-4.381176479557429282e-01,0.000000000000000000e+00
1.246000000000000000e+03,-2.403953086208124035e-01,0.000000000000000000e+00
1.247000000000000000e+03,-6.037709729963711691e-01,0.000000000000000000e+00
1.248000000000000000e+03,-1.913644773333131044e-01,0.000000000000000000e+00
1.249000000000000000e+03,-1.830298472679920130e-01,0.000000000000000000e+00
1.250000000000000000e+03,-1.915610581063347251e-01,0.000000000000000000e+00
1.251000000000000000e+03,-3.105106933574912631e-01,0.000000000000000000e+00
1.252000000000000000e+03,-1.690558744446921113e-01,0.000000000000000000e+00
1.253000000000000000e+03,-1.956703769749954525e-01,0.000000000000000000e+00
1.254000000000000000e+03,1.570317492437684620e-02,0.000000000000000000e+00
1.255000000000000000e+03,-7.414323698760813541e-02,0.000000000000000000e+00
1.256000000000000000e+03,5.289086478077190817e-02,0.000000000000000000e+00
1.257000000000000000e+03,3.112385158197558677e-01,0.000000000000000000e+00
1.258000000000000000e+03,3.979018531525701508e-01,0.000000000000000000e+00
1.259000000000000000e+03,4.365840695860658260e-01,0.000000000000000000e+00
1.260000000000000000e+03,3.971546605524528539e-01,0.000000000000000000e+00
1.261000000000000000e+03,1.227375014798594705e-01,0.000000000000000000e+00
1.262000000000000000e+03,-1.750683860988427043e-01,0.000000000000000000e+00
1.263000000000000000e+03,-3.587692647818131048e-02,0.000000000000000000e+00
1.264000000000000000e+03,-2.493317802791706062e-01,0.000000000000000000e+00
1.265000000000000000e+03,7.731495726094392285e-02,0.000000000000000000e+00
1.266000000000000000e+03,-2.264181844902169172e-01,0.000000000000000000e+00
1.267000000000000000e+03,1.175878738339701801e+00,0.000000000000000000e+00
1.268000000000000000e+03,3.561684081669218571e+00,0.000000000000000000e+00
1.269000000000000000e+03,-1.077077186660059027e+00,1.000000000000000000e+00
1.270000000000000000e+03,-2.123024981148219581e+00,0.000000000000000000e+00
1.271000000000000000e+03,-5.622165698603218686e-01,0.000000000000000000e+00
1.272000000000000000e+03,1.086129662878893010e-01,0.000000000000000000e+00
1.273000000000000000e+03,3.189925819728718359e-01,0.000000000000000000e+00
1.274000000000000000e+03,2.658334815793101380e-01,0.000000000000000000e+00
1.275000000000000000e+03,3.391720955167951135e-01,0.000000000000000000e+00
1.276000000000000000e+03,3.917708435892637286e-01,0.000000000000000000e+00
1.277000000000000000e+03,5.258477698796385491e-01,0.000000000000000000e+00
1.278000000000000000e+03,6.665057755661588645e-01,0.000000000000000000e+00
1.279000000000000000e+03,8.023293412258127866e-01,0.000000000000000000e+00
1.280000000000000000e+03,1.037820553924935885e+00,0.000000000000000000e+00
1.281000000000000000e+03,1.352068320685269276e+00,0.000000000000000000e+00
1.282000000000000000e+03,1.137867467029388902e+00,0.000000000000000000e+00
1.283000000000000000e+03,8.852175133029303034e-01,0.000000000000000000e+00
1.284000000000000000e+03,2.644849012871658411e-01,0.000000000000000000e+00
1.285000000000000000e+03,-3.720388044945329709e-01,0.000000000000000000e+00
1.286000000000000000e+03,-7.461857505740874252e-01,0.000000000000000000e+00
1.287000000000000000e+03,-1.113405104124662426e+00,0.000000000000000000e+00
1.288000000000000000e+03,-9.746405646583440330e-01,0.000000000000000000e+00
1.289000000000000000e+03,-1.015984361573190053e+00,0.000000000000000000e+00
1.290000000000000000e+03,-6.884328973562519050e-01,0.000000000000000000e+00
1.291000000000000000e+03,-7.407686069632215542e-01,0.000000000000000000e+00
1.292000000000000000e+03,-6.703382570193948675e-01,0.000000000000000000e+00
1.293000000000000000e+03,-6.321585016386198630e-01,0.000000000000000000e+00
1.294000000000000000e+03,-4.758463154114861426e-01,0.000000000000000000e+00
1.295000000000000000e+03,-5.756913406861176030e-01,0.000000000000000000e+00
1.296000000000000000e+03,-3.559105902380284570e-01,0.000000000000000000e+00
1.297000000000000000e+03,-4.779167246118457002e-01,0.000000000000000000e+00
1.298000000000000000e+03,-2.066642304084426729e-01,0.000000000000000000e+00
1.299000000000000000e+03,-3.465738709275373863e-01,0.000000000000000000e+00
1.300000000000000000e+03,-2.997876857293785280e-01,0.000000000000000000e+00
1.301000000000000000e+03,-1.731066802286508888e-01,0.000000000000000000e+00
1.302000000000000000e+03,-2.629310229436767621e-01,0.000000000000000000e+00
1.303000000000000000e+03,-4.792946949060944428e-02,0.000000000000000000e+00
1.304000000000000000e+03,1.560377494195847210e-02,0.000000000000000000e+00
1.305000000000000000e+03,-1.823148026896398710e-01,0.000000000000000000e+00
1.306000000000000000e+03,1.877939496483218007e-01,0.000000000000000000e+00
1.307000000000000000e+03,9.099655209765680763e-02,0.000000000000000000e+00
1.308000000000000000e+03,4.576178042130951140e-01,0.000000000000000000e+00
1.309000000000000000e+03,6.224062462434969412e-01,0.000000000000000000e+00
1.310000000000000000e+03,2.301908479857106005e-01,0.000000000000000000e+00
1.311000000000000000e+03,1.934746246389188462e-01,0.000000000000000000e+00
1.312000000000000000e+03,-2.445623534953376421e-01,0.000000000000000000e+00
1.313000000000000000e+03,-1.220457413758057608e-01,0.000000000000000000e+00
1.314000000000000000e+03,-1.535348986484161640e-02,0.000000000000000000e+00
1.315000000000000000e+03,-2.589192315348112089e-02,0.000000000000000000e+00
1.316000000000000000e+03,-1.782461757436532845e-01,0.000000000000000000e+00
1.317000000000000000e+03,8.478483921967724379e-01,0.000000000000000000e+00
1.318000000000000000e+03,3.601653144866972411e+00,0.000000000000000000e+00
1.319000000000000000e+03,-8.844450259083417309e-01,1.000000000000000000e+00
1.320000000000000000e+03,-2.243398216584989502e+00,0.000000000000000000e+00
1.321000000000000000e+03,-5.997009926414110792e-01,0.000000000000000000e+00
1.322000000000000000e+03,2.230940962849939369e-01,0.000000000000000000e+00
1.323000000000000000e+03,2.408982899527011001e-01,0.000000000000000000e+00
1.324000000000000000e+03,3.920909469052638596e-01,0.000000000000000000e+00
1.325000000000000000e+03,2.614373628771319846e-01,0.000000000000000000e+00
1.326000000000000000e+03,5.754898136041870504e-01,0.000000000000000000e+00
1.327000000000000000e+03,5.110845783422504063e-01,0.000000000000000000e+00
1.328000000000000000e+03,6.365690931756822213e-01,0.000000000000000000e+00
1.329000000000000000e+03,9.009046380061587200e-01,0.000000000000000000e+00
1.330000000000000000e+03,1.059910243125649298e+00,0.000000000000000000e+00
1.331000000000000000e+03,1.228780973293553958e+00,0.000000000000000000e+00
1.332000000000000000e+03,1.329167725540373768e+00,0.000000000000000000e+00
1.333000000000000000e+03,8.522656869122894330e-01,0.000000000000000000e+00
1.334000000000000000e+03,3.031356424551532314e-01,0.000000000000000000e+00
1.335000000000000000e+03,-2.571563628047550121e-01,0.000000000000000000e+00
1.336000000000000000e+03,-7.809744681371191266e-01,0.000000000000000000e+00
1.337000000000000000e+03,-9.590903183354927419e-01,0.000000000000000000e+00
1.338000000000000000e+03,-9.687518458072367222e-01,0.000000000000000000e+00
1.339000000000000000e+03,-9.643552192969551129e-01,0.000000000000000000e+00
1.340000000000000000e+03,-8.228190143797572409e-01,0.000000000000000000e+00
1.341000000000000000e+03,-7.396702871930892487e-01,0.000000000000000000e+00
1.342000000000000000e+03,-5.713271915996604999e-01,0.000000000000000000e+00
1.343000000000000000e+03,-6.809232522953926336e-01,0.000000000000000000e+00
1.344000000000000000e+03,-4.984268632086641393e-01,0.000000000000000000e+00
1.345000000000000000e+03,-5.155401001021121532e-01,0.000000000000000000e+00
1.346000000000000000e+03,-4.133723418671695349e-01,0.000000000000000000e+00
1.347000000000000000e+03,-4.904868277930274911e-01,0.000000000000000000e+00
1.348000000000000000e+03,-3.239286478118205137e-01,0.000000000000000000e+00
1.349000000000000000e+03,-4.452547176587952071e-01,0.000000000000000000e+00
1.350000000000000000e+03,-2.139374964175108917e-01,0.000000000000000000e+00
1.351000000000000000e+03,-2.893940855251180277e-01,0.000000000000000000e+00
1.352000000000000000e+03,-1.231710091347347352e-01,0.000000000000000000e+00
1.353000000000000000e+03,-2.270784359692859522e-01,0.000000000000000000e+00
1.354000000000000000e+03,-8.462722830259265805e-02,0.000000000000000000e+00
1.355000000000000000e+03,-1.223728919231842488e-01,0.000000000000000000e+00
1.356000000000000000e+03,1.116715768507260537e-01,0.000000000000000000e+00
1.357000000000000000e+03,8.177991441646689785e-02,0.000000000000000000e+00
1.358000000000000000e+03,2.675776141434051403e-01,0.000000000000000000e+00
1.359000000000000000e+03,5.367143008729817755e-01,0.000000000000000000e+00
1.360000000000000000e+03,5.229571704054234438e-01,0.000000000000000000e+00
1.361000000000000000e+03,8.258542138453271730e-02,0.000000000000000000e+00
1.362000000000000000e+03,6.459071281843281609e-02,0.000000000000000000e+00
1.363000000000000000e+03,-2.056704362953998000e-01,0.000000000000000000e+00
1.364000000000000000e+03,-8.615280881410952371e-03,0.000000000000000000e+00
1.365000000000000000e+03,-1.716837105669298813e-01,0.000000000000000000e+00
1.366000000000000000e+03,1.551176922694467997e-01,0.000000000000000000e+00
1.367000000000000000e+03,1.056566339784820695e-02,0.000000000000000000e+00
1.368000000000000000e+03,3.331759694376124070e+00,0.000000000000000000e+00
1.369000000000000000e+03,9.507519961042105727e-01,1.000000000000000000e+00
1.370000000000000000e+03,-2.534548399578786970e+00,0.000000000000000000e+00
1.371000000000000000e+03,-1.041585953192039504e+00,0.000000000000000000e+00
1.372000000000000000e+03,-1.500383188427776952e-02,0.000000000000000000e+00
1.373000000000000000e+03,2.513051319074850465e-01,0.000000000000000000e+00
1.374000000000000000e+03,4.097068291213032398e-01,0.000000000000000000e+00
1.375000000000000000e+03,3.926021403149472788e-01,0.000000000000000000e+00
1.376000000000000000e+03,3.908557765602716505e-01,0.000000000000000000e+00
1.377000000000000000e+03,5.854605265017600590e-01,0.000000000000000000e+00
1.378000000000000000e+03,6.486905822440054425e-01,0.000000000000000000e+00
1.379000000000000000e+03,8.683642809119965777e-01,0.000000000000000000e+00
1.380000000000000000e+03,8.232126934595604961e-01,0.000000000000000000e+00
1.381000000000000000e+03,1.221734269276729012e+00,0.000000000000000000e+00
1.382000000000000000e+03,1.362688687880843741e+00,0.000000000000000000e+00
1.383000000000000000e+03,9.446514568822278468e-01,0.000000000000000000e+00
1.384000000000000000e+03,6.178469929969581109e-01,0.000000000000000000e+00
1.385000000000000000e+03,-2.978505084678698678e-01,0.000000000000000000e+00
1.386000000000000000e+03,-5.240802353806683911e-01,0.000000000000000000e+00
1.387000000000000000e+03,-9.242917101056313811e-01,0.000000000000000000e+00
1.388000000000000000e+03,-1.064558830793919997e+00,0.000000000000000000e+00
1.389000000000000000e+03,-9.679990027144522724e-01,0.000000000000000000e+00
1.390000000000000000e+03,-9.166630432470095347e-01,0.000000000000000000e+00
1.391000000000000000e+03,-7.567361519500092060e-01,0.000000000000000000e+00
1.392000000000000000e+03,-5.909385025271554071e-01,0.000000000000000000e+00
1.393000000000000000e+03,-5.171518674125565873e-01,0.000000000000000000e+00
1.394000000000000000e+03,-5.439490099019043123e-01,0.000000000000000000e+00
1.395000000000000000e+03,-3.440098217344705889e-01,0.000000000000000000e+00
1.396000000000000000e+03,-3.700496358716106604e-01,0.000000000000000000e+00
1.397000000000000000e+03,-4.158881865279548951e-01,0.000000000000000000e+00
1.398000000000000000e+03,-2.619864341405389596e-01,0.000000000000000000e+00
1.399000000000000000e+03,-3.403300665854926965e-01,0.000000000000000000e+00
1.400000000000000000e+03,-1.924684743542662280e-01,0.000000000000000000e+00
1.401000000000000000e+03,-2.330351491897334204e-01,0.000000000000000000e+00
1.402000000000000000e+03,-2.794793964428725075e-01,0.000000000000000000e+00
1.403000000000000000e+03,-4.589853095186152698e-02,0.000000000000000000e+00
1.404000000000000000e+03,-2.202717398078877231e-01,0.000000000000000000e+00
1.405000000000000000e+03,-4.556909979934425231e-02,0.000000000000000000e+00
1.406000000000000000e+03,-5.274501948229405601e-02,0.000000000000000000e+00
1.407000000000000000e+03,9.195145613349429980e-02,0.000000000000000000e+00
1.408000000000000000e+03,1.563200629643508588e-01,0.000000000000000000e+00
1.409000000000000000e+03,4.005110324250035769e-01,0.000000000000000000e+00
1.410000000000000000e+03,6.184599108794324174e-01,0.000000000000000000e+00
1.411000000000000000e+03,1.053444773730914941e-01,0.000000000000000000e+00
1.412000000000000000e+03,1.296621042776756050e-01,0.000000000000000000e+00
1.413000000000000000e+03,-1.434245367365205859e-01,0.000000000000000000e+00
1.414000000000000000e+03,-3.026467937601102220e-01,0.000000000000000000e+00
1.415000000000000000e+03,-2.472056072915891634e-01,0.000000000000000000e+00
1.416000000000000000e+03,2.254879327594963290e-01,0.000000000000000000e+00
1.417000000000000000e+03,-3.273845888789231329e-01,0.000000000000000000e+00
1.418000000000000000e+03,2.040147472415931862e+00,0.000000000000000000e+00
1.419000000000000000e+03,2.502777256462643152e+00,0.000000000000000000e+00
1.420000000000000000e+03,-2.172888928259235186e+00,1.000000000000000000e+00
1.421000000000000000e+03,-1.683695633526499202e+00,0.000000000000000000e+00
1.422000000000000000e+03,-4.423360022818797477e-01,0.000000000000000000e+00
1.423000000000000000e+03,1.591205177356694866e-01,0.000000000000000000e+00
1.424000000000000000e+03,4.241571945843468083e-01,0.000000000000000000e+00
1.425000000000000000e+03,4.651143937295339481e-01,0.000000000000000000e+00
1.426000000000000000e+03,4.463089664412359658e-01,0.000000000000000000e+00
1.427000000000000000e+03,5.115273457694184955e-01,0.000000000000000000e+00
1.428000000000000000e+03,5.586454388452471997e-01,0.000000000000000000e+00
1.429000000000000000e+03,8.155882393633446803e-01,0.000000000000000000e+00
1.430000000000000000e+03,8.829231675074825647e-01,0.000000000000000000e+00
1.431000000000000000e+03,1.404720727483868448e+00,0.000000000000000000e+00
1.432000000000000000e+03,1.357016289468222059e+00,0.000000000000000000e+00
1.433000000000000000e+03,1.199550379976361603e+00,0.000000000000000000e+00
1.434000000000000000e+03,8.183279662562903400e-01,0.000000000000000000e+00
1.435000000000000000e+03,2.283719567988662658e-01,0.000000000000000000e+00
1.436000000000000000e+03,-4.499160830046429749e-01,0.000000000000000000e+00
1.437000000000000000e+03,-8.236455545402566747e-01,0.000000000000000000e+00
1.438000000000000000e+03,-1.046910702991111997e+00,0.000000000000000000e+00
1.439000000000000000e+03,-8.046958189227210179e-01,0.000000000000000000e+00
1.440000000000000000e+03,-9.837748747926343684e-01,0.000000000000000000e+00
1.441000000000000000e+03,-7.911311448357344345e-01,0.000000000000000000e+00
1.442000000000000000e+03,-6.300004162976537980e-01,0.000000000000000000e+00
1.443000000000000000e+03,-6.732489465489193137e-01,0.000000000000000000e+00
1.444000000000000000e+03,-5.865874178140860762e-01,0.000000000000000000e+00
1.445000000000000000e+03,-4.822839137570710810e-01,0.000000000000000000e+00
1.446000000000000000e+03,-5.378723140363261823e-01,0.000000000000000000e+00
1.447000000000000000e+03,-3.740635338658057085e-01,0.000000000000000000e+00
1.448000000000000000e+03,-4.122188843865138841e-01,0.000000000000000000e+00
1.449000000000000000e+03,-3.313096504302139311e-01,0.000000000000000000e+00
1.450000000000000000e+03,-4.346543850186732616e-01,0.000000000000000000e+00
1.451000000000000000e+03,-2.533545129779066207e-01,0.000000000000000000e+00
1.452000000000000000e+03,-2.337828512781193746e-01,0.000000000000000000e+00
1.453000000000000000e+03,-1.828212433409798776e-01,0.000000000000000000e+00
1.454000000000000000e+03,-1.316530586427390459e-01,0.000000000000000000e+00
1.455000000000000000e+03,-6.702879325927790788e-02,0.000000000000000000e+00
1.456000000000000000e+03,-1.447780823363039315e-01,0.000000000000000000e+00
1.457000000000000000e+03,2.016805225902526255e-01,0.000000000000000000e+00
1.458000000000000000e+03,4.468526402462294489e-01,0.000000000000000000e+00
1.459000000000000000e+03,4.210672931072413916e-01,0.000000000000000000e+00
1.460000000000000000e+03,1.513412142647729275e-01,0.000000000000000000e+00
1.461000000000000000e+03,9.410198320099415550e-03,0.000000000000000000e+00
1.462000000000000000e+03,-1.635941246077873834e-01,0.000000000000000000e+00
1.463000000000000000e+03,-8.000704239139835861e-02,0.000000000000000000e+00
1.464000000000000000e+03,-2.496374600221046292e-01,0.000000000000000000e+00
1.465000000000000000e+03,-3.303471594898218025e-03,0.000000000000000000e+00
1.466000000000000000e+03,-8.045094734854492391e-02,0.000000000000000000e+00
1.467000000000000000e+03,3.053250862918416964e+00,0.000000000000000000e+00
1.468000000000000000e+03,9.219453007699351943e-01,0.000000000000000000e+00
1.469000000000000000e+03,-2.524783456253837599e+00,0.000000000000000000e+00
1.470000000000000000e+03,-1.368270895090316852e+00,1.000000000000000000e+00
1.471000000000000000e+03,-6.366376482484377430e-02,0.000000000000000000e+00
1.472000000000000000e+03,2.786071253178492024e-01,0.000000000000000000e+00
1.473000000000000000e+03,4.175186837672761331e-01,0.000000000000000000e+00
1.474000000000000000e+03,4.904486815905366726e-01,0.000000000000000000e+00
1.475000000000000000e+03,5.267777008845380138e-01,0.000000000000000000e+00
1.476000000000000000e+03,6.496350757823577959e-01,0.000000000000000000e+00
1.477000000000000000e+03,7.147283423684476222e-01,0.000000000000000000e+00
1.478000000000000000e+03,7.826426035582096929e-01,0.000000000000000000e+00
1.479000000000000000e+03,9.783850256917616672e-01,0.000000000000000000e+00
1.480000000000000000e+03,1.452295756461936982e+00,0.000000000000000000e+00
1.481000000000000000e+03,1.270582953330351428e+00,0.000000000000000000e+00
1.482000000000000000e+03,1.107930487068809366e+00,0.000000000000000000e+00
1.483000000000000000e+03,6.794454492578367866e-01,0.000000000000000000e+00
1.484000000000000000e+03,-8.679776733142878509e-02,0.000000000000000000e+00
1.485000000000000000e+03,-5.741703538883180524e-01,0.000000000000000000e+00
1.486000000000000000e+03,-8.888025641040704361e-01,0.000000000000000000e+00
1.487000000000000000e+03,-9.507824391097932093e-01,0.000000000000000000e+00
1.488000000000000000e+03,-9.270052682697316193e-01,0.000000000000000000e+00
1.489000000000000000e+03,-8.133694528727771766e-01,0.000000000000000000e+00
1.490000000000000000e+03,-9.281011493573199100e-01,0.000000000000000000e+00
1.491000000000000000e+03,-6.219522450992834850e-01,0.000000000000000000e+00
1.492000000000000000e+03,-5.004411966666086897e-01,0.000000000000000000e+00
1.493000000000000000e+03,-4.977832853658444856e-01,0.000000000000000000e+00
1.494000000000000000e+03,-6.446675570336104499e-01,0.000000000000000000e+00
1.495000000000000000e+03,-5.000722613798084248e-01,0.000000000000000000e+00
1.496000000000000000e+03,-5.197137999814192000e-01,0.000000000000000000e+00
1.497000000000000000e+03,-1.328964502542211434e-01,0.000000000000000000e+00
1.498000000000000000e+03,-4.714266430030547017e-01,0.000000000000000000e+00
1.499000000000000000e+03,-2.940606659079511576e-01,0.000000000000000000e+00
1.500000000000000000e+03,-3.364433630013929921e-01,0.000000000000000000e+00
1.501000000000000000e+03,-2.022084481581303828e-01,0.000000000000000000e+00
1.502000000000000000e+03,-1.576328295481463637e-01,0.000000000000000000e+00
1.503000000000000000e+03,1.005433021700323504e-01,0.000000000000000000e+00
1.504000000000000000e+03,-7.861662932165318363e-02,0.000000000000000000e+00
1.505000000000000000e+03,-1.421083857923588142e-02,0.000000000000000000e+00
1.506000000000000000e+03,2.620476096682916034e-01,0.000000000000000000e+00
1.507000000000000000e+03,4.952302559350038047e-01,0.000000000000000000e+00
1.508000000000000000e+03,2.873802749909313836e-01,0.000000000000000000e+00
1.509000000000000000e+03,1.680606347393955036e-01,0.000000000000000000e+00
1.510000000000000000e+03,-1.305288869671311913e-01,0.000000000000000000e+00
1.511000000000000000e+03,-2.026459820270861412e-01,0.000000000000000000e+00
1.512000000000000000e+03,-1.234517143918801435e-01,0.000000000000000000e+00
1.513000000000000000e+03,-1.531826607145386765e-02,0.000000000000000000e+00
1.514000000000000000e+03,-1.465881153327399933e-01,0.000000000000000000e+00
1.515000000000000000e+03,9.291710615765210735e-01,0.000000000000000000e+00
1.516000000000000000e+03,3.013231237231404069e+00,0.000000000000000000e+00
1.517000000000000000e+03,-1.425409925507443054e+00,1.000000000000000000e+00
1.518000000000000000e+03,-1.928016076688804814e+00,0.000000000000000000e+00
1.519000000000000000e+03,-7.233613337876590998e-01,0.000000000000000000e+00
1.520000000000000000e+03,3.788533492203685626e-01,0.000000000000000000e+00
1.521000000000000000e+03,3.979301313700273623e-01,0.000000000000000000e+00
1.522000000000000000e+03,5.166437718035397086e-01,0.000000000000000000e+00
1.523000000000000000e+03,6.116253018232808980e-01,0.000000000000000000e+00
1.524000000000000000e+03,3.874429479141198174e-01,0.000000000000000000e+00
1.525000000000000000e+03,7.058171422382484295e-01,0.000000000000000000e+00
1.526000000000000000e+03,8.053888629244514430e-01,0.000000000000000000e+00
1.527000000000000000e+03,8.677249870378589414e-01,0.000000000000000000e+00
1.528000000000000000e+03,1.145887793247637454e+00,0.000000000000000000e+00
1.529000000000000000e+03,1.235155335412768451e+00,0.000000000000000000e+00
1.530000000000000000e+03,1.270165967216450476e+00,0.000000000000000000e+00
1.531000000000000000e+03,9.817504826460317080e-01,0.000000000000000000e+00
1.532000000000000000e+03,3.711472562434705025e-01,0.000000000000000000e+00
1.533000000000000000e+03,-3.076324041262428199e-01,0.000000000000000000e+00
1.534000000000000000e+03,-7.146125235785063534e-01,0.000000000000000000e+00
1.535000000000000000e+03,-9.003451024453066331e-01,0.000000000000000000e+00
1.536000000000000000e+03,-8.743908816574414988e-01,0.000000000000000000e+00
1.537000000000000000e+03,-8.333016962624059110e-01,0.000000000000000000e+00
1.538000000000000000e+03,-1.004518834368578251e+00,0.000000000000000000e+00
1.539000000000000000e+03,-5.376946061679617195e-01,0.000000000000000000e+00
1.540000000000000000e+03,-6.785859013960091612e-01,0.000000000000000000e+00
1.541000000000000000e+03,-3.956618492674649490e-01,0.000000000000000000e+00
1.542000000000000000e+03,-4.501846268396182960e-01,0.000000000000000000e+00
1.543000000000000000e+03,-5.955455555433121217e-01,0.000000000000000000e+00
1.544000000000000000e+03,-4.175553116478024629e-01,0.000000000000000000e+00
1.545000000000000000e+03,-3.913898655969679785e-01,0.000000000000000000e+00
1.546000000000000000e+03,-4.758499040431436455e-01,0.000000000000000000e+00
1.547000000000000000e+03,-3.770846831701145097e-01,0.000000000000000000e+00
1.548000000000000000e+03,-3.126253148663654113e-01,0.000000000000000000e+00
1.549000000000000000e+03,-1.408625525707988546e-01,0.000000000000000000e+00
1.550000000000000000e+03,-2.954768962197951709e-01,0.000000000000000000e+00
1.551000000000000000e+03,-9.237632121183661504e-02,0.000000000000000000e+00
1.552000000000000000e+03,-2.149511555516427364e-01,0.000000000000000000e+00
1.553000000000000000e+03,7.232077349222398865e-02,0.000000000000000000e+00
1.554000000000000000e+03,3.022588685738992198e-01,0.000000000000000000e+00
1.555000000000000000e+03,3.125426451533639405e-01,0.000000000000000000e+00
1.556000000000000000e+03,3.549374994283452378e-01,0.000000000000000000e+00
1.557000000000000000e+03,1.325441666518314965e-01,0.000000000000000000e+00
1.558000000000000000e+03,-2.692611733286073838e-01,0.000000000000000000e+00
1.559000000000000000e+03,-1.038508687254375978e-01,0.000000000000000000e+00
1.560000000000000000e+03,-2.630027873672836636e-01,0.000000000000000000e+00
1.561000000000000000e+03,1.539918695472848043e-01,0.000000000000000000e+00
1.562000000000000000e+03,-3.816468142022244048e-01,0.000000000000000000e+00
1.563000000000000000e+03,2.188455482743123071e+00,0.000000000000000000e+00
1.564000000000000000e+03,1.967221428498665992e+00,0.000000000000000000e+00
1.565000000000000000e+03,-2.374117697531915372e+00,1.000000000000000000e+00
1.566000000000000000e+03,-1.320705514412795933e+00,0.000000000000000000e+00
1.567000000000000000e+03,-2.319761428434888861e-01,0.000000000000000000e+00
1.568000000000000000e+03,4.698065743287453966e-01,0.000000000000000000e+00
1.569000000000000000e+03,2.318508280738062477e-01,0.000000000000000000e+00
1.570000000000000000e+03,4.067314812005753399e-01,0.000000000000000000e+00
1.571000000000000000e+03,4.888599360605769828e-01,0.000000000000000000e+00
1.572000000000000000e+03,7.010239134794996607e-01,0.000000000000000000e+00
1.573000000000000000e+03,5.442273646170397994e-01,0.000000000000000000e+00
1.574000000000000000e+03,8.277133231828035509e-01,0.000000000000000000e+00
1.575000000000000000e+03,9.280808683585384244e-01,0.000000000000000000e+00
1.576000000000000000e+03,1.233331528235060537e+00,0.000000000000000000e+00
1.577000000000000000e+03,1.320821718147000556e+00,0.000000000000000000e+00
1.578000000000000000e+03,1.098813061393411283e+00,0.000000000000000000e+00
1.579000000000000000e+03,7.148788736611796368e-01,0.000000000000000000e+00
1.580000000000000000e+03,1.835149978539589444e-01,0.000000000000000000e+00
1.581000000000000000e+03,-4.373909709013578118e-01,0.000000000000000000e+00
1.582000000000000000e+03,-7.269221639680932823e-01,0.000000000000000000e+00
1.583000000000000000e+03,-9.080354150856817519e-01,0.000000000000000000e+00
1.584000000000000000e+03,-8.890881664757850356e-01,0.000000000000000000e+00
1.585000000000000000e+03,-7.188263585948198031e-01,0.000000000000000000e+00
1.586000000000000000e+03,-6.213389677724360238e-01,0.000000000000000000e+00
