timestamp,ecg_measurement,qrs_detected
0.000000000000000000e+00,-9.144519003289611203e-02,0.000000000000000000e+00
1.000000000000000000e+00,-6.216476333112432029e-02,0.000000000000000000e+00
2.000000000000000000e+00,5.640991350233565127e-02,0.000000000000000000e+00
3.000000000000000000e+00,-6.719800588762138427e-02,0.000000000000000000e+00
4.000000000000000000e+00,1.190997473768213161e-01,0.000000000000000000e+00
5.000000000000000000e+00,6.405251428219244092e-02,0.000000000000000000e+00
6.000000000000000000e+00,3.547096266038432533e-02,0.000000000000000000e+00
7.000000000000000000e+00,8.732222020280282215e-02,0.000000000000000000e+00
8.000000000000000000e+00,1.259072267626384634e-01,0.000000000000000000e+00
9.000000000000000000e+00,2.032113381959237686e-01,0.000000000000000000e+00
1.000000000000000000e+01,3.849073324672498964e-01,0.000000000000000000e+00
1.100000000000000000e+01,3.129397622021490299e-01,0.000000000000000000e+00
1.200000000000000000e+01,2.401807313175616243e-01,0.000000000000000000e+00
1.300000000000000000e+01,7.616393163423673673e-02,0.000000000000000000e+00
1.400000000000000000e+01,6.380895988836085553e-02,0.000000000000000000e+00
1.500000000000000000e+01,-1.891429125591651906e-03,0.000000000000000000e+00
1.600000000000000000e+01,9.750325200409461213e-02,0.000000000000000000e+00
1.700000000000000000e+01,1.298808190411372410e-01,0.000000000000000000e+00
1.800000000000000000e+01,1.868804757335233158e-01,0.000000000000000000e+00
1.900000000000000000e+01,2.309058079131839136e+00,0.000000000000000000e+00
2.000000000000000000e+01,5.910113794726036041e+00,0.000000000000000000e+00
2.100000000000000000e+01,9.535136239615861209e-01,1.000000000000000000e+00
2.200000000000000000e+01,-2.041184009258129706e+00,0.000000000000000000e+00
2.300000000000000000e+01,-1.024769740832567999e+00,0.000000000000000000e+00
2.400000000000000000e+01,-9.053379820316225235e-01,0.000000000000000000e+00
2.500000000000000000e+01,-6.023304836473958312e-01,0.000000000000000000e+00
2.600000000000000000e+01,-5.436049405480766206e-01,0.000000000000000000e+00
2.700000000000000000e+01,-3.629193130087117747e-01,0.000000000000000000e+00
2.800000000000000000e+01,-3.819210281953856478e-01,0.000000000000000000e+00
2.900000000000000000e+01,-1.538321083931926403e-01,0.000000000000000000e+00
3.000000000000000000e+01,2.103366605849124951e-02,0.000000000000000000e+00
3.100000000000000000e+01,1.602001034969303683e-01,0.000000000000000000e+00
3.200000000000000000e+01,3.388371951131513571e-01,0.000000000000000000e+00
3.300000000000000000e+01,7.722143508702933312e-01,0.000000000000000000e+00
3.400000000000000000e+01,9.574914341566524989e-01,0.000000000000000000e+00
3.500000000000000000e+01,9.389374910605754465e-01,0.000000000000000000e+00
3.600000000000000000e+01,5.076259626392853885e-01,0.000000000000000000e+00
3.700000000000000000e+01,-7.009651623863877301e-02,0.000000000000000000e+00
3.800000000000000000e+01,-6.281224223473306223e-01,0.000000000000000000e+00
3.900000000000000000e+01,-8.031948827090602538e-01,0.000000000000000000e+00
4.000000000000000000e+01,-9.330017007544670893e-01,0.000000000000000000e+00
4.100000000000000000e+01,-8.049617872708657584e-01,0.000000000000000000e+00
4.200000000000000000e+01,-7.202497182509519646e-01,0.000000000000000000e+00
4.300000000000000000e+01,-7.133603702198229035e-01,0.000000000000000000e+00
4.400000000000000000e+01,-6.204752411271478030e-01,0.000000000000000000e+00
4.500000000000000000e+01,-4.843651650418532295e-01,0.000000000000000000e+00
4.600000000000000000e+01,-4.443395565737482400e-01,0.000000000000000000e+00
4.700000000000000000e+01,-3.325173332161514561e-01,0.000000000000000000e+00
4.800000000000000000e+01,-2.823784347106423342e-01,0.000000000000000000e+00
4.900000000000000000e+01,-1.765757200318936737e-01,0.000000000000000000e+00
5.000000000000000000e+01,-2.156149652921704463e-01,0.000000000000000000e+00
5.100000000000000000e+01,-1.388056072915979655e-01,0.000000000000000000e+00
5.200000000000000000e+01,-6.173270313396381909e-02,0.000000000000000000e+00
5.300000000000000000e+01,-1.145095425302270209e-01,0.000000000000000000e+00
5.400000000000000000e+01,-9.179829618743075292e-02,0.000000000000000000e+00
5.500000000000000000e+01,-3.434600391116988949e-02,0.000000000000000000e+00
5.600000000000000000e+01,-9.304733722349391167e-02,0.000000000000000000e+00
5.700000000000000000e+01,-4.709680282906694021e-02,0.000000000000000000e+00
5.800000000000000000e+01,3.555832501729723483e-02,0.000000000000000000e+00
5.900000000000000000e+01,7.808856400998140379e-02,0.000000000000000000e+00
6.000000000000000000e+01,4.899459242231384709e-02,0.000000000000000000e+00
6.100000000000000000e+01,8.084413987338312513e-02,0.000000000000000000e+00
6.200000000000000000e+01,1.547208732891538485e-01,0.000000000000000000e+00
6.300000000000000000e+01,8.177389246167875159e-02,0.000000000000000000e+00
6.400000000000000000e+01,1.728549486181950590e-01,0.000000000000000000e+00
6.500000000000000000e+01,1.944650907820863195e-01,0.000000000000000000e+00
6.600000000000000000e+01,2.166540682224187830e-01,0.000000000000000000e+00
6.700000000000000000e+01,2.109312184338674456e-01,0.000000000000000000e+00
6.800000000000000000e+01,2.490551012822760091e-01,0.000000000000000000e+00
6.900000000000000000e+01,2.309298632000881812e-01,0.000000000000000000e+00
7.000000000000000000e+01,3.748766394931489776e-01,0.000000000000000000e+00
7.100000000000000000e+01,3.879061460261621908e-01,0.000000000000000000e+00
7.200000000000000000e+01,3.517686434267896511e-01,0.000000000000000000e+00
7.300000000000000000e+01,2.689715110763010175e-01,0.000000000000000000e+00
7.400000000000000000e+01,2.834466891473346253e-02,0.000000000000000000e+00
7.500000000000000000e+01,8.339557704957456519e-02,0.000000000000000000e+00
7.600000000000000000e+01,5.502465589141710550e-02,0.000000000000000000e+00
7.700000000000000000e+01,8.451094919389727511e-02,0.000000000000000000e+00
7.800000000000000000e+01,7.667713050871549640e-02,0.000000000000000000e+00
7.900000000000000000e+01,4.508627215424007573e-01,0.000000000000000000e+00
8.000000000000000000e+01,4.688010965759863424e+00,0.000000000000000000e+00
8.100000000000000000e+01,4.571960441779861384e+00,0.000000000000000000e+00
8.200000000000000000e+01,-1.588808751446977530e+00,1.000000000000000000e+00
8.300000000000000000e+01,-1.576272766749825083e+00,0.000000000000000000e+00
8.400000000000000000e+01,-1.249775782157880544e+00,0.000000000000000000e+00
8.500000000000000000e+01,-8.697639310965529225e-01,0.000000000000000000e+00
8.600000000000000000e+01,-7.345504652332919271e-01,0.000000000000000000e+00
8.700000000000000000e+01,-6.404582671418903583e-01,0.000000000000000000e+00
8.800000000000000000e+01,-5.154606519421298660e-01,0.000000000000000000e+00
8.900000000000000000e+01,-3.272137289862258602e-01,0.000000000000000000e+00
9.000000000000000000e+01,-2.318915805842319544e-01,0.000000000000000000e+00
9.100000000000000000e+01,3.822349557928292341e-02,0.000000000000000000e+00
9.200000000000000000e+01,4.313667844382233080e-02,0.000000000000000000e+00
9.300000000000000000e+01,5.125825327189448277e-01,0.000000000000000000e+00
9.400000000000000000e+01,6.945958076116012236e-01,0.000000000000000000e+00
9.500000000000000000e+01,8.651000686338291557e-01,0.000000000000000000e+00
9.600000000000000000e+01,7.069002773577707233e-01,0.000000000000000000e+00
9.700000000000000000e+01,2.607951094507773848e-01,0.000000000000000000e+00
9.800000000000000000e+01,-4.809090295726813902e-01,0.000000000000000000e+00
9.900000000000000000e+01,-7.929644799168873437e-01,0.000000000000000000e+00
1.000000000000000000e+02,-9.650431962812788811e-01,0.000000000000000000e+00
1.010000000000000000e+02,-9.306622448945698345e-01,0.000000000000000000e+00
1.020000000000000000e+02,-8.482249126770812220e-01,0.000000000000000000e+00
1.030000000000000000e+02,-7.593386979463668807e-01,0.000000000000000000e+00
1.040000000000000000e+02,-6.945079610093568556e-01,0.000000000000000000e+00
1.050000000000000000e+02,-5.823204452781616247e-01,0.000000000000000000e+00
1.060000000000000000e+02,-6.019927995784428720e-01,0.000000000000000000e+00
1.070000000000000000e+02,-3.861518378474760871e-01,0.000000000000000000e+00
1.080000000000000000e+02,-3.973178436107537848e-01,0.000000000000000000e+00
1.090000000000000000e+02,-2.423896827521505315e-01,0.000000000000000000e+00
1.100000000000000000e+02,-2.968060136290960327e-01,0.000000000000000000e+00
1.110000000000000000e+02,-2.547966639754507545e-01,0.000000000000000000e+00
1.120000000000000000e+02,-1.664252453398794296e-01,0.000000000000000000e+00
1.130000000000000000e+02,-1.537981196906454129e-01,0.000000000000000000e+00
1.140000000000000000e+02,-1.992006725460090943e-01,0.000000000000000000e+00
1.150000000000000000e+02,-8.853596736689381408e-02,0.000000000000000000e+00
1.160000000000000000e+02,-9.659221729180852978e-02,0.000000000000000000e+00
1.170000000000000000e+02,-3.283133781870236235e-03,0.000000000000000000e+00
1.180000000000000000e+02,-6.262225725262118847e-02,0.000000000000000000e+00
1.190000000000000000e+02,1.645910340540360575e-02,0.000000000000000000e+00
1.200000000000000000e+02,-1.196927119492802866e-02,0.000000000000000000e+00
1.210000000000000000e+02,6.171826608649456924e-02,0.000000000000000000e+00
1.220000000000000000e+02,4.980991200376102407e-02,0.000000000000000000e+00
1.230000000000000000e+02,1.540291886504179808e-01,0.000000000000000000e+00
1.240000000000000000e+02,8.993172198865734268e-02,0.000000000000000000e+00
1.250000000000000000e+02,1.621930895412763141e-01,0.000000000000000000e+00
1.260000000000000000e+02,1.611453248632003510e-01,0.000000000000000000e+00
1.270000000000000000e+02,1.965919279868754699e-01,0.000000000000000000e+00
1.280000000000000000e+02,1.424199690226416459e-01,0.000000000000000000e+00
1.290000000000000000e+02,2.265333708688407333e-01,0.000000000000000000e+00
1.300000000000000000e+02,3.014412171668734430e-01,0.000000000000000000e+00
1.310000000000000000e+02,3.145057743546830209e-01,0.000000000000000000e+00
1.320000000000000000e+02,3.637815024403649455e-01,0.000000000000000000e+00
1.330000000000000000e+02,3.099728637308712398e-01,0.000000000000000000e+00
1.340000000000000000e+02,8.789270750233760254e-02,0.000000000000000000e+00
1.350000000000000000e+02,9.408020748753734286e-02,0.000000000000000000e+00
1.360000000000000000e+02,5.502792435736387350e-02,0.000000000000000000e+00
1.370000000000000000e+02,5.210786897033335696e-02,0.000000000000000000e+00
1.380000000000000000e+02,1.646021167128954299e-01,0.000000000000000000e+00
1.390000000000000000e+02,1.254575572468795142e-01,0.000000000000000000e+00
1.400000000000000000e+02,2.993566555836575382e+00,0.000000000000000000e+00
1.410000000000000000e+02,5.795164936994101623e+00,0.000000000000000000e+00
1.420000000000000000e+02,-1.112437530419516651e-01,1.000000000000000000e+00
1.430000000000000000e+02,-1.992506647303193379e+00,0.000000000000000000e+00
1.440000000000000000e+02,-1.145234121335131361e+00,0.000000000000000000e+00
1.450000000000000000e+02,-9.250532940605294963e-01,0.000000000000000000e+00
1.460000000000000000e+02,-7.504525937263378799e-01,0.000000000000000000e+00
1.470000000000000000e+02,-6.024978363505839596e-01,0.000000000000000000e+00
1.480000000000000000e+02,-5.011139358342899808e-01,0.000000000000000000e+00
1.490000000000000000e+02,-4.171281053613559164e-01,0.000000000000000000e+00
1.500000000000000000e+02,-1.888820915007958512e-01,0.000000000000000000e+00
1.510000000000000000e+02,-1.526610738956706848e-01,0.000000000000000000e+00
1.520000000000000000e+02,1.981584544122916292e-01,0.000000000000000000e+00
1.530000000000000000e+02,4.239295563308512760e-01,0.000000000000000000e+00
1.540000000000000000e+02,7.096726558454504730e-01,0.000000000000000000e+00
1.550000000000000000e+02,9.276004841866272166e-01,0.000000000000000000e+00
1.560000000000000000e+02,8.182244115430674647e-01,0.000000000000000000e+00
1.570000000000000000e+02,4.679787484774468598e-01,0.000000000000000000e+00
1.580000000000000000e+02,-2.482846583136560648e-01,0.000000000000000000e+00
1.590000000000000000e+02,-7.080088651527276511e-01,0.000000000000000000e+00
1.600000000000000000e+02,-9.527004319870604476e-01,0.000000000000000000e+00
1.610000000000000000e+02,-1.006764064905707246e+00,0.000000000000000000e+00
1.620000000000000000e+02,-8.328824906928211647e-01,0.000000000000000000e+00
1.630000000000000000e+02,-8.678707336122679639e-01,0.000000000000000000e+00
1.640000000000000000e+02,-8.158551073970361500e-01,0.000000000000000000e+00
1.650000000000000000e+02,-6.363480267978331995e-01,0.000000000000000000e+00
1.660000000000000000e+02,-6.499140887091044982e-01,0.000000000000000000e+00
1.670000000000000000e+02,-4.629964621860573892e-01,0.000000000000000000e+00
1.680000000000000000e+02,-4.201672394341750549e-01,0.000000000000000000e+00
1.690000000000000000e+02,-3.296723445904531369e-01,0.000000000000000000e+00
1.700000000000000000e+02,-3.550829847914291904e-01,0.000000000000000000e+00
1.710000000000000000e+02,-2.709997240903012639e-01,0.000000000000000000e+00
1.720000000000000000e+02,-2.398547421767453780e-01,0.000000000000000000e+00
1.730000000000000000e+02,-1.380975537445875145e-01,0.000000000000000000e+00
1.740000000000000000e+02,-2.731451330198754190e-01,0.000000000000000000e+00
1.750000000000000000e+02,-1.759555625085492958e-01,0.000000000000000000e+00
1.760000000000000000e+02,-1.552369122046809713e-01,0.000000000000000000e+00
1.770000000000000000e+02,-1.273936479354704880e-02,0.000000000000000000e+00
1.780000000000000000e+02,-1.448747009048557965e-01,0.000000000000000000e+00
1.790000000000000000e+02,4.599981369693657146e-02,0.000000000000000000e+00
1.800000000000000000e+02,-2.964119532169015581e-02,0.000000000000000000e+00
1.810000000000000000e+02,5.190674036037364047e-02,0.000000000000000000e+00
1.820000000000000000e+02,2.999120263603972242e-02,0.000000000000000000e+00
1.830000000000000000e+02,1.055439405811959830e-01,0.000000000000000000e+00
1.840000000000000000e+02,7.332584677988666921e-02,0.000000000000000000e+00
1.850000000000000000e+02,1.804235914953417341e-01,0.000000000000000000e+00
1.860000000000000000e+02,1.899897488628928821e-01,0.000000000000000000e+00
1.870000000000000000e+02,1.997898165583671393e-01,0.000000000000000000e+00
1.880000000000000000e+02,2.237497413258388024e-01,0.000000000000000000e+00
1.890000000000000000e+02,3.366323084451102732e-01,0.000000000000000000e+00
1.900000000000000000e+02,4.017624718254041993e-01,0.000000000000000000e+00
1.910000000000000000e+02,3.164838852562422145e-01,0.000000000000000000e+00
1.920000000000000000e+02,8.026201060026882939e-02,0.000000000000000000e+00
1.930000000000000000e+02,6.820646008733574628e-02,0.000000000000000000e+00
1.940000000000000000e+02,8.274067518657923781e-02,0.000000000000000000e+00
1.950000000000000000e+02,3.504420623613294095e-02,0.000000000000000000e+00
1.960000000000000000e+02,1.351579074652570212e-01,0.000000000000000000e+00
1.970000000000000000e+02,1.029581341627220092e-01,0.000000000000000000e+00
1.980000000000000000e+02,1.780228087675970405e+00,0.000000000000000000e+00
1.990000000000000000e+02,5.848257539225799384e+00,0.000000000000000000e+00
2.000000000000000000e+02,1.579849400582744590e+00,1.000000000000000000e+00
2.010000000000000000e+02,-2.185798255360944964e+00,0.000000000000000000e+00
2.020000000000000000e+02,-1.051018609842209406e+00,0.000000000000000000e+00
2.030000000000000000e+02,-1.051432093230100229e+00,0.000000000000000000e+00
2.040000000000000000e+02,-6.382786778825304541e-01,0.000000000000000000e+00
2.050000000000000000e+02,-6.211198535679971489e-01,0.000000000000000000e+00
2.060000000000000000e+02,-3.723115361790851341e-01,0.000000000000000000e+00
2.070000000000000000e+02,-3.780399192982066281e-01,0.000000000000000000e+00
2.080000000000000000e+02,-1.543320210910711365e-01,0.000000000000000000e+00
2.090000000000000000e+02,-1.113170936029780067e-01,0.000000000000000000e+00
2.100000000000000000e+02,1.451114661878897816e-01,0.000000000000000000e+00
2.110000000000000000e+02,4.264407651128691024e-01,0.000000000000000000e+00
2.120000000000000000e+02,6.819169845791156481e-01,0.000000000000000000e+00
2.130000000000000000e+02,8.836529245793462994e-01,0.000000000000000000e+00
2.140000000000000000e+02,8.544321081473258417e-01,0.000000000000000000e+00
2.150000000000000000e+02,6.551256176172477463e-01,0.000000000000000000e+00
2.160000000000000000e+02,1.017089856185851918e-03,0.000000000000000000e+00
2.170000000000000000e+02,-5.958756821535563519e-01,0.000000000000000000e+00
2.180000000000000000e+02,-8.334747975802495601e-01,0.000000000000000000e+00
2.190000000000000000e+02,-9.003717563352684472e-01,0.000000000000000000e+00
2.200000000000000000e+02,-8.438834832882984305e-01,0.000000000000000000e+00
2.210000000000000000e+02,-7.538580922433988363e-01,0.000000000000000000e+00
2.220000000000000000e+02,-7.732422458042979008e-01,0.000000000000000000e+00
2.230000000000000000e+02,-6.068212416106817386e-01,0.000000000000000000e+00
2.240000000000000000e+02,-5.650636591051564350e-01,0.000000000000000000e+00
2.250000000000000000e+02,-4.269323812897784509e-01,0.000000000000000000e+00
2.260000000000000000e+02,-3.267909982290821413e-01,0.000000000000000000e+00
2.270000000000000000e+02,-2.680122054025917411e-01,0.000000000000000000e+00
2.280000000000000000e+02,-2.362208488045283716e-01,0.000000000000000000e+00
2.290000000000000000e+02,-1.307551096271061253e-01,0.000000000000000000e+00
2.300000000000000000e+02,-1.128420788319038637e-01,0.000000000000000000e+00
2.310000000000000000e+02,-1.320966976102209700e-01,0.000000000000000000e+00
2.320000000000000000e+02,-5.800867289756820450e-02,0.000000000000000000e+00
2.330000000000000000e+02,2.959246097208551030e-02,0.000000000000000000e+00
2.340000000000000000e+02,-4.241836461917031231e-02,0.000000000000000000e+00
2.350000000000000000e+02,3.221205892645100620e-03,0.000000000000000000e+00
2.360000000000000000e+02,1.510029025376941232e-02,0.000000000000000000e+00
2.370000000000000000e+02,4.901888955873754533e-02,0.000000000000000000e+00
2.380000000000000000e+02,1.269028739127729677e-01,0.000000000000000000e+00
2.390000000000000000e+02,1.067893277973637478e-01,0.000000000000000000e+00
2.400000000000000000e+02,1.284410177362575456e-01,0.000000000000000000e+00
2.410000000000000000e+02,1.177714166524487377e-01,0.000000000000000000e+00
2.420000000000000000e+02,1.585722619298102487e-01,0.000000000000000000e+00
2.430000000000000000e+02,2.177589503202069510e-01,0.000000000000000000e+00
2.440000000000000000e+02,2.043384126064032025e-01,0.000000000000000000e+00
2.450000000000000000e+02,1.868068031933509121e-01,0.000000000000000000e+00
2.460000000000000000e+02,1.859592101294600675e-01,0.000000000000000000e+00
2.470000000000000000e+02,2.317623229039660615e-01,0.000000000000000000e+00
2.480000000000000000e+02,2.878027732891965673e-01,0.000000000000000000e+00
2.490000000000000000e+02,2.199691609110523138e-01,0.000000000000000000e+00
2.500000000000000000e+02,4.878963464751192025e-01,0.000000000000000000e+00
2.510000000000000000e+02,3.436635875177328492e-01,0.000000000000000000e+00
2.520000000000000000e+02,3.766223365842719661e-01,0.000000000000000000e+00
2.530000000000000000e+02,1.697373093794720400e-01,0.000000000000000000e+00
2.540000000000000000e+02,8.707816309010235623e-02,0.000000000000000000e+00
2.550000000000000000e+02,2.252616641585053134e-02,0.000000000000000000e+00
2.560000000000000000e+02,1.492361359588038339e-01,0.000000000000000000e+00
2.570000000000000000e+02,8.645060470674008346e-02,0.000000000000000000e+00
2.580000000000000000e+02,1.049792695634181316e-01,0.000000000000000000e+00
2.590000000000000000e+02,2.300299779433802261e+00,0.000000000000000000e+00
2.600000000000000000e+02,6.141769656708657266e+00,0.000000000000000000e+00
2.610000000000000000e+02,7.804625825970487041e-01,1.000000000000000000e+00
2.620000000000000000e+02,-2.146402885176370123e+00,0.000000000000000000e+00
2.630000000000000000e+02,-1.168452655578616550e+00,0.000000000000000000e+00
2.640000000000000000e+02,-1.060676631189225283e+00,0.000000000000000000e+00
2.650000000000000000e+02,-7.208177458792242032e-01,0.000000000000000000e+00
2.660000000000000000e+02,-7.798587840972958096e-01,0.000000000000000000e+00
2.670000000000000000e+02,-5.397856780294744139e-01,0.000000000000000000e+00
2.680000000000000000e+02,-4.565275968442447097e-01,0.000000000000000000e+00
2.690000000000000000e+02,-2.618489214814975763e-01,0.000000000000000000e+00
2.700000000000000000e+02,-1.769662870040294156e-01,0.000000000000000000e+00
2.710000000000000000e+02,7.086446337627128056e-02,0.000000000000000000e+00
2.720000000000000000e+02,2.486286173344973427e-01,0.000000000000000000e+00
2.730000000000000000e+02,6.526350919529787520e-01,0.000000000000000000e+00
2.740000000000000000e+02,7.748559576286598860e-01,0.000000000000000000e+00
2.750000000000000000e+02,8.093857644443072097e-01,0.000000000000000000e+00
2.760000000000000000e+02,4.695514752309470907e-01,0.000000000000000000e+00
2.770000000000000000e+02,-1.475170231816037569e-01,0.000000000000000000e+00
2.780000000000000000e+02,-7.174896983863614519e-01,0.000000000000000000e+00
2.790000000000000000e+02,-9.217728824320898795e-01,0.000000000000000000e+00
2.800000000000000000e+02,-9.739412470353384643e-01,0.000000000000000000e+00
2.810000000000000000e+02,-9.475366195666183877e-01,0.000000000000000000e+00
2.820000000000000000e+02,-8.579771868352462638e-01,0.000000000000000000e+00
2.830000000000000000e+02,-6.602924209059412020e-01,0.000000000000000000e+00
2.840000000000000000e+02,-7.423749481231821656e-01,0.000000000000000000e+00
2.850000000000000000e+02,-5.966684487409483761e-01,0.000000000000000000e+00
2.860000000000000000e+02,-4.919191217563292917e-01,0.000000000000000000e+00
2.870000000000000000e+02,-3.937466243193042392e-01,0.000000000000000000e+00
2.880000000000000000e+02,-3.615365736408702180e-01,0.000000000000000000e+00
2.890000000000000000e+02,-3.119566195978661360e-01,0.000000000000000000e+00
2.900000000000000000e+02,-1.575177498309556223e-01,0.000000000000000000e+00
2.910000000000000000e+02,-2.785135651780613064e-01,0.000000000000000000e+00
2.920000000000000000e+02,-1.998391508344291856e-01,0.000000000000000000e+00
2.930000000000000000e+02,-1.829818523762012372e-01,0.000000000000000000e+00
2.940000000000000000e+02,-9.512996723586333858e-02,0.000000000000000000e+00
2.950000000000000000e+02,-3.818414854679878095e-02,0.000000000000000000e+00
2.960000000000000000e+02,-1.347835370551007106e-01,0.000000000000000000e+00
2.970000000000000000e+02,9.349329434178696441e-03,0.000000000000000000e+00
2.980000000000000000e+02,-8.305739113968077514e-02,0.000000000000000000e+00
2.990000000000000000e+02,6.151848479396187369e-02,0.000000000000000000e+00
3.000000000000000000e+02,3.400179807924296610e-02,0.000000000000000000e+00
3.010000000000000000e+02,1.027056451088058930e-01,0.000000000000000000e+00
3.020000000000000000e+02,1.177171240393112550e-01,0.000000000000000000e+00
3.030000000000000000e+02,7.657589157843500138e-02,0.000000000000000000e+00
3.040000000000000000e+02,2.118277423002821735e-01,0.000000000000000000e+00
3.050000000000000000e+02,1.462915090953707531e-01,0.000000000000000000e+00
3.060000000000000000e+02,1.443907615309107662e-01,0.000000000000000000e+00
3.070000000000000000e+02,2.287772352998181935e-01,0.000000000000000000e+00
3.080000000000000000e+02,1.164912800192897252e-01,0.000000000000000000e+00
3.090000000000000000e+02,3.290477546889201133e-01,0.000000000000000000e+00
3.100000000000000000e+02,2.256297346600896203e-01,0.000000000000000000e+00
3.110000000000000000e+02,3.140047480103926314e-01,0.000000000000000000e+00
3.120000000000000000e+02,2.932973632178372814e-01,0.000000000000000000e+00
3.130000000000000000e+02,3.934092402709462588e-01,0.000000000000000000e+00
3.140000000000000000e+02,4.420422973491136553e-01,0.000000000000000000e+00
3.150000000000000000e+02,3.600878072873665015e-01,0.000000000000000000e+00
3.160000000000000000e+02,2.031945580650397210e-01,0.000000000000000000e+00
3.170000000000000000e+02,1.061436527628014000e-02,0.000000000000000000e+00
3.180000000000000000e+02,9.515968133222316161e-02,0.000000000000000000e+00
3.190000000000000000e+02,5.794537693718905536e-02,0.000000000000000000e+00
3.200000000000000000e+02,1.176843758636605120e-01,0.000000000000000000e+00
3.210000000000000000e+02,1.639265659368498163e-01,0.000000000000000000e+00
3.220000000000000000e+02,2.616826660532361792e+00,0.000000000000000000e+00
3.230000000000000000e+02,6.229089771583820934e+00,0.000000000000000000e+00
3.240000000000000000e+02,4.622865458084005064e-01,1.000000000000000000e+00
3.250000000000000000e+02,-2.112974923931562721e+00,0.000000000000000000e+00
3.260000000000000000e+02,-1.107015433101323776e+00,0.000000000000000000e+00
3.270000000000000000e+02,-1.076200457772254593e+00,0.000000000000000000e+00
3.280000000000000000e+02,-7.627247788717629318e-01,0.000000000000000000e+00
3.290000000000000000e+02,-7.461513309994546317e-01,0.000000000000000000e+00
3.300000000000000000e+02,-5.282028549658288608e-01,0.000000000000000000e+00
3.310000000000000000e+02,-4.640494475712857447e-01,0.000000000000000000e+00
3.320000000000000000e+02,-2.212709441910900854e-01,0.000000000000000000e+00
3.330000000000000000e+02,-1.837355506446160525e-01,0.000000000000000000e+00
3.340000000000000000e+02,8.592417373207615616e-02,0.000000000000000000e+00
3.350000000000000000e+02,3.372279418603836842e-01,0.000000000000000000e+00
3.360000000000000000e+02,6.642125292347302867e-01,0.000000000000000000e+00
3.370000000000000000e+02,8.268976766120927913e-01,0.000000000000000000e+00
3.380000000000000000e+02,8.375026725845906572e-01,0.000000000000000000e+00
3.390000000000000000e+02,4.151514312966782527e-01,0.000000000000000000e+00
3.400000000000000000e+02,-1.711251785334381992e-01,0.000000000000000000e+00
3.410000000000000000e+02,-7.562108113287203670e-01,0.000000000000000000e+00
3.420000000000000000e+02,-9.558279226579725618e-01,0.000000000000000000e+00
3.430000000000000000e+02,-1.090745187037160502e+00,0.000000000000000000e+00
3.440000000000000000e+02,-9.562338085114489017e-01,0.000000000000000000e+00
3.450000000000000000e+02,-9.159794968349614930e-01,0.000000000000000000e+00
3.460000000000000000e+02,-8.176485452563668765e-01,0.000000000000000000e+00
3.470000000000000000e+02,-7.150408295263765979e-01,0.000000000000000000e+00
3.480000000000000000e+02,-6.922698164074042593e-01,0.000000000000000000e+00
3.490000000000000000e+02,-5.246543882841322448e-01,0.000000000000000000e+00
3.500000000000000000e+02,-4.814581179544857870e-01,0.000000000000000000e+00
3.510000000000000000e+02,-4.043624727010936559e-01,0.000000000000000000e+00
3.520000000000000000e+02,-3.156594405676895199e-01,0.000000000000000000e+00
3.530000000000000000e+02,-3.115933302789522519e-01,0.000000000000000000e+00
3.540000000000000000e+02,-2.843215088362693876e-01,0.000000000000000000e+00
3.550000000000000000e+02,-2.449024250641296252e-01,0.000000000000000000e+00
3.560000000000000000e+02,-1.782550886954527292e-01,0.000000000000000000e+00
3.570000000000000000e+02,-1.566073455973617801e-01,0.000000000000000000e+00
3.580000000000000000e+02,-1.386777638023373171e-01,0.000000000000000000e+00
3.590000000000000000e+02,-8.423838788187487658e-02,0.000000000000000000e+00
3.600000000000000000e+02,-5.238310618526926393e-02,0.000000000000000000e+00
3.610000000000000000e+02,-1.112240099900366902e-01,0.000000000000000000e+00
3.620000000000000000e+02,4.359565192430283481e-02,0.000000000000000000e+00
3.630000000000000000e+02,3.950929178163992139e-02,0.000000000000000000e+00
3.640000000000000000e+02,3.449165360733424252e-02,0.000000000000000000e+00
3.650000000000000000e+02,3.624868738775684218e-02,0.000000000000000000e+00
3.660000000000000000e+02,8.155199211375308010e-02,0.000000000000000000e+00
3.670000000000000000e+02,1.292144146910462477e-01,0.000000000000000000e+00
3.680000000000000000e+02,1.612646358440864292e-01,0.000000000000000000e+00
3.690000000000000000e+02,9.246756904702758961e-02,0.000000000000000000e+00
3.700000000000000000e+02,1.489726417754614340e-01,0.000000000000000000e+00
3.710000000000000000e+02,2.522082779232135419e-01,0.000000000000000000e+00
3.720000000000000000e+02,1.679987125200825548e-01,0.000000000000000000e+00
3.730000000000000000e+02,3.937589733026104488e-01,0.000000000000000000e+00
3.740000000000000000e+02,3.670689004919235887e-01,0.000000000000000000e+00
3.750000000000000000e+02,2.268041093334254299e-01,0.000000000000000000e+00
3.760000000000000000e+02,1.215385959173388847e-01,0.000000000000000000e+00
3.770000000000000000e+02,-9.494253798779498515e-03,0.000000000000000000e+00
3.780000000000000000e+02,2.555335486907191894e-02,0.000000000000000000e+00
3.790000000000000000e+02,9.222744601604691839e-02,0.000000000000000000e+00
3.800000000000000000e+02,1.185414895709590299e-01,0.000000000000000000e+00
3.810000000000000000e+02,1.452241307649996260e-01,0.000000000000000000e+00
3.820000000000000000e+02,2.913878223720541616e+00,0.000000000000000000e+00
3.830000000000000000e+02,5.563341254027423410e+00,0.000000000000000000e+00
3.840000000000000000e+02,-9.535890621189241356e-02,1.000000000000000000e+00
3.850000000000000000e+02,-1.953701728563256967e+00,0.000000000000000000e+00
3.860000000000000000e+02,-1.074659977300798319e+00,0.000000000000000000e+00
3.870000000000000000e+02,-9.098677457654213985e-01,0.000000000000000000e+00
3.880000000000000000e+02,-6.304863149764980967e-01,0.000000000000000000e+00
3.890000000000000000e+02,-6.739115834848818931e-01,0.000000000000000000e+00
3.900000000000000000e+02,-3.642091390166579679e-01,0.000000000000000000e+00
3.910000000000000000e+02,-3.159875792401360406e-01,0.000000000000000000e+00
3.920000000000000000e+02,-2.163419188784597991e-01,0.000000000000000000e+00
3.930000000000000000e+02,3.557062351379463010e-03,0.000000000000000000e+00
3.940000000000000000e+02,8.948786607147310446e-02,0.000000000000000000e+00
3.950000000000000000e+02,4.715480549464479698e-01,0.000000000000000000e+00
3.960000000000000000e+02,6.871982511219906220e-01,0.000000000000000000e+00
3.970000000000000000e+02,9.890662912023352460e-01,0.000000000000000000e+00
3.980000000000000000e+02,7.587779689234727121e-01,0.000000000000000000e+00
3.990000000000000000e+02,5.054119105429611958e-01,0.000000000000000000e+00
4.000000000000000000e+02,-2.061710745335212924e-01,0.000000000000000000e+00
4.010000000000000000e+02,-7.411088121966936670e-01,0.000000000000000000e+00
4.020000000000000000e+02,-9.187343540811225839e-01,0.000000000000000000e+00
4.030000000000000000e+02,-9.085103358052855071e-01,0.000000000000000000e+00
4.040000000000000000e+02,-9.224101593631819362e-01,0.000000000000000000e+00
4.050000000000000000e+02,-7.593952523452416337e-01,0.000000000000000000e+00
4.060000000000000000e+02,-7.778173811378069624e-01,0.000000000000000000e+00
4.070000000000000000e+02,-6.387217602886808843e-01,0.000000000000000000e+00
4.080000000000000000e+02,-5.275386613252052159e-01,0.000000000000000000e+00
4.090000000000000000e+02,-4.444273773319634135e-01,0.000000000000000000e+00
4.100000000000000000e+02,-3.956909745272835233e-01,0.000000000000000000e+00
4.110000000000000000e+02,-3.072251790766161728e-01,0.000000000000000000e+00
4.120000000000000000e+02,-2.131379104833790450e-01,0.000000000000000000e+00
4.130000000000000000e+02,-1.291480516414939550e-01,0.000000000000000000e+00
4.140000000000000000e+02,-1.252741312163700715e-01,0.000000000000000000e+00
4.150000000000000000e+02,-8.565871361878309165e-02,0.000000000000000000e+00
4.160000000000000000e+02,-1.528290950511438095e-01,0.000000000000000000e+00
4.170000000000000000e+02,-1.639429895344688207e-02,0.000000000000000000e+00
4.180000000000000000e+02,-6.183691201338015198e-02,0.000000000000000000e+00
4.190000000000000000e+02,-1.854192766073044576e-02,0.000000000000000000e+00
4.200000000000000000e+02,1.393813261976914290e-02,0.000000000000000000e+00
4.210000000000000000e+02,1.320106629163210477e-01,0.000000000000000000e+00
4.220000000000000000e+02,5.533494166611527265e-02,0.000000000000000000e+00
4.230000000000000000e+02,1.235157791035595282e-01,0.000000000000000000e+00
4.240000000000000000e+02,9.338348504495837255e-02,0.000000000000000000e+00
4.250000000000000000e+02,2.825200089781398916e-01,0.000000000000000000e+00
4.260000000000000000e+02,1.336076898514078626e-01,0.000000000000000000e+00
4.270000000000000000e+02,2.006738299530003433e-01,0.000000000000000000e+00
4.280000000000000000e+02,2.189694617053270786e-01,0.000000000000000000e+00
4.290000000000000000e+02,3.512430702238120706e-01,0.000000000000000000e+00
4.300000000000000000e+02,2.496176829608096059e-01,0.000000000000000000e+00
4.310000000000000000e+02,4.219861752215293138e-01,0.000000000000000000e+00
4.320000000000000000e+02,3.845807179807044229e-01,0.000000000000000000e+00
4.330000000000000000e+02,4.432225424380709100e-01,0.000000000000000000e+00
4.340000000000000000e+02,1.968024980735942342e-01,0.000000000000000000e+00
4.350000000000000000e+02,1.319374447338196032e-01,0.000000000000000000e+00
4.360000000000000000e+02,9.601426283530993533e-02,0.000000000000000000e+00
4.370000000000000000e+02,1.345204132110435769e-01,0.000000000000000000e+00
4.380000000000000000e+02,1.483866130028024810e-01,0.000000000000000000e+00
4.390000000000000000e+02,2.235672542718067646e-01,0.000000000000000000e+00
4.400000000000000000e+02,1.503140281685700685e+00,0.000000000000000000e+00
4.410000000000000000e+02,5.891853039469150843e+00,0.000000000000000000e+00
4.420000000000000000e+02,2.299426873840101138e+00,1.000000000000000000e+00
4.430000000000000000e+02,-2.176340823788012635e+00,0.000000000000000000e+00
4.440000000000000000e+02,-1.054844078901552074e+00,0.000000000000000000e+00
4.450000000000000000e+02,-9.888807706937374764e-01,0.000000000000000000e+00
4.460000000000000000e+02,-6.761809120484584268e-01,0.000000000000000000e+00
4.470000000000000000e+02,-6.502917881434460146e-01,0.000000000000000000e+00
4.480000000000000000e+02,-4.066777009744356186e-01,0.000000000000000000e+00
4.490000000000000000e+02,-3.954550647892758897e-01,0.000000000000000000e+00
4.500000000000000000e+02,-1.437070995419633679e-01,0.000000000000000000e+00
4.510000000000000000e+02,-1.148357572191763820e-01,0.000000000000000000e+00
4.520000000000000000e+02,1.174970153020603036e-01,0.000000000000000000e+00
4.530000000000000000e+02,3.577724984665349162e-01,0.000000000000000000e+00
4.540000000000000000e+02,7.184317058971319003e-01,0.000000000000000000e+00
4.550000000000000000e+02,7.863142099520236128e-01,0.000000000000000000e+00
4.560000000000000000e+02,9.786507241464456053e-01,0.000000000000000000e+00
4.570000000000000000e+02,6.669174744723777026e-01,0.000000000000000000e+00
4.580000000000000000e+02,8.251945736935414888e-02,0.000000000000000000e+00
4.590000000000000000e+02,-5.182757382165242843e-01,0.000000000000000000e+00
4.600000000000000000e+02,-8.210630700310186381e-01,0.000000000000000000e+00
4.610000000000000000e+02,-9.498493056227073073e-01,0.000000000000000000e+00
4.620000000000000000e+02,-8.608093563502802192e-01,0.000000000000000000e+00
4.630000000000000000e+02,-8.003538468166635500e-01,0.000000000000000000e+00
4.640000000000000000e+02,-7.519412042389143069e-01,0.000000000000000000e+00
4.650000000000000000e+02,-6.822574789678272911e-01,0.000000000000000000e+00
4.660000000000000000e+02,-5.083271428914390988e-01,0.000000000000000000e+00
4.670000000000000000e+02,-5.126618563396446726e-01,0.000000000000000000e+00
4.680000000000000000e+02,-4.054325513864290298e-01,0.000000000000000000e+00
4.690000000000000000e+02,-3.388724860351602919e-01,0.000000000000000000e+00
4.700000000000000000e+02,-2.888930501737535517e-01,0.000000000000000000e+00
4.710000000000000000e+02,-2.062787552538154490e-01,0.000000000000000000e+00
4.720000000000000000e+02,-2.235401542029823441e-01,0.000000000000000000e+00
4.730000000000000000e+02,-2.019528781023229858e-01,0.000000000000000000e+00
4.740000000000000000e+02,-1.219189984976116053e-01,0.000000000000000000e+00
4.750000000000000000e+02,-1.707918345737536314e-01,0.000000000000000000e+00
4.760000000000000000e+02,-1.542433478840596339e-01,0.000000000000000000e+00
4.770000000000000000e+02,-6.061614185621982953e-02,0.000000000000000000e+00
4.780000000000000000e+02,-1.229126225696697411e-01,0.000000000000000000e+00
4.790000000000000000e+02,8.530289066505363643e-03,0.000000000000000000e+00
4.800000000000000000e+02,-3.829779664176551773e-02,0.000000000000000000e+00
4.810000000000000000e+02,2.245882811219010455e-02,0.000000000000000000e+00
4.820000000000000000e+02,4.701291812190076108e-02,0.000000000000000000e+00
4.830000000000000000e+02,7.852044613060348011e-02,0.000000000000000000e+00
4.840000000000000000e+02,9.828030025368898748e-02,0.000000000000000000e+00
4.850000000000000000e+02,1.504234171607280179e-01,0.000000000000000000e+00
4.860000000000000000e+02,8.751909333788531961e-03,0.000000000000000000e+00
4.870000000000000000e+02,1.278204259289151823e-01,0.000000000000000000e+00
4.880000000000000000e+02,1.301030628621047958e-01,0.000000000000000000e+00
4.890000000000000000e+02,8.915732437235240893e-02,0.000000000000000000e+00
4.900000000000000000e+02,1.419391369709720740e-01,0.000000000000000000e+00
4.910000000000000000e+02,2.706163032453187678e-01,0.000000000000000000e+00
4.920000000000000000e+02,2.028272823320119989e-01,0.000000000000000000e+00
4.930000000000000000e+02,2.570786837636943045e-01,0.000000000000000000e+00
4.940000000000000000e+02,3.598921617946602702e-01,0.000000000000000000e+00
4.950000000000000000e+02,2.768809820772998309e-01,0.000000000000000000e+00
4.960000000000000000e+02,1.329246747034907306e-01,0.000000000000000000e+00
4.970000000000000000e+02,1.128232601930868467e-01,0.000000000000000000e+00
4.980000000000000000e+02,-1.199850373799531689e-01,0.000000000000000000e+00
4.990000000000000000e+02,-6.923029183648699361e-03,0.000000000000000000e+00
5.000000000000000000e+02,-7.170058144064955785e-02,0.000000000000000000e+00
5.010000000000000000e+02,6.260659347216378234e-02,0.000000000000000000e+00
5.020000000000000000e+02,3.902275999824263431e-01,0.000000000000000000e+00
5.030000000000000000e+02,4.669286167674669308e+00,0.000000000000000000e+00
5.040000000000000000e+02,4.483277060557081306e+00,0.000000000000000000e+00
5.050000000000000000e+02,-1.829707820092388637e+00,1.000000000000000000e+00
5.060000000000000000e+02,-1.592352307200625816e+00,0.000000000000000000e+00
5.070000000000000000e+02,-1.238806308728618744e+00,0.000000000000000000e+00
5.080000000000000000e+02,-8.630093631074111649e-01,0.000000000000000000e+00
5.090000000000000000e+02,-8.835737579932390062e-01,0.000000000000000000e+00
5.100000000000000000e+02,-5.771474884734247857e-01,0.000000000000000000e+00
5.110000000000000000e+02,-6.072571789409628717e-01,0.000000000000000000e+00
5.120000000000000000e+02,-3.899001581919128712e-01,0.000000000000000000e+00
5.130000000000000000e+02,-3.451573783896401681e-01,0.000000000000000000e+00
5.140000000000000000e+02,-5.882751333164959462e-02,0.000000000000000000e+00
5.150000000000000000e+02,1.486326217185130194e-01,0.000000000000000000e+00
5.160000000000000000e+02,5.303622859151986280e-01,0.000000000000000000e+00
5.170000000000000000e+02,6.643235930825620583e-01,0.000000000000000000e+00
5.180000000000000000e+02,8.440794460428714396e-01,0.000000000000000000e+00
5.190000000000000000e+02,6.741906249984591648e-01,0.000000000000000000e+00
5.200000000000000000e+02,2.776062090297624629e-01,0.000000000000000000e+00
5.210000000000000000e+02,-3.944784323593999442e-01,0.000000000000000000e+00
5.220000000000000000e+02,-7.957598341423979260e-01,0.000000000000000000e+00
5.230000000000000000e+02,-9.690783529151961728e-01,0.000000000000000000e+00
5.240000000000000000e+02,-9.071588268088742746e-01,0.000000000000000000e+00
5.250000000000000000e+02,-8.647228465675196318e-01,0.000000000000000000e+00
5.260000000000000000e+02,-7.878671618046068081e-01,0.000000000000000000e+00
5.270000000000000000e+02,-7.352116002646151838e-01,0.000000000000000000e+00
5.280000000000000000e+02,-5.294466195786987628e-01,0.000000000000000000e+00
5.290000000000000000e+02,-4.569366860035780631e-01,0.000000000000000000e+00
5.300000000000000000e+02,-4.455072941022305000e-01,0.000000000000000000e+00
5.310000000000000000e+02,-3.019258498332763052e-01,0.000000000000000000e+00
5.320000000000000000e+02,-3.182674758218687616e-01,0.000000000000000000e+00
5.330000000000000000e+02,-2.311190604640022128e-01,0.000000000000000000e+00
5.340000000000000000e+02,-2.013049786036896216e-01,0.000000000000000000e+00
5.350000000000000000e+02,-2.005996324128508090e-01,0.000000000000000000e+00
5.360000000000000000e+02,-9.137371659123813550e-02,0.000000000000000000e+00
5.370000000000000000e+02,-1.953893481832267784e-02,0.000000000000000000e+00
5.380000000000000000e+02,-8.875047491693001389e-02,0.000000000000000000e+00
5.390000000000000000e+02,-2.662657409967526811e-02,0.000000000000000000e+00
5.400000000000000000e+02,-3.795346682139574823e-02,0.000000000000000000e+00
5.410000000000000000e+02,3.949980100938682570e-02,0.000000000000000000e+00
5.420000000000000000e+02,7.435618705520825877e-02,0.000000000000000000e+00
5.430000000000000000e+02,6.543176369797533420e-02,0.000000000000000000e+00
5.440000000000000000e+02,1.931829868196716093e-01,0.000000000000000000e+00
5.450000000000000000e+02,1.877411732430541436e-01,0.000000000000000000e+00
5.460000000000000000e+02,9.818344925638368414e-02,0.000000000000000000e+00
5.470000000000000000e+02,1.689978014863377509e-01,0.000000000000000000e+00
5.480000000000000000e+02,2.624727840616439822e-01,0.000000000000000000e+00
5.490000000000000000e+02,2.017490582441139046e-01,0.000000000000000000e+00
5.500000000000000000e+02,2.267788309886120957e-01,0.000000000000000000e+00
5.510000000000000000e+02,2.651082979414430829e-01,0.000000000000000000e+00
5.520000000000000000e+02,2.445520862372094484e-01,0.000000000000000000e+00
5.530000000000000000e+02,2.811542608298367441e-01,0.000000000000000000e+00
5.540000000000000000e+02,3.652249493089123056e-01,0.000000000000000000e+00
5.550000000000000000e+02,3.111150369197956400e-01,0.000000000000000000e+00
5.560000000000000000e+02,4.548273402278238953e-01,0.000000000000000000e+00
5.570000000000000000e+02,4.353675580496090269e-01,0.000000000000000000e+00
5.580000000000000000e+02,4.680038288207530317e-01,0.000000000000000000e+00
5.590000000000000000e+02,2.258573131496632302e-01,0.000000000000000000e+00
5.600000000000000000e+02,1.153051623862279135e-01,0.000000000000000000e+00
5.610000000000000000e+02,6.735025592620766388e-02,0.000000000000000000e+00
5.620000000000000000e+02,1.305480490223341894e-01,0.000000000000000000e+00
5.630000000000000000e+02,3.260787257144163315e-02,0.000000000000000000e+00
5.640000000000000000e+02,1.380857474365825843e-01,0.000000000000000000e+00
5.650000000000000000e+02,8.326585647571012050e-01,0.000000000000000000e+00
5.660000000000000000e+02,5.337114754516785631e+00,0.000000000000000000e+00
5.670000000000000000e+02,3.555152075121399857e+00,1.000000000000000000e+00
5.680000000000000000e+02,-2.061876351444569710e+00,0.000000000000000000e+00
5.690000000000000000e+02,-1.403518870134609298e+00,0.000000000000000000e+00
5.700000000000000000e+02,-1.157969694476092215e+00,0.000000000000000000e+00
5.710000000000000000e+02,-7.992250038589862049e-01,0.000000000000000000e+00
5.720000000000000000e+02,-7.822861038260886524e-01,0.000000000000000000e+00
5.730000000000000000e+02,-4.782794965082755589e-01,0.000000000000000000e+00
5.740000000000000000e+02,-5.137165367291606222e-01,0.000000000000000000e+00
5.750000000000000000e+02,-3.104554000077428544e-01,0.000000000000000000e+00
5.760000000000000000e+02,-3.242688159491100008e-01,0.000000000000000000e+00
5.770000000000000000e+02,2.232305424903908986e-02,0.000000000000000000e+00
5.780000000000000000e+02,2.164447060174414239e-01,0.000000000000000000e+00
5.790000000000000000e+02,5.021984009025297624e-01,0.000000000000000000e+00
5.800000000000000000e+02,7.184151384061689960e-01,0.000000000000000000e+00
5.810000000000000000e+02,8.400132049153471447e-01,0.000000000000000000e+00
5.820000000000000000e+02,6.274381635793904177e-01,0.000000000000000000e+00
5.830000000000000000e+02,8.422096904772627401e-02,0.000000000000000000e+00
5.840000000000000000e+02,-5.755093694011659267e-01,0.000000000000000000e+00
5.850000000000000000e+02,-9.483332683530031337e-01,0.000000000000000000e+00
5.860000000000000000e+02,-1.095157938461914116e+00,0.000000000000000000e+00
5.870000000000000000e+02,-1.037750605587784758e+00,0.000000000000000000e+00
5.880000000000000000e+02,-9.647413693245457944e-01,0.000000000000000000e+00
5.890000000000000000e+02,-8.306349561788225477e-01,0.000000000000000000e+00
5.900000000000000000e+02,-7.964089704413301885e-01,0.000000000000000000e+00
5.910000000000000000e+02,-7.461990369396072076e-01,0.000000000000000000e+00
5.920000000000000000e+02,-6.115699340562641417e-01,0.000000000000000000e+00
5.930000000000000000e+02,-5.337275745820977413e-01,0.000000000000000000e+00
5.940000000000000000e+02,-3.426372901102672230e-01,0.000000000000000000e+00
5.950000000000000000e+02,-4.143651188002759889e-01,0.000000000000000000e+00
5.960000000000000000e+02,-2.548808547735625929e-01,0.000000000000000000e+00
5.970000000000000000e+02,-2.736371389764864492e-01,0.000000000000000000e+00
5.980000000000000000e+02,-1.859446578256532256e-01,0.000000000000000000e+00
5.990000000000000000e+02,-2.296634493423090062e-01,0.000000000000000000e+00
6.000000000000000000e+02,-1.483520887808668087e-01,0.000000000000000000e+00
6.010000000000000000e+02,-1.334558765732427876e-01,0.000000000000000000e+00
6.020000000000000000e+02,-1.266734838901531768e-01,0.000000000000000000e+00
6.030000000000000000e+02,-1.851565483275421364e-01,0.000000000000000000e+00
6.040000000000000000e+02,6.390496011677271326e-02,0.000000000000000000e+00
6.050000000000000000e+02,1.344576390502012775e-02,0.000000000000000000e+00
6.060000000000000000e+02,1.280633259829651142e-02,0.000000000000000000e+00
6.070000000000000000e+02,3.994748513359840103e-02,0.000000000000000000e+00
6.080000000000000000e+02,5.994244442330880218e-02,0.000000000000000000e+00
6.090000000000000000e+02,9.384724859643865658e-02,0.000000000000000000e+00
6.100000000000000000e+02,1.421465182238994818e-01,0.000000000000000000e+00
6.110000000000000000e+02,1.667319881260318493e-01,0.000000000000000000e+00
6.120000000000000000e+02,1.704937568135132808e-01,0.000000000000000000e+00
6.130000000000000000e+02,2.427674149025575434e-01,0.000000000000000000e+00
6.140000000000000000e+02,3.242130548324663186e-01,0.000000000000000000e+00
6.150000000000000000e+02,3.588178530356418428e-01,0.000000000000000000e+00
6.160000000000000000e+02,4.332267218103746931e-01,0.000000000000000000e+00
6.170000000000000000e+02,2.258482670308369633e-01,0.000000000000000000e+00
6.180000000000000000e+02,1.605027461412053269e-01,0.000000000000000000e+00
6.190000000000000000e+02,8.188828890781532643e-02,0.000000000000000000e+00
6.200000000000000000e+02,4.937100793887495148e-02,0.000000000000000000e+00
6.210000000000000000e+02,1.745472446968479030e-01,0.000000000000000000e+00
6.220000000000000000e+02,1.883756797354706747e-01,0.000000000000000000e+00
6.230000000000000000e+02,3.866480402602029409e-01,0.000000000000000000e+00
6.240000000000000000e+02,3.964203874770486191e+00,0.000000000000000000e+00
6.250000000000000000e+02,5.014659887981676611e+00,0.000000000000000000e+00
6.260000000000000000e+02,-1.213746729727498419e+00,1.000000000000000000e+00
6.270000000000000000e+02,-1.640837889726461274e+00,0.000000000000000000e+00
6.280000000000000000e+02,-1.004039024557640714e+00,0.000000000000000000e+00
6.290000000000000000e+02,-7.381094794392991654e-01,0.000000000000000000e+00
6.300000000000000000e+02,-5.465089816895011277e-01,0.000000000000000000e+00
6.310000000000000000e+02,-5.173849435824963150e-01,0.000000000000000000e+00
6.320000000000000000e+02,-4.065894758342668558e-01,0.000000000000000000e+00
6.330000000000000000e+02,-2.260794473170796293e-01,0.000000000000000000e+00
6.340000000000000000e+02,-1.133450225844021136e-01,0.000000000000000000e+00
6.350000000000000000e+02,7.145103934897450992e-02,0.000000000000000000e+00
6.360000000000000000e+02,2.964448905754298313e-01,0.000000000000000000e+00
6.370000000000000000e+02,5.242421170284028431e-01,0.000000000000000000e+00
6.380000000000000000e+02,7.872833972343773468e-01,0.000000000000000000e+00
6.390000000000000000e+02,1.009741502892551157e+00,0.000000000000000000e+00
6.400000000000000000e+02,8.361511061942608070e-01,0.000000000000000000e+00
6.410000000000000000e+02,3.637537640329949751e-01,0.000000000000000000e+00
6.420000000000000000e+02,-3.025091248177997350e-01,0.000000000000000000e+00
6.430000000000000000e+02,-7.256308615428298525e-01,0.000000000000000000e+00
6.440000000000000000e+02,-8.969406321817716687e-01,0.000000000000000000e+00
6.450000000000000000e+02,-9.303635295577037390e-01,0.000000000000000000e+00
6.460000000000000000e+02,-8.455057511988917085e-01,0.000000000000000000e+00
6.470000000000000000e+02,-7.736497220365629035e-01,0.000000000000000000e+00
6.480000000000000000e+02,-7.250436600031767709e-01,0.000000000000000000e+00
6.490000000000000000e+02,-5.540633593086415898e-01,0.000000000000000000e+00
6.500000000000000000e+02,-5.137416803856241776e-01,0.000000000000000000e+00
6.510000000000000000e+02,-4.283294168130088453e-01,0.000000000000000000e+00
6.520000000000000000e+02,-3.385307020309000769e-01,0.000000000000000000e+00
6.530000000000000000e+02,-2.780730901980029146e-01,0.000000000000000000e+00
6.540000000000000000e+02,-1.890077015820628981e-01,0.000000000000000000e+00
6.550000000000000000e+02,-2.234905013688715247e-01,0.000000000000000000e+00
6.560000000000000000e+02,-1.166297201799059713e-01,0.000000000000000000e+00
6.570000000000000000e+02,-1.318253997484673534e-01,0.000000000000000000e+00
6.580000000000000000e+02,-1.437846113892687905e-01,0.000000000000000000e+00
6.590000000000000000e+02,-3.812607421915591155e-02,0.000000000000000000e+00
6.600000000000000000e+02,-1.599359351126815043e-01,0.000000000000000000e+00
6.610000000000000000e+02,-1.727530992150850750e-02,0.000000000000000000e+00
6.620000000000000000e+02,-2.308188066347203332e-02,0.000000000000000000e+00
6.630000000000000000e+02,3.459991274418802026e-02,0.000000000000000000e+00
6.640000000000000000e+02,5.940799878985306842e-02,0.000000000000000000e+00
6.650000000000000000e+02,6.059872987973347058e-02,0.000000000000000000e+00
6.660000000000000000e+02,1.801712456727550538e-01,0.000000000000000000e+00
6.670000000000000000e+02,7.481157720953171553e-02,0.000000000000000000e+00
6.680000000000000000e+02,2.611263259467561104e-01,0.000000000000000000e+00
6.690000000000000000e+02,1.322460420112402946e-01,0.000000000000000000e+00
6.700000000000000000e+02,2.237596822224549864e-01,0.000000000000000000e+00
6.710000000000000000e+02,1.621177513500927370e-01,0.000000000000000000e+00
6.720000000000000000e+02,2.916325476333084254e-01,0.000000000000000000e+00
6.730000000000000000e+02,2.844675185080647317e-01,0.000000000000000000e+00
6.740000000000000000e+02,3.690382010533848622e-01,0.000000000000000000e+00
6.750000000000000000e+02,3.791491548612263562e-01,0.000000000000000000e+00
6.760000000000000000e+02,3.960488702957093987e-01,0.000000000000000000e+00
6.770000000000000000e+02,1.690760439709942942e-01,0.000000000000000000e+00
6.780000000000000000e+02,1.091657748386700433e-01,0.000000000000000000e+00
6.790000000000000000e+02,1.915883272886821989e-02,0.000000000000000000e+00
6.800000000000000000e+02,1.309387436836204899e-01,0.000000000000000000e+00
6.810000000000000000e+02,6.340159213717171116e-02,0.000000000000000000e+00
6.820000000000000000e+02,1.027358205968697952e-01,0.000000000000000000e+00
6.830000000000000000e+02,1.038465290026480137e+00,0.000000000000000000e+00
6.840000000000000000e+02,5.598100971737196119e+00,0.000000000000000000e+00
6.850000000000000000e+02,3.175522518433488983e+00,1.000000000000000000e+00
6.860000000000000000e+02,-2.169675070346987145e+00,0.000000000000000000e+00
6.870000000000000000e+02,-1.190264179942118972e+00,0.000000000000000000e+00
6.880000000000000000e+02,-1.216177624364101595e+00,0.000000000000000000e+00
6.890000000000000000e+02,-7.383846492023143915e-01,0.000000000000000000e+00
6.900000000000000000e+02,-7.977033592692982511e-01,0.000000000000000000e+00
6.910000000000000000e+02,-3.969624156873653997e-01,0.000000000000000000e+00
6.920000000000000000e+02,-5.188805821649516981e-01,0.000000000000000000e+00
6.930000000000000000e+02,-3.996456154066931332e-01,0.000000000000000000e+00
6.940000000000000000e+02,-2.121370297647353076e-01,0.000000000000000000e+00
6.950000000000000000e+02,-1.227931721036653739e-01,0.000000000000000000e+00
6.960000000000000000e+02,2.593739898026818369e-01,0.000000000000000000e+00
6.970000000000000000e+02,5.081047581181962203e-01,0.000000000000000000e+00
6.980000000000000000e+02,7.311828563050742913e-01,0.000000000000000000e+00
6.990000000000000000e+02,8.574769792117445943e-01,0.000000000000000000e+00
7.000000000000000000e+02,6.202252456660833912e-01,0.000000000000000000e+00
7.010000000000000000e+02,4.189384585287937723e-02,0.000000000000000000e+00
7.020000000000000000e+02,-6.287041271597576531e-01,0.000000000000000000e+00
7.030000000000000000e+02,-7.995760056957726958e-01,0.000000000000000000e+00
7.040000000000000000e+02,-1.042172868299231059e+00,0.000000000000000000e+00
7.050000000000000000e+02,-9.212564565599522526e-01,0.000000000000000000e+00
7.060000000000000000e+02,-9.442320594296667036e-01,0.000000000000000000e+00
7.070000000000000000e+02,-8.174711164986759870e-01,0.000000000000000000e+00
7.080000000000000000e+02,-8.106289085196873856e-01,0.000000000000000000e+00
7.090000000000000000e+02,-5.569077517681426670e-01,0.000000000000000000e+00
7.100000000000000000e+02,-5.771133055855228733e-01,0.000000000000000000e+00
7.110000000000000000e+02,-4.543782970809328581e-01,0.000000000000000000e+00
7.120000000000000000e+02,-3.209018768748133077e-01,0.000000000000000000e+00
7.130000000000000000e+02,-3.173417466185328717e-01,0.000000000000000000e+00
7.140000000000000000e+02,-3.004962756985427585e-01,0.000000000000000000e+00
7.150000000000000000e+02,-2.132256664465080886e-01,0.000000000000000000e+00
7.160000000000000000e+02,-2.155082753718589039e-01,0.000000000000000000e+00
7.170000000000000000e+02,-1.708192793458094272e-01,0.000000000000000000e+00
7.180000000000000000e+02,-9.470035898284108467e-02,0.000000000000000000e+00
7.190000000000000000e+02,-1.671297760809932753e-01,0.000000000000000000e+00
7.200000000000000000e+02,-7.315139361761015258e-02,0.000000000000000000e+00
7.210000000000000000e+02,-3.973930607715547673e-03,0.000000000000000000e+00
7.220000000000000000e+02,-1.190552047898960943e-02,0.000000000000000000e+00
7.230000000000000000e+02,8.748634763290386029e-02,0.000000000000000000e+00
7.240000000000000000e+02,9.946922675198218919e-03,0.000000000000000000e+00
7.250000000000000000e+02,1.264671136196933998e-01,0.000000000000000000e+00
7.260000000000000000e+02,7.981282863704078356e-02,0.000000000000000000e+00
7.270000000000000000e+02,2.056298848370713139e-01,0.000000000000000000e+00
7.280000000000000000e+02,1.489669455712990531e-01,0.000000000000000000e+00
7.290000000000000000e+02,2.185150781786186214e-01,0.000000000000000000e+00
7.300000000000000000e+02,1.776050166980774336e-01,0.000000000000000000e+00
7.310000000000000000e+02,1.325357607825883299e-01,0.000000000000000000e+00
7.320000000000000000e+02,2.132318755295745383e-01,0.000000000000000000e+00
7.330000000000000000e+02,2.504477989793689741e-01,0.000000000000000000e+00
7.340000000000000000e+02,2.693180696315055078e-01,0.000000000000000000e+00
7.350000000000000000e+02,3.143607972413122176e-01,0.000000000000000000e+00
7.360000000000000000e+02,4.132890178415794535e-01,0.000000000000000000e+00
7.370000000000000000e+02,4.088907054797434326e-01,0.000000000000000000e+00
7.380000000000000000e+02,2.863025011179313184e-01,0.000000000000000000e+00
7.390000000000000000e+02,1.686519661018908711e-01,0.000000000000000000e+00
7.400000000000000000e+02,6.806484317147742935e-02,0.000000000000000000e+00
7.410000000000000000e+02,1.136922321672272224e-01,0.000000000000000000e+00
7.420000000000000000e+02,5.582585547989930147e-02,0.000000000000000000e+00
7.430000000000000000e+02,1.884911015060241890e-01,0.000000000000000000e+00
7.440000000000000000e+02,1.492395065528024090e-01,0.000000000000000000e+00
7.450000000000000000e+02,3.159898714234765649e+00,0.000000000000000000e+00
7.460000000000000000e+02,5.961875643375807776e+00,0.000000000000000000e+00
7.470000000000000000e+02,-1.331215512793978983e-01,1.000000000000000000e+00
7.480000000000000000e+02,-2.045233093002020830e+00,0.000000000000000000e+00
7.490000000000000000e+02,-1.021950910985576444e+00,0.000000000000000000e+00
7.500000000000000000e+02,-1.045956692249873532e+00,0.000000000000000000e+00
7.510000000000000000e+02,-6.488935262971490259e-01,0.000000000000000000e+00
7.520000000000000000e+02,-6.625607892980308611e-01,0.000000000000000000e+00
7.530000000000000000e+02,-5.296682174524391939e-01,0.000000000000000000e+00
7.540000000000000000e+02,-4.292862752176025976e-01,0.000000000000000000e+00
7.550000000000000000e+02,-2.053744354551351181e-01,0.000000000000000000e+00
7.560000000000000000e+02,-1.658578734397823939e-01,0.000000000000000000e+00
7.570000000000000000e+02,1.517977788932611816e-01,0.000000000000000000e+00
7.580000000000000000e+02,3.344282184257511559e-01,0.000000000000000000e+00
7.590000000000000000e+02,7.344165785840645055e-01,0.000000000000000000e+00
7.600000000000000000e+02,8.046909016754832944e-01,0.000000000000000000e+00
7.610000000000000000e+02,8.658929219429666313e-01,0.000000000000000000e+00
7.620000000000000000e+02,3.861415956324399379e-01,0.000000000000000000e+00
7.630000000000000000e+02,-2.215136538064189642e-01,0.000000000000000000e+00
7.640000000000000000e+02,-7.177322480912429192e-01,0.000000000000000000e+00
7.650000000000000000e+02,-1.036852283464313240e+00,0.000000000000000000e+00
7.660000000000000000e+02,-9.803326706346394692e-01,0.000000000000000000e+00
7.670000000000000000e+02,-1.032269038017605389e+00,0.000000000000000000e+00
7.680000000000000000e+02,-9.224993402147199095e-01,0.000000000000000000e+00
7.690000000000000000e+02,-8.028972101090479097e-01,0.000000000000000000e+00
7.700000000000000000e+02,-8.162463220886838622e-01,0.000000000000000000e+00
7.710000000000000000e+02,-6.011053932152577994e-01,0.000000000000000000e+00
7.720000000000000000e+02,-5.861939223371932517e-01,0.000000000000000000e+00
7.730000000000000000e+02,-4.468311190921672726e-01,0.000000000000000000e+00
7.740000000000000000e+02,-4.420955201622721598e-01,0.000000000000000000e+00
7.750000000000000000e+02,-2.802524286816777122e-01,0.000000000000000000e+00
7.760000000000000000e+02,-2.602666743636903313e-01,0.000000000000000000e+00
7.770000000000000000e+02,-2.106497893271302713e-01,0.000000000000000000e+00
7.780000000000000000e+02,-2.297486798668084418e-01,0.000000000000000000e+00
7.790000000000000000e+02,-1.452915638712392876e-01,0.000000000000000000e+00
7.800000000000000000e+02,-1.967883652773569358e-01,0.000000000000000000e+00
7.810000000000000000e+02,-4.553975540685158835e-02,0.000000000000000000e+00
7.820000000000000000e+02,-1.005244342392984241e-01,0.000000000000000000e+00
7.830000000000000000e+02,-1.040777591539986252e-01,0.000000000000000000e+00
7.840000000000000000e+02,4.827679834442136220e-02,0.000000000000000000e+00
7.850000000000000000e+02,2.255528232947425285e-02,0.000000000000000000e+00
7.860000000000000000e+02,-5.614814175462042554e-03,0.000000000000000000e+00
7.870000000000000000e+02,9.866910581047083628e-02,0.000000000000000000e+00
7.880000000000000000e+02,1.462663854145290487e-01,0.000000000000000000e+00
7.890000000000000000e+02,1.597954672243980245e-01,0.000000000000000000e+00
7.900000000000000000e+02,1.112199207665863360e-01,0.000000000000000000e+00
7.910000000000000000e+02,2.338543707059679289e-01,0.000000000000000000e+00
7.920000000000000000e+02,2.425736341527465201e-01,0.000000000000000000e+00
7.930000000000000000e+02,3.239944455646781019e-01,0.000000000000000000e+00
7.940000000000000000e+02,2.383616745081440225e-01,0.000000000000000000e+00
7.950000000000000000e+02,4.555529453902287806e-01,0.000000000000000000e+00
7.960000000000000000e+02,3.862768753350297457e-01,0.000000000000000000e+00
7.970000000000000000e+02,3.543751863775235766e-01,0.000000000000000000e+00
7.980000000000000000e+02,2.301764101025969844e-01,0.000000000000000000e+00
7.990000000000000000e+02,1.021462219399262294e-01,0.000000000000000000e+00
8.000000000000000000e+02,7.525943687359451517e-02,0.000000000000000000e+00
8.010000000000000000e+02,1.790372055361756087e-01,0.000000000000000000e+00
8.020000000000000000e+02,8.674477458039411837e-02,0.000000000000000000e+00
8.030000000000000000e+02,1.395668521240762405e-01,0.000000000000000000e+00
8.040000000000000000e+02,1.877344471213047594e+00,0.000000000000000000e+00
8.050000000000000000e+02,5.772798101155918182e+00,0.000000000000000000e+00
8.060000000000000000e+02,1.286715726625984102e+00,1.000000000000000000e+00
8.070000000000000000e+02,-2.007899115933085010e+00,0.000000000000000000e+00
8.080000000000000000e+02,-1.021367914118470832e+00,0.000000000000000000e+00
8.090000000000000000e+02,-8.683661455337122748e-01,0.000000000000000000e+00
8.100000000000000000e+02,-6.451295220796020580e-01,0.000000000000000000e+00
8.110000000000000000e+02,-6.266495073140612160e-01,0.000000000000000000e+00
8.120000000000000000e+02,-2.962804595333249358e-01,0.000000000000000000e+00
8.130000000000000000e+02,-3.469882084717214044e-01,0.000000000000000000e+00
8.140000000000000000e+02,-1.054584242261836502e-01,0.000000000000000000e+00
8.150000000000000000e+02,-5.983736679445277040e-02,0.000000000000000000e+00
8.160000000000000000e+02,1.582654745411603558e-01,0.000000000000000000e+00
8.170000000000000000e+02,3.528919606325799929e-01,0.000000000000000000e+00
8.180000000000000000e+02,6.196380258291638299e-01,0.000000000000000000e+00
8.190000000000000000e+02,9.009474685855678455e-01,0.000000000000000000e+00
8.200000000000000000e+02,8.647532487624861597e-01,0.000000000000000000e+00
8.210000000000000000e+02,5.885357602628966678e-01,0.000000000000000000e+00
8.220000000000000000e+02,-8.223262635775841975e-03,0.000000000000000000e+00
8.230000000000000000e+02,-6.357211806874553117e-01,0.000000000000000000e+00
8.240000000000000000e+02,-9.270542480085083303e-01,0.000000000000000000e+00
8.250000000000000000e+02,-8.528643146685432885e-01,0.000000000000000000e+00
8.260000000000000000e+02,-9.376245912311889086e-01,0.000000000000000000e+00
8.270000000000000000e+02,-8.940964785183124208e-01,0.000000000000000000e+00
8.280000000000000000e+02,-7.338782000645972525e-01,0.000000000000000000e+00
8.290000000000000000e+02,-6.309979317184517544e-01,0.000000000000000000e+00
8.300000000000000000e+02,-6.179941831970553467e-01,0.000000000000000000e+00
8.310000000000000000e+02,-4.588619259980890597e-01,0.000000000000000000e+00
8.320000000000000000e+02,-4.375770019503039121e-01,0.000000000000000000e+00
8.330000000000000000e+02,-3.356882151443291717e-01,0.000000000000000000e+00
8.340000000000000000e+02,-2.758220469521869833e-01,0.000000000000000000e+00
8.350000000000000000e+02,-2.214774994054305723e-01,0.000000000000000000e+00
8.360000000000000000e+02,-1.419294434632148161e-01,0.000000000000000000e+00
8.370000000000000000e+02,-8.473347790819560355e-02,0.000000000000000000e+00
8.380000000000000000e+02,-1.492692198949531757e-01,0.000000000000000000e+00
8.390000000000000000e+02,-1.481432548477247535e-01,0.000000000000000000e+00
8.400000000000000000e+02,-1.345752421827148826e-01,0.000000000000000000e+00
8.410000000000000000e+02,-5.326369309803518498e-02,0.000000000000000000e+00
8.420000000000000000e+02,-2.956947859185948477e-02,0.000000000000000000e+00
8.430000000000000000e+02,-3.999136042129781965e-02,0.000000000000000000e+00
8.440000000000000000e+02,-4.986584308110689201e-02,0.000000000000000000e+00
8.450000000000000000e+02,1.474442660299123131e-01,0.000000000000000000e+00
8.460000000000000000e+02,2.947233974352669872e-02,0.000000000000000000e+00
8.470000000000000000e+02,1.714189790116241452e-01,0.000000000000000000e+00
8.480000000000000000e+02,4.754682700604491441e-02,0.000000000000000000e+00
8.490000000000000000e+02,1.493336627803242000e-01,0.000000000000000000e+00
8.500000000000000000e+02,9.508579479481163443e-02,0.000000000000000000e+00
8.510000000000000000e+02,2.411063802319145244e-01,0.000000000000000000e+00
8.520000000000000000e+02,1.443942843782015650e-01,0.000000000000000000e+00
8.530000000000000000e+02,2.487189469535323882e-01,0.000000000000000000e+00
8.540000000000000000e+02,1.836510084419219480e-01,0.000000000000000000e+00
8.550000000000000000e+02,4.287671103058697808e-01,0.000000000000000000e+00
8.560000000000000000e+02,3.588175959240446633e-01,0.000000000000000000e+00
8.570000000000000000e+02,3.567549689355110631e-01,0.000000000000000000e+00
8.580000000000000000e+02,1.457554757476530460e-01,0.000000000000000000e+00
8.590000000000000000e+02,5.751104578627770636e-02,0.000000000000000000e+00
8.600000000000000000e+02,5.753867995359782106e-02,0.000000000000000000e+00
8.610000000000000000e+02,1.060245502978057475e-01,0.000000000000000000e+00
8.620000000000000000e+02,5.985026332288775897e-02,0.000000000000000000e+00
8.630000000000000000e+02,1.970878839755159928e-01,0.000000000000000000e+00
8.640000000000000000e+02,1.336722550258528042e+00,0.000000000000000000e+00
8.650000000000000000e+02,5.835808359165761239e+00,0.000000000000000000e+00
8.660000000000000000e+02,2.442138490417278263e+00,1.000000000000000000e+00
8.670000000000000000e+02,-2.231346629126168768e+00,0.000000000000000000e+00
8.680000000000000000e+02,-1.124739689789969965e+00,0.000000000000000000e+00
8.690000000000000000e+02,-1.093133267604673442e+00,0.000000000000000000e+00
8.700000000000000000e+02,-6.902096133908083297e-01,0.000000000000000000e+00
8.710000000000000000e+02,-7.357289318960922309e-01,0.000000000000000000e+00
8.720000000000000000e+02,-4.744514507512888613e-01,0.000000000000000000e+00
8.730000000000000000e+02,-4.852606574065979061e-01,0.000000000000000000e+00
8.740000000000000000e+02,-2.463013468373145554e-01,0.000000000000000000e+00
8.750000000000000000e+02,-2.004264228717974050e-01,0.000000000000000000e+00
8.760000000000000000e+02,-1.297126749109077902e-02,0.000000000000000000e+00
8.770000000000000000e+02,2.476683100407310600e-01,0.000000000000000000e+00
8.780000000000000000e+02,6.824270641690760586e-01,0.000000000000000000e+00
8.790000000000000000e+02,7.396969679189071556e-01,0.000000000000000000e+00
8.800000000000000000e+02,8.651667391374986416e-01,0.000000000000000000e+00
8.810000000000000000e+02,5.681269282174361557e-01,0.000000000000000000e+00
8.820000000000000000e+02,1.071252039470045048e-01,0.000000000000000000e+00
8.830000000000000000e+02,-5.560039855530901631e-01,0.000000000000000000e+00
8.840000000000000000e+02,-8.452022430811600984e-01,0.000000000000000000e+00
8.850000000000000000e+02,-9.786207211171278342e-01,0.000000000000000000e+00
8.860000000000000000e+02,-8.988423936802077963e-01,0.000000000000000000e+00
8.870000000000000000e+02,-8.471582161815741641e-01,0.000000000000000000e+00
8.880000000000000000e+02,-7.396642896867910988e-01,0.000000000000000000e+00
8.890000000000000000e+02,-7.340340172147264974e-01,0.000000000000000000e+00
8.900000000000000000e+02,-5.231731229438458808e-01,0.000000000000000000e+00
8.910000000000000000e+02,-5.231253281749412842e-01,0.000000000000000000e+00
8.920000000000000000e+02,-3.301951981911311895e-01,0.000000000000000000e+00
8.930000000000000000e+02,-4.237683072874814383e-01,0.000000000000000000e+00
8.940000000000000000e+02,-2.783597719321709851e-01,0.000000000000000000e+00
8.950000000000000000e+02,-1.913326674305874109e-01,0.000000000000000000e+00
8.960000000000000000e+02,-1.715720081540589026e-01,0.000000000000000000e+00
8.970000000000000000e+02,-1.490223435981007927e-01,0.000000000000000000e+00
8.980000000000000000e+02,-1.006993127448338882e-01,0.000000000000000000e+00
8.990000000000000000e+02,-1.111353272742403447e-01,0.000000000000000000e+00
9.000000000000000000e+02,-1.040614799198905649e-01,0.000000000000000000e+00
9.010000000000000000e+02,3.054018495760026097e-02,0.000000000000000000e+00
9.020000000000000000e+02,-8.873782984273758181e-03,0.000000000000000000e+00
9.030000000000000000e+02,4.323966300321384348e-02,0.000000000000000000e+00
9.040000000000000000e+02,-4.027791817668847918e-02,0.000000000000000000e+00
9.050000000000000000e+02,1.043088217615402435e-01,0.000000000000000000e+00
9.060000000000000000e+02,1.011193111803027761e-01,0.000000000000000000e+00
9.070000000000000000e+02,1.082831349731573634e-01,0.000000000000000000e+00
9.080000000000000000e+02,1.778773690347564274e-01,0.000000000000000000e+00
9.090000000000000000e+02,1.491455889797485834e-01,0.000000000000000000e+00
9.100000000000000000e+02,1.597590471663155598e-01,0.000000000000000000e+00
9.110000000000000000e+02,2.083513157888306766e-01,0.000000000000000000e+00
9.120000000000000000e+02,2.357593506716696707e-01,0.000000000000000000e+00
9.130000000000000000e+02,1.822083230176639590e-01,0.000000000000000000e+00
9.140000000000000000e+02,2.436409082770745749e-01,0.000000000000000000e+00
9.150000000000000000e+02,2.666802456835979940e-01,0.000000000000000000e+00
9.160000000000000000e+02,3.181683365587266166e-01,0.000000000000000000e+00
9.170000000000000000e+02,3.194652080841614561e-01,0.000000000000000000e+00
9.180000000000000000e+02,4.796145972175110406e-01,0.000000000000000000e+00
9.190000000000000000e+02,4.738624326137719223e-01,0.000000000000000000e+00
9.200000000000000000e+02,3.067210315662002862e-01,0.000000000000000000e+00
9.210000000000000000e+02,1.541866174194562733e-01,0.000000000000000000e+00
9.220000000000000000e+02,5.284800818686750945e-02,0.000000000000000000e+00
9.230000000000000000e+02,6.302555492322736708e-02,0.000000000000000000e+00
9.240000000000000000e+02,1.157755589050201150e-01,0.000000000000000000e+00
9.250000000000000000e+02,1.597024864885717155e-01,0.000000000000000000e+00
9.260000000000000000e+02,2.085302865949601459e-01,0.000000000000000000e+00
9.270000000000000000e+02,3.202117112106920072e+00,0.000000000000000000e+00
9.280000000000000000e+02,5.859081964279009291e+00,0.000000000000000000e+00
9.290000000000000000e+02,-3.005226614185156353e-01,1.000000000000000000e+00
9.300000000000000000e+02,-1.928310985897840890e+00,0.000000000000000000e+00
9.310000000000000000e+02,-1.098838129835534749e+00,0.000000000000000000e+00
9.320000000000000000e+02,-1.034083666760564846e+00,0.000000000000000000e+00
9.330000000000000000e+02,-8.055631972504568861e-01,0.000000000000000000e+00
9.340000000000000000e+02,-7.512634202138502859e-01,0.000000000000000000e+00
9.350000000000000000e+02,-4.759796768341100770e-01,0.000000000000000000e+00
9.360000000000000000e+02,-4.452703385859859142e-01,0.000000000000000000e+00
9.370000000000000000e+02,-2.732819904855352533e-01,0.000000000000000000e+00
9.380000000000000000e+02,-1.389014874837393443e-01,0.000000000000000000e+00
9.390000000000000000e+02,1.039964744905342159e-01,0.000000000000000000e+00
9.400000000000000000e+02,3.395238089701042017e-01,0.000000000000000000e+00
9.410000000000000000e+02,6.569102889204201379e-01,0.000000000000000000e+00
9.420000000000000000e+02,7.862946393832429548e-01,0.000000000000000000e+00
9.430000000000000000e+02,7.483236737007710193e-01,0.000000000000000000e+00
9.440000000000000000e+02,3.554985577093309757e-01,0.000000000000000000e+00
9.450000000000000000e+02,-3.232254018383494132e-01,0.000000000000000000e+00
9.460000000000000000e+02,-7.901499104526281680e-01,0.000000000000000000e+00
9.470000000000000000e+02,-1.052936347375151849e+00,0.000000000000000000e+00
9.480000000000000000e+02,-1.042865565776545544e+00,0.000000000000000000e+00
9.490000000000000000e+02,-1.056887202744803744e+00,0.000000000000000000e+00
9.500000000000000000e+02,-9.015980592808032767e-01,0.000000000000000000e+00
9.510000000000000000e+02,-8.338168120393989469e-01,0.000000000000000000e+00
9.520000000000000000e+02,-7.621723578090963125e-01,0.000000000000000000e+00
9.530000000000000000e+02,-6.513271283559411984e-01,0.000000000000000000e+00
9.540000000000000000e+02,-5.368566569305349701e-01,0.000000000000000000e+00
9.550000000000000000e+02,-4.910507193148948013e-01,0.000000000000000000e+00
9.560000000000000000e+02,-4.262702689512558596e-01,0.000000000000000000e+00
9.570000000000000000e+02,-2.851184113342167814e-01,0.000000000000000000e+00
9.580000000000000000e+02,-3.582207210830868349e-01,0.000000000000000000e+00
9.590000000000000000e+02,-2.306874321506961756e-01,0.000000000000000000e+00
9.600000000000000000e+02,-1.977686982012311911e-01,0.000000000000000000e+00
9.610000000000000000e+02,-2.318981717996917435e-01,0.000000000000000000e+00
9.620000000000000000e+02,-7.202371837446978897e-02,0.000000000000000000e+00
9.630000000000000000e+02,-1.844354937123353633e-01,0.000000000000000000e+00
9.640000000000000000e+02,-1.137483184544173520e-01,0.000000000000000000e+00
9.650000000000000000e+02,-1.269198174536240176e-01,0.000000000000000000e+00
9.660000000000000000e+02,-1.011048710017518198e-01,0.000000000000000000e+00
9.670000000000000000e+02,-1.959250953588067765e-02,0.000000000000000000e+00
9.680000000000000000e+02,5.442147109224415580e-02,0.000000000000000000e+00
9.690000000000000000e+02,8.502252959607865812e-02,0.000000000000000000e+00
9.700000000000000000e+02,2.993771665508150256e-02,0.000000000000000000e+00
9.710000000000000000e+02,1.459292376556056425e-01,0.000000000000000000e+00
9.720000000000000000e+02,5.239884131940519829e-02,0.000000000000000000e+00
9.730000000000000000e+02,1.400600611494160486e-01,0.000000000000000000e+00
9.740000000000000000e+02,1.400921616726951147e-01,0.000000000000000000e+00
9.750000000000000000e+02,2.416892440387792829e-01,0.000000000000000000e+00
9.760000000000000000e+02,1.867790254408700223e-01,0.000000000000000000e+00
9.770000000000000000e+02,2.921676616524487846e-01,0.000000000000000000e+00
9.780000000000000000e+02,3.895187849092551780e-01,0.000000000000000000e+00
9.790000000000000000e+02,3.433441680390545425e-01,0.000000000000000000e+00
9.800000000000000000e+02,1.458247391455926023e-01,0.000000000000000000e+00
9.810000000000000000e+02,9.960718355888463493e-02,0.000000000000000000e+00
9.820000000000000000e+02,2.830411226847458217e-02,0.000000000000000000e+00
9.830000000000000000e+02,6.231078483949192837e-02,0.000000000000000000e+00
9.840000000000000000e+02,2.222094500556829055e-01,0.000000000000000000e+00
9.850000000000000000e+02,1.072281349090708213e-01,0.000000000000000000e+00
9.860000000000000000e+02,1.717122267952354342e+00,0.000000000000000000e+00
9.870000000000000000e+02,5.577545638861157506e+00,0.000000000000000000e+00
9.880000000000000000e+02,1.690837233375293458e+00,1.000000000000000000e+00
9.890000000000000000e+02,-2.162239750616710587e+00,0.000000000000000000e+00
9.900000000000000000e+02,-1.153377283208618431e+00,0.000000000000000000e+00
9.910000000000000000e+02,-1.023462160442486724e+00,0.000000000000000000e+00
9.920000000000000000e+02,-6.153284800085901951e-01,0.000000000000000000e+00
9.930000000000000000e+02,-7.094819600637289891e-01,0.000000000000000000e+00
9.940000000000000000e+02,-3.417231354523433962e-01,0.000000000000000000e+00
9.950000000000000000e+02,-3.051019207454231941e-01,0.000000000000000000e+00
9.960000000000000000e+02,-1.761988736505875064e-01,0.000000000000000000e+00
9.970000000000000000e+02,-8.489625476849869956e-02,0.000000000000000000e+00
9.980000000000000000e+02,1.180291253535627610e-01,0.000000000000000000e+00
9.990000000000000000e+02,3.969230157581115637e-01,0.000000000000000000e+00
1.000000000000000000e+03,6.863058600116120900e-01,0.000000000000000000e+00
1.001000000000000000e+03,8.797714269259900854e-01,0.000000000000000000e+00
1.002000000000000000e+03,8.833228913977752006e-01,0.000000000000000000e+00
1.003000000000000000e+03,6.273697882704256656e-01,0.000000000000000000e+00
1.004000000000000000e+03,-1.688740139821735473e-02,0.000000000000000000e+00
1.005000000000000000e+03,-4.754764769779170064e-01,0.000000000000000000e+00
1.006000000000000000e+03,-8.365109401082482243e-01,0.000000000000000000e+00
1.007000000000000000e+03,-9.190574431228432095e-01,0.000000000000000000e+00
1.008000000000000000e+03,-9.418205686377197905e-01,0.000000000000000000e+00
1.009000000000000000e+03,-7.535562721913925399e-01,0.000000000000000000e+00
1.010000000000000000e+03,-7.046446774883083908e-01,0.000000000000000000e+00
1.011000000000000000e+03,-6.719788292454471623e-01,0.000000000000000000e+00
1.012000000000000000e+03,-4.821344868668305805e-01,0.000000000000000000e+00
1.013000000000000000e+03,-4.720610203001857075e-01,0.000000000000000000e+00
1.014000000000000000e+03,-3.773806908694213869e-01,0.000000000000000000e+00
1.015000000000000000e+03,-2.820310299643334351e-01,0.000000000000000000e+00
1.016000000000000000e+03,-2.011396308373588904e-01,0.000000000000000000e+00
1.017000000000000000e+03,-1.878808323445535777e-01,0.000000000000000000e+00
1.018000000000000000e+03,-5.590236885070246076e-02,0.000000000000000000e+00
1.019000000000000000e+03,-1.594664962714372469e-01,0.000000000000000000e+00
1.020000000000000000e+03,-2.656417169354223506e-02,0.000000000000000000e+00
1.021000000000000000e+03,-1.101686396873659407e-01,0.000000000000000000e+00
1.022000000000000000e+03,-2.677637166346840888e-02,0.000000000000000000e+00
1.023000000000000000e+03,1.650919335153485865e-02,0.000000000000000000e+00
1.024000000000000000e+03,8.658906262159423578e-03,0.000000000000000000e+00
1.025000000000000000e+03,1.248794158984443542e-01,0.000000000000000000e+00
1.026000000000000000e+03,3.130592810522520725e-02,0.000000000000000000e+00
1.027000000000000000e+03,1.416793356861050235e-01,0.000000000000000000e+00
1.028000000000000000e+03,1.576592650856726563e-01,0.000000000000000000e+00
1.029000000000000000e+03,1.692979638996612302e-01,0.000000000000000000e+00
1.030000000000000000e+03,1.530625755944629018e-01,0.000000000000000000e+00
1.031000000000000000e+03,2.760534465627501044e-01,0.000000000000000000e+00
1.032000000000000000e+03,1.834203883725923911e-01,0.000000000000000000e+00
1.033000000000000000e+03,2.600128549050182980e-01,0.000000000000000000e+00
1.034000000000000000e+03,2.743327204841452538e-01,0.000000000000000000e+00
1.035000000000000000e+03,2.389230909660652324e-01,0.000000000000000000e+00
1.036000000000000000e+03,3.453703470694942101e-01,0.000000000000000000e+00
1.037000000000000000e+03,4.303468531998624336e-01,0.000000000000000000e+00
1.038000000000000000e+03,3.723511971891552697e-01,0.000000000000000000e+00
1.039000000000000000e+03,3.729401397125496898e-01,0.000000000000000000e+00
1.040000000000000000e+03,1.790651988593945365e-01,0.000000000000000000e+00
1.041000000000000000e+03,7.411027167172054564e-02,0.000000000000000000e+00
1.042000000000000000e+03,4.752089552084468732e-02,0.000000000000000000e+00
1.043000000000000000e+03,1.288177514168077908e-01,0.000000000000000000e+00
1.044000000000000000e+03,1.549421572684205606e-01,0.000000000000000000e+00
1.045000000000000000e+03,7.272705636076089164e-02,0.000000000000000000e+00
1.046000000000000000e+03,2.641919656495587798e+00,0.000000000000000000e+00
1.047000000000000000e+03,5.996266089158901025e+00,0.000000000000000000e+00
1.048000000000000000e+03,3.992798378065329223e-01,1.000000000000000000e+00
1.049000000000000000e+03,-2.079367197840468418e+00,0.000000000000000000e+00
1.050000000000000000e+03,-1.038071005028058158e+00,0.000000000000000000e+00
1.051000000000000000e+03,-1.043661205979542927e+00,0.000000000000000000e+00
1.052000000000000000e+03,-7.122421254130489876e-01,0.000000000000000000e+00
1.053000000000000000e+03,-6.396014520594889285e-01,0.000000000000000000e+00
1.054000000000000000e+03,-5.357220697541029697e-01,0.000000000000000000e+00
1.055000000000000000e+03,-4.010934095984167169e-01,0.000000000000000000e+00
1.056000000000000000e+03,-2.023898069291945045e-01,0.000000000000000000e+00
1.057000000000000000e+03,-1.227748804303674252e-01,0.000000000000000000e+00
1.058000000000000000e+03,1.302796798900764386e-01,0.000000000000000000e+00
1.059000000000000000e+03,3.508194965365623585e-01,0.000000000000000000e+00
1.060000000000000000e+03,6.818505713360176745e-01,0.000000000000000000e+00
1.061000000000000000e+03,8.094287054282712779e-01,0.000000000000000000e+00
1.062000000000000000e+03,9.184018117242888080e-01,0.000000000000000000e+00
1.063000000000000000e+03,4.216136338849820753e-01,0.000000000000000000e+00
1.064000000000000000e+03,-1.240071660424434813e-01,0.000000000000000000e+00
1.065000000000000000e+03,-6.100397995314010835e-01,0.000000000000000000e+00
1.066000000000000000e+03,-8.854006795307080013e-01,0.000000000000000000e+00
1.067000000000000000e+03,-1.022748652195769825e+00,0.000000000000000000e+00
1.068000000000000000e+03,-9.081735200279434927e-01,0.000000000000000000e+00
1.069000000000000000e+03,-7.985499785985934462e-01,0.000000000000000000e+00
1.070000000000000000e+03,-8.132033681243444612e-01,0.000000000000000000e+00
1.071000000000000000e+03,-6.472565556138476506e-01,0.000000000000000000e+00
1.072000000000000000e+03,-5.840885440873033740e-01,0.000000000000000000e+00
1.073000000000000000e+03,-4.473965009978754237e-01,0.000000000000000000e+00
1.074000000000000000e+03,-4.160598803689414260e-01,0.000000000000000000e+00
1.075000000000000000e+03,-2.958915774717865710e-01,0.000000000000000000e+00
1.076000000000000000e+03,-2.600414902884431445e-01,0.000000000000000000e+00
1.077000000000000000e+03,-2.983421621631913712e-01,0.000000000000000000e+00
1.078000000000000000e+03,-1.607016175101764477e-01,0.000000000000000000e+00
1.079000000000000000e+03,-1.806691784916416299e-01,0.000000000000000000e+00
1.080000000000000000e+03,-1.675538037837858707e-01,0.000000000000000000e+00
1.081000000000000000e+03,-1.342358354135432252e-01,0.000000000000000000e+00
1.082000000000000000e+03,-4.284787811607673746e-02,0.000000000000000000e+00
1.083000000000000000e+03,-1.336263806804127152e-01,0.000000000000000000e+00
1.084000000000000000e+03,1.597146709098943435e-02,0.000000000000000000e+00
1.085000000000000000e+03,1.728396702601178031e-02,0.000000000000000000e+00
1.086000000000000000e+03,4.077742812700844294e-02,0.000000000000000000e+00
1.087000000000000000e+03,9.967792896356516413e-03,0.000000000000000000e+00
1.088000000000000000e+03,1.278023320625928105e-01,0.000000000000000000e+00
1.089000000000000000e+03,1.568848426550590036e-01,0.000000000000000000e+00
1.090000000000000000e+03,1.821225742058614483e-01,0.000000000000000000e+00
1.091000000000000000e+03,1.397815673877531584e-01,0.000000000000000000e+00
1.092000000000000000e+03,1.773229229377467908e-01,0.000000000000000000e+00
1.093000000000000000e+03,1.397765160263401973e-01,0.000000000000000000e+00
1.094000000000000000e+03,2.744700691543400239e-01,0.000000000000000000e+00
1.095000000000000000e+03,1.831675957409666655e-01,0.000000000000000000e+00
1.096000000000000000e+03,2.780983731286401639e-01,0.000000000000000000e+00
1.097000000000000000e+03,4.057589855636877796e-01,0.000000000000000000e+00
1.098000000000000000e+03,4.934155996926045118e-01,0.000000000000000000e+00
1.099000000000000000e+03,3.163151047446395303e-01,0.000000000000000000e+00
1.100000000000000000e+03,9.405974870271024968e-02,0.000000000000000000e+00
1.101000000000000000e+03,5.049596118043760129e-02,0.000000000000000000e+00
1.102000000000000000e+03,5.588206330412320150e-02,0.000000000000000000e+00
1.103000000000000000e+03,9.513461476820608831e-02,0.000000000000000000e+00
1.104000000000000000e+03,7.007783588111078654e-02,0.000000000000000000e+00
1.105000000000000000e+03,1.065829598205907530e-01,0.000000000000000000e+00
1.106000000000000000e+03,1.459132661103902384e+00,0.000000000000000000e+00
1.107000000000000000e+03,5.667196262249491134e+00,0.000000000000000000e+00
1.108000000000000000e+03,2.146091049525367556e+00,1.000000000000000000e+00
1.109000000000000000e+03,-2.275381560594488484e+00,0.000000000000000000e+00
1.110000000000000000e+03,-1.140692040441975585e+00,0.000000000000000000e+00
1.111000000000000000e+03,-1.119819498483651810e+00,0.000000000000000000e+00
1.112000000000000000e+03,-7.006462522200325171e-01,0.000000000000000000e+00
1.113000000000000000e+03,-7.029444256340072750e-01,0.000000000000000000e+00
1.114000000000000000e+03,-4.401233443911807264e-01,0.000000000000000000e+00
1.115000000000000000e+03,-4.948242705540946695e-01,0.000000000000000000e+00
1.116000000000000000e+03,-1.861312880720778495e-01,0.000000000000000000e+00
1.117000000000000000e+03,-2.208303688919427410e-01,0.000000000000000000e+00
1.118000000000000000e+03,7.918881544918349169e-02,0.000000000000000000e+00
1.119000000000000000e+03,2.887087600573408075e-01,0.000000000000000000e+00
1.120000000000000000e+03,6.253309025083971795e-01,0.000000000000000000e+00
1.121000000000000000e+03,7.054765520273805768e-01,0.000000000000000000e+00
1.122000000000000000e+03,8.558742034158770551e-01,0.000000000000000000e+00
1.123000000000000000e+03,5.944322300195162834e-01,0.000000000000000000e+00
1.124000000000000000e+03,-4.484578727009479876e-02,0.000000000000000000e+00
1.125000000000000000e+03,-6.952869157645111819e-01,0.000000000000000000e+00
1.126000000000000000e+03,-9.486394005081283387e-01,0.000000000000000000e+00
1.127000000000000000e+03,-1.066785900523419262e+00,0.000000000000000000e+00
1.128000000000000000e+03,-1.028269890475729476e+00,0.000000000000000000e+00
1.129000000000000000e+03,-9.661317666909904345e-01,0.000000000000000000e+00
1.130000000000000000e+03,-8.656245359038946541e-01,0.000000000000000000e+00
1.131000000000000000e+03,-7.769145487707964648e-01,0.000000000000000000e+00
1.132000000000000000e+03,-6.941160117205238400e-01,0.000000000000000000e+00
1.133000000000000000e+03,-6.724381563036011533e-01,0.000000000000000000e+00
1.134000000000000000e+03,-3.609591614762754364e-01,0.000000000000000000e+00
1.135000000000000000e+03,-5.103329598552341917e-01,0.000000000000000000e+00
1.136000000000000000e+03,-2.977360905677909897e-01,0.000000000000000000e+00
1.137000000000000000e+03,-3.369079849914397573e-01,0.000000000000000000e+00
1.138000000000000000e+03,-2.628949939249332624e-01,0.000000000000000000e+00
1.139000000000000000e+03,-2.551728770053475204e-01,0.000000000000000000e+00
1.140000000000000000e+03,-1.872386209937281776e-01,0.000000000000000000e+00
1.141000000000000000e+03,-2.866972113468421179e-01,0.000000000000000000e+00
1.142000000000000000e+03,-1.134602385971522215e-01,0.000000000000000000e+00
1.143000000000000000e+03,-1.684190225953204889e-01,0.000000000000000000e+00
1.144000000000000000e+03,-5.477254780353770641e-02,0.000000000000000000e+00
1.145000000000000000e+03,-1.081355325475008844e-01,0.000000000000000000e+00
1.146000000000000000e+03,1.883637552128421266e-02,0.000000000000000000e+00
1.147000000000000000e+03,-7.847382503999972281e-02,0.000000000000000000e+00
1.148000000000000000e+03,2.161133030860278373e-02,0.000000000000000000e+00
1.149000000000000000e+03,-4.754712970137043443e-02,0.000000000000000000e+00
1.150000000000000000e+03,1.204682488288418146e-01,0.000000000000000000e+00
1.151000000000000000e+03,1.289757436297103987e-01,0.000000000000000000e+00
1.152000000000000000e+03,1.768938277380751045e-01,0.000000000000000000e+00
1.153000000000000000e+03,1.771037146089637082e-01,0.000000000000000000e+00
1.154000000000000000e+03,3.642915932215384234e-01,0.000000000000000000e+00
1.155000000000000000e+03,1.816593395991890625e-01,0.000000000000000000e+00
1.156000000000000000e+03,4.608748790140164697e-01,0.000000000000000000e+00
1.157000000000000000e+03,7.186594266846675627e-02,0.000000000000000000e+00
1.158000000000000000e+03,8.008199931667842053e-02,0.000000000000000000e+00
1.159000000000000000e+03,-5.825472015442220708e-02,0.000000000000000000e+00
1.160000000000000000e+03,1.514790402925887125e-01,0.000000000000000000e+00
1.161000000000000000e+03,1.074831093397501242e-01,0.000000000000000000e+00
1.162000000000000000e+03,2.122684056930203012e-01,0.000000000000000000e+00
1.163000000000000000e+03,1.714014397039176352e+00,0.000000000000000000e+00
1.164000000000000000e+03,5.841808539833591496e+00,0.000000000000000000e+00
1.165000000000000000e+03,1.719104308255934965e+00,1.000000000000000000e+00
1.166000000000000000e+03,-2.086535295649527999e+00,0.000000000000000000e+00
1.167000000000000000e+03,-1.043687249253853588e+00,0.000000000000000000e+00
1.168000000000000000e+03,-9.533110016742940562e-01,0.000000000000000000e+00
1.169000000000000000e+03,-5.508223871087495338e-01,0.000000000000000000e+00
1.170000000000000000e+03,-5.240628558820044081e-01,0.000000000000000000e+00
1.171000000000000000e+03,-3.477195814900873594e-01,0.000000000000000000e+00
1.172000000000000000e+03,-2.665022425418841490e-01,0.000000000000000000e+00
1.173000000000000000e+03,-3.741177243377876577e-02,0.000000000000000000e+00
1.174000000000000000e+03,-4.991992317754169461e-02,0.000000000000000000e+00
1.175000000000000000e+03,2.682248206692007253e-01,0.000000000000000000e+00
1.176000000000000000e+03,4.943867549127040073e-01,0.000000000000000000e+00
1.177000000000000000e+03,7.232311456049176357e-01,0.000000000000000000e+00
1.178000000000000000e+03,9.283764472426312420e-01,0.000000000000000000e+00
1.179000000000000000e+03,1.076188920735696053e+00,0.000000000000000000e+00
1.180000000000000000e+03,6.770920910181672525e-01,0.000000000000000000e+00
1.181000000000000000e+03,7.475586916160520401e-02,0.000000000000000000e+00
1.182000000000000000e+03,-4.769493748242125686e-01,0.000000000000000000e+00
1.183000000000000000e+03,-7.531681838246726546e-01,0.000000000000000000e+00
1.184000000000000000e+03,-7.719668492440180385e-01,0.000000000000000000e+00
1.185000000000000000e+03,-7.157192103991354415e-01,0.000000000000000000e+00
1.186000000000000000e+03,-6.783009063965534935e-01,0.000000000000000000e+00
1.187000000000000000e+03,-6.833318426898061793e-01,0.000000000000000000e+00
1.188000000000000000e+03,-5.077743885451447836e-01,0.000000000000000000e+00
1.189000000000000000e+03,-4.408252261078236534e-01,0.000000000000000000e+00
1.190000000000000000e+03,-3.138937922138188563e-01,0.000000000000000000e+00
1.191000000000000000e+03,-3.592080412480714302e-01,0.000000000000000000e+00
1.192000000000000000e+03,-1.804470899544409757e-01,0.000000000000000000e+00
1.193000000000000000e+03,-1.888105748849097376e-01,0.000000000000000000e+00
1.194000000000000000e+03,-1.709301337922969621e-01,0.000000000000000000e+00
1.195000000000000000e+03,-1.587192558522945163e-01,0.000000000000000000e+00
1.196000000000000000e+03,-9.106160805535495895e-02,0.000000000000000000e+00
1.197000000000000000e+03,-1.026785931100436672e-01,0.000000000000000000e+00
1.198000000000000000e+03,-9.446723910400944835e-02,0.000000000000000000e+00
1.199000000000000000e+03,-3.167005659670522194e-02,0.000000000000000000e+00
1.200000000000000000e+03,-4.217179155660007173e-02,0.000000000000000000e+00
1.201000000000000000e+03,-2.602344848801921295e-02,0.000000000000000000e+00
1.202000000000000000e+03,-1.482428393483633047e-02,0.000000000000000000e+00
1.203000000000000000e+03,7.936532716361365675e-03,0.000000000000000000e+00
1.204000000000000000e+03,1.401460943320231300e-01,0.000000000000000000e+00
1.205000000000000000e+03,8.742566606093102322e-02,0.000000000000000000e+00
1.206000000000000000e+03,2.072894519364364141e-01,0.000000000000000000e+00
1.207000000000000000e+03,8.134289417519387222e-02,0.000000000000000000e+00
1.208000000000000000e+03,1.394482358876008021e-01,0.000000000000000000e+00
1.209000000000000000e+03,1.687443444630277734e-01,0.000000000000000000e+00
1.210000000000000000e+03,1.925099493343137846e-01,0.000000000000000000e+00
1.211000000000000000e+03,2.159434080315570104e-01,0.000000000000000000e+00
1.212000000000000000e+03,3.720411668985346143e-01,0.000000000000000000e+00
1.213000000000000000e+03,2.761838506826627682e-01,0.000000000000000000e+00
1.214000000000000000e+03,4.234442963708113239e-01,0.000000000000000000e+00
1.215000000000000000e+03,1.400700190824602509e-01,0.000000000000000000e+00
1.216000000000000000e+03,8.794135506970342242e-02,0.000000000000000000e+00
1.217000000000000000e+03,-1.155614556808477189e-01,0.000000000000000000e+00
1.218000000000000000e+03,1.342031179516861017e-01,0.000000000000000000e+00
1.219000000000000000e+03,-3.756106660941449515e-02,0.000000000000000000e+00
1.220000000000000000e+03,1.132953097821352978e-01,0.000000000000000000e+00
1.221000000000000000e+03,3.939195886598861884e-01,0.000000000000000000e+00
1.222000000000000000e+03,4.734414353223917793e+00,0.000000000000000000e+00
1.223000000000000000e+03,4.505760158477613686e+00,0.000000000000000000e+00
1.224000000000000000e+03,-1.797893165617340916e+00,1.000000000000000000e+00
1.225000000000000000e+03,-1.521255553116886761e+00,0.000000000000000000e+00
1.226000000000000000e+03,-1.290400746105681007e+00,0.000000000000000000e+00
1.227000000000000000e+03,-8.752146488185202911e-01,0.000000000000000000e+00
1.228000000000000000e+03,-8.472758107472230238e-01,0.000000000000000000e+00
1.229000000000000000e+03,-6.662076610440234026e-01,0.000000000000000000e+00
1.230000000000000000e+03,-6.036822220057708188e-01,0.000000000000000000e+00
1.231000000000000000e+03,-3.012722005260827229e-01,0.000000000000000000e+00
1.232000000000000000e+03,-3.152007017926180543e-01,0.000000000000000000e+00
1.233000000000000000e+03,-4.273963669111618957e-02,0.000000000000000000e+00
1.234000000000000000e+03,1.087695569237474430e-01,0.000000000000000000e+00
1.235000000000000000e+03,4.309865099078646899e-01,0.000000000000000000e+00
1.236000000000000000e+03,7.291861816057059187e-01,0.000000000000000000e+00
1.237000000000000000e+03,8.307641012209681097e-01,0.000000000000000000e+00
1.238000000000000000e+03,6.980534903345282371e-01,0.000000000000000000e+00
1.239000000000000000e+03,1.963400890610270955e-01,0.000000000000000000e+00
1.240000000000000000e+03,-4.592093201889007603e-01,0.000000000000000000e+00
1.241000000000000000e+03,-8.779119531575576563e-01,0.000000000000000000e+00
1.242000000000000000e+03,-9.731070847197044182e-01,0.000000000000000000e+00
1.243000000000000000e+03,-1.053689488446590827e+00,0.000000000000000000e+00
1.244000000000000000e+03,-9.498627363394548384e-01,0.000000000000000000e+00
1.245000000000000000e+03,-7.981992340381067752e-01,0.000000000000000000e+00
1.246000000000000000e+03,-7.040388527013649034e-01,0.000000000000000000e+00
1.247000000000000000e+03,-6.790105236299763813e-01,0.000000000000000000e+00
1.248000000000000000e+03,-5.902465975782560381e-01,0.000000000000000000e+00
1.249000000000000000e+03,-4.058817978585680386e-01,0.000000000000000000e+00
1.250000000000000000e+03,-4.259052242452489589e-01,0.000000000000000000e+00
1.251000000000000000e+03,-2.730627824225728695e-01,0.000000000000000000e+00
1.252000000000000000e+03,-3.108118081036244651e-01,0.000000000000000000e+00
1.253000000000000000e+03,-1.989805191560943265e-01,0.000000000000000000e+00
1.254000000000000000e+03,-2.662896488545444806e-01,0.000000000000000000e+00
1.255000000000000000e+03,-1.889416289516102632e-01,0.000000000000000000e+00
1.256000000000000000e+03,-1.457453166645309439e-01,0.000000000000000000e+00
1.257000000000000000e+03,-9.146270709656757758e-02,0.000000000000000000e+00
1.258000000000000000e+03,-1.147555012079856523e-01,0.000000000000000000e+00
1.259000000000000000e+03,3.824337607297687101e-03,0.000000000000000000e+00
1.260000000000000000e+03,-3.248194201169245926e-02,0.000000000000000000e+00
1.261000000000000000e+03,1.790669717451050594e-02,0.000000000000000000e+00
1.262000000000000000e+03,3.850649752561157574e-02,0.000000000000000000e+00
1.263000000000000000e+03,7.896063614044079859e-02,0.000000000000000000e+00
1.264000000000000000e+03,6.008099449764200267e-02,0.000000000000000000e+00
1.265000000000000000e+03,9.919299348791835169e-02,0.000000000000000000e+00
1.266000000000000000e+03,1.195591935401162931e-01,0.000000000000000000e+00
1.267000000000000000e+03,1.753403455163789759e-01,0.000000000000000000e+00
1.268000000000000000e+03,1.418838859864648139e-01,0.000000000000000000e+00
1.269000000000000000e+03,2.085947093903667837e-01,0.000000000000000000e+00
1.270000000000000000e+03,2.544231941732505442e-01,0.000000000000000000e+00
1.271000000000000000e+03,2.332958463022390683e-01,0.000000000000000000e+00
1.272000000000000000e+03,3.539013636838691523e-01,0.000000000000000000e+00
1.273000000000000000e+03,3.811018933555827548e-01,0.000000000000000000e+00
1.274000000000000000e+03,4.993100741414248089e-01,0.000000000000000000e+00
1.275000000000000000e+03,1.716133184469101347e-01,0.000000000000000000e+00
1.276000000000000000e+03,1.495440617143303230e-01,0.000000000000000000e+00
1.277000000000000000e+03,3.093922247191994643e-02,0.000000000000000000e+00
1.278000000000000000e+03,1.919124605670654016e-01,0.000000000000000000e+00
1.279000000000000000e+03,4.733209266257760138e-03,0.000000000000000000e+00
1.280000000000000000e+03,2.482046707641287764e-01,0.000000000000000000e+00
1.281000000000000000e+03,6.312198037743284029e-01,0.000000000000000000e+00
1.282000000000000000e+03,5.274219072315965207e+00,0.000000000000000000e+00
1.283000000000000000e+03,4.273752920518098186e+00,0.000000000000000000e+00
1.284000000000000000e+03,-1.798785711377708818e+00,1.000000000000000000e+00
1.285000000000000000e+03,-1.424380163420967849e+00,0.000000000000000000e+00
1.286000000000000000e+03,-1.041850806328526335e+00,0.000000000000000000e+00
1.287000000000000000e+03,-7.618869118058719803e-01,0.000000000000000000e+00
1.288000000000000000e+03,-6.427764135432908477e-01,0.000000000000000000e+00
1.289000000000000000e+03,-4.713801081303979346e-01,0.000000000000000000e+00
1.290000000000000000e+03,-5.153531245953895112e-01,0.000000000000000000e+00
1.291000000000000000e+03,-2.014288297452214160e-01,0.000000000000000000e+00
1.292000000000000000e+03,-2.642851309536649596e-01,0.000000000000000000e+00
1.293000000000000000e+03,1.640286745945944424e-01,0.000000000000000000e+00
1.294000000000000000e+03,2.702256959833323480e-01,0.000000000000000000e+00
1.295000000000000000e+03,6.264024069959862606e-01,0.000000000000000000e+00
1.296000000000000000e+03,9.190317364541317202e-01,0.000000000000000000e+00
1.297000000000000000e+03,9.538371170845284519e-01,0.000000000000000000e+00
1.298000000000000000e+03,7.605584849265116798e-01,0.000000000000000000e+00
1.299000000000000000e+03,2.600937645616924754e-01,0.000000000000000000e+00
1.300000000000000000e+03,-4.272603789879280134e-01,0.000000000000000000e+00
1.301000000000000000e+03,-7.863411148483805402e-01,0.000000000000000000e+00
1.302000000000000000e+03,-9.227677809987566704e-01,0.000000000000000000e+00
1.303000000000000000e+03,-9.656584688263498695e-01,0.000000000000000000e+00
1.304000000000000000e+03,-8.710547854292772785e-01,0.000000000000000000e+00
1.305000000000000000e+03,-7.736158273780513461e-01,0.000000000000000000e+00
1.306000000000000000e+03,-7.635578604423384208e-01,0.000000000000000000e+00
1.307000000000000000e+03,-5.880530567267348019e-01,0.000000000000000000e+00
1.308000000000000000e+03,-5.028004757497247512e-01,0.000000000000000000e+00
1.309000000000000000e+03,-4.326862046302937803e-01,0.000000000000000000e+00
1.310000000000000000e+03,-3.359492587561805910e-01,0.000000000000000000e+00
1.311000000000000000e+03,-3.087686498862475815e-01,0.000000000000000000e+00
1.312000000000000000e+03,-2.546236687562406509e-01,0.000000000000000000e+00
1.313000000000000000e+03,-1.884418089125153295e-01,0.000000000000000000e+00
1.314000000000000000e+03,-1.283460292288462479e-01,0.000000000000000000e+00
1.315000000000000000e+03,-1.820631953534751768e-01,0.000000000000000000e+00
1.316000000000000000e+03,-9.819745365157250827e-02,0.000000000000000000e+00
1.317000000000000000e+03,-8.726948353708201267e-02,0.000000000000000000e+00
1.318000000000000000e+03,-8.207210911074398763e-02,0.000000000000000000e+00
1.319000000000000000e+03,-6.681098937048234043e-02,0.000000000000000000e+00
1.320000000000000000e+03,6.791435350971439244e-02,0.000000000000000000e+00
1.321000000000000000e+03,3.901687566036691340e-02,0.000000000000000000e+00
1.322000000000000000e+03,-3.585856259941250929e-02,0.000000000000000000e+00
1.323000000000000000e+03,1.716510267136127088e-01,0.000000000000000000e+00
1.324000000000000000e+03,-8.629559485686451748e-04,0.000000000000000000e+00
1.325000000000000000e+03,1.777241277957743448e-01,0.000000000000000000e+00
1.326000000000000000e+03,1.833574494811370248e-01,0.000000000000000000e+00
1.327000000000000000e+03,9.618139172442706497e-02,0.000000000000000000e+00
1.328000000000000000e+03,1.979454189167252076e-01,0.000000000000000000e+00
1.329000000000000000e+03,2.983857943499378385e-01,0.000000000000000000e+00
1.330000000000000000e+03,3.668899454534970683e-01,0.000000000000000000e+00
1.331000000000000000e+03,3.773704955523706772e-01,0.000000000000000000e+00
1.332000000000000000e+03,2.408847820111519045e-01,0.000000000000000000e+00
1.333000000000000000e+03,8.128184271824501206e-02,0.000000000000000000e+00
1.334000000000000000e+03,2.485009920486871970e-02,0.000000000000000000e+00
1.335000000000000000e+03,7.089165632663070593e-02,0.000000000000000000e+00
1.336000000000000000e+03,3.863695635094829828e-02,0.000000000000000000e+00
1.337000000000000000e+03,2.316797704804788305e-01,0.000000000000000000e+00
1.338000000000000000e+03,2.560268396208600361e-01,0.000000000000000000e+00
1.339000000000000000e+03,3.572168559540815469e+00,0.000000000000000000e+00
1.340000000000000000e+03,5.236918693074386510e+00,0.000000000000000000e+00
1.341000000000000000e+03,-8.084152160531566933e-01,1.000000000000000000e+00
1.342000000000000000e+03,-1.809262707533168868e+00,0.000000000000000000e+00
1.343000000000000000e+03,-1.054642093310035778e+00,0.000000000000000000e+00
1.344000000000000000e+03,-9.561742517986976386e-01,0.000000000000000000e+00
1.345000000000000000e+03,-6.247850814017095189e-01,0.000000000000000000e+00
1.346000000000000000e+03,-5.020923399807012411e-01,0.000000000000000000e+00
1.347000000000000000e+03,-4.222821094988111201e-01,0.000000000000000000e+00
1.348000000000000000e+03,-2.976704244152658663e-01,0.000000000000000000e+00
1.349000000000000000e+03,-1.820359761555072342e-01,0.000000000000000000e+00
1.350000000000000000e+03,-6.394825647582645656e-02,0.000000000000000000e+00
1.351000000000000000e+03,1.984182527069225099e-01,0.000000000000000000e+00
1.352000000000000000e+03,5.445511258895183726e-01,0.000000000000000000e+00
1.353000000000000000e+03,6.627504151517574771e-01,0.000000000000000000e+00
1.354000000000000000e+03,8.227599491753668781e-01,0.000000000000000000e+00
1.355000000000000000e+03,7.963473275516186334e-01,0.000000000000000000e+00
1.356000000000000000e+03,2.933691152406686653e-01,0.000000000000000000e+00
1.357000000000000000e+03,-3.588929724004121247e-01,0.000000000000000000e+00
1.358000000000000000e+03,-7.528709676957752173e-01,0.000000000000000000e+00
1.359000000000000000e+03,-9.774750690149672794e-01,0.000000000000000000e+00
1.360000000000000000e+03,-9.398684636492827815e-01,0.000000000000000000e+00
1.361000000000000000e+03,-9.762703299898995990e-01,0.000000000000000000e+00
1.362000000000000000e+03,-8.813490659168073948e-01,0.000000000000000000e+00
1.363000000000000000e+03,-7.499387784466878815e-01,0.000000000000000000e+00
1.364000000000000000e+03,-6.713112215867649279e-01,0.000000000000000000e+00
1.365000000000000000e+03,-6.329995732550327547e-01,0.000000000000000000e+00
1.366000000000000000e+03,-5.115783675088867444e-01,0.000000000000000000e+00
1.367000000000000000e+03,-3.959855043965813115e-01,0.000000000000000000e+00
1.368000000000000000e+03,-3.101794988100742279e-01,0.000000000000000000e+00
1.369000000000000000e+03,-2.978076895273344404e-01,0.000000000000000000e+00
1.370000000000000000e+03,-1.619719543316489874e-01,0.000000000000000000e+00
1.371000000000000000e+03,-2.430087147240467815e-01,0.000000000000000000e+00
1.372000000000000000e+03,-1.800911387013519327e-01,0.000000000000000000e+00
1.373000000000000000e+03,-1.559879491819529673e-01,0.000000000000000000e+00
1.374000000000000000e+03,-7.518927509089516625e-02,0.000000000000000000e+00
1.375000000000000000e+03,-9.512359113707670455e-02,0.000000000000000000e+00
1.376000000000000000e+03,-7.668136582653327371e-02,0.000000000000000000e+00
1.377000000000000000e+03,-9.685534794970375450e-02,0.000000000000000000e+00
1.378000000000000000e+03,2.973890783488614131e-02,0.000000000000000000e+00
1.379000000000000000e+03,1.619254896026098983e-02,0.000000000000000000e+00
1.380000000000000000e+03,6.593317655770392083e-02,0.000000000000000000e+00
1.381000000000000000e+03,6.045278153123938986e-02,0.000000000000000000e+00
1.382000000000000000e+03,1.341531003216886175e-01,0.000000000000000000e+00
1.383000000000000000e+03,1.421653506313048099e-01,0.000000000000000000e+00
1.384000000000000000e+03,2.079396942378425872e-01,0.000000000000000000e+00
1.385000000000000000e+03,1.777805696761383392e-01,0.000000000000000000e+00
1.386000000000000000e+03,3.472943775637070685e-01,0.000000000000000000e+00
1.387000000000000000e+03,3.333946480768569809e-01,0.000000000000000000e+00
1.388000000000000000e+03,3.972615521559634266e-01,0.000000000000000000e+00
1.389000000000000000e+03,1.725622928220523766e-01,0.000000000000000000e+00
1.390000000000000000e+03,1.237734480964378658e-01,0.000000000000000000e+00
1.391000000000000000e+03,-1.816145906657892425e-02,0.000000000000000000e+00
1.392000000000000000e+03,1.397047385283639309e-01,0.000000000000000000e+00
1.393000000000000000e+03,6.671815121247125224e-02,0.000000000000000000e+00
1.394000000000000000e+03,2.619793418143907537e-01,0.000000000000000000e+00
1.395000000000000000e+03,1.195397566631615227e+00,0.000000000000000000e+00
1.396000000000000000e+03,5.642947311402143562e+00,0.000000000000000000e+00
1.397000000000000000e+03,2.843230245260904621e+00,1.000000000000000000e+00
1.398000000000000000e+03,-2.131863687125918450e+00,0.000000000000000000e+00
1.399000000000000000e+03,-1.141388700035694592e+00,0.000000000000000000e+00
1.400000000000000000e+03,-1.007249663705546583e+00,0.000000000000000000e+00
1.401000000000000000e+03,-6.596092637642630985e-01,0.000000000000000000e+00
1.402000000000000000e+03,-5.632623651877989301e-01,0.000000000000000000e+00
1.403000000000000000e+03,-4.268852706217776682e-01,0.000000000000000000e+00
1.404000000000000000e+03,-3.844276532135278979e-01,0.000000000000000000e+00
1.405000000000000000e+03,-1.883993367339021896e-01,0.000000000000000000e+00
1.406000000000000000e+03,-2.180839842398752879e-02,0.000000000000000000e+00
1.407000000000000000e+03,1.375213466920344185e-01,0.000000000000000000e+00
1.408000000000000000e+03,2.711704774106835081e-01,0.000000000000000000e+00
1.409000000000000000e+03,7.538050395225381894e-01,0.000000000000000000e+00
1.410000000000000000e+03,9.018750695157016217e-01,0.000000000000000000e+00
1.411000000000000000e+03,9.923750411164967700e-01,0.000000000000000000e+00
1.412000000000000000e+03,6.536912637467559017e-01,0.000000000000000000e+00
1.413000000000000000e+03,1.357520561000361836e-01,0.000000000000000000e+00
1.414000000000000000e+03,-4.882041699923297950e-01,0.000000000000000000e+00
1.415000000000000000e+03,-6.982401641448862106e-01,0.000000000000000000e+00
1.416000000000000000e+03,-9.350926083369290875e-01,0.000000000000000000e+00
1.417000000000000000e+03,-8.866570607253659864e-01,0.000000000000000000e+00
1.418000000000000000e+03,-8.000543440940098838e-01,0.000000000000000000e+00
1.419000000000000000e+03,-5.912214887782683004e-01,0.000000000000000000e+00
1.420000000000000000e+03,-6.901557964690439029e-01,0.000000000000000000e+00
1.421000000000000000e+03,-4.310490952123701702e-01,0.000000000000000000e+00
1.422000000000000000e+03,-5.146728585147747337e-01,0.000000000000000000e+00
1.423000000000000000e+03,-2.986278126318658854e-01,0.000000000000000000e+00
1.424000000000000000e+03,-3.844726144331254147e-01,0.000000000000000000e+00
1.425000000000000000e+03,-2.197037887090954600e-01,0.000000000000000000e+00
1.426000000000000000e+03,-1.706343370482077404e-01,0.000000000000000000e+00
1.427000000000000000e+03,-1.504121854560455662e-01,0.000000000000000000e+00
1.428000000000000000e+03,-1.476341660516967413e-01,0.000000000000000000e+00
1.429000000000000000e+03,-8.211346653399766160e-02,0.000000000000000000e+00
1.430000000000000000e+03,-1.053303319771283914e-01,0.000000000000000000e+00
1.431000000000000000e+03,-5.099818114689808057e-02,0.000000000000000000e+00
1.432000000000000000e+03,-7.479065797110540093e-02,0.000000000000000000e+00
1.433000000000000000e+03,2.488478010024694487e-02,0.000000000000000000e+00
1.434000000000000000e+03,3.944023627868126908e-02,0.000000000000000000e+00
1.435000000000000000e+03,-2.651911548113772971e-02,0.000000000000000000e+00
1.436000000000000000e+03,5.267489507431275669e-02,0.000000000000000000e+00
1.437000000000000000e+03,5.989441651698278885e-02,0.000000000000000000e+00
1.438000000000000000e+03,1.612394023514750196e-01,0.000000000000000000e+00
1.439000000000000000e+03,9.363282037245822254e-02,0.000000000000000000e+00
1.440000000000000000e+03,1.571399099557338752e-01,0.000000000000000000e+00
1.441000000000000000e+03,2.360025886385729577e-01,0.000000000000000000e+00
1.442000000000000000e+03,1.252354735916672568e-01,0.000000000000000000e+00
1.443000000000000000e+03,2.227844773838768000e-01,0.000000000000000000e+00
1.444000000000000000e+03,1.882791083356351869e-01,0.000000000000000000e+00
1.445000000000000000e+03,2.962769495673462372e-01,0.000000000000000000e+00
1.446000000000000000e+03,3.887757906477293246e-01,0.000000000000000000e+00
1.447000000000000000e+03,4.377910317904575854e-01,0.000000000000000000e+00
1.448000000000000000e+03,1.491171535736561249e-01,0.000000000000000000e+00
1.449000000000000000e+03,1.676187313709603943e-01,0.000000000000000000e+00
1.450000000000000000e+03,9.054036285097245840e-02,0.000000000000000000e+00
1.451000000000000000e+03,1.042142709782116622e-01,0.000000000000000000e+00
1.452000000000000000e+03,-2.544398256559733326e-02,0.000000000000000000e+00
1.453000000000000000e+03,3.297739321152324266e-01,0.000000000000000000e+00
1.454000000000000000e+03,1.702673787941018091e-01,0.000000000000000000e+00
1.455000000000000000e+03,3.773901201034520536e+00,0.000000000000000000e+00
1.456000000000000000e+03,5.484983463936082160e+00,0.000000000000000000e+00
1.457000000000000000e+03,-8.814368712255336025e-01,1.000000000000000000e+00
1.458000000000000000e+03,-1.842081022425978487e+00,0.000000000000000000e+00
1.459000000000000000e+03,-9.433456662461661146e-01,0.000000000000000000e+00
1.460000000000000000e+03,-9.442597589418491033e-01,0.000000000000000000e+00
1.461000000000000000e+03,-8.081545128453514470e-01,0.000000000000000000e+00
1.462000000000000000e+03,-5.487352827162294000e-01,0.000000000000000000e+00
1.463000000000000000e+03,-5.502857954681532604e-01,0.000000000000000000e+00
1.464000000000000000e+03,-3.982138314292402725e-01,0.000000000000000000e+00
1.465000000000000000e+03,-1.716651142162894939e-01,0.000000000000000000e+00
1.466000000000000000e+03,-7.889916049329324943e-02,0.000000000000000000e+00
1.467000000000000000e+03,1.740547028821569087e-01,0.000000000000000000e+00
1.468000000000000000e+03,4.005050631239444048e-01,0.000000000000000000e+00
1.469000000000000000e+03,6.996349197347623283e-01,0.000000000000000000e+00
1.470000000000000000e+03,8.744296664847591716e-01,0.000000000000000000e+00
1.471000000000000000e+03,7.981841932913981141e-01,0.000000000000000000e+00
1.472000000000000000e+03,3.499693804580438217e-01,0.000000000000000000e+00
1.473000000000000000e+03,-2.946580618575651567e-01,0.000000000000000000e+00
1.474000000000000000e+03,-7.703644050735991566e-01,0.000000000000000000e+00
1.475000000000000000e+03,-1.008829879578285293e+00,0.000000000000000000e+00
1.476000000000000000e+03,-1.061285600103279325e+00,0.000000000000000000e+00
1.477000000000000000e+03,-9.113991108231116467e-01,0.000000000000000000e+00
1.478000000000000000e+03,-8.529643427124565802e-01,0.000000000000000000e+00
1.479000000000000000e+03,-8.007117911343670791e-01,0.000000000000000000e+00
1.480000000000000000e+03,-7.599998884399848942e-01,0.000000000000000000e+00
1.481000000000000000e+03,-5.883228889944097650e-01,0.000000000000000000e+00
1.482000000000000000e+03,-5.545103133300857134e-01,0.000000000000000000e+00
1.483000000000000000e+03,-5.011246699053325537e-01,0.000000000000000000e+00
1.484000000000000000e+03,-2.937793619158233782e-01,0.000000000000000000e+00
1.485000000000000000e+03,-3.585841142309158514e-01,0.000000000000000000e+00
1.486000000000000000e+03,-3.247599439005964816e-01,0.000000000000000000e+00
1.487000000000000000e+03,-2.254460212471454394e-01,0.000000000000000000e+00
1.488000000000000000e+03,-3.881100393343910326e-01,0.000000000000000000e+00
1.489000000000000000e+03,-1.862717554697541078e-01,0.000000000000000000e+00
1.490000000000000000e+03,-9.486350972041149299e-02,0.000000000000000000e+00
1.491000000000000000e+03,-1.821267814686045872e-01,0.000000000000000000e+00
1.492000000000000000e+03,-1.730819094327391283e-01,0.000000000000000000e+00
1.493000000000000000e+03,-1.238157872439556301e-01,0.000000000000000000e+00
1.494000000000000000e+03,-6.065442215785338959e-02,0.000000000000000000e+00
1.495000000000000000e+03,-3.140096951279604254e-02,0.000000000000000000e+00
1.496000000000000000e+03,-6.546679423941198506e-02,0.000000000000000000e+00
1.497000000000000000e+03,5.103882862144346055e-02,0.000000000000000000e+00
1.498000000000000000e+03,-5.024110332602541029e-03,0.000000000000000000e+00
1.499000000000000000e+03,9.025921630880953672e-02,0.000000000000000000e+00
1.500000000000000000e+03,7.674318719452966064e-02,0.000000000000000000e+00
1.501000000000000000e+03,7.527031757703678272e-02,0.000000000000000000e+00
1.502000000000000000e+03,9.106668427158670642e-02,0.000000000000000000e+00
1.503000000000000000e+03,1.654100456598436852e-01,0.000000000000000000e+00
1.504000000000000000e+03,1.998424301951286230e-01,0.000000000000000000e+00
1.505000000000000000e+03,2.614653567876821239e-01,0.000000000000000000e+00
1.506000000000000000e+03,3.407907544309380365e-01,0.000000000000000000e+00
1.507000000000000000e+03,2.522818926143893803e-01,0.000000000000000000e+00
1.508000000000000000e+03,7.882464545065166750e-02,0.000000000000000000e+00
1.509000000000000000e+03,6.142524146092547682e-02,0.000000000000000000e+00
1.510000000000000000e+03,-2.886963132503905793e-02,0.000000000000000000e+00
1.511000000000000000e+03,6.742665896278708659e-02,0.000000000000000000e+00
1.512000000000000000e+03,5.745986084768785543e-03,0.000000000000000000e+00
1.513000000000000000e+03,1.184979734172495330e-01,0.000000000000000000e+00
1.514000000000000000e+03,5.441745424629559347e-01,0.000000000000000000e+00
1.515000000000000000e+03,4.874811225457682085e+00,0.000000000000000000e+00
1.516000000000000000e+03,4.170654177730940937e+00,0.000000000000000000e+00
1.517000000000000000e+03,-1.825783292199104846e+00,1.000000000000000000e+00
1.518000000000000000e+03,-1.438693109099460798e+00,0.000000000000000000e+00
1.519000000000000000e+03,-1.148880597750193688e+00,0.000000000000000000e+00
1.520000000000000000e+03,-7.799787238353872443e-01,0.000000000000000000e+00
1.521000000000000000e+03,-6.950050217111203299e-01,0.000000000000000000e+00
1.522000000000000000e+03,-5.331826894199546141e-01,0.000000000000000000e+00
1.523000000000000000e+03,-4.724317940115387304e-01,0.000000000000000000e+00
1.524000000000000000e+03,-1.964801055545917219e-01,0.000000000000000000e+00
1.525000000000000000e+03,-2.174754084583920000e-01,0.000000000000000000e+00
1.526000000000000000e+03,7.990524523518435784e-02,0.000000000000000000e+00
1.527000000000000000e+03,2.892954698154848736e-01,0.000000000000000000e+00
1.528000000000000000e+03,5.517446628732018965e-01,0.000000000000000000e+00
1.529000000000000000e+03,7.646604847989677545e-01,0.000000000000000000e+00
1.530000000000000000e+03,9.458694487734055079e-01,0.000000000000000000e+00
1.531000000000000000e+03,8.044801310364876334e-01,0.000000000000000000e+00
1.532000000000000000e+03,3.084520379680120161e-01,0.000000000000000000e+00
1.533000000000000000e+03,-5.078826451511768703e-01,0.000000000000000000e+00
1.534000000000000000e+03,-7.472636312870266639e-01,0.000000000000000000e+00
1.535000000000000000e+03,-9.462695462217722842e-01,0.000000000000000000e+00
1.536000000000000000e+03,-8.977316417829580564e-01,0.000000000000000000e+00
1.537000000000000000e+03,-8.797489061677833400e-01,0.000000000000000000e+00
1.538000000000000000e+03,-6.975363145031556744e-01,0.000000000000000000e+00
1.539000000000000000e+03,-7.068301347354213338e-01,0.000000000000000000e+00
1.540000000000000000e+03,-5.789144335492258930e-01,0.000000000000000000e+00
1.541000000000000000e+03,-4.928728823197615627e-01,0.000000000000000000e+00
1.542000000000000000e+03,-3.316081506532639334e-01,0.000000000000000000e+00
1.543000000000000000e+03,-3.579443862722607728e-01,0.000000000000000000e+00
1.544000000000000000e+03,-2.539813578268469429e-01,0.000000000000000000e+00
1.545000000000000000e+03,-1.282502167956330319e-01,0.000000000000000000e+00
1.546000000000000000e+03,-3.389094827333620497e-02,0.000000000000000000e+00
1.547000000000000000e+03,-1.428146196810949342e-01,0.000000000000000000e+00
1.548000000000000000e+03,-6.398162300611602571e-02,0.000000000000000000e+00
1.549000000000000000e+03,-4.600396812223712245e-02,0.000000000000000000e+00
1.550000000000000000e+03,-1.898355817367994650e-02,0.000000000000000000e+00
1.551000000000000000e+03,6.005293910111445671e-02,0.000000000000000000e+00
1.552000000000000000e+03,1.257453058435871462e-02,0.000000000000000000e+00
1.553000000000000000e+03,6.188870178737240074e-02,0.000000000000000000e+00
1.554000000000000000e+03,1.044382775176951605e-01,0.000000000000000000e+00
1.555000000000000000e+03,1.693372596169287203e-01,0.000000000000000000e+00
1.556000000000000000e+03,1.658003584982614687e-01,0.000000000000000000e+00
1.557000000000000000e+03,1.210147614788172343e-01,0.000000000000000000e+00
1.558000000000000000e+03,1.952305650622908895e-01,0.000000000000000000e+00
1.559000000000000000e+03,1.942552003057727295e-01,0.000000000000000000e+00
1.560000000000000000e+03,2.407332059754848375e-01,0.000000000000000000e+00
1.561000000000000000e+03,1.755390656499048740e-01,0.000000000000000000e+00
1.562000000000000000e+03,2.719245465066810197e-01,0.000000000000000000e+00
1.563000000000000000e+03,2.723681084454087076e-01,0.000000000000000000e+00
1.564000000000000000e+03,3.351410998652493700e-01,0.000000000000000000e+00
1.565000000000000000e+03,2.885608066311657893e-01,0.000000000000000000e+00
1.566000000000000000e+03,4.592450622833619822e-01,0.000000000000000000e+00
1.567000000000000000e+03,4.746358763984778184e-01,0.000000000000000000e+00
1.568000000000000000e+03,4.786372548547822015e-01,0.000000000000000000e+00
1.569000000000000000e+03,2.106976990489071999e-01,0.000000000000000000e+00
1.570000000000000000e+03,2.239761581591514228e-01,0.000000000000000000e+00
1.571000000000000000e+03,4.187223864488896080e-02,0.000000000000000000e+00
1.572000000000000000e+03,2.123562609563003079e-01,0.000000000000000000e+00
1.573000000000000000e+03,7.341681976262015574e-02,0.000000000000000000e+00
1.574000000000000000e+03,2.446378493868890946e-01,0.000000000000000000e+00
1.575000000000000000e+03,1.184781205221628886e+00,0.000000000000000000e+00
1.576000000000000000e+03,5.880010630058247756e+00,0.000000000000000000e+00
1.577000000000000000e+03,2.905397314116525909e+00,1.000000000000000000e+00
1.578000000000000000e+03,-2.113883656133302757e+00,0.000000000000000000e+00
1.579000000000000000e+03,-1.163928832447030048e+00,0.000000000000000000e+00
1.580000000000000000e+03,-1.102541576213389440e+00,0.000000000000000000e+00
1.581000000000000000e+03,-6.670993916983060101e-01,0.000000000000000000e+00
1.582000000000000000e+03,-7.311839001977163965e-01,0.000000000000000000e+00
1.583000000000000000e+03,-5.000046138106952753e-01,0.000000000000000000e+00
1.584000000000000000e+03,-4.609598851470760317e-01,0.000000000000000000e+00
1.585000000000000000e+03,-2.622288087161642745e-01,0.000000000000000000e+00
1.586000000000000000e+03,-1.850980803517844886e-01,0.000000000000000000e+00
1.587000000000000000e+03,1.100903280465050371e-01,0.000000000000000000e+00
