timestamp,ecg_measurement,qrs_detected
0.000000000000000000e+00,-1.447668311176702360e+00,0.000000000000000000e+00
1.000000000000000000e+00,-1.068645560220351509e+00,0.000000000000000000e+00
2.000000000000000000e+00,-6.682414768759900037e-01,0.000000000000000000e+00
3.000000000000000000e+00,-6.840132190930194866e-01,0.000000000000000000e+00
4.000000000000000000e+00,-3.930270739375591460e-01,0.000000000000000000e+00
5.000000000000000000e+00,-3.416952670496690714e-01,0.000000000000000000e+00
6.000000000000000000e+00,-1.923385406878088955e-01,0.000000000000000000e+00
7.000000000000000000e+00,-1.046238846579699289e-01,0.000000000000000000e+00
8.000000000000000000e+00,1.012677764839198802e-01,0.000000000000000000e+00
9.000000000000000000e+00,2.806997291459289445e-01,0.000000000000000000e+00
1.000000000000000000e+01,5.859755657677038210e-01,0.000000000000000000e+00
1.100000000000000000e+01,8.122712150246994556e-01,0.000000000000000000e+00
1.200000000000000000e+01,8.957516578475869240e-01,0.000000000000000000e+00
1.300000000000000000e+01,7.005354067514001359e-01,0.000000000000000000e+00
1.400000000000000000e+01,3.304216655775186195e-01,0.000000000000000000e+00
1.500000000000000000e+01,-3.438431449371667226e-01,1.000000000000000000e+00
1.600000000000000000e+01,-7.195356962572299064e-01,0.000000000000000000e+00
1.700000000000000000e+01,-8.371671948944650055e-01,0.000000000000000000e+00
1.800000000000000000e+01,-9.584699512582356418e-01,0.000000000000000000e+00
1.900000000000000000e+01,-9.221068994911905126e-01,0.000000000000000000e+00
2.000000000000000000e+01,-8.012565462743070910e-01,0.000000000000000000e+00
2.100000000000000000e+01,-6.707227254200511801e-01,0.000000000000000000e+00
2.200000000000000000e+01,-5.806641505022519523e-01,0.000000000000000000e+00
2.300000000000000000e+01,-4.742294071536387601e-01,0.000000000000000000e+00
2.400000000000000000e+01,-4.910714825572794484e-01,0.000000000000000000e+00
2.500000000000000000e+01,-3.864665009809130081e-01,0.000000000000000000e+00
2.600000000000000000e+01,-3.578784228685527036e-01,0.000000000000000000e+00
2.700000000000000000e+01,-2.142874068591548165e-01,0.000000000000000000e+00
2.800000000000000000e+01,-2.518871118580664481e-01,0.000000000000000000e+00
2.900000000000000000e+01,-2.281622296030063057e-01,0.000000000000000000e+00
3.000000000000000000e+01,-1.746828661328653221e-01,0.000000000000000000e+00
3.100000000000000000e+01,-1.198965843387511804e-01,0.000000000000000000e+00
3.200000000000000000e+01,-1.162451016901871192e-01,0.000000000000000000e+00
3.300000000000000000e+01,-9.393577750825711503e-02,0.000000000000000000e+00
3.400000000000000000e+01,-1.006793663367584885e-01,0.000000000000000000e+00
3.500000000000000000e+01,-1.942607175846791656e-02,0.000000000000000000e+00
3.600000000000000000e+01,-8.387523670242192503e-03,0.000000000000000000e+00
3.700000000000000000e+01,3.916815481367148105e-02,0.000000000000000000e+00
3.800000000000000000e+01,6.520953108152209576e-02,0.000000000000000000e+00
3.900000000000000000e+01,7.844811975884743993e-02,0.000000000000000000e+00
4.000000000000000000e+01,1.371455664481376346e-01,0.000000000000000000e+00
4.100000000000000000e+01,1.622496006727917606e-01,0.000000000000000000e+00
4.200000000000000000e+01,2.430945838537681147e-01,0.000000000000000000e+00
4.300000000000000000e+01,1.489852646551748094e-01,0.000000000000000000e+00
4.400000000000000000e+01,1.888666077338784499e-01,0.000000000000000000e+00
4.500000000000000000e+01,1.926096466586115774e-01,0.000000000000000000e+00
4.600000000000000000e+01,1.715105612025117909e-01,0.000000000000000000e+00
4.700000000000000000e+01,3.434930521375219037e-01,0.000000000000000000e+00
4.800000000000000000e+01,1.584036773063673131e-01,0.000000000000000000e+00
4.900000000000000000e+01,3.306788527831785451e-01,0.000000000000000000e+00
5.000000000000000000e+01,3.921291067672412756e-01,0.000000000000000000e+00
5.100000000000000000e+01,4.431379323337464315e-01,0.000000000000000000e+00
5.200000000000000000e+01,2.031378428750229281e-01,0.000000000000000000e+00
5.300000000000000000e+01,1.328081917200135131e-01,0.000000000000000000e+00
5.400000000000000000e+01,-9.785501791714988629e-02,0.000000000000000000e+00
5.500000000000000000e+01,1.237369704421055622e-01,0.000000000000000000e+00
5.600000000000000000e+01,3.626371149192048754e-02,0.000000000000000000e+00
5.700000000000000000e+01,2.766638185501132385e-01,0.000000000000000000e+00
5.800000000000000000e+01,1.968961887633109142e-01,0.000000000000000000e+00
5.900000000000000000e+01,3.948942180304528371e+00,0.000000000000000000e+00
6.000000000000000000e+01,5.077770238763604560e+00,0.000000000000000000e+00
6.100000000000000000e+01,-1.216941906260098571e+00,1.000000000000000000e+00
6.200000000000000000e+01,-1.666282376329038417e+00,0.000000000000000000e+00
6.300000000000000000e+01,-1.110544962908400546e+00,0.000000000000000000e+00
6.400000000000000000e+01,-8.850447311728930622e-01,0.000000000000000000e+00
6.500000000000000000e+01,-7.127491059268086238e-01,0.000000000000000000e+00
6.600000000000000000e+01,-5.759202258606432867e-01,0.000000000000000000e+00
6.700000000000000000e+01,-4.939722234279560475e-01,0.000000000000000000e+00
6.800000000000000000e+01,-2.953273764563004167e-01,0.000000000000000000e+00
6.900000000000000000e+01,-2.336599375261996792e-01,0.000000000000000000e+00
7.000000000000000000e+01,1.057966459547302583e-02,0.000000000000000000e+00
7.100000000000000000e+01,1.550780011495470623e-01,0.000000000000000000e+00
7.200000000000000000e+01,4.668923483145422937e-01,0.000000000000000000e+00
7.300000000000000000e+01,5.198171495770218531e-01,0.000000000000000000e+00
7.400000000000000000e+01,9.220125379154527900e-01,0.000000000000000000e+00
7.500000000000000000e+01,7.130132306116587770e-01,0.000000000000000000e+00
7.600000000000000000e+01,2.925067748613182084e-01,0.000000000000000000e+00
7.700000000000000000e+01,-3.306206159983695603e-01,0.000000000000000000e+00
7.800000000000000000e+01,-7.892954394993699774e-01,0.000000000000000000e+00
7.900000000000000000e+01,-1.028323007963761304e+00,0.000000000000000000e+00
8.000000000000000000e+01,-1.015790047139678354e+00,0.000000000000000000e+00
8.100000000000000000e+01,-9.872972895649150260e-01,0.000000000000000000e+00
8.200000000000000000e+01,-9.428806246071611552e-01,0.000000000000000000e+00
8.300000000000000000e+01,-7.208153508223315020e-01,0.000000000000000000e+00
8.400000000000000000e+01,-7.189938516137835967e-01,0.000000000000000000e+00
8.500000000000000000e+01,-6.011599866600163544e-01,0.000000000000000000e+00
8.600000000000000000e+01,-5.191726801774544375e-01,0.000000000000000000e+00
8.700000000000000000e+01,-5.055947812272080233e-01,0.000000000000000000e+00
8.800000000000000000e+01,-4.306875860123154931e-01,0.000000000000000000e+00
8.900000000000000000e+01,-2.904689499852284862e-01,0.000000000000000000e+00
9.000000000000000000e+01,-2.686666423076431998e-01,0.000000000000000000e+00
9.100000000000000000e+01,-2.365981519718645398e-01,0.000000000000000000e+00
9.200000000000000000e+01,-2.274536625216476149e-01,0.000000000000000000e+00
9.300000000000000000e+01,-1.715214082720850630e-01,0.000000000000000000e+00
9.400000000000000000e+01,-1.286891103696283234e-01,0.000000000000000000e+00
9.500000000000000000e+01,-1.806081062666244352e-01,0.000000000000000000e+00
9.600000000000000000e+01,-4.077803303770175664e-02,0.000000000000000000e+00
9.700000000000000000e+01,-7.638766644607342116e-02,0.000000000000000000e+00
9.800000000000000000e+01,3.268003469240481074e-02,0.000000000000000000e+00
9.900000000000000000e+01,-5.760178274254668801e-03,0.000000000000000000e+00
1.000000000000000000e+02,1.180512713065951930e-01,0.000000000000000000e+00
1.010000000000000000e+02,3.213364484279779276e-02,0.000000000000000000e+00
1.020000000000000000e+02,1.292460312969329894e-01,0.000000000000000000e+00
1.030000000000000000e+02,1.108781656246572017e-01,0.000000000000000000e+00
1.040000000000000000e+02,1.754145580390875092e-01,0.000000000000000000e+00
1.050000000000000000e+02,1.866622711170589088e-01,0.000000000000000000e+00
1.060000000000000000e+02,2.244556235568395952e-01,0.000000000000000000e+00
1.070000000000000000e+02,1.210605152629416759e-01,0.000000000000000000e+00
1.080000000000000000e+02,2.398651183741106474e-01,0.000000000000000000e+00
1.090000000000000000e+02,1.927870787197017433e-01,0.000000000000000000e+00
1.100000000000000000e+02,3.129647708888476654e-01,0.000000000000000000e+00
1.110000000000000000e+02,1.654840526407334034e-01,0.000000000000000000e+00
1.120000000000000000e+02,3.724568192813082490e-01,0.000000000000000000e+00
1.130000000000000000e+02,4.011865269786633048e-01,0.000000000000000000e+00
1.140000000000000000e+02,3.829678993178097790e-01,0.000000000000000000e+00
1.150000000000000000e+02,1.703912931287579202e-01,0.000000000000000000e+00
1.160000000000000000e+02,1.325382558337122318e-01,0.000000000000000000e+00
1.170000000000000000e+02,7.013884056725394091e-03,0.000000000000000000e+00
1.180000000000000000e+02,1.251230854839915085e-01,0.000000000000000000e+00
1.190000000000000000e+02,7.830176943273683965e-02,0.000000000000000000e+00
1.200000000000000000e+02,1.055567688842566215e-01,0.000000000000000000e+00
1.210000000000000000e+02,1.203913106883878648e+00,0.000000000000000000e+00
1.220000000000000000e+02,5.716119658492077704e+00,0.000000000000000000e+00
1.230000000000000000e+02,2.441960622721086160e+00,1.000000000000000000e+00
1.240000000000000000e+02,-2.217403229397535203e+00,0.000000000000000000e+00
1.250000000000000000e+02,-1.192020893023633343e+00,0.000000000000000000e+00
1.260000000000000000e+02,-1.163942276776296136e+00,0.000000000000000000e+00
1.270000000000000000e+02,-6.673402483624791826e-01,0.000000000000000000e+00
1.280000000000000000e+02,-6.874218418526932828e-01,0.000000000000000000e+00
1.290000000000000000e+02,-4.373069793108823045e-01,0.000000000000000000e+00
1.300000000000000000e+02,-5.039497372201902081e-01,0.000000000000000000e+00
1.310000000000000000e+02,-2.812086696916358819e-01,0.000000000000000000e+00
1.320000000000000000e+02,-1.898394659971145149e-01,0.000000000000000000e+00
1.330000000000000000e+02,8.087130770898583176e-02,0.000000000000000000e+00
1.340000000000000000e+02,2.890673521668136181e-01,0.000000000000000000e+00
1.350000000000000000e+02,5.800687772779143936e-01,0.000000000000000000e+00
1.360000000000000000e+02,7.851785075079642517e-01,0.000000000000000000e+00
1.370000000000000000e+02,8.393242020159076278e-01,0.000000000000000000e+00
1.380000000000000000e+02,6.772711207760181429e-01,0.000000000000000000e+00
1.390000000000000000e+02,7.005510301945702678e-02,0.000000000000000000e+00
1.400000000000000000e+02,-5.443407052269122470e-01,0.000000000000000000e+00
1.410000000000000000e+02,-8.259169010513949249e-01,0.000000000000000000e+00
1.420000000000000000e+02,-9.573170769372663091e-01,0.000000000000000000e+00
1.430000000000000000e+02,-9.794156397816048409e-01,0.000000000000000000e+00
1.440000000000000000e+02,-8.689588389954826519e-01,0.000000000000000000e+00
1.450000000000000000e+02,-8.557021354494466214e-01,0.000000000000000000e+00
1.460000000000000000e+02,-7.021463789228508112e-01,0.000000000000000000e+00
1.470000000000000000e+02,-6.010953681576302055e-01,0.000000000000000000e+00
1.480000000000000000e+02,-5.120543001875473843e-01,0.000000000000000000e+00
1.490000000000000000e+02,-4.546328304986151370e-01,0.000000000000000000e+00
1.500000000000000000e+02,-4.148113457216496824e-01,0.000000000000000000e+00
1.510000000000000000e+02,-2.676390448432311442e-01,0.000000000000000000e+00
1.520000000000000000e+02,-3.445205766609825138e-01,0.000000000000000000e+00
1.530000000000000000e+02,-1.374922086481316363e-01,0.000000000000000000e+00
1.540000000000000000e+02,-2.028189721288653491e-01,0.000000000000000000e+00
1.550000000000000000e+02,-1.575631824165099337e-01,0.000000000000000000e+00
1.560000000000000000e+02,-1.421679536401312116e-01,0.000000000000000000e+00
1.570000000000000000e+02,-6.550563843926060503e-02,0.000000000000000000e+00
1.580000000000000000e+02,-6.276520840218574593e-02,0.000000000000000000e+00
1.590000000000000000e+02,-4.794201144913205065e-02,0.000000000000000000e+00
1.600000000000000000e+02,6.466840654436258051e-02,0.000000000000000000e+00
1.610000000000000000e+02,6.786300458371913313e-02,0.000000000000000000e+00
1.620000000000000000e+02,1.143239893718777040e-03,0.000000000000000000e+00
1.630000000000000000e+02,1.930268408231056443e-01,0.000000000000000000e+00
1.640000000000000000e+02,1.155122935006917123e-01,0.000000000000000000e+00
1.650000000000000000e+02,2.157533802360860620e-01,0.000000000000000000e+00
1.660000000000000000e+02,2.059892994345018102e-01,0.000000000000000000e+00
1.670000000000000000e+02,1.415872233693823423e-01,0.000000000000000000e+00
1.680000000000000000e+02,2.518969444344433817e-01,0.000000000000000000e+00
1.690000000000000000e+02,2.111642749767985994e-01,0.000000000000000000e+00
1.700000000000000000e+02,2.785893546200970405e-01,0.000000000000000000e+00
1.710000000000000000e+02,2.183021518324681221e-01,0.000000000000000000e+00
1.720000000000000000e+02,2.808938032119065453e-01,0.000000000000000000e+00
1.730000000000000000e+02,2.748378568793927168e-01,0.000000000000000000e+00
1.740000000000000000e+02,3.948229506047976622e-01,0.000000000000000000e+00
1.750000000000000000e+02,4.520525670096753879e-01,0.000000000000000000e+00
1.760000000000000000e+02,4.450582870321057039e-01,0.000000000000000000e+00
1.770000000000000000e+02,2.044132063051521953e-01,0.000000000000000000e+00
1.780000000000000000e+02,1.534981245315253096e-01,0.000000000000000000e+00
1.790000000000000000e+02,2.195862993481814684e-02,0.000000000000000000e+00
1.800000000000000000e+02,1.404648104629018790e-01,0.000000000000000000e+00
1.810000000000000000e+02,7.828502230896386416e-02,0.000000000000000000e+00
1.820000000000000000e+02,2.207149814204962535e-01,0.000000000000000000e+00
1.830000000000000000e+02,5.221072910694274372e-01,0.000000000000000000e+00
1.840000000000000000e+02,4.766476815008077850e+00,0.000000000000000000e+00
1.850000000000000000e+02,4.184000524911527741e+00,0.000000000000000000e+00
1.860000000000000000e+02,-1.800935515231812944e+00,1.000000000000000000e+00
1.870000000000000000e+02,-1.454835055467604388e+00,0.000000000000000000e+00
1.880000000000000000e+02,-1.098807164157366234e+00,0.000000000000000000e+00
1.890000000000000000e+02,-8.014064668218183751e-01,0.000000000000000000e+00
1.900000000000000000e+02,-7.866433365861793536e-01,0.000000000000000000e+00
1.910000000000000000e+02,-3.912583028439399757e-01,0.000000000000000000e+00
1.920000000000000000e+02,-5.264736090713090233e-01,0.000000000000000000e+00
1.930000000000000000e+02,-2.595257376808470795e-01,0.000000000000000000e+00
1.940000000000000000e+02,-2.304305677073250069e-01,0.000000000000000000e+00
1.950000000000000000e+02,7.614693467782934766e-02,0.000000000000000000e+00
1.960000000000000000e+02,1.711758150050066152e-01,0.000000000000000000e+00
1.970000000000000000e+02,5.605666793462860120e-01,0.000000000000000000e+00
1.980000000000000000e+02,7.236128907336513150e-01,0.000000000000000000e+00
1.990000000000000000e+02,8.770588438200332959e-01,0.000000000000000000e+00
2.000000000000000000e+02,7.011638357108384012e-01,0.000000000000000000e+00
2.010000000000000000e+02,2.088674593435083660e-01,0.000000000000000000e+00
2.020000000000000000e+02,-4.022346496998556731e-01,0.000000000000000000e+00
2.030000000000000000e+02,-8.473125380956019193e-01,0.000000000000000000e+00
2.040000000000000000e+02,-1.037388501987156042e+00,0.000000000000000000e+00
2.050000000000000000e+02,-1.095640402068535524e+00,0.000000000000000000e+00
2.060000000000000000e+02,-9.864621777464275265e-01,0.000000000000000000e+00
2.070000000000000000e+02,-8.614207139648414335e-01,0.000000000000000000e+00
2.080000000000000000e+02,-8.990414529682677625e-01,0.000000000000000000e+00
2.090000000000000000e+02,-6.994744405481894134e-01,0.000000000000000000e+00
2.100000000000000000e+02,-6.062057417958559569e-01,0.000000000000000000e+00
2.110000000000000000e+02,-5.455779607768332928e-01,0.000000000000000000e+00
2.120000000000000000e+02,-5.602629480664688133e-01,0.000000000000000000e+00
2.130000000000000000e+02,-4.397732986437882241e-01,0.000000000000000000e+00
2.140000000000000000e+02,-3.632177597694596360e-01,0.000000000000000000e+00
2.150000000000000000e+02,-2.450331034058362556e-01,0.000000000000000000e+00
2.160000000000000000e+02,-2.720267921623735763e-01,0.000000000000000000e+00
2.170000000000000000e+02,-2.027648740630707269e-01,0.000000000000000000e+00
2.180000000000000000e+02,-2.203086815970099754e-01,0.000000000000000000e+00
2.190000000000000000e+02,-1.860264824974620923e-01,0.000000000000000000e+00
2.200000000000000000e+02,-9.536705646573695461e-02,0.000000000000000000e+00
2.210000000000000000e+02,-6.969400978118751866e-02,0.000000000000000000e+00
2.220000000000000000e+02,-7.628002299687475229e-02,0.000000000000000000e+00
2.230000000000000000e+02,5.062115451498205160e-02,0.000000000000000000e+00
2.240000000000000000e+02,-2.979802298021760193e-02,0.000000000000000000e+00
2.250000000000000000e+02,7.569445217985390495e-02,0.000000000000000000e+00
2.260000000000000000e+02,5.027375647494118638e-02,0.000000000000000000e+00
2.270000000000000000e+02,1.328482271061260933e-01,0.000000000000000000e+00
2.280000000000000000e+02,1.294823740544200907e-01,0.000000000000000000e+00
2.290000000000000000e+02,1.178776010156122322e-01,0.000000000000000000e+00
2.300000000000000000e+02,1.231918974477669015e-01,0.000000000000000000e+00
2.310000000000000000e+02,2.545217545715794949e-01,0.000000000000000000e+00
2.320000000000000000e+02,2.813170311065494866e-01,0.000000000000000000e+00
2.330000000000000000e+02,2.269190484404284280e-01,0.000000000000000000e+00
2.340000000000000000e+02,3.304231465153333325e-01,0.000000000000000000e+00
2.350000000000000000e+02,4.777423565938462291e-01,0.000000000000000000e+00
2.360000000000000000e+02,4.273526325697957207e-01,0.000000000000000000e+00
2.370000000000000000e+02,3.111179199122784400e-01,0.000000000000000000e+00
2.380000000000000000e+02,1.516839328277595211e-01,0.000000000000000000e+00
2.390000000000000000e+02,9.513518872514255265e-02,0.000000000000000000e+00
2.400000000000000000e+02,1.339530945120438188e-01,0.000000000000000000e+00
2.410000000000000000e+02,1.248824780723114120e-01,0.000000000000000000e+00
2.420000000000000000e+02,2.013470066944012260e-01,0.000000000000000000e+00
2.430000000000000000e+02,2.153953968566872934e-01,0.000000000000000000e+00
2.440000000000000000e+02,3.356298847596713930e+00,0.000000000000000000e+00
2.450000000000000000e+02,5.512231490133780554e+00,0.000000000000000000e+00
2.460000000000000000e+02,-6.315101145818083905e-01,1.000000000000000000e+00
2.470000000000000000e+02,-1.784501241821515150e+00,0.000000000000000000e+00
2.480000000000000000e+02,-1.006072574450203039e+00,0.000000000000000000e+00
2.490000000000000000e+02,-7.742439977818645902e-01,0.000000000000000000e+00
2.500000000000000000e+02,-6.520157903325202176e-01,0.000000000000000000e+00
2.510000000000000000e+02,-4.125462972801511863e-01,0.000000000000000000e+00
2.520000000000000000e+02,-4.052422245150789637e-01,0.000000000000000000e+00
2.530000000000000000e+02,-2.272925646744043682e-01,0.000000000000000000e+00
2.540000000000000000e+02,-1.249221800406237343e-01,0.000000000000000000e+00
2.550000000000000000e+02,9.907178344044137441e-02,0.000000000000000000e+00
2.560000000000000000e+02,1.847541070050771617e-01,0.000000000000000000e+00
2.570000000000000000e+02,5.190289516298711714e-01,0.000000000000000000e+00
2.580000000000000000e+02,7.857420731874730224e-01,0.000000000000000000e+00
2.590000000000000000e+02,9.316827021785328844e-01,0.000000000000000000e+00
2.600000000000000000e+02,8.431747688730691914e-01,0.000000000000000000e+00
2.610000000000000000e+02,4.621337282764685361e-01,0.000000000000000000e+00
2.620000000000000000e+02,-1.806210623131234982e-01,0.000000000000000000e+00
2.630000000000000000e+02,-6.036024529810126715e-01,0.000000000000000000e+00
2.640000000000000000e+02,-9.022478271871430255e-01,0.000000000000000000e+00
2.650000000000000000e+02,-9.504342384166351021e-01,0.000000000000000000e+00
2.660000000000000000e+02,-8.550389317716124982e-01,0.000000000000000000e+00
2.670000000000000000e+02,-7.499204637809712137e-01,0.000000000000000000e+00
2.680000000000000000e+02,-7.019303529303888567e-01,0.000000000000000000e+00
2.690000000000000000e+02,-6.420311688350550661e-01,0.000000000000000000e+00
2.700000000000000000e+02,-5.465149573482240841e-01,0.000000000000000000e+00
2.710000000000000000e+02,-3.777791191150696726e-01,0.000000000000000000e+00
2.720000000000000000e+02,-4.235172445330175894e-01,0.000000000000000000e+00
2.730000000000000000e+02,-2.631566345347708946e-01,0.000000000000000000e+00
2.740000000000000000e+02,-3.005316072183456533e-01,0.000000000000000000e+00
2.750000000000000000e+02,-1.273957762170601637e-01,0.000000000000000000e+00
2.760000000000000000e+02,-1.995415274099473779e-01,0.000000000000000000e+00
2.770000000000000000e+02,-1.966959626410750284e-01,0.000000000000000000e+00
2.780000000000000000e+02,-1.321238370086008362e-01,0.000000000000000000e+00
2.790000000000000000e+02,-1.264486338096644791e-01,0.000000000000000000e+00
2.800000000000000000e+02,-7.574903622937274872e-02,0.000000000000000000e+00
2.810000000000000000e+02,-6.221261134883680766e-02,0.000000000000000000e+00
2.820000000000000000e+02,-2.941023023881930015e-02,0.000000000000000000e+00
2.830000000000000000e+02,-1.913264980114922492e-02,0.000000000000000000e+00
2.840000000000000000e+02,3.903032679308497677e-02,0.000000000000000000e+00
2.850000000000000000e+02,6.443022730927999708e-02,0.000000000000000000e+00
2.860000000000000000e+02,5.828671939297427884e-02,0.000000000000000000e+00
2.870000000000000000e+02,1.754643107935703050e-01,0.000000000000000000e+00
2.880000000000000000e+02,1.064382278046439034e-01,0.000000000000000000e+00
2.890000000000000000e+02,1.548035689936548276e-01,0.000000000000000000e+00
2.900000000000000000e+02,1.014754395825783057e-01,0.000000000000000000e+00
2.910000000000000000e+02,2.760566873238824992e-01,0.000000000000000000e+00
2.920000000000000000e+02,1.330691274634881460e-01,0.000000000000000000e+00
2.930000000000000000e+02,2.806239350186049974e-01,0.000000000000000000e+00
2.940000000000000000e+02,9.877213004433026133e-02,0.000000000000000000e+00
2.950000000000000000e+02,3.378205728029753385e-01,0.000000000000000000e+00
2.960000000000000000e+02,2.498856757121360461e-01,0.000000000000000000e+00
2.970000000000000000e+02,3.880958963021539643e-01,0.000000000000000000e+00
2.980000000000000000e+02,4.371977085770348270e-01,0.000000000000000000e+00
2.990000000000000000e+02,3.006840916608434222e-01,0.000000000000000000e+00
3.000000000000000000e+02,8.869123226682953942e-02,0.000000000000000000e+00
3.010000000000000000e+02,9.455280164670080978e-02,0.000000000000000000e+00
3.020000000000000000e+02,-5.487619902921856210e-03,0.000000000000000000e+00
3.030000000000000000e+02,3.104923232634498181e-02,0.000000000000000000e+00
3.040000000000000000e+02,1.363349422865418048e-01,0.000000000000000000e+00
3.050000000000000000e+02,7.296203675752752082e-02,0.000000000000000000e+00
3.060000000000000000e+02,2.706100899941783933e+00,0.000000000000000000e+00
3.070000000000000000e+02,5.896128668428135988e+00,0.000000000000000000e+00
3.080000000000000000e+02,-1.204210922271618280e-02,1.000000000000000000e+00
3.090000000000000000e+02,-2.071453215611924303e+00,0.000000000000000000e+00
3.100000000000000000e+02,-1.061219620069245417e+00,0.000000000000000000e+00
3.110000000000000000e+02,-9.923205118730633600e-01,0.000000000000000000e+00
3.120000000000000000e+02,-7.435887528453353212e-01,0.000000000000000000e+00
3.130000000000000000e+02,-6.236166988317382032e-01,0.000000000000000000e+00
3.140000000000000000e+02,-5.514611003170517556e-01,0.000000000000000000e+00
3.150000000000000000e+02,-4.000675671780183351e-01,0.000000000000000000e+00
3.160000000000000000e+02,-3.022065475294167247e-01,0.000000000000000000e+00
3.170000000000000000e+02,-1.317980791933414941e-01,0.000000000000000000e+00
3.180000000000000000e+02,1.541116414651576283e-01,0.000000000000000000e+00
3.190000000000000000e+02,3.153965592171733001e-01,0.000000000000000000e+00
3.200000000000000000e+02,6.316235736102280285e-01,0.000000000000000000e+00
3.210000000000000000e+02,7.440769305730272620e-01,0.000000000000000000e+00
3.220000000000000000e+02,7.809248960136696560e-01,0.000000000000000000e+00
3.230000000000000000e+02,4.310477380015914628e-01,0.000000000000000000e+00
3.240000000000000000e+02,-1.907639899465175815e-01,0.000000000000000000e+00
3.250000000000000000e+02,-6.772083564607037642e-01,0.000000000000000000e+00
3.260000000000000000e+02,-1.015623464580095003e+00,0.000000000000000000e+00
3.270000000000000000e+02,-1.015078562216072955e+00,0.000000000000000000e+00
3.280000000000000000e+02,-9.533257894951178146e-01,0.000000000000000000e+00
3.290000000000000000e+02,-8.959965228127163561e-01,0.000000000000000000e+00
3.300000000000000000e+02,-8.779121583107871718e-01,0.000000000000000000e+00
3.310000000000000000e+02,-6.510938912320358707e-01,0.000000000000000000e+00
3.320000000000000000e+02,-6.253478483342207461e-01,0.000000000000000000e+00
3.330000000000000000e+02,-5.222957481263562629e-01,0.000000000000000000e+00
3.340000000000000000e+02,-4.827333047098459895e-01,0.000000000000000000e+00
3.350000000000000000e+02,-3.618838024086460381e-01,0.000000000000000000e+00
3.360000000000000000e+02,-4.150835513893548767e-01,0.000000000000000000e+00
3.370000000000000000e+02,-2.938755569953500069e-01,0.000000000000000000e+00
3.380000000000000000e+02,-2.722824011830103363e-01,0.000000000000000000e+00
3.390000000000000000e+02,-2.586738192118264723e-01,0.000000000000000000e+00
3.400000000000000000e+02,-2.080798729066915542e-01,0.000000000000000000e+00
3.410000000000000000e+02,-2.416262286588320984e-01,0.000000000000000000e+00
3.420000000000000000e+02,-1.109444964308791831e-01,0.000000000000000000e+00
3.430000000000000000e+02,-6.505144504694079788e-02,0.000000000000000000e+00
3.440000000000000000e+02,-1.298672356205620160e-01,0.000000000000000000e+00
3.450000000000000000e+02,-2.842208688588780327e-02,0.000000000000000000e+00
3.460000000000000000e+02,7.555094746373817180e-04,0.000000000000000000e+00
3.470000000000000000e+02,8.988347913791026877e-02,0.000000000000000000e+00
3.480000000000000000e+02,7.835075533668006686e-02,0.000000000000000000e+00
3.490000000000000000e+02,1.036466787006226770e-01,0.000000000000000000e+00
3.500000000000000000e+02,8.935749135078385752e-02,0.000000000000000000e+00
3.510000000000000000e+02,1.640420088012735089e-01,0.000000000000000000e+00
3.520000000000000000e+02,2.050244858727902908e-01,0.000000000000000000e+00
3.530000000000000000e+02,1.758912982369966738e-01,0.000000000000000000e+00
3.540000000000000000e+02,2.102165602897644037e-01,0.000000000000000000e+00
3.550000000000000000e+02,2.642782900077230157e-01,0.000000000000000000e+00
3.560000000000000000e+02,1.614855104656419682e-01,0.000000000000000000e+00
3.570000000000000000e+02,3.789401692517930242e-01,0.000000000000000000e+00
3.580000000000000000e+02,2.655387966548211076e-01,0.000000000000000000e+00
3.590000000000000000e+02,4.427638644357640429e-01,0.000000000000000000e+00
3.600000000000000000e+02,4.448579282489603659e-01,0.000000000000000000e+00
3.610000000000000000e+02,4.402693100200388843e-01,0.000000000000000000e+00
3.620000000000000000e+02,1.782977477695389668e-01,0.000000000000000000e+00
3.630000000000000000e+02,1.693689448169368728e-01,0.000000000000000000e+00
3.640000000000000000e+02,8.267844515550497580e-04,0.000000000000000000e+00
3.650000000000000000e+02,1.024471533056069000e-01,0.000000000000000000e+00
3.660000000000000000e+02,1.594905708987542636e-01,0.000000000000000000e+00
3.670000000000000000e+02,1.928957973916352042e-01,0.000000000000000000e+00
3.680000000000000000e+02,1.802458409932130579e+00,0.000000000000000000e+00
3.690000000000000000e+02,6.039624224375618411e+00,0.000000000000000000e+00
3.700000000000000000e+02,1.310997319076061984e+00,1.000000000000000000e+00
3.710000000000000000e+02,-2.119915150427898354e+00,0.000000000000000000e+00
3.720000000000000000e+02,-1.088242095190803171e+00,0.000000000000000000e+00
3.730000000000000000e+02,-9.591547590804349044e-01,0.000000000000000000e+00
3.740000000000000000e+02,-6.799390745233593325e-01,0.000000000000000000e+00
3.750000000000000000e+02,-6.855653870651244874e-01,0.000000000000000000e+00
3.760000000000000000e+02,-4.369937936081633723e-01,0.000000000000000000e+00
3.770000000000000000e+02,-4.912225806423566876e-01,0.000000000000000000e+00
3.780000000000000000e+02,-1.224373644149293200e-01,0.000000000000000000e+00
3.790000000000000000e+02,-1.690766321353638080e-01,0.000000000000000000e+00
3.800000000000000000e+02,2.271286910302410811e-01,0.000000000000000000e+00
3.810000000000000000e+02,2.733474790016752198e-01,0.000000000000000000e+00
3.820000000000000000e+02,7.565378891269367578e-01,0.000000000000000000e+00
3.830000000000000000e+02,8.171118522156415320e-01,0.000000000000000000e+00
3.840000000000000000e+02,9.193958644272466341e-01,0.000000000000000000e+00
3.850000000000000000e+02,5.655874702999662551e-01,0.000000000000000000e+00
3.860000000000000000e+02,-1.548469147866112991e-02,0.000000000000000000e+00
3.870000000000000000e+02,-5.605957044606899586e-01,0.000000000000000000e+00
3.880000000000000000e+02,-9.026747219288792090e-01,0.000000000000000000e+00
3.890000000000000000e+02,-1.018510246886656478e+00,0.000000000000000000e+00
3.900000000000000000e+02,-9.678679203111278939e-01,0.000000000000000000e+00
3.910000000000000000e+02,-9.020454846119674297e-01,0.000000000000000000e+00
3.920000000000000000e+02,-8.006529607508405810e-01,0.000000000000000000e+00
3.930000000000000000e+02,-7.686553950017847026e-01,0.000000000000000000e+00
3.940000000000000000e+02,-5.582326966641300015e-01,0.000000000000000000e+00
3.950000000000000000e+02,-5.745716798313039719e-01,0.000000000000000000e+00
3.960000000000000000e+02,-4.823127607094017666e-01,0.000000000000000000e+00
3.970000000000000000e+02,-4.593684016002862469e-01,0.000000000000000000e+00
3.980000000000000000e+02,-2.579372174368194659e-01,0.000000000000000000e+00
3.990000000000000000e+02,-3.401726203288110151e-01,0.000000000000000000e+00
4.000000000000000000e+02,-1.607112942048730120e-01,0.000000000000000000e+00
4.010000000000000000e+02,-2.845945533199504829e-01,0.000000000000000000e+00
4.020000000000000000e+02,-1.583930192903207079e-01,0.000000000000000000e+00
4.030000000000000000e+02,-1.069491225739773177e-01,0.000000000000000000e+00
4.040000000000000000e+02,-9.257360439886495873e-02,0.000000000000000000e+00
4.050000000000000000e+02,-9.902591556793607919e-02,0.000000000000000000e+00
4.060000000000000000e+02,-1.016851411631376767e-01,0.000000000000000000e+00
4.070000000000000000e+02,-6.100517696547898966e-02,0.000000000000000000e+00
4.080000000000000000e+02,3.259852204265017289e-02,0.000000000000000000e+00
4.090000000000000000e+02,-1.340314057822926744e-02,0.000000000000000000e+00
4.100000000000000000e+02,9.451196995464125616e-02,0.000000000000000000e+00
4.110000000000000000e+02,6.717471829055252086e-02,0.000000000000000000e+00
4.120000000000000000e+02,1.326870198830979730e-01,0.000000000000000000e+00
4.130000000000000000e+02,1.096080234805284631e-01,0.000000000000000000e+00
4.140000000000000000e+02,1.608413834469262782e-01,0.000000000000000000e+00
4.150000000000000000e+02,1.781806256616277340e-01,0.000000000000000000e+00
4.160000000000000000e+02,1.987749779318494503e-01,0.000000000000000000e+00
4.170000000000000000e+02,1.890901155457563598e-01,0.000000000000000000e+00
4.180000000000000000e+02,2.629980705489564641e-01,0.000000000000000000e+00
4.190000000000000000e+02,2.329682276352768588e-01,0.000000000000000000e+00
4.200000000000000000e+02,3.977095088408233448e-01,0.000000000000000000e+00
4.210000000000000000e+02,3.492609864133469633e-01,0.000000000000000000e+00
4.220000000000000000e+02,4.837988518748277955e-01,0.000000000000000000e+00
4.230000000000000000e+02,1.987556098912619529e-01,0.000000000000000000e+00
4.240000000000000000e+02,2.093156352341861426e-01,0.000000000000000000e+00
4.250000000000000000e+02,9.262257082116823192e-03,0.000000000000000000e+00
4.260000000000000000e+02,1.115076261320232381e-01,0.000000000000000000e+00
4.270000000000000000e+02,1.091361362169638721e-01,0.000000000000000000e+00
4.280000000000000000e+02,2.684444818883964801e-01,0.000000000000000000e+00
4.290000000000000000e+02,2.182013304210106142e-01,0.000000000000000000e+00
4.300000000000000000e+02,3.738553708461555658e+00,0.000000000000000000e+00
4.310000000000000000e+02,5.338171571080938094e+00,0.000000000000000000e+00
4.320000000000000000e+02,-9.131702095393283702e-01,1.000000000000000000e+00
4.330000000000000000e+02,-1.817102592370859693e+00,0.000000000000000000e+00
4.340000000000000000e+02,-1.018157546333023911e+00,0.000000000000000000e+00
4.350000000000000000e+02,-8.339078254471424811e-01,0.000000000000000000e+00
4.360000000000000000e+02,-7.399311951501129636e-01,0.000000000000000000e+00
4.370000000000000000e+02,-5.243741268341568507e-01,0.000000000000000000e+00
4.380000000000000000e+02,-4.778304195103931229e-01,0.000000000000000000e+00
4.390000000000000000e+02,-3.358666161285078777e-01,0.000000000000000000e+00
4.400000000000000000e+02,-1.411004520241939675e-01,0.000000000000000000e+00
4.410000000000000000e+02,-1.394104575570247889e-03,0.000000000000000000e+00
4.420000000000000000e+02,2.230934313868618568e-01,0.000000000000000000e+00
4.430000000000000000e+02,4.935129349196522575e-01,0.000000000000000000e+00
4.440000000000000000e+02,7.240808877501205831e-01,0.000000000000000000e+00
4.450000000000000000e+02,8.618235914920112650e-01,0.000000000000000000e+00
4.460000000000000000e+02,8.084546672437554760e-01,0.000000000000000000e+00
4.470000000000000000e+02,4.222700487868623620e-01,0.000000000000000000e+00
4.480000000000000000e+02,-2.786498178127791991e-01,0.000000000000000000e+00
4.490000000000000000e+02,-7.894368899496803094e-01,0.000000000000000000e+00
4.500000000000000000e+02,-9.639918568370136054e-01,0.000000000000000000e+00
4.510000000000000000e+02,-1.099517563588524816e+00,0.000000000000000000e+00
4.520000000000000000e+02,-9.894157198923454466e-01,0.000000000000000000e+00
4.530000000000000000e+02,-8.936428258588238194e-01,0.000000000000000000e+00
4.540000000000000000e+02,-8.438625317513221979e-01,0.000000000000000000e+00
4.550000000000000000e+02,-7.860204655681316543e-01,0.000000000000000000e+00
4.560000000000000000e+02,-6.075698775730025147e-01,0.000000000000000000e+00
4.570000000000000000e+02,-5.347698407382928121e-01,0.000000000000000000e+00
4.580000000000000000e+02,-4.909533042355209709e-01,0.000000000000000000e+00
4.590000000000000000e+02,-3.990249441657269802e-01,0.000000000000000000e+00
4.600000000000000000e+02,-3.149273427007090453e-01,0.000000000000000000e+00
4.610000000000000000e+02,-2.704776178124173591e-01,0.000000000000000000e+00
4.620000000000000000e+02,-2.613686300673037644e-01,0.000000000000000000e+00
4.630000000000000000e+02,-2.130060891495965669e-01,0.000000000000000000e+00
4.640000000000000000e+02,-2.269738781162820573e-01,0.000000000000000000e+00
4.650000000000000000e+02,-1.980654878516295014e-01,0.000000000000000000e+00
4.660000000000000000e+02,-1.428730729399223520e-01,0.000000000000000000e+00
4.670000000000000000e+02,-1.107043547292732438e-01,0.000000000000000000e+00
4.680000000000000000e+02,-1.146155276642789600e-01,0.000000000000000000e+00
4.690000000000000000e+02,6.196165601184161487e-02,0.000000000000000000e+00
4.700000000000000000e+02,2.996554494295080792e-02,0.000000000000000000e+00
4.710000000000000000e+02,5.641565582942100615e-02,0.000000000000000000e+00
4.720000000000000000e+02,2.695161219805433314e-02,0.000000000000000000e+00
4.730000000000000000e+02,1.348669976475832255e-01,0.000000000000000000e+00
4.740000000000000000e+02,1.531255555514727251e-01,0.000000000000000000e+00
4.750000000000000000e+02,1.522682031938680791e-01,0.000000000000000000e+00
4.760000000000000000e+02,1.507412314184142510e-01,0.000000000000000000e+00
4.770000000000000000e+02,1.894299281822756365e-01,0.000000000000000000e+00
4.780000000000000000e+02,2.528839917686682703e-01,0.000000000000000000e+00
4.790000000000000000e+02,2.741768619983014910e-01,0.000000000000000000e+00
4.800000000000000000e+02,4.135574392869940108e-01,0.000000000000000000e+00
4.810000000000000000e+02,4.471579399806985267e-01,0.000000000000000000e+00
4.820000000000000000e+02,4.378782266796304445e-01,0.000000000000000000e+00
4.830000000000000000e+02,2.559626275064805778e-01,0.000000000000000000e+00
4.840000000000000000e+02,1.922079153652929140e-01,0.000000000000000000e+00
4.850000000000000000e+02,9.375505405988157626e-02,0.000000000000000000e+00
4.860000000000000000e+02,1.715675637861421021e-01,0.000000000000000000e+00
4.870000000000000000e+02,1.031470192627565591e-01,0.000000000000000000e+00
4.880000000000000000e+02,3.297024636208684134e-01,0.000000000000000000e+00
4.890000000000000000e+02,6.796599433316915517e-01,0.000000000000000000e+00
4.900000000000000000e+02,5.162077756565409459e+00,0.000000000000000000e+00
4.910000000000000000e+02,3.778547575645430978e+00,0.000000000000000000e+00
4.920000000000000000e+02,-2.009076386138222592e+00,1.000000000000000000e+00
4.930000000000000000e+02,-1.213013689378650506e+00,0.000000000000000000e+00
4.940000000000000000e+02,-1.055726278743125413e+00,0.000000000000000000e+00
4.950000000000000000e+02,-6.047284993689200361e-01,0.000000000000000000e+00
4.960000000000000000e+02,-6.585356907286497030e-01,0.000000000000000000e+00
4.970000000000000000e+02,-3.677458645043635288e-01,0.000000000000000000e+00
4.980000000000000000e+02,-3.499573397466230751e-01,0.000000000000000000e+00
4.990000000000000000e+02,-1.450206536731191431e-01,0.000000000000000000e+00
5.000000000000000000e+02,-1.282191508566357108e-01,0.000000000000000000e+00
5.010000000000000000e+02,1.334452425375892703e-01,0.000000000000000000e+00
5.020000000000000000e+02,3.529357752042563412e-01,0.000000000000000000e+00
5.030000000000000000e+02,6.807134558132369451e-01,0.000000000000000000e+00
5.040000000000000000e+02,8.103568673315182380e-01,0.000000000000000000e+00
5.050000000000000000e+02,9.090262799648272107e-01,0.000000000000000000e+00
5.060000000000000000e+02,8.032261544296649403e-01,0.000000000000000000e+00
5.070000000000000000e+02,3.106784400143605684e-01,0.000000000000000000e+00
5.080000000000000000e+02,-4.549193987513207582e-01,0.000000000000000000e+00
5.090000000000000000e+02,-8.305033219549615708e-01,0.000000000000000000e+00
5.100000000000000000e+02,-9.652883093498809686e-01,0.000000000000000000e+00
5.110000000000000000e+02,-9.255924588956975230e-01,0.000000000000000000e+00
5.120000000000000000e+02,-8.538623813624421910e-01,0.000000000000000000e+00
5.130000000000000000e+02,-8.157100080987688129e-01,0.000000000000000000e+00
5.140000000000000000e+02,-7.935043894802807918e-01,0.000000000000000000e+00
5.150000000000000000e+02,-5.894621301955530468e-01,0.000000000000000000e+00
5.160000000000000000e+02,-5.841959717003425423e-01,0.000000000000000000e+00
5.170000000000000000e+02,-4.424197244501709703e-01,0.000000000000000000e+00
5.180000000000000000e+02,-4.761661530653226171e-01,0.000000000000000000e+00
5.190000000000000000e+02,-2.856744399444771654e-01,0.000000000000000000e+00
5.200000000000000000e+02,-3.267791234385433174e-01,0.000000000000000000e+00
5.210000000000000000e+02,-2.294117874694206471e-01,0.000000000000000000e+00
5.220000000000000000e+02,-2.293473851027281740e-01,0.000000000000000000e+00
5.230000000000000000e+02,-2.050147859179957399e-01,0.000000000000000000e+00
5.240000000000000000e+02,-2.261808066997049449e-01,0.000000000000000000e+00
5.250000000000000000e+02,-1.086654748635937501e-01,0.000000000000000000e+00
5.260000000000000000e+02,-4.472977299266125278e-02,0.000000000000000000e+00
5.270000000000000000e+02,-9.392945091626687948e-02,0.000000000000000000e+00
5.280000000000000000e+02,-1.390093953661985515e-01,0.000000000000000000e+00
5.290000000000000000e+02,6.185367250506146851e-03,0.000000000000000000e+00
5.300000000000000000e+02,1.798715338983747011e-02,0.000000000000000000e+00
5.310000000000000000e+02,4.919849613629807827e-02,0.000000000000000000e+00
5.320000000000000000e+02,1.146444412393328970e-02,0.000000000000000000e+00
5.330000000000000000e+02,1.071321683222093146e-01,0.000000000000000000e+00
5.340000000000000000e+02,3.626198428305585364e-02,0.000000000000000000e+00
5.350000000000000000e+02,2.652766895100683309e-01,0.000000000000000000e+00
5.360000000000000000e+02,9.195064685335312127e-02,0.000000000000000000e+00
5.370000000000000000e+02,2.195432005683868870e-01,0.000000000000000000e+00
5.380000000000000000e+02,6.657469877246043055e-02,0.000000000000000000e+00
5.390000000000000000e+02,3.272668665092031692e-01,0.000000000000000000e+00
5.400000000000000000e+02,2.045505623105506876e-01,0.000000000000000000e+00
5.410000000000000000e+02,3.757116051614307617e-01,0.000000000000000000e+00
5.420000000000000000e+02,3.130289370018509154e-01,0.000000000000000000e+00
5.430000000000000000e+02,5.437290269807878440e-01,0.000000000000000000e+00
5.440000000000000000e+02,1.148455237013108199e-01,0.000000000000000000e+00
5.450000000000000000e+02,1.316792249927661029e-01,0.000000000000000000e+00
5.460000000000000000e+02,5.055577997126981145e-03,0.000000000000000000e+00
5.470000000000000000e+02,6.890408383193691311e-02,0.000000000000000000e+00
5.480000000000000000e+02,1.238685017039231574e-03,0.000000000000000000e+00
5.490000000000000000e+02,2.701844109820833451e-01,0.000000000000000000e+00
5.500000000000000000e+02,3.270794836131732386e-01,0.000000000000000000e+00
5.510000000000000000e+02,4.395334678105661474e+00,0.000000000000000000e+00
5.520000000000000000e+02,4.784664027965213506e+00,0.000000000000000000e+00
5.530000000000000000e+02,-1.471405497420952724e+00,1.000000000000000000e+00
5.540000000000000000e+02,-1.594263187128466708e+00,0.000000000000000000e+00
5.550000000000000000e+02,-1.044404090241836114e+00,0.000000000000000000e+00
5.560000000000000000e+02,-7.729328592454862701e-01,0.000000000000000000e+00
5.570000000000000000e+02,-6.722963670127254376e-01,0.000000000000000000e+00
5.580000000000000000e+02,-5.440564195305506168e-01,0.000000000000000000e+00
5.590000000000000000e+02,-4.639789248073687422e-01,0.000000000000000000e+00
5.600000000000000000e+02,-2.547679974006411552e-01,0.000000000000000000e+00
5.610000000000000000e+02,-1.494316922845615736e-01,0.000000000000000000e+00
5.620000000000000000e+02,4.893304675266717946e-02,0.000000000000000000e+00
5.630000000000000000e+02,1.689747010106611158e-01,0.000000000000000000e+00
5.640000000000000000e+02,5.084336539371238084e-01,0.000000000000000000e+00
5.650000000000000000e+02,7.489068538708882894e-01,0.000000000000000000e+00
5.660000000000000000e+02,8.932587903591245881e-01,0.000000000000000000e+00
5.670000000000000000e+02,7.540174407233980469e-01,0.000000000000000000e+00
5.680000000000000000e+02,2.983427719676499668e-01,0.000000000000000000e+00
5.690000000000000000e+02,-3.650798398384030863e-01,0.000000000000000000e+00
5.700000000000000000e+02,-8.022005029818291000e-01,0.000000000000000000e+00
5.710000000000000000e+02,-9.924516955733793111e-01,0.000000000000000000e+00
5.720000000000000000e+02,-9.894588646778100793e-01,0.000000000000000000e+00
5.730000000000000000e+02,-9.841749516826793220e-01,0.000000000000000000e+00
5.740000000000000000e+02,-8.397506146531078519e-01,0.000000000000000000e+00
5.750000000000000000e+02,-8.017905536873348726e-01,0.000000000000000000e+00
5.760000000000000000e+02,-7.224637235572526350e-01,0.000000000000000000e+00
5.770000000000000000e+02,-5.618043985987712929e-01,0.000000000000000000e+00
5.780000000000000000e+02,-4.517794316473874860e-01,0.000000000000000000e+00
5.790000000000000000e+02,-4.034930676956672291e-01,0.000000000000000000e+00
5.800000000000000000e+02,-4.013729542573405418e-01,0.000000000000000000e+00
5.810000000000000000e+02,-3.739158819408418544e-01,0.000000000000000000e+00
5.820000000000000000e+02,-2.664660239195978941e-01,0.000000000000000000e+00
5.830000000000000000e+02,-2.096035041913971164e-01,0.000000000000000000e+00
5.840000000000000000e+02,-1.649674898248176258e-01,0.000000000000000000e+00
5.850000000000000000e+02,-2.293334140429951207e-01,0.000000000000000000e+00
5.860000000000000000e+02,-1.108963734013576619e-01,0.000000000000000000e+00
5.870000000000000000e+02,-1.808904458511235158e-01,0.000000000000000000e+00
5.880000000000000000e+02,-9.099301005140490728e-02,0.000000000000000000e+00
5.890000000000000000e+02,-1.279030598008710877e-02,0.000000000000000000e+00
5.900000000000000000e+02,-8.776302319231821247e-02,0.000000000000000000e+00
5.910000000000000000e+02,3.255814465861767149e-02,0.000000000000000000e+00
5.920000000000000000e+02,4.115857586115352629e-02,0.000000000000000000e+00
5.930000000000000000e+02,6.312025064773589544e-02,0.000000000000000000e+00
5.940000000000000000e+02,1.004255455952489245e-01,0.000000000000000000e+00
5.950000000000000000e+02,1.200871252101546605e-01,0.000000000000000000e+00
5.960000000000000000e+02,8.428790542517837492e-02,0.000000000000000000e+00
5.970000000000000000e+02,1.846057506699794737e-01,0.000000000000000000e+00
5.980000000000000000e+02,1.917110280032963687e-01,0.000000000000000000e+00
5.990000000000000000e+02,2.081280156055740349e-01,0.000000000000000000e+00
6.000000000000000000e+02,2.204098590829740856e-01,0.000000000000000000e+00
6.010000000000000000e+02,2.340018442888563421e-01,0.000000000000000000e+00
6.020000000000000000e+02,3.046315877764116387e-01,0.000000000000000000e+00
6.030000000000000000e+02,4.411538456192166668e-01,0.000000000000000000e+00
6.040000000000000000e+02,3.959076003375828767e-01,0.000000000000000000e+00
6.050000000000000000e+02,2.481186087765155091e-01,0.000000000000000000e+00
6.060000000000000000e+02,1.509792593326897692e-01,0.000000000000000000e+00
6.070000000000000000e+02,7.183642803624117057e-02,0.000000000000000000e+00
6.080000000000000000e+02,5.755749905282256385e-02,0.000000000000000000e+00
6.090000000000000000e+02,1.275879478787184662e-01,0.000000000000000000e+00
6.100000000000000000e+02,1.618686633944656228e-01,0.000000000000000000e+00
6.110000000000000000e+02,1.891632233942664443e-01,0.000000000000000000e+00
6.120000000000000000e+02,3.188240502397215348e+00,0.000000000000000000e+00
6.130000000000000000e+02,5.841434594663724056e+00,0.000000000000000000e+00
6.140000000000000000e+02,-3.777378898438585320e-01,1.000000000000000000e+00
6.150000000000000000e+02,-1.918485583697603802e+00,0.000000000000000000e+00
6.160000000000000000e+02,-1.000060194825346471e+00,0.000000000000000000e+00
6.170000000000000000e+02,-8.949282598860424098e-01,0.000000000000000000e+00
6.180000000000000000e+02,-6.128941682845640004e-01,0.000000000000000000e+00
6.190000000000000000e+02,-5.448609378011795012e-01,0.000000000000000000e+00
6.200000000000000000e+02,-3.895585925738544453e-01,0.000000000000000000e+00
6.210000000000000000e+02,-2.567796136374784766e-01,0.000000000000000000e+00
6.220000000000000000e+02,-1.553896628927557422e-01,0.000000000000000000e+00
6.230000000000000000e+02,2.167902791484649372e-02,0.000000000000000000e+00
6.240000000000000000e+02,2.118373202648390075e-01,0.000000000000000000e+00
6.250000000000000000e+02,4.879943804474967672e-01,0.000000000000000000e+00
6.260000000000000000e+02,7.172806392378646700e-01,0.000000000000000000e+00
6.270000000000000000e+02,9.024209665517636259e-01,0.000000000000000000e+00
6.280000000000000000e+02,9.141401416809379343e-01,0.000000000000000000e+00
6.290000000000000000e+02,4.014842436383787017e-01,0.000000000000000000e+00
6.300000000000000000e+02,-1.915395040305004348e-01,0.000000000000000000e+00
6.310000000000000000e+02,-6.926761707514331734e-01,0.000000000000000000e+00
6.320000000000000000e+02,-1.039689096815700875e+00,0.000000000000000000e+00
6.330000000000000000e+02,-9.802595269434765113e-01,0.000000000000000000e+00
6.340000000000000000e+02,-1.022511235741016211e+00,0.000000000000000000e+00
6.350000000000000000e+02,-9.081204070332333789e-01,0.000000000000000000e+00
6.360000000000000000e+02,-7.857251122265763721e-01,0.000000000000000000e+00
6.370000000000000000e+02,-6.736317257850991114e-01,0.000000000000000000e+00
6.380000000000000000e+02,-6.427078421066253489e-01,0.000000000000000000e+00
6.390000000000000000e+02,-5.235752686575749770e-01,0.000000000000000000e+00
6.400000000000000000e+02,-4.878392046735180454e-01,0.000000000000000000e+00
6.410000000000000000e+02,-4.043801888325566640e-01,0.000000000000000000e+00
6.420000000000000000e+02,-3.816017131141735685e-01,0.000000000000000000e+00
6.430000000000000000e+02,-2.495053049555695235e-01,0.000000000000000000e+00
6.440000000000000000e+02,-1.975160820927387151e-01,0.000000000000000000e+00
6.450000000000000000e+02,-2.832892566288286451e-01,0.000000000000000000e+00
6.460000000000000000e+02,-2.161440078587575364e-01,0.000000000000000000e+00
6.470000000000000000e+02,-1.639345074561041060e-01,0.000000000000000000e+00
6.480000000000000000e+02,-1.588218835679502672e-01,0.000000000000000000e+00
6.490000000000000000e+02,-7.101550996415419148e-02,0.000000000000000000e+00
6.500000000000000000e+02,-3.484726283856928730e-02,0.000000000000000000e+00
6.510000000000000000e+02,-4.487698292098792063e-02,0.000000000000000000e+00
6.520000000000000000e+02,-6.151330271085888451e-02,0.000000000000000000e+00
6.530000000000000000e+02,6.544614444947823018e-02,0.000000000000000000e+00
6.540000000000000000e+02,8.965702853214163603e-02,0.000000000000000000e+00
6.550000000000000000e+02,1.092845829239769279e-01,0.000000000000000000e+00
6.560000000000000000e+02,1.280759867565843535e-01,0.000000000000000000e+00
6.570000000000000000e+02,1.315860919524227679e-01,0.000000000000000000e+00
6.580000000000000000e+02,1.209323473639966062e-01,0.000000000000000000e+00
6.590000000000000000e+02,2.128528493758017615e-01,0.000000000000000000e+00
6.600000000000000000e+02,2.409434559944485521e-01,0.000000000000000000e+00
6.610000000000000000e+02,3.329694085717569418e-01,0.000000000000000000e+00
6.620000000000000000e+02,2.338370062197776267e-01,0.000000000000000000e+00
6.630000000000000000e+02,4.372383638230884495e-01,0.000000000000000000e+00
6.640000000000000000e+02,4.100511454544840673e-01,0.000000000000000000e+00
6.650000000000000000e+02,4.128663701517306661e-01,0.000000000000000000e+00
6.660000000000000000e+02,1.323496856446620407e-01,0.000000000000000000e+00
6.670000000000000000e+02,1.022243966256957820e-01,0.000000000000000000e+00
6.680000000000000000e+02,8.945314315916341741e-02,0.000000000000000000e+00
6.690000000000000000e+02,1.841992758146593079e-01,0.000000000000000000e+00
6.700000000000000000e+02,1.014117279715528869e-01,0.000000000000000000e+00
6.710000000000000000e+02,2.578460687109938032e-01,0.000000000000000000e+00
6.720000000000000000e+02,1.800909856681763399e+00,0.000000000000000000e+00
6.730000000000000000e+02,5.910501412309464797e+00,0.000000000000000000e+00
6.740000000000000000e+02,1.231055148623509732e+00,1.000000000000000000e+00
6.750000000000000000e+02,-2.130771351727616114e+00,0.000000000000000000e+00
6.760000000000000000e+02,-1.068127905300395364e+00,0.000000000000000000e+00
6.770000000000000000e+02,-1.082096612998207252e+00,0.000000000000000000e+00
6.780000000000000000e+02,-5.668393124721864407e-01,0.000000000000000000e+00
6.790000000000000000e+02,-6.411835728669196266e-01,0.000000000000000000e+00
6.800000000000000000e+02,-3.865396235463573471e-01,0.000000000000000000e+00
6.810000000000000000e+02,-4.003350303810435662e-01,0.000000000000000000e+00
6.820000000000000000e+02,-2.119308377366702079e-01,0.000000000000000000e+00
6.830000000000000000e+02,-9.576558797630602138e-02,0.000000000000000000e+00
6.840000000000000000e+02,1.426015514195680955e-01,0.000000000000000000e+00
6.850000000000000000e+02,3.271007218222138357e-01,0.000000000000000000e+00
6.860000000000000000e+02,6.705401946105224997e-01,0.000000000000000000e+00
6.870000000000000000e+02,7.866306501598866463e-01,0.000000000000000000e+00
6.880000000000000000e+02,8.452161065087498981e-01,0.000000000000000000e+00
6.890000000000000000e+02,5.860787271278692367e-01,0.000000000000000000e+00
6.900000000000000000e+02,-6.107094924062211883e-02,0.000000000000000000e+00
6.910000000000000000e+02,-6.638718407149346579e-01,0.000000000000000000e+00
6.920000000000000000e+02,-9.336261499557415577e-01,0.000000000000000000e+00
6.930000000000000000e+02,-1.041654138903340687e+00,0.000000000000000000e+00
6.940000000000000000e+02,-1.004761990117661208e+00,0.000000000000000000e+00
6.950000000000000000e+02,-9.648299708098876382e-01,0.000000000000000000e+00
6.960000000000000000e+02,-7.701802033204141473e-01,0.000000000000000000e+00
6.970000000000000000e+02,-8.040988372327831923e-01,0.000000000000000000e+00
6.980000000000000000e+02,-5.764808474284198736e-01,0.000000000000000000e+00
6.990000000000000000e+02,-6.025035930815125784e-01,0.000000000000000000e+00
7.000000000000000000e+02,-4.927971178079563752e-01,0.000000000000000000e+00
7.010000000000000000e+02,-3.125287116607224913e-01,0.000000000000000000e+00
7.020000000000000000e+02,-2.866494478202766261e-01,0.000000000000000000e+00
7.030000000000000000e+02,-2.498970985953299362e-01,0.000000000000000000e+00
7.040000000000000000e+02,-1.766742942480268863e-01,0.000000000000000000e+00
7.050000000000000000e+02,-2.412379998558974725e-01,0.000000000000000000e+00
7.060000000000000000e+02,-1.140034962365739785e-01,0.000000000000000000e+00
7.070000000000000000e+02,-1.632900449331492199e-01,0.000000000000000000e+00
7.080000000000000000e+02,-8.310679828831092630e-02,0.000000000000000000e+00
7.090000000000000000e+02,9.405040114083319108e-03,0.000000000000000000e+00
7.100000000000000000e+02,-9.120774954365507003e-02,0.000000000000000000e+00
7.110000000000000000e+02,4.353800712445259069e-02,0.000000000000000000e+00
7.120000000000000000e+02,1.519633542955722665e-02,0.000000000000000000e+00
7.130000000000000000e+02,4.714442039148755009e-02,0.000000000000000000e+00
7.140000000000000000e+02,9.917194287984876233e-02,0.000000000000000000e+00
7.150000000000000000e+02,1.388786281592517269e-01,0.000000000000000000e+00
7.160000000000000000e+02,1.472465859839890423e-01,0.000000000000000000e+00
7.170000000000000000e+02,1.818751996816825311e-01,0.000000000000000000e+00
7.180000000000000000e+02,1.623339817780088956e-01,0.000000000000000000e+00
7.190000000000000000e+02,2.149490854635460468e-01,0.000000000000000000e+00
7.200000000000000000e+02,2.035790037630607618e-01,0.000000000000000000e+00
7.210000000000000000e+02,3.271605227118353221e-01,0.000000000000000000e+00
7.220000000000000000e+02,3.426651297911755267e-01,0.000000000000000000e+00
7.230000000000000000e+02,3.496792977661818957e-01,0.000000000000000000e+00
7.240000000000000000e+02,4.785490406489534831e-01,0.000000000000000000e+00
7.250000000000000000e+02,4.212474739431015802e-01,0.000000000000000000e+00
7.260000000000000000e+02,2.531929450390472125e-01,0.000000000000000000e+00
7.270000000000000000e+02,1.925655862213236369e-01,0.000000000000000000e+00
7.280000000000000000e+02,5.692439264163919738e-02,0.000000000000000000e+00
7.290000000000000000e+02,1.573756361073740950e-01,0.000000000000000000e+00
7.300000000000000000e+02,8.283232999744287450e-02,0.000000000000000000e+00
7.310000000000000000e+02,1.704772247988124434e-01,0.000000000000000000e+00
7.320000000000000000e+02,6.477432592288969726e-01,0.000000000000000000e+00
7.330000000000000000e+02,5.005359457991898964e+00,0.000000000000000000e+00
7.340000000000000000e+02,4.035954807271995293e+00,0.000000000000000000e+00
7.350000000000000000e+02,-1.897049128205133162e+00,1.000000000000000000e+00
7.360000000000000000e+02,-1.340087172977114438e+00,0.000000000000000000e+00
7.370000000000000000e+02,-1.084967195373696347e+00,0.000000000000000000e+00
7.380000000000000000e+02,-6.856661909557748569e-01,0.000000000000000000e+00
7.390000000000000000e+02,-7.036354816342953455e-01,0.000000000000000000e+00
7.400000000000000000e+02,-4.674540648015436117e-01,0.000000000000000000e+00
7.410000000000000000e+02,-4.529125338813271284e-01,0.000000000000000000e+00
7.420000000000000000e+02,-1.258366594874130162e-01,0.000000000000000000e+00
7.430000000000000000e+02,-2.053472825150464975e-01,0.000000000000000000e+00
7.440000000000000000e+02,6.048126916465319802e-02,0.000000000000000000e+00
7.450000000000000000e+02,2.915693241907613698e-01,0.000000000000000000e+00
7.460000000000000000e+02,5.862395866422814850e-01,0.000000000000000000e+00
7.470000000000000000e+02,7.835318563567725825e-01,0.000000000000000000e+00
7.480000000000000000e+02,9.236024512937683895e-01,0.000000000000000000e+00
7.490000000000000000e+02,6.979086909841508701e-01,0.000000000000000000e+00
7.500000000000000000e+02,2.708363108938599551e-01,0.000000000000000000e+00
7.510000000000000000e+02,-3.778168514016264634e-01,0.000000000000000000e+00
7.520000000000000000e+02,-8.076107108461852979e-01,0.000000000000000000e+00
7.530000000000000000e+02,-1.026767405317913440e+00,0.000000000000000000e+00
7.540000000000000000e+02,-9.800801972580718280e-01,0.000000000000000000e+00
7.550000000000000000e+02,-9.291145384638580529e-01,0.000000000000000000e+00
7.560000000000000000e+02,-7.614748201752605805e-01,0.000000000000000000e+00
7.570000000000000000e+02,-7.304880401573317084e-01,0.000000000000000000e+00
7.580000000000000000e+02,-6.233234455883547298e-01,0.000000000000000000e+00
7.590000000000000000e+02,-5.946851082451058979e-01,0.000000000000000000e+00
7.600000000000000000e+02,-4.618957589340171310e-01,0.000000000000000000e+00
7.610000000000000000e+02,-4.295737555870837165e-01,0.000000000000000000e+00
7.620000000000000000e+02,-3.798219077262360299e-01,0.000000000000000000e+00
7.630000000000000000e+02,-3.437946803221385017e-01,0.000000000000000000e+00
7.640000000000000000e+02,-2.877751999011569084e-01,0.000000000000000000e+00
7.650000000000000000e+02,-2.543481792478917147e-01,0.000000000000000000e+00
7.660000000000000000e+02,-2.371573749162405043e-01,0.000000000000000000e+00
7.670000000000000000e+02,-2.574936349551437687e-01,0.000000000000000000e+00
7.680000000000000000e+02,-1.046763721636584793e-01,0.000000000000000000e+00
7.690000000000000000e+02,-1.428203248318238583e-01,0.000000000000000000e+00
7.700000000000000000e+02,-4.356218050267608721e-02,0.000000000000000000e+00
7.710000000000000000e+02,-1.661555606603646873e-01,0.000000000000000000e+00
7.720000000000000000e+02,-2.486936975361805566e-02,0.000000000000000000e+00
7.730000000000000000e+02,-4.208482799502522714e-03,0.000000000000000000e+00
7.740000000000000000e+02,4.149508563847648102e-02,0.000000000000000000e+00
7.750000000000000000e+02,2.790735980001802369e-02,0.000000000000000000e+00
7.760000000000000000e+02,1.300036165988180392e-01,0.000000000000000000e+00
7.770000000000000000e+02,1.252690220660628018e-02,0.000000000000000000e+00
7.780000000000000000e+02,2.087609513798261152e-01,0.000000000000000000e+00
7.790000000000000000e+02,1.111776491140281514e-01,0.000000000000000000e+00
7.800000000000000000e+02,1.876719290164430287e-01,0.000000000000000000e+00
7.810000000000000000e+02,2.165448911883005867e-01,0.000000000000000000e+00
7.820000000000000000e+02,2.474770309282281477e-01,0.000000000000000000e+00
7.830000000000000000e+02,2.057575993057856323e-01,0.000000000000000000e+00
7.840000000000000000e+02,4.283001750018861076e-01,0.000000000000000000e+00
7.850000000000000000e+02,3.760422986934668921e-01,0.000000000000000000e+00
7.860000000000000000e+02,4.341808939608056139e-01,0.000000000000000000e+00
7.870000000000000000e+02,1.862635302067737197e-01,0.000000000000000000e+00
7.880000000000000000e+02,1.935115486707986721e-01,0.000000000000000000e+00
7.890000000000000000e+02,3.587087943635219878e-02,0.000000000000000000e+00
7.900000000000000000e+02,1.364606441867718956e-01,0.000000000000000000e+00
7.910000000000000000e+02,7.362093410982872843e-02,0.000000000000000000e+00
7.920000000000000000e+02,2.474392885559654476e-01,0.000000000000000000e+00
7.930000000000000000e+02,8.087787406799833434e-01,0.000000000000000000e+00
7.940000000000000000e+02,5.374573972998692106e+00,0.000000000000000000e+00
7.950000000000000000e+02,3.452222307021791448e+00,1.000000000000000000e+00
7.960000000000000000e+02,-2.128805916719894498e+00,0.000000000000000000e+00
7.970000000000000000e+02,-1.174719597274964666e+00,0.000000000000000000e+00
7.980000000000000000e+02,-1.131434798145556586e+00,0.000000000000000000e+00
7.990000000000000000e+02,-7.468196689481100270e-01,0.000000000000000000e+00
8.000000000000000000e+02,-7.281629189251880296e-01,0.000000000000000000e+00
8.010000000000000000e+02,-4.402287187956525072e-01,0.000000000000000000e+00
8.020000000000000000e+02,-4.550805220885247859e-01,0.000000000000000000e+00
8.030000000000000000e+02,-1.676655780653761030e-01,0.000000000000000000e+00
8.040000000000000000e+02,-2.604984136895017177e-01,0.000000000000000000e+00
8.050000000000000000e+02,1.397229618103359473e-02,0.000000000000000000e+00
8.060000000000000000e+02,3.058803230133878559e-01,0.000000000000000000e+00
8.070000000000000000e+02,6.482811644220283220e-01,0.000000000000000000e+00
8.080000000000000000e+02,7.181278451524082396e-01,0.000000000000000000e+00
8.090000000000000000e+02,9.274093765529899391e-01,0.000000000000000000e+00
8.100000000000000000e+02,6.812117694266036638e-01,0.000000000000000000e+00
8.110000000000000000e+02,1.789575578748363038e-01,0.000000000000000000e+00
8.120000000000000000e+02,-4.460060941593681494e-01,0.000000000000000000e+00
8.130000000000000000e+02,-8.019063982005310010e-01,0.000000000000000000e+00
8.140000000000000000e+02,-9.983939690880397899e-01,0.000000000000000000e+00
8.150000000000000000e+02,-9.589557158300863193e-01,0.000000000000000000e+00
8.160000000000000000e+02,-9.054386935026788041e-01,0.000000000000000000e+00
8.170000000000000000e+02,-8.491775820881860559e-01,0.000000000000000000e+00
8.180000000000000000e+02,-7.272976548226287585e-01,0.000000000000000000e+00
8.190000000000000000e+02,-6.041032067590916821e-01,0.000000000000000000e+00
8.200000000000000000e+02,-6.214753593475943472e-01,0.000000000000000000e+00
8.210000000000000000e+02,-4.442965406257846084e-01,0.000000000000000000e+00
8.220000000000000000e+02,-4.107011991709591525e-01,0.000000000000000000e+00
8.230000000000000000e+02,-3.496803478373698981e-01,0.000000000000000000e+00
8.240000000000000000e+02,-2.597291859051957807e-01,0.000000000000000000e+00
8.250000000000000000e+02,-3.384495617628331399e-01,0.000000000000000000e+00
8.260000000000000000e+02,-2.345818386057712257e-01,0.000000000000000000e+00
8.270000000000000000e+02,-2.249932522166100124e-01,0.000000000000000000e+00
8.280000000000000000e+02,-1.245571374171207113e-01,0.000000000000000000e+00
8.290000000000000000e+02,-1.225599134420861797e-01,0.000000000000000000e+00
8.300000000000000000e+02,-1.218430880802949534e-01,0.000000000000000000e+00
8.310000000000000000e+02,-7.240548980512992450e-02,0.000000000000000000e+00
8.320000000000000000e+02,-2.251439879149669948e-02,0.000000000000000000e+00
8.330000000000000000e+02,3.470123418833303414e-02,0.000000000000000000e+00
8.340000000000000000e+02,-3.895467492173473184e-02,0.000000000000000000e+00
8.350000000000000000e+02,1.101633167937678681e-01,0.000000000000000000e+00
8.360000000000000000e+02,1.197746677131361626e-01,0.000000000000000000e+00
8.370000000000000000e+02,1.471481128011596362e-01,0.000000000000000000e+00
8.380000000000000000e+02,7.266530063010305518e-02,0.000000000000000000e+00
8.390000000000000000e+02,1.937732149218672761e-01,0.000000000000000000e+00
8.400000000000000000e+02,1.932915733165207206e-01,0.000000000000000000e+00
8.410000000000000000e+02,2.945774872265853328e-01,0.000000000000000000e+00
8.420000000000000000e+02,1.674986556367568657e-01,0.000000000000000000e+00
8.430000000000000000e+02,3.225178224868624488e-01,0.000000000000000000e+00
8.440000000000000000e+02,2.524732266847957707e-01,0.000000000000000000e+00
8.450000000000000000e+02,4.087930265445113842e-01,0.000000000000000000e+00
8.460000000000000000e+02,5.086379004488722488e-01,0.000000000000000000e+00
8.470000000000000000e+02,4.994417552395724047e-01,0.000000000000000000e+00
8.480000000000000000e+02,2.324876141606435076e-01,0.000000000000000000e+00
8.490000000000000000e+02,1.440084630279525602e-01,0.000000000000000000e+00
8.500000000000000000e+02,4.959892083392888895e-02,0.000000000000000000e+00
8.510000000000000000e+02,1.807377264570383946e-01,0.000000000000000000e+00
8.520000000000000000e+02,3.747735441686352725e-02,0.000000000000000000e+00
8.530000000000000000e+02,3.075771598055420664e-01,0.000000000000000000e+00
8.540000000000000000e+02,3.923347631226162258e-01,0.000000000000000000e+00
8.550000000000000000e+02,4.857476204590916780e+00,0.000000000000000000e+00
8.560000000000000000e+02,4.374025768704112416e+00,0.000000000000000000e+00
8.570000000000000000e+02,-1.725875645216240040e+00,1.000000000000000000e+00
8.580000000000000000e+02,-1.463945735641046575e+00,0.000000000000000000e+00
8.590000000000000000e+02,-1.138268989447070112e+00,0.000000000000000000e+00
8.600000000000000000e+02,-8.292303563618351747e-01,0.000000000000000000e+00
8.610000000000000000e+02,-6.891552122834347927e-01,0.000000000000000000e+00
8.620000000000000000e+02,-5.275896002117321792e-01,0.000000000000000000e+00
8.630000000000000000e+02,-4.593348180250779178e-01,0.000000000000000000e+00
8.640000000000000000e+02,-2.925073625424632895e-01,0.000000000000000000e+00
8.650000000000000000e+02,-2.652513418032346193e-01,0.000000000000000000e+00
8.660000000000000000e+02,5.226311423932029909e-02,0.000000000000000000e+00
8.670000000000000000e+02,1.332989297541108120e-01,0.000000000000000000e+00
8.680000000000000000e+02,4.933782196327140546e-01,0.000000000000000000e+00
8.690000000000000000e+02,7.456118163462504000e-01,0.000000000000000000e+00
8.700000000000000000e+02,9.146874742321897678e-01,0.000000000000000000e+00
8.710000000000000000e+02,7.100515475343129879e-01,0.000000000000000000e+00
8.720000000000000000e+02,2.725143497677537940e-01,0.000000000000000000e+00
8.730000000000000000e+02,-4.673712976704392785e-01,0.000000000000000000e+00
8.740000000000000000e+02,-8.580098008423723277e-01,0.000000000000000000e+00
8.750000000000000000e+02,-1.034483995652206501e+00,0.000000000000000000e+00
8.760000000000000000e+02,-1.016681491043763597e+00,0.000000000000000000e+00
8.770000000000000000e+02,-1.048542588741128379e+00,0.000000000000000000e+00
8.780000000000000000e+02,-9.022902883013622644e-01,0.000000000000000000e+00
8.790000000000000000e+02,-7.986018236478785726e-01,0.000000000000000000e+00
8.800000000000000000e+02,-6.831687344046268873e-01,0.000000000000000000e+00
8.810000000000000000e+02,-6.979408226983843111e-01,0.000000000000000000e+00
8.820000000000000000e+02,-4.525678515333749208e-01,0.000000000000000000e+00
8.830000000000000000e+02,-5.281717761857251947e-01,0.000000000000000000e+00
8.840000000000000000e+02,-3.378855738604552017e-01,0.000000000000000000e+00
8.850000000000000000e+02,-3.252066843977746702e-01,0.000000000000000000e+00
8.860000000000000000e+02,-3.545231147451420317e-01,0.000000000000000000e+00
8.870000000000000000e+02,-1.643367072893128777e-01,0.000000000000000000e+00
8.880000000000000000e+02,-2.498072572091032395e-01,0.000000000000000000e+00
8.890000000000000000e+02,-1.413852274333139425e-01,0.000000000000000000e+00
8.900000000000000000e+02,-1.259467674378625945e-01,0.000000000000000000e+00
8.910000000000000000e+02,-1.166718230071065315e-01,0.000000000000000000e+00
8.920000000000000000e+02,-1.247719871084539967e-01,0.000000000000000000e+00
8.930000000000000000e+02,8.509056806489860222e-03,0.000000000000000000e+00
8.940000000000000000e+02,1.728227902638363941e-02,0.000000000000000000e+00
8.950000000000000000e+02,3.723883551389643720e-02,0.000000000000000000e+00
8.960000000000000000e+02,1.060256364718199229e-01,0.000000000000000000e+00
8.970000000000000000e+02,3.623748440443289726e-02,0.000000000000000000e+00
8.980000000000000000e+02,1.186038102063823596e-01,0.000000000000000000e+00
8.990000000000000000e+02,1.491034319756996407e-01,0.000000000000000000e+00
9.000000000000000000e+02,1.935678928965378631e-01,0.000000000000000000e+00
9.010000000000000000e+02,1.594892268288666537e-01,0.000000000000000000e+00
9.020000000000000000e+02,2.975688423261896864e-01,0.000000000000000000e+00
9.030000000000000000e+02,1.742415652357225120e-01,0.000000000000000000e+00
9.040000000000000000e+02,3.344418444349600561e-01,0.000000000000000000e+00
9.050000000000000000e+02,4.585757722650881107e-01,0.000000000000000000e+00
9.060000000000000000e+02,4.182235404408050639e-01,0.000000000000000000e+00
9.070000000000000000e+02,2.117157660842022837e-01,0.000000000000000000e+00
9.080000000000000000e+02,6.377199802095551151e-02,0.000000000000000000e+00
9.090000000000000000e+02,1.382738506205024032e-01,0.000000000000000000e+00
9.100000000000000000e+02,1.321633658207504447e-01,0.000000000000000000e+00
9.110000000000000000e+02,5.475600431993039169e-02,0.000000000000000000e+00
9.120000000000000000e+02,2.970589407549897865e-01,0.000000000000000000e+00
9.130000000000000000e+02,4.212661921431286594e-01,0.000000000000000000e+00
9.140000000000000000e+02,4.348969801952316416e+00,0.000000000000000000e+00
9.150000000000000000e+02,4.780730933557375550e+00,0.000000000000000000e+00
9.160000000000000000e+02,-1.356320549209260040e+00,1.000000000000000000e+00
9.170000000000000000e+02,-1.555658192141611718e+00,0.000000000000000000e+00
9.180000000000000000e+02,-9.842266164461084266e-01,0.000000000000000000e+00
9.190000000000000000e+02,-7.376196149431671900e-01,0.000000000000000000e+00
9.200000000000000000e+02,-6.483737268383992225e-01,0.000000000000000000e+00
9.210000000000000000e+02,-4.276550241795106233e-01,0.000000000000000000e+00
9.220000000000000000e+02,-3.754910258138337009e-01,0.000000000000000000e+00
9.230000000000000000e+02,-1.690305687662413403e-01,0.000000000000000000e+00
9.240000000000000000e+02,-1.440365624082399869e-02,0.000000000000000000e+00
9.250000000000000000e+02,5.640492994891641715e-02,0.000000000000000000e+00
9.260000000000000000e+02,3.203495957054465215e-01,0.000000000000000000e+00
9.270000000000000000e+02,6.141069901394274888e-01,0.000000000000000000e+00
9.280000000000000000e+02,8.407252316613235132e-01,0.000000000000000000e+00
9.290000000000000000e+02,9.206091968661312963e-01,0.000000000000000000e+00
9.300000000000000000e+02,9.311090743531730274e-01,0.000000000000000000e+00
9.310000000000000000e+02,4.229680241528537277e-01,0.000000000000000000e+00
9.320000000000000000e+02,-2.403690034856664770e-01,0.000000000000000000e+00
9.330000000000000000e+02,-6.940030087991329033e-01,0.000000000000000000e+00
9.340000000000000000e+02,-9.664133448351029942e-01,0.000000000000000000e+00
9.350000000000000000e+02,-8.854255964238573196e-01,0.000000000000000000e+00
9.360000000000000000e+02,-9.538393496121682080e-01,0.000000000000000000e+00
9.370000000000000000e+02,-7.616200930814148728e-01,0.000000000000000000e+00
9.380000000000000000e+02,-7.089382893753244375e-01,0.000000000000000000e+00
9.390000000000000000e+02,-5.746921872161132594e-01,0.000000000000000000e+00
9.400000000000000000e+02,-5.837294295991143356e-01,0.000000000000000000e+00
9.410000000000000000e+02,-4.405311649588210532e-01,0.000000000000000000e+00
9.420000000000000000e+02,-4.934562017288835478e-01,0.000000000000000000e+00
9.430000000000000000e+02,-2.867998237024075858e-01,0.000000000000000000e+00
9.440000000000000000e+02,-3.362146966297464012e-01,0.000000000000000000e+00
9.450000000000000000e+02,-2.227524843601956517e-01,0.000000000000000000e+00
9.460000000000000000e+02,-2.516592515862293711e-01,0.000000000000000000e+00
9.470000000000000000e+02,-2.336677275724260705e-01,0.000000000000000000e+00
9.480000000000000000e+02,-1.987707975156673135e-01,0.000000000000000000e+00
9.490000000000000000e+02,-2.085551185735708968e-01,0.000000000000000000e+00
9.500000000000000000e+02,-1.246624249586522071e-01,0.000000000000000000e+00
9.510000000000000000e+02,-4.563404621035235809e-02,0.000000000000000000e+00
9.520000000000000000e+02,-9.770719305465819238e-02,0.000000000000000000e+00
9.530000000000000000e+02,5.816418300157123050e-02,0.000000000000000000e+00
9.540000000000000000e+02,-3.572138967492474726e-02,0.000000000000000000e+00
9.550000000000000000e+02,1.181594361682926225e-01,0.000000000000000000e+00
9.560000000000000000e+02,9.562197750972237231e-02,0.000000000000000000e+00
9.570000000000000000e+02,5.621375824333599280e-02,0.000000000000000000e+00
9.580000000000000000e+02,1.435911389509041125e-01,0.000000000000000000e+00
9.590000000000000000e+02,1.290632478870364919e-01,0.000000000000000000e+00
9.600000000000000000e+02,1.578546727070716249e-01,0.000000000000000000e+00
9.610000000000000000e+02,2.318313324107791340e-01,0.000000000000000000e+00
9.620000000000000000e+02,2.323247396881830129e-01,0.000000000000000000e+00
9.630000000000000000e+02,2.197220097911728176e-01,0.000000000000000000e+00
9.640000000000000000e+02,4.274026373721707683e-01,0.000000000000000000e+00
9.650000000000000000e+02,3.916293192465984951e-01,0.000000000000000000e+00
9.660000000000000000e+02,3.796017064163064725e-01,0.000000000000000000e+00
9.670000000000000000e+02,1.436092944145250516e-01,0.000000000000000000e+00
9.680000000000000000e+02,1.484719622972050512e-01,0.000000000000000000e+00
9.690000000000000000e+02,5.064401594905975496e-02,0.000000000000000000e+00
9.700000000000000000e+02,9.993335423075287716e-02,0.000000000000000000e+00
9.710000000000000000e+02,4.155806238603164393e-02,0.000000000000000000e+00
9.720000000000000000e+02,1.280758786587153364e-01,0.000000000000000000e+00
9.730000000000000000e+02,1.362566619944224566e+00,0.000000000000000000e+00
9.740000000000000000e+02,5.803963501743679032e+00,0.000000000000000000e+00
9.750000000000000000e+02,2.154055390840502238e+00,1.000000000000000000e+00
9.760000000000000000e+02,-2.222256143206896795e+00,0.000000000000000000e+00
9.770000000000000000e+02,-1.237799505795645905e+00,0.000000000000000000e+00
9.780000000000000000e+02,-1.096887671681012311e+00,0.000000000000000000e+00
9.790000000000000000e+02,-7.335459941305159104e-01,0.000000000000000000e+00
9.800000000000000000e+02,-6.971403801800979405e-01,0.000000000000000000e+00
9.810000000000000000e+02,-4.764252540753015630e-01,0.000000000000000000e+00
9.820000000000000000e+02,-4.447773861085627667e-01,0.000000000000000000e+00
9.830000000000000000e+02,-2.432778406938479743e-01,0.000000000000000000e+00
9.840000000000000000e+02,-2.358914444865662374e-01,0.000000000000000000e+00
9.850000000000000000e+02,1.914651542322794442e-01,0.000000000000000000e+00
9.860000000000000000e+02,2.366343049674617949e-01,0.000000000000000000e+00
9.870000000000000000e+02,6.423787141015179225e-01,0.000000000000000000e+00
9.880000000000000000e+02,7.524148488796026379e-01,0.000000000000000000e+00
9.890000000000000000e+02,8.820858013879727677e-01,0.000000000000000000e+00
9.900000000000000000e+02,6.021992935204952824e-01,0.000000000000000000e+00
9.910000000000000000e+02,6.598691208974204192e-02,0.000000000000000000e+00
9.920000000000000000e+02,-5.784158027780879063e-01,0.000000000000000000e+00
9.930000000000000000e+02,-8.475367698765512436e-01,0.000000000000000000e+00
9.940000000000000000e+02,-1.057380914927917637e+00,0.000000000000000000e+00
9.950000000000000000e+02,-9.659676535600627556e-01,0.000000000000000000e+00
9.960000000000000000e+02,-9.417472259556307623e-01,0.000000000000000000e+00
9.970000000000000000e+02,-7.764499774647495300e-01,0.000000000000000000e+00
9.980000000000000000e+02,-7.706469168379154189e-01,0.000000000000000000e+00
9.990000000000000000e+02,-6.063111936471257124e-01,0.000000000000000000e+00
1.000000000000000000e+03,-5.206121780381040010e-01,0.000000000000000000e+00
1.001000000000000000e+03,-4.633675366215562197e-01,0.000000000000000000e+00
1.002000000000000000e+03,-3.981679708224849512e-01,0.000000000000000000e+00
1.003000000000000000e+03,-3.669822533571369116e-01,0.000000000000000000e+00
1.004000000000000000e+03,-3.701024845482798198e-01,0.000000000000000000e+00
1.005000000000000000e+03,-2.024108679042868897e-01,0.000000000000000000e+00
1.006000000000000000e+03,-3.128180901390296698e-01,0.000000000000000000e+00
1.007000000000000000e+03,-1.882811597969215600e-01,0.000000000000000000e+00
1.008000000000000000e+03,-1.920233620976110889e-01,0.000000000000000000e+00
1.009000000000000000e+03,-1.677787254778303483e-01,0.000000000000000000e+00
1.010000000000000000e+03,-1.811004966634827129e-01,0.000000000000000000e+00
1.011000000000000000e+03,-5.547056402537732175e-03,0.000000000000000000e+00
1.012000000000000000e+03,-4.178408476385634535e-02,0.000000000000000000e+00
1.013000000000000000e+03,-9.477017160314139474e-03,0.000000000000000000e+00
1.014000000000000000e+03,1.250667142056274090e-03,0.000000000000000000e+00
1.015000000000000000e+03,5.530613276592839800e-02,0.000000000000000000e+00
1.016000000000000000e+03,1.295172678887204498e-01,0.000000000000000000e+00
1.017000000000000000e+03,1.472802489088397282e-01,0.000000000000000000e+00
1.018000000000000000e+03,1.058715268805317938e-01,0.000000000000000000e+00
1.019000000000000000e+03,1.670352901418681868e-01,0.000000000000000000e+00
1.020000000000000000e+03,1.431501911640898628e-01,0.000000000000000000e+00
1.021000000000000000e+03,2.791727782263218050e-01,0.000000000000000000e+00
1.022000000000000000e+03,2.485828554951986236e-01,0.000000000000000000e+00
1.023000000000000000e+03,3.035947438550030131e-01,0.000000000000000000e+00
1.024000000000000000e+03,4.116436211236180198e-01,0.000000000000000000e+00
1.025000000000000000e+03,4.560032255074994434e-01,0.000000000000000000e+00
1.026000000000000000e+03,3.009279865178047242e-01,0.000000000000000000e+00
1.027000000000000000e+03,2.091862169626067525e-01,0.000000000000000000e+00
1.028000000000000000e+03,8.969420919750439869e-02,0.000000000000000000e+00
1.029000000000000000e+03,2.115154588189639695e-01,0.000000000000000000e+00
1.030000000000000000e+03,6.817282019483733579e-02,0.000000000000000000e+00
1.031000000000000000e+03,3.234867841769529795e-01,0.000000000000000000e+00
1.032000000000000000e+03,1.978174008039427778e-01,0.000000000000000000e+00
1.033000000000000000e+03,3.425620700188209522e+00,0.000000000000000000e+00
1.034000000000000000e+03,5.943379888864048333e+00,0.000000000000000000e+00
1.035000000000000000e+03,-4.115441197434819287e-01,1.000000000000000000e+00
1.036000000000000000e+03,-1.821902434194116349e+00,0.000000000000000000e+00
1.037000000000000000e+03,-1.065607994579824913e+00,0.000000000000000000e+00
1.038000000000000000e+03,-8.380986772967740084e-01,0.000000000000000000e+00
1.039000000000000000e+03,-6.131194074089532098e-01,0.000000000000000000e+00
1.040000000000000000e+03,-5.964395441436356471e-01,0.000000000000000000e+00
1.041000000000000000e+03,-3.420387245663797371e-01,0.000000000000000000e+00
1.042000000000000000e+03,-3.249983276957695288e-01,0.000000000000000000e+00
1.043000000000000000e+03,-1.516876863446202095e-01,0.000000000000000000e+00
1.044000000000000000e+03,7.345659945417089276e-03,0.000000000000000000e+00
1.045000000000000000e+03,2.849123416684172794e-01,0.000000000000000000e+00
1.046000000000000000e+03,4.203430720352263616e-01,0.000000000000000000e+00
1.047000000000000000e+03,8.308464249915500366e-01,0.000000000000000000e+00
1.048000000000000000e+03,9.031579950541699375e-01,0.000000000000000000e+00
1.049000000000000000e+03,8.781313588818711047e-01,0.000000000000000000e+00
1.050000000000000000e+03,4.580072387872066719e-01,0.000000000000000000e+00
1.051000000000000000e+03,-1.873299311749506979e-01,0.000000000000000000e+00
1.052000000000000000e+03,-7.683889766359409679e-01,0.000000000000000000e+00
1.053000000000000000e+03,-8.807762298500293463e-01,0.000000000000000000e+00
1.054000000000000000e+03,-1.088780939247066426e+00,0.000000000000000000e+00
1.055000000000000000e+03,-9.562551895077715525e-01,0.000000000000000000e+00
1.056000000000000000e+03,-9.557829485761171195e-01,0.000000000000000000e+00
1.057000000000000000e+03,-8.515063516226211160e-01,0.000000000000000000e+00
1.058000000000000000e+03,-6.925201589253888734e-01,0.000000000000000000e+00
1.059000000000000000e+03,-6.152203579293631375e-01,0.000000000000000000e+00
1.060000000000000000e+03,-5.205307884482646141e-01,0.000000000000000000e+00
1.061000000000000000e+03,-4.585090522190021778e-01,0.000000000000000000e+00
1.062000000000000000e+03,-3.751751726676351151e-01,0.000000000000000000e+00
1.063000000000000000e+03,-4.161621571207206327e-01,0.000000000000000000e+00
1.064000000000000000e+03,-2.790540641332764915e-01,0.000000000000000000e+00
1.065000000000000000e+03,-2.232084537421456238e-01,0.000000000000000000e+00
1.066000000000000000e+03,-2.904579627292747102e-01,0.000000000000000000e+00
1.067000000000000000e+03,-2.125999198032115789e-01,0.000000000000000000e+00
1.068000000000000000e+03,-1.537977917894617907e-01,0.000000000000000000e+00
1.069000000000000000e+03,-1.574294548558533013e-01,0.000000000000000000e+00
1.070000000000000000e+03,-4.106491090959954460e-02,0.000000000000000000e+00
1.071000000000000000e+03,-1.152343888931901539e-01,0.000000000000000000e+00
1.072000000000000000e+03,-9.141039261980983543e-02,0.000000000000000000e+00
1.073000000000000000e+03,8.299449650372313358e-02,0.000000000000000000e+00
1.074000000000000000e+03,5.845166439277588166e-02,0.000000000000000000e+00
1.075000000000000000e+03,8.009398331957318096e-02,0.000000000000000000e+00
1.076000000000000000e+03,1.408069893164955733e-01,0.000000000000000000e+00
1.077000000000000000e+03,1.052369270608916885e-01,0.000000000000000000e+00
1.078000000000000000e+03,1.721129259944715328e-01,0.000000000000000000e+00
1.079000000000000000e+03,2.434518903335499140e-01,0.000000000000000000e+00
1.080000000000000000e+03,2.933288978818988646e-01,0.000000000000000000e+00
1.081000000000000000e+03,3.593520059475415751e-01,0.000000000000000000e+00
1.082000000000000000e+03,3.353889694015756429e-01,0.000000000000000000e+00
1.083000000000000000e+03,2.086989605241133250e-01,0.000000000000000000e+00
1.084000000000000000e+03,9.559685120004191017e-02,0.000000000000000000e+00
1.085000000000000000e+03,2.663384973446153089e-02,0.000000000000000000e+00
1.086000000000000000e+03,1.363441397543203593e-01,0.000000000000000000e+00
1.087000000000000000e+03,4.881290992056998984e-02,0.000000000000000000e+00
1.088000000000000000e+03,1.999003222073264252e-01,0.000000000000000000e+00
1.089000000000000000e+03,3.478106309683681729e-01,0.000000000000000000e+00
1.090000000000000000e+03,4.005248581003939989e+00,0.000000000000000000e+00
1.091000000000000000e+03,4.661647415136017436e+00,0.000000000000000000e+00
1.092000000000000000e+03,-1.390004717613881224e+00,1.000000000000000000e+00
1.093000000000000000e+03,-1.539869332282471914e+00,0.000000000000000000e+00
1.094000000000000000e+03,-1.048579975295369504e+00,0.000000000000000000e+00
1.095000000000000000e+03,-6.827467355119459791e-01,0.000000000000000000e+00
1.096000000000000000e+03,-5.444153480193381078e-01,0.000000000000000000e+00
1.097000000000000000e+03,-4.195510207123304136e-01,0.000000000000000000e+00
1.098000000000000000e+03,-3.960900768876227107e-01,0.000000000000000000e+00
1.099000000000000000e+03,-1.854387200920696588e-01,0.000000000000000000e+00
1.100000000000000000e+03,-1.568160382767611882e-01,0.000000000000000000e+00
1.101000000000000000e+03,1.468871222681725486e-01,0.000000000000000000e+00
1.102000000000000000e+03,2.620649686476008711e-01,0.000000000000000000e+00
1.103000000000000000e+03,5.444356244387539290e-01,0.000000000000000000e+00
1.104000000000000000e+03,8.065660678590893529e-01,0.000000000000000000e+00
1.105000000000000000e+03,9.506031604888156572e-01,0.000000000000000000e+00
1.106000000000000000e+03,8.104156389413207373e-01,0.000000000000000000e+00
1.107000000000000000e+03,3.751224517592902097e-01,0.000000000000000000e+00
1.108000000000000000e+03,-3.438113100898950170e-01,0.000000000000000000e+00
1.109000000000000000e+03,-7.059915500326316984e-01,0.000000000000000000e+00
1.110000000000000000e+03,-9.808996804292582361e-01,0.000000000000000000e+00
1.111000000000000000e+03,-9.482240286499797888e-01,0.000000000000000000e+00
1.112000000000000000e+03,-9.285596978185323147e-01,0.000000000000000000e+00
1.113000000000000000e+03,-8.379030118763778345e-01,0.000000000000000000e+00
1.114000000000000000e+03,-8.700192634296742833e-01,0.000000000000000000e+00
1.115000000000000000e+03,-6.217909396218034290e-01,0.000000000000000000e+00
1.116000000000000000e+03,-6.224207619539882108e-01,0.000000000000000000e+00
1.117000000000000000e+03,-4.160571262177980567e-01,0.000000000000000000e+00
1.118000000000000000e+03,-4.186820009867104342e-01,0.000000000000000000e+00
1.119000000000000000e+03,-3.257845934857309111e-01,0.000000000000000000e+00
1.120000000000000000e+03,-3.412881916687563466e-01,0.000000000000000000e+00
1.121000000000000000e+03,-1.206460075666416776e-01,0.000000000000000000e+00
1.122000000000000000e+03,-2.502839942498383818e-01,0.000000000000000000e+00
1.123000000000000000e+03,-8.674580119734363881e-02,0.000000000000000000e+00
1.124000000000000000e+03,-1.953595384143900771e-01,0.000000000000000000e+00
1.125000000000000000e+03,-1.087653493411093464e-01,0.000000000000000000e+00
1.126000000000000000e+03,-1.029651214741042486e-01,0.000000000000000000e+00
1.127000000000000000e+03,-5.299278322614892761e-02,0.000000000000000000e+00
1.128000000000000000e+03,-1.019323114539617825e-01,0.000000000000000000e+00
1.129000000000000000e+03,1.007710634516805065e-01,0.000000000000000000e+00
1.130000000000000000e+03,7.816993142613166967e-02,0.000000000000000000e+00
1.131000000000000000e+03,1.133466311951228239e-01,0.000000000000000000e+00
1.132000000000000000e+03,1.062496532964388313e-01,0.000000000000000000e+00
1.133000000000000000e+03,1.066449925537227839e-01,0.000000000000000000e+00
1.134000000000000000e+03,1.255306074236522962e-01,0.000000000000000000e+00
1.135000000000000000e+03,3.238385585456174942e-01,0.000000000000000000e+00
1.136000000000000000e+03,1.843359078891824987e-01,0.000000000000000000e+00
1.137000000000000000e+03,4.271742270568074096e-01,0.000000000000000000e+00
1.138000000000000000e+03,4.217263609268718794e-01,0.000000000000000000e+00
1.139000000000000000e+03,4.428979149572145335e-01,0.000000000000000000e+00
1.140000000000000000e+03,1.528149455569301485e-01,0.000000000000000000e+00
1.141000000000000000e+03,1.148087331230082941e-01,0.000000000000000000e+00
1.142000000000000000e+03,1.135054366641205653e-01,0.000000000000000000e+00
1.143000000000000000e+03,1.759445556978041225e-01,0.000000000000000000e+00
1.144000000000000000e+03,7.915820223282304946e-02,0.000000000000000000e+00
1.145000000000000000e+03,2.736590323504807798e-01,0.000000000000000000e+00
1.146000000000000000e+03,1.360202660770826855e+00,0.000000000000000000e+00
1.147000000000000000e+03,6.027817360157487592e+00,0.000000000000000000e+00
1.148000000000000000e+03,2.232069582515753048e+00,1.000000000000000000e+00
1.149000000000000000e+03,-2.096905824333062718e+00,0.000000000000000000e+00
1.150000000000000000e+03,-1.034499135839399786e+00,0.000000000000000000e+00
1.151000000000000000e+03,-9.217216881612364521e-01,0.000000000000000000e+00
1.152000000000000000e+03,-5.734384377958131607e-01,0.000000000000000000e+00
1.153000000000000000e+03,-6.799406085477454065e-01,0.000000000000000000e+00
1.154000000000000000e+03,-3.363913221958608202e-01,0.000000000000000000e+00
1.155000000000000000e+03,-3.740523882957632051e-01,0.000000000000000000e+00
1.156000000000000000e+03,-1.389224972329410890e-01,0.000000000000000000e+00
1.157000000000000000e+03,-4.545008320708817523e-02,0.000000000000000000e+00
1.158000000000000000e+03,1.647348924068227638e-01,0.000000000000000000e+00
1.159000000000000000e+03,3.383984678527909851e-01,0.000000000000000000e+00
1.160000000000000000e+03,6.684626828986804936e-01,0.000000000000000000e+00
1.161000000000000000e+03,8.402496894866443577e-01,0.000000000000000000e+00
1.162000000000000000e+03,9.026034510061035077e-01,0.000000000000000000e+00
1.163000000000000000e+03,6.617392298815574225e-01,0.000000000000000000e+00
1.164000000000000000e+03,7.441832799060245363e-02,0.000000000000000000e+00
1.165000000000000000e+03,-5.591668749145569661e-01,0.000000000000000000e+00
1.166000000000000000e+03,-8.449369537282106490e-01,0.000000000000000000e+00
1.167000000000000000e+03,-1.017437884771506651e+00,0.000000000000000000e+00
1.168000000000000000e+03,-9.547138500751284340e-01,0.000000000000000000e+00
1.169000000000000000e+03,-8.751999466711806175e-01,0.000000000000000000e+00
1.170000000000000000e+03,-6.722111986950736195e-01,0.000000000000000000e+00
1.171000000000000000e+03,-7.189908584228922317e-01,0.000000000000000000e+00
1.172000000000000000e+03,-6.491933649180974264e-01,0.000000000000000000e+00
1.173000000000000000e+03,-4.163066212185282944e-01,0.000000000000000000e+00
1.174000000000000000e+03,-4.365399706611091113e-01,0.000000000000000000e+00
1.175000000000000000e+03,-3.933924110848057709e-01,0.000000000000000000e+00
1.176000000000000000e+03,-3.131653444426004129e-01,0.000000000000000000e+00
1.177000000000000000e+03,-3.146845428449620563e-01,0.000000000000000000e+00
1.178000000000000000e+03,-2.197184657752069559e-01,0.000000000000000000e+00
1.179000000000000000e+03,-1.621585353835652832e-01,0.000000000000000000e+00
1.180000000000000000e+03,-2.834623224585258727e-01,0.000000000000000000e+00
1.181000000000000000e+03,-1.021282711421527406e-01,0.000000000000000000e+00
1.182000000000000000e+03,-1.511971715073710532e-01,0.000000000000000000e+00
1.183000000000000000e+03,1.055155551862905529e-02,0.000000000000000000e+00
1.184000000000000000e+03,-5.359293985460227006e-02,0.000000000000000000e+00
1.185000000000000000e+03,-2.728465724642692436e-02,0.000000000000000000e+00
1.186000000000000000e+03,4.939085579878210730e-02,0.000000000000000000e+00
1.187000000000000000e+03,6.765697355481985198e-02,0.000000000000000000e+00
1.188000000000000000e+03,6.765135989036277775e-02,0.000000000000000000e+00
1.189000000000000000e+03,8.133121782790825316e-02,0.000000000000000000e+00
1.190000000000000000e+03,1.307121544491715859e-01,0.000000000000000000e+00
1.191000000000000000e+03,2.231132616903811205e-01,0.000000000000000000e+00
1.192000000000000000e+03,1.822152243228674362e-01,0.000000000000000000e+00
1.193000000000000000e+03,2.422405276427251064e-01,0.000000000000000000e+00
1.194000000000000000e+03,1.179068059915439198e-01,0.000000000000000000e+00
1.195000000000000000e+03,2.913217025067637578e-01,0.000000000000000000e+00
1.196000000000000000e+03,3.627245040433437762e-01,0.000000000000000000e+00
1.197000000000000000e+03,4.581328002883097716e-01,0.000000000000000000e+00
1.198000000000000000e+03,2.439320741962312800e-01,0.000000000000000000e+00
1.199000000000000000e+03,1.174627267845592959e-01,0.000000000000000000e+00
1.200000000000000000e+03,-9.081310954973795257e-02,0.000000000000000000e+00
1.201000000000000000e+03,1.451712473343736987e-01,0.000000000000000000e+00
1.202000000000000000e+03,6.326666158203830825e-02,0.000000000000000000e+00
1.203000000000000000e+03,2.441475330503203867e-01,0.000000000000000000e+00
1.204000000000000000e+03,4.388719953625739856e-01,0.000000000000000000e+00
1.205000000000000000e+03,4.525361982879561040e+00,0.000000000000000000e+00
1.206000000000000000e+03,4.592323752818482596e+00,0.000000000000000000e+00
1.207000000000000000e+03,-1.713782774593614500e+00,1.000000000000000000e+00
1.208000000000000000e+03,-1.462898461859703181e+00,0.000000000000000000e+00
1.209000000000000000e+03,-1.072706660247129351e+00,0.000000000000000000e+00
1.210000000000000000e+03,-7.948582815620199860e-01,0.000000000000000000e+00
1.211000000000000000e+03,-7.151234870902224428e-01,0.000000000000000000e+00
1.212000000000000000e+03,-5.419381740491207022e-01,0.000000000000000000e+00
1.213000000000000000e+03,-4.766912783442139312e-01,0.000000000000000000e+00
1.214000000000000000e+03,-2.771439997736152572e-01,0.000000000000000000e+00
1.215000000000000000e+03,-1.958347659114752781e-01,0.000000000000000000e+00
1.216000000000000000e+03,1.030972361754859019e-02,0.000000000000000000e+00
1.217000000000000000e+03,1.790213165785333183e-01,0.000000000000000000e+00
1.218000000000000000e+03,4.955341904234554784e-01,0.000000000000000000e+00
1.219000000000000000e+03,7.538294719213901596e-01,0.000000000000000000e+00
1.220000000000000000e+03,8.973443683911255242e-01,0.000000000000000000e+00
1.221000000000000000e+03,7.914740579103854978e-01,0.000000000000000000e+00
1.222000000000000000e+03,2.921998389814929875e-01,0.000000000000000000e+00
1.223000000000000000e+03,-3.890822193433068898e-01,0.000000000000000000e+00
1.224000000000000000e+03,-7.606492765158522351e-01,0.000000000000000000e+00
1.225000000000000000e+03,-9.699193340949147091e-01,0.000000000000000000e+00
1.226000000000000000e+03,-1.071138565944713905e+00,0.000000000000000000e+00
1.227000000000000000e+03,-8.797139327168238543e-01,0.000000000000000000e+00
1.228000000000000000e+03,-8.313706609170714579e-01,0.000000000000000000e+00
1.229000000000000000e+03,-7.708497009415800072e-01,0.000000000000000000e+00
1.230000000000000000e+03,-6.604859922601725719e-01,0.000000000000000000e+00
1.231000000000000000e+03,-5.998281605175895814e-01,0.000000000000000000e+00
1.232000000000000000e+03,-4.178720565046153412e-01,0.000000000000000000e+00
1.233000000000000000e+03,-4.810227272318343683e-01,0.000000000000000000e+00
1.234000000000000000e+03,-3.713240842672106967e-01,0.000000000000000000e+00
1.235000000000000000e+03,-2.820254290895721216e-01,0.000000000000000000e+00
1.236000000000000000e+03,-2.859443874248746020e-01,0.000000000000000000e+00
1.237000000000000000e+03,-2.432926180216423429e-01,0.000000000000000000e+00
1.238000000000000000e+03,-1.766661758258076254e-01,0.000000000000000000e+00
1.239000000000000000e+03,-1.878621597548630617e-01,0.000000000000000000e+00
1.240000000000000000e+03,-1.046674939330528992e-01,0.000000000000000000e+00
1.241000000000000000e+03,-1.574635258342809707e-01,0.000000000000000000e+00
1.242000000000000000e+03,-1.025730149597432611e-01,0.000000000000000000e+00
1.243000000000000000e+03,-2.236639457390791202e-02,0.000000000000000000e+00
1.244000000000000000e+03,-3.225784441674568043e-02,0.000000000000000000e+00
1.245000000000000000e+03,7.879249733697735181e-02,0.000000000000000000e+00
1.246000000000000000e+03,2.372716714936625240e-02,0.000000000000000000e+00
1.247000000000000000e+03,9.863920822327520987e-02,0.000000000000000000e+00
1.248000000000000000e+03,3.228821405711770204e-02,0.000000000000000000e+00
1.249000000000000000e+03,1.108489169084869580e-01,0.000000000000000000e+00
1.250000000000000000e+03,8.253920955873106369e-02,0.000000000000000000e+00
1.251000000000000000e+03,1.772043191885161739e-01,0.000000000000000000e+00
1.252000000000000000e+03,1.743018379826869191e-01,0.000000000000000000e+00
1.253000000000000000e+03,1.721808934552750137e-01,0.000000000000000000e+00
1.254000000000000000e+03,2.015732991641565885e-01,0.000000000000000000e+00
1.255000000000000000e+03,3.830428883343550139e-01,0.000000000000000000e+00
1.256000000000000000e+03,3.871129601981961321e-01,0.000000000000000000e+00
1.257000000000000000e+03,3.596004544248406765e-01,0.000000000000000000e+00
1.258000000000000000e+03,1.391937666126922268e-01,0.000000000000000000e+00
1.259000000000000000e+03,8.048997641824164051e-02,0.000000000000000000e+00
1.260000000000000000e+03,6.780333820295195157e-02,0.000000000000000000e+00
1.261000000000000000e+03,7.726407552002255430e-02,0.000000000000000000e+00
1.262000000000000000e+03,1.668707489480094064e-01,0.000000000000000000e+00
1.263000000000000000e+03,1.345542610579375242e-01,0.000000000000000000e+00
1.264000000000000000e+03,1.201748574144613224e+00,0.000000000000000000e+00
1.265000000000000000e+03,5.743444575490435966e+00,0.000000000000000000e+00
1.266000000000000000e+03,2.732427263429535458e+00,1.000000000000000000e+00
1.267000000000000000e+03,-2.193060574234692695e+00,0.000000000000000000e+00
1.268000000000000000e+03,-1.113167652082929671e+00,0.000000000000000000e+00
1.269000000000000000e+03,-1.158731524619202036e+00,0.000000000000000000e+00
1.270000000000000000e+03,-6.748179771376980884e-01,0.000000000000000000e+00
1.271000000000000000e+03,-7.315965813667846263e-01,0.000000000000000000e+00
1.272000000000000000e+03,-4.336236476638983817e-01,0.000000000000000000e+00
1.273000000000000000e+03,-4.656503350378023987e-01,0.000000000000000000e+00
1.274000000000000000e+03,-1.676756962949292329e-01,0.000000000000000000e+00
1.275000000000000000e+03,-1.668921794955124382e-01,0.000000000000000000e+00
1.276000000000000000e+03,1.636336693259089758e-01,0.000000000000000000e+00
1.277000000000000000e+03,3.001006167638629041e-01,0.000000000000000000e+00
1.278000000000000000e+03,6.999273034199338106e-01,0.000000000000000000e+00
1.279000000000000000e+03,8.471130382219016486e-01,0.000000000000000000e+00
1.280000000000000000e+03,9.825973831758015864e-01,0.000000000000000000e+00
1.281000000000000000e+03,6.838035326138266479e-01,0.000000000000000000e+00
1.282000000000000000e+03,1.541613242621584223e-01,0.000000000000000000e+00
1.283000000000000000e+03,-4.312465983322008034e-01,0.000000000000000000e+00
1.284000000000000000e+03,-9.198807107815714090e-01,0.000000000000000000e+00
1.285000000000000000e+03,-9.694049026708275729e-01,0.000000000000000000e+00
1.286000000000000000e+03,-9.323021968667747350e-01,0.000000000000000000e+00
1.287000000000000000e+03,-9.087231385891453295e-01,0.000000000000000000e+00
1.288000000000000000e+03,-7.561751602371608039e-01,0.000000000000000000e+00
1.289000000000000000e+03,-7.547998445898401743e-01,0.000000000000000000e+00
1.290000000000000000e+03,-5.825921482916415206e-01,0.000000000000000000e+00
1.291000000000000000e+03,-4.903058141145165139e-01,0.000000000000000000e+00
1.292000000000000000e+03,-4.565023094296527528e-01,0.000000000000000000e+00
1.293000000000000000e+03,-4.300581417527537531e-01,0.000000000000000000e+00
1.294000000000000000e+03,-3.633760006017985877e-01,0.000000000000000000e+00
1.295000000000000000e+03,-3.233776810971299431e-01,0.000000000000000000e+00
1.296000000000000000e+03,-2.443992508837549982e-01,0.000000000000000000e+00
1.297000000000000000e+03,-2.929721791049877955e-01,0.000000000000000000e+00
1.298000000000000000e+03,-1.510183743299716719e-01,0.000000000000000000e+00
1.299000000000000000e+03,-1.925624813814633407e-01,0.000000000000000000e+00
1.300000000000000000e+03,-8.519014590438617196e-02,0.000000000000000000e+00
1.301000000000000000e+03,-1.366475062902941517e-01,0.000000000000000000e+00
1.302000000000000000e+03,1.114329022429381977e-03,0.000000000000000000e+00
1.303000000000000000e+03,-9.597158844276104661e-02,0.000000000000000000e+00
1.304000000000000000e+03,1.065749520401825107e-01,0.000000000000000000e+00
1.305000000000000000e+03,3.997079578929779720e-02,0.000000000000000000e+00
1.306000000000000000e+03,5.346428512235675001e-02,0.000000000000000000e+00
1.307000000000000000e+03,8.879448724979120688e-02,0.000000000000000000e+00
1.308000000000000000e+03,1.927207170871338693e-01,0.000000000000000000e+00
1.309000000000000000e+03,1.434691971880413253e-01,0.000000000000000000e+00
1.310000000000000000e+03,1.674621325447562536e-01,0.000000000000000000e+00
1.311000000000000000e+03,1.500926284120752685e-01,0.000000000000000000e+00
1.312000000000000000e+03,4.450688763211729237e-01,0.000000000000000000e+00
1.313000000000000000e+03,3.034539166872115556e-01,0.000000000000000000e+00
1.314000000000000000e+03,3.815808256021934186e-01,0.000000000000000000e+00
1.315000000000000000e+03,1.941009882864026814e-01,0.000000000000000000e+00
1.316000000000000000e+03,8.880611846433741907e-02,0.000000000000000000e+00
1.317000000000000000e+03,1.009334019432053114e-01,0.000000000000000000e+00
1.318000000000000000e+03,7.033008587001043921e-02,0.000000000000000000e+00
1.319000000000000000e+03,7.650810845616609623e-02,0.000000000000000000e+00
1.320000000000000000e+03,2.063289954366481216e-01,0.000000000000000000e+00
1.321000000000000000e+03,3.397861442065978621e-01,0.000000000000000000e+00
1.322000000000000000e+03,4.161286526220932203e+00,0.000000000000000000e+00
1.323000000000000000e+03,4.925949394984794338e+00,0.000000000000000000e+00
1.324000000000000000e+03,-1.330149858307721367e+00,1.000000000000000000e+00
1.325000000000000000e+03,-1.584504965101563245e+00,0.000000000000000000e+00
1.326000000000000000e+03,-1.002689918763017829e+00,0.000000000000000000e+00
1.327000000000000000e+03,-6.887573517384187882e-01,0.000000000000000000e+00
1.328000000000000000e+03,-5.192396425290118911e-01,0.000000000000000000e+00
1.329000000000000000e+03,-4.170399880186004826e-01,0.000000000000000000e+00
1.330000000000000000e+03,-3.674416752551014076e-01,0.000000000000000000e+00
1.331000000000000000e+03,-1.502964853480122653e-01,0.000000000000000000e+00
1.332000000000000000e+03,-1.421514332234554145e-01,0.000000000000000000e+00
1.333000000000000000e+03,1.756571207201061691e-01,0.000000000000000000e+00
1.334000000000000000e+03,2.955153765254810438e-01,0.000000000000000000e+00
1.335000000000000000e+03,5.901806701988343562e-01,0.000000000000000000e+00
1.336000000000000000e+03,7.925358805334474788e-01,0.000000000000000000e+00
1.337000000000000000e+03,9.590271511487753475e-01,0.000000000000000000e+00
1.338000000000000000e+03,8.537774771330115531e-01,0.000000000000000000e+00
1.339000000000000000e+03,3.863829787696120843e-01,0.000000000000000000e+00
1.340000000000000000e+03,-3.423482376332097066e-01,0.000000000000000000e+00
1.341000000000000000e+03,-7.222288456447346627e-01,0.000000000000000000e+00
1.342000000000000000e+03,-9.641975582665535116e-01,0.000000000000000000e+00
1.343000000000000000e+03,-1.006109839942601836e+00,0.000000000000000000e+00
1.344000000000000000e+03,-8.843329945493428879e-01,0.000000000000000000e+00
1.345000000000000000e+03,-8.689686589795254656e-01,0.000000000000000000e+00
1.346000000000000000e+03,-7.934578514958702256e-01,0.000000000000000000e+00
1.347000000000000000e+03,-6.309329456702068573e-01,0.000000000000000000e+00
1.348000000000000000e+03,-5.863590947588918079e-01,0.000000000000000000e+00
1.349000000000000000e+03,-4.982453205611688807e-01,0.000000000000000000e+00
1.350000000000000000e+03,-3.837283195103583511e-01,0.000000000000000000e+00
1.351000000000000000e+03,-3.047196504707999076e-01,0.000000000000000000e+00
1.352000000000000000e+03,-3.294344655702141078e-01,0.000000000000000000e+00
1.353000000000000000e+03,-1.923291516581529248e-01,0.000000000000000000e+00
1.354000000000000000e+03,-1.849829191637458459e-01,0.000000000000000000e+00
1.355000000000000000e+03,-2.168669962707117371e-01,0.000000000000000000e+00
1.356000000000000000e+03,-1.643528116053539490e-01,0.000000000000000000e+00
1.357000000000000000e+03,-1.144773733813198580e-01,0.000000000000000000e+00
1.358000000000000000e+03,-8.906237531644935201e-02,0.000000000000000000e+00
1.359000000000000000e+03,-4.421692854584926419e-02,0.000000000000000000e+00
1.360000000000000000e+03,-2.511797309501361680e-02,0.000000000000000000e+00
1.361000000000000000e+03,1.309622018107164595e-02,0.000000000000000000e+00
1.362000000000000000e+03,4.646771876045020788e-02,0.000000000000000000e+00
1.363000000000000000e+03,1.028741723941630909e-01,0.000000000000000000e+00
1.364000000000000000e+03,1.867187557722392588e-01,0.000000000000000000e+00
1.365000000000000000e+03,6.916825402804614720e-02,0.000000000000000000e+00
1.366000000000000000e+03,1.432331301433139026e-01,0.000000000000000000e+00
1.367000000000000000e+03,1.681807114033152806e-01,0.000000000000000000e+00
1.368000000000000000e+03,1.881149700995705387e-01,0.000000000000000000e+00
1.369000000000000000e+03,2.407259558426587676e-01,0.000000000000000000e+00
1.370000000000000000e+03,2.826702368927885844e-01,0.000000000000000000e+00
1.371000000000000000e+03,4.166436734988206436e-01,0.000000000000000000e+00
1.372000000000000000e+03,4.830419979964832300e-01,0.000000000000000000e+00
1.373000000000000000e+03,2.473904091958636364e-01,0.000000000000000000e+00
1.374000000000000000e+03,1.114850125296620170e-01,0.000000000000000000e+00
1.375000000000000000e+03,4.505720492939607053e-02,0.000000000000000000e+00
1.376000000000000000e+03,1.286885380290913039e-01,0.000000000000000000e+00
1.377000000000000000e+03,8.736038062712193908e-02,0.000000000000000000e+00
1.378000000000000000e+03,1.595653572927850927e-01,0.000000000000000000e+00
1.379000000000000000e+03,1.597030228973464749e-01,0.000000000000000000e+00
1.380000000000000000e+03,3.366066598836558565e+00,0.000000000000000000e+00
1.381000000000000000e+03,5.621482160069891876e+00,0.000000000000000000e+00
1.382000000000000000e+03,-7.232352652724358677e-01,1.000000000000000000e+00
1.383000000000000000e+03,-1.825374098593165684e+00,0.000000000000000000e+00
1.384000000000000000e+03,-1.079683872435091674e+00,0.000000000000000000e+00
1.385000000000000000e+03,-9.153749740530919832e-01,0.000000000000000000e+00
1.386000000000000000e+03,-6.570832990246554539e-01,0.000000000000000000e+00
1.387000000000000000e+03,-5.874378384140687137e-01,0.000000000000000000e+00
1.388000000000000000e+03,-4.749528284495018737e-01,0.000000000000000000e+00
1.389000000000000000e+03,-2.954527055124877566e-01,0.000000000000000000e+00
1.390000000000000000e+03,-2.272668093666089795e-01,0.000000000000000000e+00
1.391000000000000000e+03,2.985288688646051472e-02,0.000000000000000000e+00
1.392000000000000000e+03,2.230156543234225741e-01,0.000000000000000000e+00
1.393000000000000000e+03,4.496526279524493686e-01,0.000000000000000000e+00
1.394000000000000000e+03,7.217965070945467909e-01,0.000000000000000000e+00
1.395000000000000000e+03,8.640444349677814939e-01,0.000000000000000000e+00
1.396000000000000000e+03,8.099983338562798396e-01,0.000000000000000000e+00
1.397000000000000000e+03,4.096376004260172676e-01,0.000000000000000000e+00
1.398000000000000000e+03,-2.454066781134748298e-01,0.000000000000000000e+00
1.399000000000000000e+03,-6.846155792945617380e-01,0.000000000000000000e+00
1.400000000000000000e+03,-9.893899561828568556e-01,0.000000000000000000e+00
1.401000000000000000e+03,-9.405840815129252741e-01,0.000000000000000000e+00
1.402000000000000000e+03,-9.709209783996423093e-01,0.000000000000000000e+00
1.403000000000000000e+03,-8.065673293673784050e-01,0.000000000000000000e+00
1.404000000000000000e+03,-8.487646009216645027e-01,0.000000000000000000e+00
1.405000000000000000e+03,-6.492964990289845639e-01,0.000000000000000000e+00
1.406000000000000000e+03,-5.120339710286953006e-01,0.000000000000000000e+00
1.407000000000000000e+03,-5.089482070380031420e-01,0.000000000000000000e+00
1.408000000000000000e+03,-4.551134131916309555e-01,0.000000000000000000e+00
1.409000000000000000e+03,-4.086331795065250572e-01,0.000000000000000000e+00
1.410000000000000000e+03,-3.306316709344363503e-01,0.000000000000000000e+00
1.411000000000000000e+03,-2.242357677704610586e-01,0.000000000000000000e+00
1.412000000000000000e+03,-1.918920548075648824e-01,0.000000000000000000e+00
1.413000000000000000e+03,-2.283107469508039167e-01,0.000000000000000000e+00
1.414000000000000000e+03,-2.844225791166219985e-01,0.000000000000000000e+00
1.415000000000000000e+03,-5.818875382788066958e-02,0.000000000000000000e+00
1.416000000000000000e+03,-2.257824629149573215e-01,0.000000000000000000e+00
1.417000000000000000e+03,-1.539983418751746970e-02,0.000000000000000000e+00
1.418000000000000000e+03,-1.034466717221637078e-01,0.000000000000000000e+00
1.419000000000000000e+03,1.737381389884127408e-02,0.000000000000000000e+00
1.420000000000000000e+03,-2.891960441305943888e-02,0.000000000000000000e+00
1.421000000000000000e+03,5.525580959592759495e-02,0.000000000000000000e+00
1.422000000000000000e+03,2.318411784518923865e-02,0.000000000000000000e+00
1.423000000000000000e+03,1.337807955327521559e-01,0.000000000000000000e+00
1.424000000000000000e+03,1.220752985635165516e-01,0.000000000000000000e+00
1.425000000000000000e+03,2.868270707935950958e-01,0.000000000000000000e+00
1.426000000000000000e+03,1.645091699290652243e-01,0.000000000000000000e+00
1.427000000000000000e+03,2.505592898332909546e-01,0.000000000000000000e+00
1.428000000000000000e+03,2.059766872331166843e-01,0.000000000000000000e+00
1.429000000000000000e+03,4.278976514987153923e-01,0.000000000000000000e+00
1.430000000000000000e+03,4.392779720042069846e-01,0.000000000000000000e+00
1.431000000000000000e+03,4.778002587579540106e-01,0.000000000000000000e+00
1.432000000000000000e+03,1.658310218107879042e-01,0.000000000000000000e+00
1.433000000000000000e+03,1.448810770110886548e-01,0.000000000000000000e+00
1.434000000000000000e+03,1.575233044788849554e-02,0.000000000000000000e+00
1.435000000000000000e+03,1.608791953912331041e-01,0.000000000000000000e+00
1.436000000000000000e+03,-1.194378225152524856e-02,0.000000000000000000e+00
1.437000000000000000e+03,3.158874144437662790e-01,0.000000000000000000e+00
1.438000000000000000e+03,3.625916179816093821e-01,0.000000000000000000e+00
1.439000000000000000e+03,4.845041779130541570e+00,0.000000000000000000e+00
1.440000000000000000e+03,4.477397112622868214e+00,0.000000000000000000e+00
1.441000000000000000e+03,-1.755561084951001938e+00,1.000000000000000000e+00
1.442000000000000000e+03,-1.430087966517969988e+00,0.000000000000000000e+00
1.443000000000000000e+03,-1.081309608959524660e+00,0.000000000000000000e+00
1.444000000000000000e+03,-7.189430697273095916e-01,0.000000000000000000e+00
1.445000000000000000e+03,-7.298958856749396817e-01,0.000000000000000000e+00
1.446000000000000000e+03,-4.569790655887744912e-01,0.000000000000000000e+00
1.447000000000000000e+03,-4.414222333927120823e-01,0.000000000000000000e+00
1.448000000000000000e+03,-2.842083859998819628e-01,0.000000000000000000e+00
1.449000000000000000e+03,-1.698530622288492720e-01,0.000000000000000000e+00
1.450000000000000000e+03,5.076023642454897955e-02,0.000000000000000000e+00
1.451000000000000000e+03,2.434663971253985537e-01,0.000000000000000000e+00
1.452000000000000000e+03,5.760846670112087509e-01,0.000000000000000000e+00
1.453000000000000000e+03,8.442045313670412110e-01,0.000000000000000000e+00
1.454000000000000000e+03,9.779377626999710138e-01,0.000000000000000000e+00
1.455000000000000000e+03,7.910780423127282690e-01,0.000000000000000000e+00
1.456000000000000000e+03,3.815272562301604831e-01,0.000000000000000000e+00
1.457000000000000000e+03,-3.775937232310016545e-01,0.000000000000000000e+00
1.458000000000000000e+03,-7.397217704240390823e-01,0.000000000000000000e+00
1.459000000000000000e+03,-9.599441751713996274e-01,0.000000000000000000e+00
1.460000000000000000e+03,-1.005941689239155945e+00,0.000000000000000000e+00
1.461000000000000000e+03,-8.558814760329765958e-01,0.000000000000000000e+00
1.462000000000000000e+03,-7.866383396293789021e-01,0.000000000000000000e+00
1.463000000000000000e+03,-7.427059514681429997e-01,0.000000000000000000e+00
1.464000000000000000e+03,-6.830148769113352225e-01,0.000000000000000000e+00
1.465000000000000000e+03,-5.151183574162037093e-01,0.000000000000000000e+00
1.466000000000000000e+03,-5.081880802230042127e-01,0.000000000000000000e+00
1.467000000000000000e+03,-3.450858409896425671e-01,0.000000000000000000e+00
1.468000000000000000e+03,-4.155185118011839318e-01,0.000000000000000000e+00
1.469000000000000000e+03,-2.973612807889945975e-01,0.000000000000000000e+00
1.470000000000000000e+03,-2.745169579636368984e-01,0.000000000000000000e+00
1.471000000000000000e+03,-1.805907465578319993e-01,0.000000000000000000e+00
1.472000000000000000e+03,-1.853209231411227786e-01,0.000000000000000000e+00
1.473000000000000000e+03,-1.164919435616921378e-01,0.000000000000000000e+00
1.474000000000000000e+03,-9.472818986490284809e-02,0.000000000000000000e+00
1.475000000000000000e+03,-1.228125800494374309e-01,0.000000000000000000e+00
1.476000000000000000e+03,-8.160779591551316214e-02,0.000000000000000000e+00
1.477000000000000000e+03,-4.938913591344820664e-02,0.000000000000000000e+00
1.478000000000000000e+03,9.419619421662918726e-03,0.000000000000000000e+00
1.479000000000000000e+03,7.631263201853116795e-02,0.000000000000000000e+00
1.480000000000000000e+03,4.786177379186353636e-02,0.000000000000000000e+00
1.481000000000000000e+03,1.229359683381382462e-01,0.000000000000000000e+00
1.482000000000000000e+03,8.441683110322906192e-02,0.000000000000000000e+00
1.483000000000000000e+03,1.583174879244768629e-01,0.000000000000000000e+00
1.484000000000000000e+03,6.154630290306965096e-02,0.000000000000000000e+00
1.485000000000000000e+03,2.483266838140548438e-01,0.000000000000000000e+00
1.486000000000000000e+03,2.788815924335206753e-01,0.000000000000000000e+00
1.487000000000000000e+03,3.345330599935062432e-01,0.000000000000000000e+00
1.488000000000000000e+03,3.286888061200739508e-01,0.000000000000000000e+00
1.489000000000000000e+03,3.663820037118860062e-01,0.000000000000000000e+00
1.490000000000000000e+03,1.182143718519715614e-01,0.000000000000000000e+00
1.491000000000000000e+03,1.528995157209454281e-01,0.000000000000000000e+00
1.492000000000000000e+03,3.519987867425851229e-03,0.000000000000000000e+00
1.493000000000000000e+03,1.783372774624929213e-01,0.000000000000000000e+00
1.494000000000000000e+03,9.754109468798435878e-02,0.000000000000000000e+00
1.495000000000000000e+03,2.305766551564460420e-01,0.000000000000000000e+00
1.496000000000000000e+03,1.252487755864659880e+00,0.000000000000000000e+00
1.497000000000000000e+03,5.768723633324030153e+00,0.000000000000000000e+00
1.498000000000000000e+03,2.335135808511462852e+00,1.000000000000000000e+00
1.499000000000000000e+03,-2.290747044068477845e+00,0.000000000000000000e+00
1.500000000000000000e+03,-1.094039597993474500e+00,0.000000000000000000e+00
1.501000000000000000e+03,-1.090559108533010413e+00,0.000000000000000000e+00
1.502000000000000000e+03,-6.188723604029152670e-01,0.000000000000000000e+00
1.503000000000000000e+03,-6.488624820679150806e-01,0.000000000000000000e+00
1.504000000000000000e+03,-3.874167846296115991e-01,0.000000000000000000e+00
1.505000000000000000e+03,-3.707720474010992029e-01,0.000000000000000000e+00
1.506000000000000000e+03,-9.207238445312511399e-02,0.000000000000000000e+00
1.507000000000000000e+03,-8.968950279347627508e-02,0.000000000000000000e+00
1.508000000000000000e+03,1.638034769491375775e-01,0.000000000000000000e+00
1.509000000000000000e+03,3.447712639636093535e-01,0.000000000000000000e+00
1.510000000000000000e+03,7.935088031316033241e-01,0.000000000000000000e+00
1.511000000000000000e+03,8.298453587758564121e-01,0.000000000000000000e+00
1.512000000000000000e+03,9.678251238910872134e-01,0.000000000000000000e+00
1.513000000000000000e+03,6.581874231691685617e-01,0.000000000000000000e+00
1.514000000000000000e+03,2.111306990726694033e-02,0.000000000000000000e+00
1.515000000000000000e+03,-4.537531814375159733e-01,0.000000000000000000e+00
1.516000000000000000e+03,-8.930354465093497396e-01,0.000000000000000000e+00
1.517000000000000000e+03,-1.062960152909293798e+00,0.000000000000000000e+00
1.518000000000000000e+03,-9.525195605182655845e-01,0.000000000000000000e+00
1.519000000000000000e+03,-9.473085182191378628e-01,0.000000000000000000e+00
1.520000000000000000e+03,-7.669716696879304019e-01,0.000000000000000000e+00
1.521000000000000000e+03,-8.293821377354273494e-01,0.000000000000000000e+00
1.522000000000000000e+03,-6.492931893388041997e-01,0.000000000000000000e+00
1.523000000000000000e+03,-6.095267646567259501e-01,0.000000000000000000e+00
1.524000000000000000e+03,-4.669531952533923502e-01,0.000000000000000000e+00
1.525000000000000000e+03,-4.395789252203459729e-01,0.000000000000000000e+00
1.526000000000000000e+03,-3.298106881824500181e-01,0.000000000000000000e+00
1.527000000000000000e+03,-2.459042114443068250e-01,0.000000000000000000e+00
1.528000000000000000e+03,-2.396102909191784869e-01,0.000000000000000000e+00
1.529000000000000000e+03,-2.686764277003411139e-01,0.000000000000000000e+00
1.530000000000000000e+03,-2.409199290392185777e-01,0.000000000000000000e+00
1.531000000000000000e+03,-1.779188365495258661e-01,0.000000000000000000e+00
1.532000000000000000e+03,-1.390878871896632785e-01,0.000000000000000000e+00
1.533000000000000000e+03,-1.450553584005632168e-01,0.000000000000000000e+00
1.534000000000000000e+03,-1.788272994641586788e-01,0.000000000000000000e+00
1.535000000000000000e+03,5.734814003180599418e-02,0.000000000000000000e+00
1.536000000000000000e+03,-1.106123820288128570e-02,0.000000000000000000e+00
1.537000000000000000e+03,1.101799334405719477e-01,0.000000000000000000e+00
1.538000000000000000e+03,-8.082205887760013363e-03,0.000000000000000000e+00
1.539000000000000000e+03,1.471183305056674162e-01,0.000000000000000000e+00
1.540000000000000000e+03,9.593504658248447337e-02,0.000000000000000000e+00
1.541000000000000000e+03,1.755881874042379553e-01,0.000000000000000000e+00
1.542000000000000000e+03,2.350290272575841777e-01,0.000000000000000000e+00
1.543000000000000000e+03,2.662934309333976346e-01,0.000000000000000000e+00
1.544000000000000000e+03,4.440025858459280550e-01,0.000000000000000000e+00
1.545000000000000000e+03,3.469297666828058957e-01,0.000000000000000000e+00
1.546000000000000000e+03,1.042908433960845621e-01,0.000000000000000000e+00
1.547000000000000000e+03,8.968294843402102590e-02,0.000000000000000000e+00
1.548000000000000000e+03,2.039039494925402873e-02,0.000000000000000000e+00
1.549000000000000000e+03,9.490509963302125318e-02,0.000000000000000000e+00
1.550000000000000000e+03,1.921913154213462926e-01,0.000000000000000000e+00
1.551000000000000000e+03,8.364795736037895779e-02,0.000000000000000000e+00
1.552000000000000000e+03,1.622824624664589432e+00,0.000000000000000000e+00
1.553000000000000000e+03,5.876961373418887469e+00,0.000000000000000000e+00
1.554000000000000000e+03,1.766058428518010093e+00,1.000000000000000000e+00
1.555000000000000000e+03,-2.158115864448873822e+00,0.000000000000000000e+00
1.556000000000000000e+03,-1.001010060933702039e+00,0.000000000000000000e+00
1.557000000000000000e+03,-1.003923105904785729e+00,0.000000000000000000e+00
1.558000000000000000e+03,-5.306781734285936913e-01,0.000000000000000000e+00
1.559000000000000000e+03,-5.557985231376703084e-01,0.000000000000000000e+00
1.560000000000000000e+03,-3.243079396554695570e-01,0.000000000000000000e+00
1.561000000000000000e+03,-2.603665540862575289e-01,0.000000000000000000e+00
1.562000000000000000e+03,-6.787100367841042425e-02,0.000000000000000000e+00
1.563000000000000000e+03,5.539018614395323920e-02,0.000000000000000000e+00
1.564000000000000000e+03,2.085950065094708539e-01,0.000000000000000000e+00
1.565000000000000000e+03,4.629375315748200381e-01,0.000000000000000000e+00
1.566000000000000000e+03,7.572847700766819345e-01,0.000000000000000000e+00
1.567000000000000000e+03,9.542007787264512597e-01,0.000000000000000000e+00
1.568000000000000000e+03,1.032317679447312120e+00,0.000000000000000000e+00
1.569000000000000000e+03,5.553732450064688964e-01,0.000000000000000000e+00
1.570000000000000000e+03,1.015315938861096889e-01,0.000000000000000000e+00
1.571000000000000000e+03,-5.362696119291100461e-01,0.000000000000000000e+00
1.572000000000000000e+03,-8.222973748996884602e-01,0.000000000000000000e+00
1.573000000000000000e+03,-9.080866622922213471e-01,0.000000000000000000e+00
1.574000000000000000e+03,-8.686346306483837543e-01,0.000000000000000000e+00
1.575000000000000000e+03,-7.862021561267429348e-01,0.000000000000000000e+00
1.576000000000000000e+03,-8.132456028093284495e-01,0.000000000000000000e+00
1.577000000000000000e+03,-5.981885619135021148e-01,0.000000000000000000e+00
1.578000000000000000e+03,-5.795534555403278887e-01,0.000000000000000000e+00
1.579000000000000000e+03,-4.842299652677822808e-01,0.000000000000000000e+00
1.580000000000000000e+03,-4.498013041819399205e-01,0.000000000000000000e+00
1.581000000000000000e+03,-3.596238254988944338e-01,0.000000000000000000e+00
1.582000000000000000e+03,-2.375377480829359567e-01,0.000000000000000000e+00
1.583000000000000000e+03,-2.703602614370599344e-01,0.000000000000000000e+00
1.584000000000000000e+03,-2.458889400899431366e-01,0.000000000000000000e+00
1.585000000000000000e+03,-1.681804781715249830e-01,0.000000000000000000e+00
1.586000000000000000e+03,-1.704597732708786895e-01,0.000000000000000000e+00
1.587000000000000000e+03,-8.366176565717164948e-02,0.000000000000000000e+00
