timestamp,ecg_measurement,qrs_detected
0.000000000000000000e+00,-1.944722178867312745e-01,0.000000000000000000e+00
1.000000000000000000e+00,1.212742816981179500e-01,0.000000000000000000e+00
2.000000000000000000e+00,-2.036368639535448555e-01,0.000000000000000000e+00
3.000000000000000000e+00,2.140639141520979394e-01,0.000000000000000000e+00
4.000000000000000000e+00,-7.921213019873434361e-03,0.000000000000000000e+00
5.000000000000000000e+00,2.085139054079039600e-01,0.000000000000000000e+00
6.000000000000000000e+00,2.049663770554222830e-01,0.000000000000000000e+00
7.000000000000000000e+00,1.931234193223958784e-01,0.000000000000000000e+00
8.000000000000000000e+00,2.628209317884901419e-01,0.000000000000000000e+00
9.000000000000000000e+00,2.081513268282216556e-01,0.000000000000000000e+00
1.000000000000000000e+01,3.809429626079335329e-01,0.000000000000000000e+00
1.100000000000000000e+01,2.592057140502510570e-01,0.000000000000000000e+00
1.200000000000000000e+01,2.786629992247739995e-01,0.000000000000000000e+00
1.300000000000000000e+01,3.184939846255136486e-01,0.000000000000000000e+00
1.400000000000000000e+01,3.145899459669127540e-01,0.000000000000000000e+00
1.500000000000000000e+01,2.867972814702482998e-01,0.000000000000000000e+00
1.600000000000000000e+01,2.674521014426075594e-01,0.000000000000000000e+00
1.700000000000000000e+01,4.175071372228450484e-01,0.000000000000000000e+00
1.800000000000000000e+01,4.602189380759845183e-01,0.000000000000000000e+00
1.900000000000000000e+01,7.382789762262745858e-01,0.000000000000000000e+00
2.000000000000000000e+01,3.421220355688278647e-01,0.000000000000000000e+00
2.100000000000000000e+01,5.413759091142061886e-01,0.000000000000000000e+00
2.200000000000000000e+01,-1.383488897626156556e-03,0.000000000000000000e+00
2.300000000000000000e+01,-4.400730729212493780e-02,0.000000000000000000e+00
2.400000000000000000e+01,5.074919568689506555e-02,0.000000000000000000e+00
2.500000000000000000e+01,-1.976489032304862281e-01,0.000000000000000000e+00
2.600000000000000000e+01,2.254472935229152875e-01,0.000000000000000000e+00
2.700000000000000000e+01,5.686047036975137914e+00,0.000000000000000000e+00
2.800000000000000000e+01,2.387053588784635139e+00,1.000000000000000000e+00
2.900000000000000000e+01,-1.554432394813952234e+00,0.000000000000000000e+00
3.000000000000000000e+01,-5.961272312110635907e-01,0.000000000000000000e+00
3.100000000000000000e+01,-1.034025551381819508e+00,0.000000000000000000e+00
3.200000000000000000e+01,-6.156047799942881982e-01,0.000000000000000000e+00
3.300000000000000000e+01,-7.590270735719987227e-01,0.000000000000000000e+00
3.400000000000000000e+01,-5.142556894904495302e-01,0.000000000000000000e+00
3.500000000000000000e+01,-5.496741558811066852e-01,0.000000000000000000e+00
3.600000000000000000e+01,-3.400917487156743801e-01,0.000000000000000000e+00
3.700000000000000000e+01,-2.150759081444601484e-01,0.000000000000000000e+00
3.800000000000000000e+01,-9.780251450689250725e-02,0.000000000000000000e+00
3.900000000000000000e+01,7.609619452042627741e-02,0.000000000000000000e+00
4.000000000000000000e+01,3.912297632823473204e-01,0.000000000000000000e+00
4.100000000000000000e+01,5.522263630354959929e-01,0.000000000000000000e+00
4.200000000000000000e+01,7.289967473000005249e-01,0.000000000000000000e+00
4.300000000000000000e+01,7.836875457901542052e-01,0.000000000000000000e+00
4.400000000000000000e+01,5.625285043682909381e-01,0.000000000000000000e+00
4.500000000000000000e+01,-3.622026689970234692e-01,0.000000000000000000e+00
4.600000000000000000e+01,-8.913372302817756943e-01,0.000000000000000000e+00
4.700000000000000000e+01,-1.244751820074478266e+00,0.000000000000000000e+00
4.800000000000000000e+01,-1.387502731924523447e+00,0.000000000000000000e+00
4.900000000000000000e+01,-1.272958115332170514e+00,0.000000000000000000e+00
5.000000000000000000e+01,-1.161657290170760692e+00,0.000000000000000000e+00
5.100000000000000000e+01,-1.118017855618593792e+00,0.000000000000000000e+00
5.200000000000000000e+01,-8.935018575931785723e-01,0.000000000000000000e+00
5.300000000000000000e+01,-8.380607389625205350e-01,0.000000000000000000e+00
5.400000000000000000e+01,-7.952621649661596459e-01,0.000000000000000000e+00
5.500000000000000000e+01,-5.661468581374085041e-01,0.000000000000000000e+00
5.600000000000000000e+01,-5.493040636164361334e-01,0.000000000000000000e+00
5.700000000000000000e+01,-3.948898312664761989e-01,0.000000000000000000e+00
5.800000000000000000e+01,-4.097957415247853175e-01,0.000000000000000000e+00
5.900000000000000000e+01,-3.698290732974861550e-01,0.000000000000000000e+00
6.000000000000000000e+01,-1.864979106490148864e-01,0.000000000000000000e+00
6.100000000000000000e+01,-1.050909591639712926e-01,0.000000000000000000e+00
6.200000000000000000e+01,-1.262817068022880629e-01,0.000000000000000000e+00
6.300000000000000000e+01,4.347304939385550349e-02,0.000000000000000000e+00
6.400000000000000000e+01,-1.696142471420155479e-02,0.000000000000000000e+00
6.500000000000000000e+01,1.029920233022392495e-01,0.000000000000000000e+00
6.600000000000000000e+01,6.100908160409669427e-03,0.000000000000000000e+00
6.700000000000000000e+01,2.241702921376736435e-01,0.000000000000000000e+00
6.800000000000000000e+01,2.734186299344718019e-01,0.000000000000000000e+00
6.900000000000000000e+01,1.764620832691878305e-01,0.000000000000000000e+00
7.000000000000000000e+01,2.681171356232685543e-01,0.000000000000000000e+00
7.100000000000000000e+01,1.718835694559110450e-01,0.000000000000000000e+00
7.200000000000000000e+01,2.793311060249009659e-01,0.000000000000000000e+00
7.300000000000000000e+01,3.419285047957001944e-01,0.000000000000000000e+00
7.400000000000000000e+01,3.063972863165527749e-01,0.000000000000000000e+00
7.500000000000000000e+01,3.799537492313458942e-01,0.000000000000000000e+00
7.600000000000000000e+01,3.296148129179303221e-01,0.000000000000000000e+00
7.700000000000000000e+01,3.161797489635231884e-01,0.000000000000000000e+00
7.800000000000000000e+01,4.252435809511067033e-01,0.000000000000000000e+00
7.900000000000000000e+01,3.898597724422298572e-01,0.000000000000000000e+00
8.000000000000000000e+01,4.716393394435598463e-01,0.000000000000000000e+00
8.100000000000000000e+01,8.277381325391578448e-01,0.000000000000000000e+00
8.200000000000000000e+01,5.451863539933359259e-01,0.000000000000000000e+00
8.300000000000000000e+01,3.745719644423303740e-01,0.000000000000000000e+00
8.400000000000000000e+01,2.556094714057720596e-01,0.000000000000000000e+00
8.500000000000000000e+01,2.227201356898947937e-01,0.000000000000000000e+00
8.600000000000000000e+01,-1.223650938805110298e-02,0.000000000000000000e+00
8.700000000000000000e+01,3.316086817780696666e-02,0.000000000000000000e+00
8.800000000000000000e+01,-2.019759613145195865e-01,0.000000000000000000e+00
8.900000000000000000e+01,5.262393727879699945e+00,0.000000000000000000e+00
9.000000000000000000e+01,3.519741553736666084e+00,1.000000000000000000e+00
9.100000000000000000e+01,-1.381409062706208557e+00,0.000000000000000000e+00
9.200000000000000000e+01,-4.502843261163780308e-01,0.000000000000000000e+00
9.300000000000000000e+01,-9.787205251766490921e-01,0.000000000000000000e+00
9.400000000000000000e+01,-5.533956333599424626e-01,0.000000000000000000e+00
9.500000000000000000e+01,-8.211625024850008892e-01,0.000000000000000000e+00
9.600000000000000000e+01,-5.167170569558571236e-01,0.000000000000000000e+00
9.700000000000000000e+01,-5.018611507870136546e-01,0.000000000000000000e+00
9.800000000000000000e+01,-2.047354549075903474e-01,0.000000000000000000e+00
9.900000000000000000e+01,-2.572739775539455431e-01,0.000000000000000000e+00
1.000000000000000000e+02,8.813863182406014851e-02,0.000000000000000000e+00
1.010000000000000000e+02,6.231836802408513565e-02,0.000000000000000000e+00
1.020000000000000000e+02,4.551536015269864177e-01,0.000000000000000000e+00
1.030000000000000000e+02,4.798277089928614236e-01,0.000000000000000000e+00
1.040000000000000000e+02,9.003482568307487055e-01,0.000000000000000000e+00
1.050000000000000000e+02,7.268943321029331939e-01,0.000000000000000000e+00
1.060000000000000000e+02,7.877706572408389452e-01,0.000000000000000000e+00
1.070000000000000000e+02,-1.772948614547785740e-01,0.000000000000000000e+00
1.080000000000000000e+02,-8.000322348335195954e-01,0.000000000000000000e+00
1.090000000000000000e+02,-1.163645308068326223e+00,0.000000000000000000e+00
1.100000000000000000e+02,-1.273452591005464596e+00,0.000000000000000000e+00
1.110000000000000000e+02,-1.265743857215979373e+00,0.000000000000000000e+00
1.120000000000000000e+02,-1.168928384341093585e+00,0.000000000000000000e+00
1.130000000000000000e+02,-1.119295535174870793e+00,0.000000000000000000e+00
1.140000000000000000e+02,-9.397348644547101060e-01,0.000000000000000000e+00
1.150000000000000000e+02,-8.782242427583181188e-01,0.000000000000000000e+00
1.160000000000000000e+02,-7.067645619714343352e-01,0.000000000000000000e+00
1.170000000000000000e+02,-6.351381158536388849e-01,0.000000000000000000e+00
1.180000000000000000e+02,-4.990704704642377476e-01,0.000000000000000000e+00
1.190000000000000000e+02,-5.106518344422142919e-01,0.000000000000000000e+00
1.200000000000000000e+02,-3.710915423636239052e-01,0.000000000000000000e+00
1.210000000000000000e+02,-2.784373952248990203e-01,0.000000000000000000e+00
1.220000000000000000e+02,-2.117948091550336809e-01,0.000000000000000000e+00
1.230000000000000000e+02,-2.296676267809837357e-01,0.000000000000000000e+00
1.240000000000000000e+02,-2.793653562036815807e-02,0.000000000000000000e+00
1.250000000000000000e+02,-2.445051977565638190e-01,0.000000000000000000e+00
1.260000000000000000e+02,6.235377766073850470e-02,0.000000000000000000e+00
1.270000000000000000e+02,-1.009561527533705122e-01,0.000000000000000000e+00
1.280000000000000000e+02,1.895299896279021012e-01,0.000000000000000000e+00
1.290000000000000000e+02,4.475195477992514187e-02,0.000000000000000000e+00
1.300000000000000000e+02,1.331062124804828217e-01,0.000000000000000000e+00
1.310000000000000000e+02,1.685809763632313274e-01,0.000000000000000000e+00
1.320000000000000000e+02,3.066270380367567827e-01,0.000000000000000000e+00
1.330000000000000000e+02,1.361931896594311686e-01,0.000000000000000000e+00
1.340000000000000000e+02,2.808887502254043822e-01,0.000000000000000000e+00
1.350000000000000000e+02,1.639349023786122184e-01,0.000000000000000000e+00
1.360000000000000000e+02,2.934360947865796709e-01,0.000000000000000000e+00
1.370000000000000000e+02,2.704521145026089202e-01,0.000000000000000000e+00
1.380000000000000000e+02,3.908969754015176323e-01,0.000000000000000000e+00
1.390000000000000000e+02,2.282596438762730939e-01,0.000000000000000000e+00
1.400000000000000000e+02,5.278221722552914885e-01,0.000000000000000000e+00
1.410000000000000000e+02,2.808133764904949814e-01,0.000000000000000000e+00
1.420000000000000000e+02,8.199124881020595224e-01,0.000000000000000000e+00
1.430000000000000000e+02,4.598972458353531301e-01,0.000000000000000000e+00
1.440000000000000000e+02,6.423317602763142231e-01,0.000000000000000000e+00
1.450000000000000000e+02,7.235232069754868323e-02,0.000000000000000000e+00
1.460000000000000000e+02,2.388724085441395195e-01,0.000000000000000000e+00
1.470000000000000000e+02,-6.966721050882808408e-02,0.000000000000000000e+00
1.480000000000000000e+02,2.032771662161830251e-01,0.000000000000000000e+00
1.490000000000000000e+02,-4.062341930556384595e-01,0.000000000000000000e+00
1.500000000000000000e+02,4.970031228253837696e+00,0.000000000000000000e+00
1.510000000000000000e+02,3.722659811587492040e+00,1.000000000000000000e+00
1.520000000000000000e+02,-1.433710614616102053e+00,0.000000000000000000e+00
1.530000000000000000e+02,-6.873243501653630849e-01,0.000000000000000000e+00
1.540000000000000000e+02,-8.594886849634588710e-01,0.000000000000000000e+00
1.550000000000000000e+02,-4.432743172903085838e-01,0.000000000000000000e+00
1.560000000000000000e+02,-7.397914648321437525e-01,0.000000000000000000e+00
1.570000000000000000e+02,-4.158321984092660517e-01,0.000000000000000000e+00
1.580000000000000000e+02,-3.294987816122932345e-01,0.000000000000000000e+00
1.590000000000000000e+02,-1.829736750226026720e-01,0.000000000000000000e+00
1.600000000000000000e+02,-1.285406813260068504e-01,0.000000000000000000e+00
1.610000000000000000e+02,1.888792903988176786e-01,0.000000000000000000e+00
1.620000000000000000e+02,1.214172869507630370e-01,0.000000000000000000e+00
1.630000000000000000e+02,5.224073528877669625e-01,0.000000000000000000e+00
1.640000000000000000e+02,5.102227778532948399e-01,0.000000000000000000e+00
1.650000000000000000e+02,8.775447481995342081e-01,0.000000000000000000e+00
1.660000000000000000e+02,1.015905535041146557e+00,0.000000000000000000e+00
1.670000000000000000e+02,6.392680833916737360e-01,0.000000000000000000e+00
1.680000000000000000e+02,1.732138925396118842e-02,0.000000000000000000e+00
1.690000000000000000e+02,-7.157644055404965844e-01,0.000000000000000000e+00
1.700000000000000000e+02,-1.267271816032105258e+00,0.000000000000000000e+00
1.710000000000000000e+02,-1.083475633318635056e+00,0.000000000000000000e+00
1.720000000000000000e+02,-1.345957097218376752e+00,0.000000000000000000e+00
1.730000000000000000e+02,-1.069249765625041926e+00,0.000000000000000000e+00
1.740000000000000000e+02,-1.245116914770417305e+00,0.000000000000000000e+00
1.750000000000000000e+02,-8.588992273064447458e-01,0.000000000000000000e+00
1.760000000000000000e+02,-8.315482735057537766e-01,0.000000000000000000e+00
1.770000000000000000e+02,-7.832931162646190604e-01,0.000000000000000000e+00
1.780000000000000000e+02,-5.093365678339183411e-01,0.000000000000000000e+00
1.790000000000000000e+02,-5.688592501546407831e-01,0.000000000000000000e+00
1.800000000000000000e+02,-3.844636311187488720e-01,0.000000000000000000e+00
1.810000000000000000e+02,-3.384632850316180441e-01,0.000000000000000000e+00
1.820000000000000000e+02,-2.530382762615323022e-01,0.000000000000000000e+00
1.830000000000000000e+02,-1.899093648014945068e-01,0.000000000000000000e+00
1.840000000000000000e+02,-2.911072867009241727e-01,0.000000000000000000e+00
1.850000000000000000e+02,-1.030629038537014958e-01,0.000000000000000000e+00
1.860000000000000000e+02,-7.684776839600764020e-02,0.000000000000000000e+00
1.870000000000000000e+02,-2.202582265294927011e-01,0.000000000000000000e+00
1.880000000000000000e+02,1.409518640723264604e-01,0.000000000000000000e+00
1.890000000000000000e+02,-6.888034483657758111e-02,0.000000000000000000e+00
1.900000000000000000e+02,2.297013592048110231e-01,0.000000000000000000e+00
1.910000000000000000e+02,-1.608837285542991102e-02,0.000000000000000000e+00
1.920000000000000000e+02,1.107581146371250519e-01,0.000000000000000000e+00
1.930000000000000000e+02,1.340199684401207902e-01,0.000000000000000000e+00
1.940000000000000000e+02,3.747480789349717512e-01,0.000000000000000000e+00
1.950000000000000000e+02,5.344816392097543473e-02,0.000000000000000000e+00
1.960000000000000000e+02,2.552674188700538860e-01,0.000000000000000000e+00
1.970000000000000000e+02,2.460412906203804095e-01,0.000000000000000000e+00
1.980000000000000000e+02,2.395928703597432485e-01,0.000000000000000000e+00
1.990000000000000000e+02,2.607821380614983031e-01,0.000000000000000000e+00
2.000000000000000000e+02,2.976661955487536204e-01,0.000000000000000000e+00
2.010000000000000000e+02,3.644132741628812733e-01,0.000000000000000000e+00
2.020000000000000000e+02,2.739865345666036012e-01,0.000000000000000000e+00
2.030000000000000000e+02,8.557729951554723380e-01,0.000000000000000000e+00
2.040000000000000000e+02,5.499712932977760538e-01,0.000000000000000000e+00
2.050000000000000000e+02,5.895871360554820750e-01,0.000000000000000000e+00
2.060000000000000000e+02,3.771659858080222416e-01,0.000000000000000000e+00
2.070000000000000000e+02,2.876350559540234633e-03,0.000000000000000000e+00
2.080000000000000000e+02,3.040085256601853247e-01,0.000000000000000000e+00
2.090000000000000000e+02,-4.808272508037114701e-02,0.000000000000000000e+00
2.100000000000000000e+02,-1.528952117614552353e-01,0.000000000000000000e+00
2.110000000000000000e+02,8.354756946469548140e-01,0.000000000000000000e+00
2.120000000000000000e+02,6.096715091114293550e+00,0.000000000000000000e+00
2.130000000000000000e+02,1.287314620833122758e+00,1.000000000000000000e+00
2.140000000000000000e+02,-1.175372364860636676e+00,0.000000000000000000e+00
2.150000000000000000e+02,-6.376735016751022833e-01,0.000000000000000000e+00
2.160000000000000000e+02,-9.319284796452003139e-01,0.000000000000000000e+00
2.170000000000000000e+02,-5.547013360427122119e-01,0.000000000000000000e+00
2.180000000000000000e+02,-7.434765870733219817e-01,0.000000000000000000e+00
2.190000000000000000e+02,-2.873635214377474600e-01,0.000000000000000000e+00
2.200000000000000000e+02,-4.827242931460810627e-01,0.000000000000000000e+00
2.210000000000000000e+02,-6.538859327157199586e-02,0.000000000000000000e+00
2.220000000000000000e+02,-2.815509962360202567e-01,0.000000000000000000e+00
2.230000000000000000e+02,-1.425996589594910255e-02,0.000000000000000000e+00
2.240000000000000000e+02,3.885428794392846719e-01,0.000000000000000000e+00
2.250000000000000000e+02,3.545010277103041729e-01,0.000000000000000000e+00
2.260000000000000000e+02,6.260819239971364691e-01,0.000000000000000000e+00
2.270000000000000000e+02,9.268551108134668315e-01,0.000000000000000000e+00
2.280000000000000000e+02,8.252101647201723900e-01,0.000000000000000000e+00
2.290000000000000000e+02,3.947332619283378530e-01,0.000000000000000000e+00
2.300000000000000000e+02,-2.226890511126036754e-01,0.000000000000000000e+00
2.310000000000000000e+02,-8.350516946123869300e-01,0.000000000000000000e+00
2.320000000000000000e+02,-1.242060606658790256e+00,0.000000000000000000e+00
2.330000000000000000e+02,-1.279406931245728574e+00,0.000000000000000000e+00
2.340000000000000000e+02,-1.266003172290402823e+00,0.000000000000000000e+00
2.350000000000000000e+02,-1.070788508416167684e+00,0.000000000000000000e+00
2.360000000000000000e+02,-9.678335730701611572e-01,0.000000000000000000e+00
2.370000000000000000e+02,-8.440423246429910042e-01,0.000000000000000000e+00
2.380000000000000000e+02,-8.895198896271128142e-01,0.000000000000000000e+00
2.390000000000000000e+02,-5.865318967723015531e-01,0.000000000000000000e+00
2.400000000000000000e+02,-6.435057252310252274e-01,0.000000000000000000e+00
2.410000000000000000e+02,-5.575336963927967071e-01,0.000000000000000000e+00
2.420000000000000000e+02,-2.527403387238582599e-01,0.000000000000000000e+00
2.430000000000000000e+02,-4.743668717509184618e-01,0.000000000000000000e+00
2.440000000000000000e+02,-9.152728681742527961e-02,0.000000000000000000e+00
2.450000000000000000e+02,-2.414605068619709860e-01,0.000000000000000000e+00
2.460000000000000000e+02,-2.549211876797822240e-01,0.000000000000000000e+00
2.470000000000000000e+02,-7.348060474436624023e-02,0.000000000000000000e+00
2.480000000000000000e+02,-6.086698534074510419e-02,0.000000000000000000e+00
2.490000000000000000e+02,-1.016888232452806129e-01,0.000000000000000000e+00
2.500000000000000000e+02,8.869999228277822279e-02,0.000000000000000000e+00
2.510000000000000000e+02,7.074628242978778236e-02,0.000000000000000000e+00
2.520000000000000000e+02,6.508694305845874606e-02,0.000000000000000000e+00
2.530000000000000000e+02,6.798332906828692679e-02,0.000000000000000000e+00
2.540000000000000000e+02,1.041542022151119573e-01,0.000000000000000000e+00
2.550000000000000000e+02,2.287520949136942483e-01,0.000000000000000000e+00
2.560000000000000000e+02,1.281922959478899726e-01,0.000000000000000000e+00
2.570000000000000000e+02,2.961209412882008785e-01,0.000000000000000000e+00
2.580000000000000000e+02,2.536396885568753534e-01,0.000000000000000000e+00
2.590000000000000000e+02,2.882298056460598779e-01,0.000000000000000000e+00
2.600000000000000000e+02,2.237064383787468191e-01,0.000000000000000000e+00
2.610000000000000000e+02,2.133217253866729890e-01,0.000000000000000000e+00
2.620000000000000000e+02,3.961119373238590202e-01,0.000000000000000000e+00
2.630000000000000000e+02,3.579651778758294323e-01,0.000000000000000000e+00
2.640000000000000000e+02,6.261858245034249704e-01,0.000000000000000000e+00
2.650000000000000000e+02,6.437227616824969800e-01,0.000000000000000000e+00
2.660000000000000000e+02,4.886164847395800259e-01,0.000000000000000000e+00
2.670000000000000000e+02,3.889419184889175707e-01,0.000000000000000000e+00
2.680000000000000000e+02,1.200951275862554846e-01,0.000000000000000000e+00
2.690000000000000000e+02,9.330403697143274666e-02,0.000000000000000000e+00
2.700000000000000000e+02,-1.348153669961350484e-02,0.000000000000000000e+00
2.710000000000000000e+02,-2.945286620398296362e-01,0.000000000000000000e+00
2.720000000000000000e+02,7.987093639395991262e-01,0.000000000000000000e+00
2.730000000000000000e+02,5.916756834408661625e+00,0.000000000000000000e+00
2.740000000000000000e+02,1.794148083125030269e+00,1.000000000000000000e+00
2.750000000000000000e+02,-1.414345490061933219e+00,0.000000000000000000e+00
2.760000000000000000e+02,-7.524957960137853563e-01,0.000000000000000000e+00
2.770000000000000000e+02,-7.176256956910814777e-01,0.000000000000000000e+00
2.780000000000000000e+02,-7.678255327514698081e-01,0.000000000000000000e+00
2.790000000000000000e+02,-6.799498325388277920e-01,0.000000000000000000e+00
2.800000000000000000e+02,-3.174953752017111719e-01,0.000000000000000000e+00
2.810000000000000000e+02,-5.369936054903289291e-01,0.000000000000000000e+00
2.820000000000000000e+02,-2.855847273147301690e-01,0.000000000000000000e+00
2.830000000000000000e+02,-2.602822576337471619e-02,0.000000000000000000e+00
2.840000000000000000e+02,-9.077423503513608327e-02,0.000000000000000000e+00
2.850000000000000000e+02,1.329232946292068784e-01,0.000000000000000000e+00
2.860000000000000000e+02,6.957937952542027071e-01,0.000000000000000000e+00
2.870000000000000000e+02,5.797770982089847092e-01,0.000000000000000000e+00
2.880000000000000000e+02,7.976321039421911951e-01,0.000000000000000000e+00
2.890000000000000000e+02,1.060640812045031467e+00,0.000000000000000000e+00
2.900000000000000000e+02,4.381771314317364219e-01,0.000000000000000000e+00
2.910000000000000000e+02,-2.122212238076618129e-01,0.000000000000000000e+00
2.920000000000000000e+02,-8.265712135734614163e-01,0.000000000000000000e+00
2.930000000000000000e+02,-1.267928518039248553e+00,0.000000000000000000e+00
2.940000000000000000e+02,-1.228024978632876074e+00,0.000000000000000000e+00
2.950000000000000000e+02,-1.196779088927423240e+00,0.000000000000000000e+00
2.960000000000000000e+02,-1.067446491138744680e+00,0.000000000000000000e+00
2.970000000000000000e+02,-1.032004638239544692e+00,0.000000000000000000e+00
2.980000000000000000e+02,-8.150753141701272408e-01,0.000000000000000000e+00
2.990000000000000000e+02,-8.203799347049912649e-01,0.000000000000000000e+00
3.000000000000000000e+02,-6.547897150717917336e-01,0.000000000000000000e+00
3.010000000000000000e+02,-6.290101015913591720e-01,0.000000000000000000e+00
3.020000000000000000e+02,-4.148527284836956985e-01,0.000000000000000000e+00
3.030000000000000000e+02,-4.564097551379098783e-01,0.000000000000000000e+00
3.040000000000000000e+02,-3.549986927340349485e-01,0.000000000000000000e+00
3.050000000000000000e+02,-3.053113125263465233e-01,0.000000000000000000e+00
3.060000000000000000e+02,-1.764383595499155744e-01,0.000000000000000000e+00
3.070000000000000000e+02,-2.120233661565788796e-01,0.000000000000000000e+00
3.080000000000000000e+02,-3.884127428500737389e-02,0.000000000000000000e+00
3.090000000000000000e+02,-1.642689263420746559e-01,0.000000000000000000e+00
3.100000000000000000e+02,1.406076699521957851e-01,0.000000000000000000e+00
3.110000000000000000e+02,-1.058255563984845937e-01,0.000000000000000000e+00
3.120000000000000000e+02,1.180078747614063533e-01,0.000000000000000000e+00
3.130000000000000000e+02,1.703317682501917230e-01,0.000000000000000000e+00
3.140000000000000000e+02,-1.222570491839898056e-02,0.000000000000000000e+00
3.150000000000000000e+02,1.405548356062624460e-01,0.000000000000000000e+00
3.160000000000000000e+02,2.626883743531252535e-01,0.000000000000000000e+00
3.170000000000000000e+02,3.638480218155344392e-01,0.000000000000000000e+00
3.180000000000000000e+02,1.069183914671313976e-02,0.000000000000000000e+00
3.190000000000000000e+02,4.525365658473037844e-01,0.000000000000000000e+00
3.200000000000000000e+02,2.727690630655284498e-01,0.000000000000000000e+00
3.210000000000000000e+02,2.190430230936477318e-01,0.000000000000000000e+00
3.220000000000000000e+02,3.157435010372798279e-01,0.000000000000000000e+00
3.230000000000000000e+02,3.830392744403938177e-01,0.000000000000000000e+00
3.240000000000000000e+02,3.747858038561814320e-01,0.000000000000000000e+00
3.250000000000000000e+02,7.568970701330384188e-01,0.000000000000000000e+00
3.260000000000000000e+02,5.125807912924499332e-01,0.000000000000000000e+00
3.270000000000000000e+02,5.548810819377492098e-01,0.000000000000000000e+00
3.280000000000000000e+02,2.800589587779029332e-01,0.000000000000000000e+00
3.290000000000000000e+02,2.247921968163633655e-01,0.000000000000000000e+00
3.300000000000000000e+02,1.111471156225940088e-01,0.000000000000000000e+00
3.310000000000000000e+02,2.022906305803444937e-01,0.000000000000000000e+00
3.320000000000000000e+02,-3.998744345270018874e-01,0.000000000000000000e+00
3.330000000000000000e+02,1.617926847960342807e+00,0.000000000000000000e+00
3.340000000000000000e+02,6.157178858195604398e+00,0.000000000000000000e+00
3.350000000000000000e+02,7.252942388724771261e-01,1.000000000000000000e+00
3.360000000000000000e+02,-1.048426580993838231e+00,0.000000000000000000e+00
3.370000000000000000e+02,-5.548571794885958086e-01,0.000000000000000000e+00
3.380000000000000000e+02,-9.092225267524350896e-01,0.000000000000000000e+00
3.390000000000000000e+02,-5.993886289408190127e-01,0.000000000000000000e+00
3.400000000000000000e+02,-6.012405740038962998e-01,0.000000000000000000e+00
3.410000000000000000e+02,-3.995097134910112202e-01,0.000000000000000000e+00
3.420000000000000000e+02,-3.837425213496398202e-01,0.000000000000000000e+00
3.430000000000000000e+02,-2.495388688170767089e-01,0.000000000000000000e+00
3.440000000000000000e+02,-1.537563543744243505e-02,0.000000000000000000e+00
3.450000000000000000e+02,-1.680435546967898666e-02,0.000000000000000000e+00
3.460000000000000000e+02,4.205886121266050326e-01,0.000000000000000000e+00
3.470000000000000000e+02,3.501983463006022590e-01,0.000000000000000000e+00
3.480000000000000000e+02,8.399262089077942361e-01,0.000000000000000000e+00
3.490000000000000000e+02,8.348649936864410703e-01,0.000000000000000000e+00
3.500000000000000000e+02,7.789398086399841326e-01,0.000000000000000000e+00
3.510000000000000000e+02,4.548233715905804497e-01,0.000000000000000000e+00
3.520000000000000000e+02,-1.726440655626557685e-01,0.000000000000000000e+00
3.530000000000000000e+02,-1.136289098628123329e+00,0.000000000000000000e+00
3.540000000000000000e+02,-1.230194577058749683e+00,0.000000000000000000e+00
3.550000000000000000e+02,-1.249177101275667168e+00,0.000000000000000000e+00
3.560000000000000000e+02,-1.246720530213326183e+00,0.000000000000000000e+00
3.570000000000000000e+02,-1.193905655740443272e+00,0.000000000000000000e+00
3.580000000000000000e+02,-9.685585687238428276e-01,0.000000000000000000e+00
3.590000000000000000e+02,-8.717813677914474368e-01,0.000000000000000000e+00
3.600000000000000000e+02,-7.986915807013423851e-01,0.000000000000000000e+00
3.610000000000000000e+02,-8.240657628671897994e-01,0.000000000000000000e+00
3.620000000000000000e+02,-4.894970855834558376e-01,0.000000000000000000e+00
3.630000000000000000e+02,-6.377802289229440591e-01,0.000000000000000000e+00
3.640000000000000000e+02,-2.136483290750933461e-01,0.000000000000000000e+00
3.650000000000000000e+02,-4.974950399272817236e-01,0.000000000000000000e+00
3.660000000000000000e+02,-2.641706269655184625e-01,0.000000000000000000e+00
3.670000000000000000e+02,-2.835059559016845920e-01,0.000000000000000000e+00
3.680000000000000000e+02,-1.775670871463717049e-01,0.000000000000000000e+00
3.690000000000000000e+02,-1.487761093061553408e-01,0.000000000000000000e+00
3.700000000000000000e+02,-1.202577924470035198e-01,0.000000000000000000e+00
3.710000000000000000e+02,-6.614537819037830807e-03,0.000000000000000000e+00
3.720000000000000000e+02,-7.209220738075247659e-02,0.000000000000000000e+00
3.730000000000000000e+02,5.959494873745650040e-02,0.000000000000000000e+00
3.740000000000000000e+02,4.094464125244537400e-02,0.000000000000000000e+00
3.750000000000000000e+02,2.036721648019144681e-01,0.000000000000000000e+00
3.760000000000000000e+02,7.940320723716487450e-02,0.000000000000000000e+00
3.770000000000000000e+02,1.756729229599619524e-01,0.000000000000000000e+00
3.780000000000000000e+02,1.423854562336888951e-01,0.000000000000000000e+00
3.790000000000000000e+02,3.654990483497871367e-01,0.000000000000000000e+00
3.800000000000000000e+02,2.724568003654824766e-01,0.000000000000000000e+00
3.810000000000000000e+02,1.866765572885928925e-01,0.000000000000000000e+00
3.820000000000000000e+02,2.676745161027909159e-01,0.000000000000000000e+00
3.830000000000000000e+02,4.152966069840586250e-01,0.000000000000000000e+00
3.840000000000000000e+02,3.009657810251101795e-01,0.000000000000000000e+00
3.850000000000000000e+02,6.418454985927765089e-01,0.000000000000000000e+00
3.860000000000000000e+02,6.549072774612958447e-01,0.000000000000000000e+00
3.870000000000000000e+02,4.841007769154376805e-01,0.000000000000000000e+00
3.880000000000000000e+02,4.519175123691936413e-01,0.000000000000000000e+00
3.890000000000000000e+02,4.477089546536733994e-02,0.000000000000000000e+00
3.900000000000000000e+02,1.630786703743512533e-01,0.000000000000000000e+00
3.910000000000000000e+02,1.444339419300303962e-01,0.000000000000000000e+00
3.920000000000000000e+02,-1.611959996057353572e-01,0.000000000000000000e+00
3.930000000000000000e+02,1.231886714190792764e+00,0.000000000000000000e+00
3.940000000000000000e+02,6.125700011260416744e+00,0.000000000000000000e+00
3.950000000000000000e+02,8.667057122040061623e-01,1.000000000000000000e+00
3.960000000000000000e+02,-1.422138672329680054e+00,0.000000000000000000e+00
3.970000000000000000e+02,-5.091344616813394675e-01,0.000000000000000000e+00
3.980000000000000000e+02,-8.289158416263308071e-01,0.000000000000000000e+00
3.990000000000000000e+02,-4.883182229585726342e-01,0.000000000000000000e+00
4.000000000000000000e+02,-5.123698596176378128e-01,0.000000000000000000e+00
4.010000000000000000e+02,-4.359262092515789333e-01,0.000000000000000000e+00
4.020000000000000000e+02,-3.218961993707880609e-01,0.000000000000000000e+00
4.030000000000000000e+02,-1.044667247714391040e-01,0.000000000000000000e+00
4.040000000000000000e+02,-1.059362170685304583e-01,0.000000000000000000e+00
4.050000000000000000e+02,1.852004459597883512e-01,0.000000000000000000e+00
4.060000000000000000e+02,1.623343327197359909e-01,0.000000000000000000e+00
4.070000000000000000e+02,6.394151955929875397e-01,0.000000000000000000e+00
4.080000000000000000e+02,7.659351120865478535e-01,0.000000000000000000e+00
4.090000000000000000e+02,6.858828988123802928e-01,0.000000000000000000e+00
4.100000000000000000e+02,9.821625370602075078e-01,0.000000000000000000e+00
4.110000000000000000e+02,4.040911388950346739e-01,0.000000000000000000e+00
4.120000000000000000e+02,-4.589585495160586892e-01,0.000000000000000000e+00
4.130000000000000000e+02,-7.685893900570036630e-01,0.000000000000000000e+00
4.140000000000000000e+02,-1.296595369441176482e+00,0.000000000000000000e+00
4.150000000000000000e+02,-1.519509648482169517e+00,0.000000000000000000e+00
4.160000000000000000e+02,-9.547106979142944150e-01,0.000000000000000000e+00
4.170000000000000000e+02,-1.295652138871245418e+00,0.000000000000000000e+00
4.180000000000000000e+02,-1.046577635459382316e+00,0.000000000000000000e+00
4.190000000000000000e+02,-9.128287273942229385e-01,0.000000000000000000e+00
4.200000000000000000e+02,-7.173941128223322306e-01,0.000000000000000000e+00
4.210000000000000000e+02,-7.013492496710427293e-01,0.000000000000000000e+00
4.220000000000000000e+02,-5.548089029128562277e-01,0.000000000000000000e+00
4.230000000000000000e+02,-5.077724387767439396e-01,0.000000000000000000e+00
4.240000000000000000e+02,-3.231379963796758847e-01,0.000000000000000000e+00
4.250000000000000000e+02,-2.643863602742800301e-01,0.000000000000000000e+00
4.260000000000000000e+02,-2.685472322758349351e-01,0.000000000000000000e+00
4.270000000000000000e+02,-1.326257147668266079e-01,0.000000000000000000e+00
4.280000000000000000e+02,-2.129944823942834797e-01,0.000000000000000000e+00
4.290000000000000000e+02,-1.073255261686127254e-01,0.000000000000000000e+00
4.300000000000000000e+02,-9.242668451685379094e-02,0.000000000000000000e+00
4.310000000000000000e+02,2.889681415834291153e-02,0.000000000000000000e+00
4.320000000000000000e+02,-6.343461753005341652e-02,0.000000000000000000e+00
4.330000000000000000e+02,2.038865792778267738e-01,0.000000000000000000e+00
4.340000000000000000e+02,9.910746146404689205e-02,0.000000000000000000e+00
4.350000000000000000e+02,1.501663247106635735e-01,0.000000000000000000e+00
4.360000000000000000e+02,1.815947444491681495e-01,0.000000000000000000e+00
4.370000000000000000e+02,1.165020426329519410e-01,0.000000000000000000e+00
4.380000000000000000e+02,3.229151409095191161e-01,0.000000000000000000e+00
4.390000000000000000e+02,1.515267014352265351e-01,0.000000000000000000e+00
4.400000000000000000e+02,3.732479695408465470e-01,0.000000000000000000e+00
4.410000000000000000e+02,9.533204431855864247e-02,0.000000000000000000e+00
4.420000000000000000e+02,3.793426574028049836e-01,0.000000000000000000e+00
4.430000000000000000e+02,3.134984198339788586e-01,0.000000000000000000e+00
4.440000000000000000e+02,3.816388196363966756e-01,0.000000000000000000e+00
4.450000000000000000e+02,4.104125864083315034e-01,0.000000000000000000e+00
4.460000000000000000e+02,7.553537958582949852e-01,0.000000000000000000e+00
4.470000000000000000e+02,4.783469931751683779e-01,0.000000000000000000e+00
4.480000000000000000e+02,6.286155427959105868e-01,0.000000000000000000e+00
4.490000000000000000e+02,2.696626125291644027e-01,0.000000000000000000e+00
4.500000000000000000e+02,1.750556773097712848e-01,0.000000000000000000e+00
4.510000000000000000e+02,1.087896903238279034e-01,0.000000000000000000e+00
4.520000000000000000e+02,1.721917338632519279e-01,0.000000000000000000e+00
4.530000000000000000e+02,-6.096230326511674624e-01,0.000000000000000000e+00
4.540000000000000000e+02,3.185220880067637594e+00,0.000000000000000000e+00
4.550000000000000000e+02,5.497517700909493321e+00,0.000000000000000000e+00
4.560000000000000000e+02,-7.214343345637520555e-01,1.000000000000000000e+00
4.570000000000000000e+02,-7.187159591629954658e-01,0.000000000000000000e+00
4.580000000000000000e+02,-8.380045205367697703e-01,0.000000000000000000e+00
4.590000000000000000e+02,-5.813355401395666755e-01,0.000000000000000000e+00
4.600000000000000000e+02,-6.281824182155182346e-01,0.000000000000000000e+00
4.610000000000000000e+02,-5.144417098970618385e-01,0.000000000000000000e+00
4.620000000000000000e+02,-5.238911682704406880e-01,0.000000000000000000e+00
4.630000000000000000e+02,-2.487295154773322414e-01,0.000000000000000000e+00
4.640000000000000000e+02,-2.286319981300806714e-01,0.000000000000000000e+00
4.650000000000000000e+02,1.362614320007537669e-02,0.000000000000000000e+00
4.660000000000000000e+02,4.298176612568325311e-02,0.000000000000000000e+00
4.670000000000000000e+02,3.197787829504838975e-01,0.000000000000000000e+00
4.680000000000000000e+02,5.689858085851784431e-01,0.000000000000000000e+00
4.690000000000000000e+02,8.689865875169514586e-01,0.000000000000000000e+00
4.700000000000000000e+02,7.619735520468617906e-01,0.000000000000000000e+00
4.710000000000000000e+02,9.199763627576158509e-01,0.000000000000000000e+00
4.720000000000000000e+02,2.942972116435012553e-01,0.000000000000000000e+00
4.730000000000000000e+02,-6.165488830299199474e-01,0.000000000000000000e+00
4.740000000000000000e+02,-9.506515043147718558e-01,0.000000000000000000e+00
4.750000000000000000e+02,-1.378924223839704366e+00,0.000000000000000000e+00
4.760000000000000000e+02,-1.269857911646484316e+00,0.000000000000000000e+00
4.770000000000000000e+02,-1.171940639581348975e+00,0.000000000000000000e+00
4.780000000000000000e+02,-1.028665079169672536e+00,0.000000000000000000e+00
4.790000000000000000e+02,-1.031302126182834122e+00,0.000000000000000000e+00
4.800000000000000000e+02,-8.358549165912375623e-01,0.000000000000000000e+00
4.810000000000000000e+02,-8.109121831009086234e-01,0.000000000000000000e+00
4.820000000000000000e+02,-6.281840700925296339e-01,0.000000000000000000e+00
4.830000000000000000e+02,-6.606327028106975252e-01,0.000000000000000000e+00
4.840000000000000000e+02,-4.309701520633774652e-01,0.000000000000000000e+00
4.850000000000000000e+02,-4.559149562248114296e-01,0.000000000000000000e+00
4.860000000000000000e+02,-3.998833558505648367e-01,0.000000000000000000e+00
4.870000000000000000e+02,-1.831811879374336260e-01,0.000000000000000000e+00
4.880000000000000000e+02,-2.985771935207182648e-01,0.000000000000000000e+00
4.890000000000000000e+02,-1.787274631605420827e-01,0.000000000000000000e+00
4.900000000000000000e+02,-1.599846297798979133e-01,0.000000000000000000e+00
4.910000000000000000e+02,-5.112487169971303980e-02,0.000000000000000000e+00
4.920000000000000000e+02,-5.522186695910267368e-02,0.000000000000000000e+00
4.930000000000000000e+02,5.629004180388467310e-02,0.000000000000000000e+00
4.940000000000000000e+02,-7.984949425699505721e-02,0.000000000000000000e+00
4.950000000000000000e+02,2.147177099744888573e-01,0.000000000000000000e+00
4.960000000000000000e+02,-1.109592952494463242e-01,0.000000000000000000e+00
4.970000000000000000e+02,3.447159881453520369e-01,0.000000000000000000e+00
4.980000000000000000e+02,5.858797449934541324e-02,0.000000000000000000e+00
4.990000000000000000e+02,3.063617630260613844e-01,0.000000000000000000e+00
5.000000000000000000e+02,2.039376277510731028e-01,0.000000000000000000e+00
5.010000000000000000e+02,2.829843948982327384e-01,0.000000000000000000e+00
5.020000000000000000e+02,1.582871853242637517e-01,0.000000000000000000e+00
5.030000000000000000e+02,3.517138325524574172e-01,0.000000000000000000e+00
5.040000000000000000e+02,1.962006116275996637e-01,0.000000000000000000e+00
5.050000000000000000e+02,4.746193758091402648e-01,0.000000000000000000e+00
5.060000000000000000e+02,5.108193617531407993e-01,0.000000000000000000e+00
5.070000000000000000e+02,7.480076435205987861e-01,0.000000000000000000e+00
5.080000000000000000e+02,3.347988054427027960e-01,0.000000000000000000e+00
5.090000000000000000e+02,6.905939343588505253e-01,0.000000000000000000e+00
5.100000000000000000e+02,9.330242550567084681e-02,0.000000000000000000e+00
5.110000000000000000e+02,3.049685934664748688e-01,0.000000000000000000e+00
5.120000000000000000e+02,2.555278376057723913e-02,0.000000000000000000e+00
5.130000000000000000e+02,3.095086756387375182e-01,0.000000000000000000e+00
5.140000000000000000e+02,-6.942978345605907986e-01,0.000000000000000000e+00
5.150000000000000000e+02,3.843204008180663322e+00,0.000000000000000000e+00
5.160000000000000000e+02,5.067111715630239210e+00,0.000000000000000000e+00
5.170000000000000000e+02,-1.041078952574402638e+00,1.000000000000000000e+00
5.180000000000000000e+02,-5.053937225419702362e-01,0.000000000000000000e+00
5.190000000000000000e+02,-9.771882359454483469e-01,0.000000000000000000e+00
5.200000000000000000e+02,-5.443462305086114172e-01,0.000000000000000000e+00
5.210000000000000000e+02,-6.870402710400336233e-01,0.000000000000000000e+00
5.220000000000000000e+02,-4.845666303680750131e-01,0.000000000000000000e+00
5.230000000000000000e+02,-5.365444295402777009e-01,0.000000000000000000e+00
5.240000000000000000e+02,-2.077634362174589633e-01,0.000000000000000000e+00
5.250000000000000000e+02,-2.614805107428222475e-01,0.000000000000000000e+00
5.260000000000000000e+02,-1.747869030238221461e-02,0.000000000000000000e+00
5.270000000000000000e+02,1.674391003926106458e-01,0.000000000000000000e+00
5.280000000000000000e+02,3.652350288966945691e-01,0.000000000000000000e+00
5.290000000000000000e+02,5.470049230505062976e-01,0.000000000000000000e+00
5.300000000000000000e+02,9.021112409404551391e-01,0.000000000000000000e+00
5.310000000000000000e+02,8.006544543252579471e-01,0.000000000000000000e+00
5.320000000000000000e+02,8.597343445550471586e-01,0.000000000000000000e+00
5.330000000000000000e+02,1.472648869218694534e-01,0.000000000000000000e+00
5.340000000000000000e+02,-6.711789411373743075e-01,0.000000000000000000e+00
5.350000000000000000e+02,-1.130281148044642636e+00,0.000000000000000000e+00
5.360000000000000000e+02,-1.177715447733906906e+00,0.000000000000000000e+00
5.370000000000000000e+02,-1.462711189616290097e+00,0.000000000000000000e+00
5.380000000000000000e+02,-1.078281790020696240e+00,0.000000000000000000e+00
5.390000000000000000e+02,-1.105781700434135484e+00,0.000000000000000000e+00
5.400000000000000000e+02,-9.409118564377917382e-01,0.000000000000000000e+00
5.410000000000000000e+02,-9.336416081656970789e-01,0.000000000000000000e+00
5.420000000000000000e+02,-7.350038277986001845e-01,0.000000000000000000e+00
5.430000000000000000e+02,-6.595665214113204389e-01,0.000000000000000000e+00
5.440000000000000000e+02,-5.502468180410420295e-01,0.000000000000000000e+00
5.450000000000000000e+02,-4.750372919722871679e-01,0.000000000000000000e+00
5.460000000000000000e+02,-2.779707167798607381e-01,0.000000000000000000e+00
5.470000000000000000e+02,-4.266025992042431492e-01,0.000000000000000000e+00
5.480000000000000000e+02,-1.961482005612885660e-01,0.000000000000000000e+00
5.490000000000000000e+02,-1.919646719062589046e-01,0.000000000000000000e+00
5.500000000000000000e+02,-1.834757900502535510e-01,0.000000000000000000e+00
5.510000000000000000e+02,-6.360673203559738531e-02,0.000000000000000000e+00
5.520000000000000000e+02,-5.904514613128111072e-02,0.000000000000000000e+00
5.530000000000000000e+02,1.525226230088479878e-02,0.000000000000000000e+00
5.540000000000000000e+02,3.155082801620887750e-02,0.000000000000000000e+00
5.550000000000000000e+02,6.440345543383993454e-02,0.000000000000000000e+00
5.560000000000000000e+02,1.604550636282882359e-01,0.000000000000000000e+00
5.570000000000000000e+02,9.519289797789538821e-02,0.000000000000000000e+00
5.580000000000000000e+02,3.216762636126344055e-01,0.000000000000000000e+00
5.590000000000000000e+02,-3.200174122713918268e-02,0.000000000000000000e+00
5.600000000000000000e+02,3.170422174419595951e-01,0.000000000000000000e+00
5.610000000000000000e+02,3.466207668620179816e-01,0.000000000000000000e+00
5.620000000000000000e+02,1.533711979491348132e-01,0.000000000000000000e+00
5.630000000000000000e+02,3.168619227403434158e-01,0.000000000000000000e+00
5.640000000000000000e+02,4.694027099144111315e-01,0.000000000000000000e+00
5.650000000000000000e+02,1.906578327919303539e-01,0.000000000000000000e+00
5.660000000000000000e+02,5.996413407476505197e-01,0.000000000000000000e+00
5.670000000000000000e+02,3.094958870715617261e-01,0.000000000000000000e+00
5.680000000000000000e+02,8.758975039655664263e-01,0.000000000000000000e+00
5.690000000000000000e+02,4.216485358215048551e-01,0.000000000000000000e+00
5.700000000000000000e+02,6.772465785756026646e-01,0.000000000000000000e+00
5.710000000000000000e+02,7.313511032857676619e-02,0.000000000000000000e+00
5.720000000000000000e+02,3.141681786074178584e-01,0.000000000000000000e+00
5.730000000000000000e+02,-8.980857031706838967e-02,0.000000000000000000e+00
5.740000000000000000e+02,1.565050044745278091e-01,0.000000000000000000e+00
5.750000000000000000e+02,-4.502125382938859666e-01,0.000000000000000000e+00
5.760000000000000000e+02,4.652730077324003233e+00,0.000000000000000000e+00
5.770000000000000000e+02,4.328174025853931184e+00,0.000000000000000000e+00
5.780000000000000000e+02,-1.357650804913993259e+00,1.000000000000000000e+00
5.790000000000000000e+02,-5.265556060535973026e-01,0.000000000000000000e+00
5.800000000000000000e+02,-1.043374008356949378e+00,0.000000000000000000e+00
5.810000000000000000e+02,-6.098789063126143217e-01,0.000000000000000000e+00
5.820000000000000000e+02,-6.949099239997376110e-01,0.000000000000000000e+00
5.830000000000000000e+02,-4.559562729115437807e-01,0.000000000000000000e+00
5.840000000000000000e+02,-4.882180787040866776e-01,0.000000000000000000e+00
5.850000000000000000e+02,-3.457859371865338871e-01,0.000000000000000000e+00
5.860000000000000000e+02,-1.855849486891471278e-01,0.000000000000000000e+00
5.870000000000000000e+02,3.080942095843595963e-02,0.000000000000000000e+00
5.880000000000000000e+02,6.606380167283243399e-02,0.000000000000000000e+00
5.890000000000000000e+02,4.813038805618315985e-01,0.000000000000000000e+00
5.900000000000000000e+02,5.593550606190912378e-01,0.000000000000000000e+00
5.910000000000000000e+02,8.178588716682463344e-01,0.000000000000000000e+00
5.920000000000000000e+02,1.014660357636724353e+00,0.000000000000000000e+00
5.930000000000000000e+02,6.636387947374686735e-01,0.000000000000000000e+00
5.940000000000000000e+02,-6.823726914745171547e-03,0.000000000000000000e+00
5.950000000000000000e+02,-6.668694524489869879e-01,0.000000000000000000e+00
5.960000000000000000e+02,-1.146944337162230543e+00,0.000000000000000000e+00
5.970000000000000000e+02,-1.449886369697346078e+00,0.000000000000000000e+00
5.980000000000000000e+02,-1.281430629525866394e+00,0.000000000000000000e+00
5.990000000000000000e+02,-1.195329536463550335e+00,0.000000000000000000e+00
6.000000000000000000e+02,-1.121641576755753711e+00,0.000000000000000000e+00
6.010000000000000000e+02,-8.624411965684222192e-01,0.000000000000000000e+00
6.020000000000000000e+02,-9.011160330868914770e-01,0.000000000000000000e+00
6.030000000000000000e+02,-8.678315997757601874e-01,0.000000000000000000e+00
6.040000000000000000e+02,-5.131149221277538919e-01,0.000000000000000000e+00
6.050000000000000000e+02,-5.220073933765677632e-01,0.000000000000000000e+00
6.060000000000000000e+02,-5.063882438100953953e-01,0.000000000000000000e+00
6.070000000000000000e+02,-3.346850398568080864e-01,0.000000000000000000e+00
6.080000000000000000e+02,-2.109440935815984353e-01,0.000000000000000000e+00
6.090000000000000000e+02,-2.535301965647123179e-01,0.000000000000000000e+00
6.100000000000000000e+02,-1.998583426675633046e-01,0.000000000000000000e+00
6.110000000000000000e+02,-1.263232557605805106e-01,0.000000000000000000e+00
6.120000000000000000e+02,-6.155789687089921469e-02,0.000000000000000000e+00
6.130000000000000000e+02,-3.471106431993519620e-02,0.000000000000000000e+00
6.140000000000000000e+02,-4.082486068041375066e-02,0.000000000000000000e+00
6.150000000000000000e+02,9.424432774818181091e-02,0.000000000000000000e+00
6.160000000000000000e+02,1.630715494791105946e-01,0.000000000000000000e+00
6.170000000000000000e+02,7.306988996493017641e-02,0.000000000000000000e+00
6.180000000000000000e+02,1.296475381468985000e-01,0.000000000000000000e+00
6.190000000000000000e+02,1.950481413338350511e-01,0.000000000000000000e+00
6.200000000000000000e+02,2.617509023835033477e-01,0.000000000000000000e+00
6.210000000000000000e+02,1.404236212579608178e-01,0.000000000000000000e+00
6.220000000000000000e+02,3.388976011046445636e-01,0.000000000000000000e+00
6.230000000000000000e+02,1.692051328935891275e-01,0.000000000000000000e+00
6.240000000000000000e+02,3.816395095779321900e-01,0.000000000000000000e+00
6.250000000000000000e+02,1.748958768536471864e-01,0.000000000000000000e+00
6.260000000000000000e+02,6.110295918550344707e-01,0.000000000000000000e+00
6.270000000000000000e+02,3.366987520895947661e-01,0.000000000000000000e+00
6.280000000000000000e+02,7.384068883091533531e-01,0.000000000000000000e+00
6.290000000000000000e+02,5.280609498534460933e-01,0.000000000000000000e+00
6.300000000000000000e+02,4.878407179055975207e-01,0.000000000000000000e+00
6.310000000000000000e+02,1.740999623295115817e-01,0.000000000000000000e+00
6.320000000000000000e+02,2.433889881778959763e-01,0.000000000000000000e+00
6.330000000000000000e+02,-2.882529705418506241e-02,0.000000000000000000e+00
6.340000000000000000e+02,2.095741634685920896e-01,0.000000000000000000e+00
6.350000000000000000e+02,-5.194465388190695476e-01,0.000000000000000000e+00
6.360000000000000000e+02,4.487290020997131812e+00,0.000000000000000000e+00
6.370000000000000000e+02,4.471164548242827053e+00,0.000000000000000000e+00
6.380000000000000000e+02,-1.278710571390657025e+00,1.000000000000000000e+00
6.390000000000000000e+02,-6.374282025213746650e-01,0.000000000000000000e+00
6.400000000000000000e+02,-8.771020729346443723e-01,0.000000000000000000e+00
6.410000000000000000e+02,-5.064777769297273968e-01,0.000000000000000000e+00
6.420000000000000000e+02,-6.522963024540420207e-01,0.000000000000000000e+00
6.430000000000000000e+02,-2.843918022564388415e-01,0.000000000000000000e+00
6.440000000000000000e+02,-4.284721275266216711e-01,0.000000000000000000e+00
6.450000000000000000e+02,-2.307891089255655614e-01,0.000000000000000000e+00
6.460000000000000000e+02,-2.018848722537891216e-01,0.000000000000000000e+00
6.470000000000000000e+02,1.597374214769325673e-01,0.000000000000000000e+00
6.480000000000000000e+02,6.459954903710497798e-02,0.000000000000000000e+00
6.490000000000000000e+02,5.812299966422560527e-01,0.000000000000000000e+00
6.500000000000000000e+02,5.239436156008514534e-01,0.000000000000000000e+00
6.510000000000000000e+02,9.036136289404608224e-01,0.000000000000000000e+00
6.520000000000000000e+02,8.192178485773267127e-01,0.000000000000000000e+00
6.530000000000000000e+02,8.739873655904857319e-01,0.000000000000000000e+00
6.540000000000000000e+02,-1.239706718442772602e-02,0.000000000000000000e+00
6.550000000000000000e+02,-5.883225488335371844e-01,0.000000000000000000e+00
6.560000000000000000e+02,-1.130688478158185628e+00,0.000000000000000000e+00
6.570000000000000000e+02,-1.363328547057153450e+00,0.000000000000000000e+00
6.580000000000000000e+02,-1.301061010039987087e+00,0.000000000000000000e+00
6.590000000000000000e+02,-1.063376345387044619e+00,0.000000000000000000e+00
6.600000000000000000e+02,-1.272635050142145507e+00,0.000000000000000000e+00
6.610000000000000000e+02,-7.251113625782440453e-01,0.000000000000000000e+00
6.620000000000000000e+02,-9.543826958585965858e-01,0.000000000000000000e+00
6.630000000000000000e+02,-8.220622751656981864e-01,0.000000000000000000e+00
6.640000000000000000e+02,-6.724181140863112471e-01,0.000000000000000000e+00
6.650000000000000000e+02,-4.269112546473146086e-01,0.000000000000000000e+00
6.660000000000000000e+02,-6.920165423677349104e-01,0.000000000000000000e+00
6.670000000000000000e+02,-2.106838114808034235e-01,0.000000000000000000e+00
6.680000000000000000e+02,-4.270521353048578050e-01,0.000000000000000000e+00
6.690000000000000000e+02,-1.698270035352562324e-01,0.000000000000000000e+00
6.700000000000000000e+02,-2.317548731925125893e-01,0.000000000000000000e+00
6.710000000000000000e+02,4.729166678135627872e-04,0.000000000000000000e+00
6.720000000000000000e+02,-2.270116454441801768e-01,0.000000000000000000e+00
6.730000000000000000e+02,-4.537233081358500036e-02,0.000000000000000000e+00
6.740000000000000000e+02,3.957393410990256433e-02,0.000000000000000000e+00
6.750000000000000000e+02,1.043720002041930578e-01,0.000000000000000000e+00
6.760000000000000000e+02,-4.109717403125827395e-02,0.000000000000000000e+00
6.770000000000000000e+02,2.169187159157177081e-01,0.000000000000000000e+00
6.780000000000000000e+02,2.046186075293142947e-01,0.000000000000000000e+00
6.790000000000000000e+02,-2.049285983594492308e-02,0.000000000000000000e+00
6.800000000000000000e+02,3.407572994172859415e-01,0.000000000000000000e+00
6.810000000000000000e+02,1.857775788592238020e-01,0.000000000000000000e+00
6.820000000000000000e+02,1.395098291968066007e-01,0.000000000000000000e+00
6.830000000000000000e+02,4.681082354890072628e-01,0.000000000000000000e+00
6.840000000000000000e+02,1.159027340571116421e-01,0.000000000000000000e+00
6.850000000000000000e+02,2.213536049836591912e-01,0.000000000000000000e+00
6.860000000000000000e+02,4.277425544617159403e-01,0.000000000000000000e+00
6.870000000000000000e+02,3.136799954262133872e-01,0.000000000000000000e+00
6.880000000000000000e+02,5.522145962647547757e-01,0.000000000000000000e+00
6.890000000000000000e+02,7.915223523930415839e-01,0.000000000000000000e+00
6.900000000000000000e+02,4.164585434448619949e-01,0.000000000000000000e+00
6.910000000000000000e+02,4.437968253148575903e-01,0.000000000000000000e+00
6.920000000000000000e+02,1.296006040057659514e-01,0.000000000000000000e+00
6.930000000000000000e+02,6.875755599929354867e-02,0.000000000000000000e+00
6.940000000000000000e+02,1.299586431257233055e-01,0.000000000000000000e+00
6.950000000000000000e+02,-3.627712539007673098e-01,0.000000000000000000e+00
6.960000000000000000e+02,1.163390930729369943e+00,0.000000000000000000e+00
6.970000000000000000e+02,6.116341605403314396e+00,0.000000000000000000e+00
6.980000000000000000e+02,1.182263372794895906e+00,1.000000000000000000e+00
6.990000000000000000e+02,-1.172496884901502723e+00,0.000000000000000000e+00
7.000000000000000000e+02,-6.490517493944801819e-01,0.000000000000000000e+00
7.010000000000000000e+02,-8.174222062279871137e-01,0.000000000000000000e+00
7.020000000000000000e+02,-6.357457144809671723e-01,0.000000000000000000e+00
7.030000000000000000e+02,-6.361301919475468303e-01,0.000000000000000000e+00
7.040000000000000000e+02,-4.220013045775543592e-01,0.000000000000000000e+00
7.050000000000000000e+02,-4.404025861914502293e-01,0.000000000000000000e+00
7.060000000000000000e+02,-1.620471714587002066e-01,0.000000000000000000e+00
7.070000000000000000e+02,-1.691834152438072281e-01,0.000000000000000000e+00
7.080000000000000000e+02,3.448675661257105673e-02,0.000000000000000000e+00
7.090000000000000000e+02,3.040522077408986945e-01,0.000000000000000000e+00
7.100000000000000000e+02,4.885846216840783462e-01,0.000000000000000000e+00
7.110000000000000000e+02,7.720445611314974421e-01,0.000000000000000000e+00
7.120000000000000000e+02,9.136938204970880273e-01,0.000000000000000000e+00
7.130000000000000000e+02,8.802158111019012798e-01,0.000000000000000000e+00
7.140000000000000000e+02,4.959810679066561367e-01,0.000000000000000000e+00
7.150000000000000000e+02,-3.472010635127878997e-01,0.000000000000000000e+00
7.160000000000000000e+02,-1.012791547344005227e+00,0.000000000000000000e+00
7.170000000000000000e+02,-1.222461869291516789e+00,0.000000000000000000e+00
7.180000000000000000e+02,-1.317662075010470168e+00,0.000000000000000000e+00
7.190000000000000000e+02,-1.182525883938427835e+00,0.000000000000000000e+00
7.200000000000000000e+02,-1.012175706367794970e+00,0.000000000000000000e+00
7.210000000000000000e+02,-1.017958222593720485e+00,0.000000000000000000e+00
7.220000000000000000e+02,-9.076825920012935311e-01,0.000000000000000000e+00
7.230000000000000000e+02,-8.398293238805747407e-01,0.000000000000000000e+00
7.240000000000000000e+02,-6.392346268371286166e-01,0.000000000000000000e+00
7.250000000000000000e+02,-5.168078206857065204e-01,0.000000000000000000e+00
7.260000000000000000e+02,-5.547088398417382438e-01,0.000000000000000000e+00
7.270000000000000000e+02,-4.388001081461737063e-01,0.000000000000000000e+00
7.280000000000000000e+02,-2.768954114178900361e-01,0.000000000000000000e+00
7.290000000000000000e+02,-4.399046245271724387e-01,0.000000000000000000e+00
7.300000000000000000e+02,-2.278576616929043619e-01,0.000000000000000000e+00
7.310000000000000000e+02,-1.547308319285279621e-01,0.000000000000000000e+00
7.320000000000000000e+02,-1.114293213061296195e-01,0.000000000000000000e+00
7.330000000000000000e+02,-5.894078765891589550e-02,0.000000000000000000e+00
7.340000000000000000e+02,-8.392450098217225929e-02,0.000000000000000000e+00
7.350000000000000000e+02,-4.018757876306715965e-02,0.000000000000000000e+00
7.360000000000000000e+02,5.438232390430380175e-02,0.000000000000000000e+00
7.370000000000000000e+02,1.559238717391652207e-01,0.000000000000000000e+00
7.380000000000000000e+02,1.641884102555421499e-01,0.000000000000000000e+00
7.390000000000000000e+02,2.081180098385190524e-01,0.000000000000000000e+00
7.400000000000000000e+02,2.061709639548557349e-01,0.000000000000000000e+00
7.410000000000000000e+02,1.976195065233487258e-01,0.000000000000000000e+00
7.420000000000000000e+02,2.351459475533856092e-01,0.000000000000000000e+00
7.430000000000000000e+02,2.422169681085252213e-01,0.000000000000000000e+00
7.440000000000000000e+02,3.295445871467456711e-01,0.000000000000000000e+00
7.450000000000000000e+02,2.431131060060210125e-01,0.000000000000000000e+00
7.460000000000000000e+02,3.620735713970973935e-01,0.000000000000000000e+00
7.470000000000000000e+02,4.137042867698585979e-01,0.000000000000000000e+00
7.480000000000000000e+02,3.491230316345249607e-01,0.000000000000000000e+00
7.490000000000000000e+02,6.969202115075353587e-01,0.000000000000000000e+00
7.500000000000000000e+02,6.114238217181966473e-01,0.000000000000000000e+00
7.510000000000000000e+02,5.000877333892765897e-01,0.000000000000000000e+00
7.520000000000000000e+02,3.387235289894213186e-01,0.000000000000000000e+00
7.530000000000000000e+02,1.120690736325491016e-01,0.000000000000000000e+00
7.540000000000000000e+02,1.238262992143813329e-01,0.000000000000000000e+00
7.550000000000000000e+02,1.571885657617461407e-01,0.000000000000000000e+00
7.560000000000000000e+02,-3.874935061813731818e-01,0.000000000000000000e+00
7.570000000000000000e+02,1.250889270832530542e+00,0.000000000000000000e+00
7.580000000000000000e+02,6.150448828098681098e+00,0.000000000000000000e+00
7.590000000000000000e+02,1.185471037870859057e+00,1.000000000000000000e+00
7.600000000000000000e+02,-1.250085005046311926e+00,0.000000000000000000e+00
7.610000000000000000e+02,-5.991539806998522621e-01,0.000000000000000000e+00
7.620000000000000000e+02,-7.866289900087041209e-01,0.000000000000000000e+00
7.630000000000000000e+02,-7.952982908691682562e-01,0.000000000000000000e+00
7.640000000000000000e+02,-6.177853965528359304e-01,0.000000000000000000e+00
7.650000000000000000e+02,-4.459935705064033140e-01,0.000000000000000000e+00
7.660000000000000000e+02,-5.009991926281753827e-01,0.000000000000000000e+00
7.670000000000000000e+02,-2.599978137019440250e-01,0.000000000000000000e+00
7.680000000000000000e+02,-1.504285230099072779e-01,0.000000000000000000e+00
7.690000000000000000e+02,4.437583698799778265e-02,0.000000000000000000e+00
7.700000000000000000e+02,2.295132582254428011e-01,0.000000000000000000e+00
7.710000000000000000e+02,4.636986721313041127e-01,0.000000000000000000e+00
7.720000000000000000e+02,7.516606549110449453e-01,0.000000000000000000e+00
7.730000000000000000e+02,9.163960522372798234e-01,0.000000000000000000e+00
7.740000000000000000e+02,9.272819916987683486e-01,0.000000000000000000e+00
7.750000000000000000e+02,4.310129393329558689e-01,0.000000000000000000e+00
7.760000000000000000e+02,-1.426334993606638291e-01,0.000000000000000000e+00
7.770000000000000000e+02,-1.080799303250738808e+00,0.000000000000000000e+00
7.780000000000000000e+02,-1.122118534581854288e+00,0.000000000000000000e+00
7.790000000000000000e+02,-1.425067282982687145e+00,0.000000000000000000e+00
7.800000000000000000e+02,-1.259181287813710970e+00,0.000000000000000000e+00
7.810000000000000000e+02,-1.055744609159283254e+00,0.000000000000000000e+00
7.820000000000000000e+02,-9.981942274036985641e-01,0.000000000000000000e+00
7.830000000000000000e+02,-8.065198621691218595e-01,0.000000000000000000e+00
7.840000000000000000e+02,-6.667543817088986691e-01,0.000000000000000000e+00
7.850000000000000000e+02,-6.905962819384453555e-01,0.000000000000000000e+00
7.860000000000000000e+02,-6.087478116423770125e-01,0.000000000000000000e+00
7.870000000000000000e+02,-5.603293113105849432e-01,0.000000000000000000e+00
7.880000000000000000e+02,-3.670191927862903603e-01,0.000000000000000000e+00
7.890000000000000000e+02,-3.403353180471479500e-01,0.000000000000000000e+00
7.900000000000000000e+02,-2.200274629098865897e-01,0.000000000000000000e+00
7.910000000000000000e+02,-3.071440390819735744e-01,0.000000000000000000e+00
7.920000000000000000e+02,-1.028978580753146799e-01,0.000000000000000000e+00
7.930000000000000000e+02,-1.735165786355065132e-01,0.000000000000000000e+00
7.940000000000000000e+02,2.270268001448040238e-02,0.000000000000000000e+00
7.950000000000000000e+02,-1.075122720320150632e-02,0.000000000000000000e+00
7.960000000000000000e+02,4.391960908253225021e-02,0.000000000000000000e+00
7.970000000000000000e+02,4.325599647386552810e-02,0.000000000000000000e+00
7.980000000000000000e+02,2.104958404456191146e-01,0.000000000000000000e+00
7.990000000000000000e+02,5.658465536014198327e-02,0.000000000000000000e+00
8.000000000000000000e+02,2.731059069391948424e-01,0.000000000000000000e+00
8.010000000000000000e+02,1.934459288149326384e-01,0.000000000000000000e+00
8.020000000000000000e+02,2.049544704931798578e-01,0.000000000000000000e+00
8.030000000000000000e+02,2.794794237739787746e-01,0.000000000000000000e+00
8.040000000000000000e+02,2.627423305249915186e-01,0.000000000000000000e+00
8.050000000000000000e+02,1.773623063415398493e-01,0.000000000000000000e+00
8.060000000000000000e+02,3.548214238598439429e-01,0.000000000000000000e+00
8.070000000000000000e+02,1.873497000663712220e-01,0.000000000000000000e+00
8.080000000000000000e+02,4.604571266099206084e-01,0.000000000000000000e+00
8.090000000000000000e+02,3.992377235703559180e-01,0.000000000000000000e+00
8.100000000000000000e+02,6.190268768977156277e-01,0.000000000000000000e+00
8.110000000000000000e+02,3.374226838791122840e-01,0.000000000000000000e+00
8.120000000000000000e+02,5.881072011134795829e-01,0.000000000000000000e+00
8.130000000000000000e+02,-4.377576374248308422e-02,0.000000000000000000e+00
8.140000000000000000e+02,2.312321592386785696e-01,0.000000000000000000e+00
8.150000000000000000e+02,-9.498991416830081247e-02,0.000000000000000000e+00
8.160000000000000000e+02,1.031255774938724529e-01,0.000000000000000000e+00
8.170000000000000000e+02,-3.355392141211884782e-01,0.000000000000000000e+00
8.180000000000000000e+02,5.414502072690131840e+00,0.000000000000000000e+00
8.190000000000000000e+02,3.399778140650098646e+00,1.000000000000000000e+00
8.200000000000000000e+02,-1.679011520501526800e+00,0.000000000000000000e+00
8.210000000000000000e+02,-5.456889664781194860e-01,0.000000000000000000e+00
8.220000000000000000e+02,-9.011671540324216467e-01,0.000000000000000000e+00
8.230000000000000000e+02,-4.537967344234945521e-01,0.000000000000000000e+00
8.240000000000000000e+02,-7.379849775224412989e-01,0.000000000000000000e+00
8.250000000000000000e+02,-3.028056560589698631e-01,0.000000000000000000e+00
8.260000000000000000e+02,-4.494688566071083358e-01,0.000000000000000000e+00
8.270000000000000000e+02,-1.561841398845930373e-01,0.000000000000000000e+00
8.280000000000000000e+02,-1.614191793647872797e-01,0.000000000000000000e+00
8.290000000000000000e+02,1.428552073404792400e-01,0.000000000000000000e+00
8.300000000000000000e+02,1.907757293850438352e-01,0.000000000000000000e+00
8.310000000000000000e+02,5.460599959008405335e-01,0.000000000000000000e+00
8.320000000000000000e+02,5.710445413578042473e-01,0.000000000000000000e+00
8.330000000000000000e+02,1.035928767806388207e+00,0.000000000000000000e+00
8.340000000000000000e+02,9.150598570820075439e-01,0.000000000000000000e+00
8.350000000000000000e+02,8.177908552263967179e-01,0.000000000000000000e+00
8.360000000000000000e+02,-1.882179215451084131e-01,0.000000000000000000e+00
8.370000000000000000e+02,-6.568184824640441732e-01,0.000000000000000000e+00
8.380000000000000000e+02,-1.171068183200183244e+00,0.000000000000000000e+00
8.390000000000000000e+02,-1.398060320409501456e+00,0.000000000000000000e+00
8.400000000000000000e+02,-1.195602434352337040e+00,0.000000000000000000e+00
8.410000000000000000e+02,-1.070516759890878022e+00,0.000000000000000000e+00
8.420000000000000000e+02,-1.162994971438652936e+00,0.000000000000000000e+00
8.430000000000000000e+02,-8.622370094052440592e-01,0.000000000000000000e+00
8.440000000000000000e+02,-8.281378522768676476e-01,0.000000000000000000e+00
8.450000000000000000e+02,-7.035354806327661636e-01,0.000000000000000000e+00
8.460000000000000000e+02,-7.532781821929460664e-01,0.000000000000000000e+00
8.470000000000000000e+02,-4.278898695959328924e-01,0.000000000000000000e+00
8.480000000000000000e+02,-4.293398152394017897e-01,0.000000000000000000e+00
8.490000000000000000e+02,-3.247533957482062195e-01,0.000000000000000000e+00
8.500000000000000000e+02,-2.321850266950227781e-01,0.000000000000000000e+00
8.510000000000000000e+02,-1.059116871324380926e-01,0.000000000000000000e+00
8.520000000000000000e+02,-2.164228170391725714e-01,0.000000000000000000e+00
8.530000000000000000e+02,-1.825286406402371886e-01,0.000000000000000000e+00
8.540000000000000000e+02,-9.163087008956519175e-02,0.000000000000000000e+00
8.550000000000000000e+02,-1.037234028267533699e-02,0.000000000000000000e+00
8.560000000000000000e+02,5.185903203545039891e-02,0.000000000000000000e+00
8.570000000000000000e+02,-1.358072160691701780e-01,0.000000000000000000e+00
8.580000000000000000e+02,1.116088085549619274e-01,0.000000000000000000e+00
8.590000000000000000e+02,1.127002418309712567e-01,0.000000000000000000e+00
8.600000000000000000e+02,1.287643705312317144e-01,0.000000000000000000e+00
8.610000000000000000e+02,1.412703161741290792e-01,0.000000000000000000e+00
8.620000000000000000e+02,1.766958055316168452e-01,0.000000000000000000e+00
8.630000000000000000e+02,1.362204220212892003e-01,0.000000000000000000e+00
8.640000000000000000e+02,2.344793405282400156e-01,0.000000000000000000e+00
8.650000000000000000e+02,1.351188837342312543e-01,0.000000000000000000e+00
8.660000000000000000e+02,4.437046889745567824e-01,0.000000000000000000e+00
8.670000000000000000e+02,1.618202132047574238e-01,0.000000000000000000e+00
8.680000000000000000e+02,4.549170130290947078e-01,0.000000000000000000e+00
8.690000000000000000e+02,4.703997729924652149e-01,0.000000000000000000e+00
8.700000000000000000e+02,6.623878172213940596e-01,0.000000000000000000e+00
8.710000000000000000e+02,4.994357831627628252e-01,0.000000000000000000e+00
8.720000000000000000e+02,6.024688902588358763e-01,0.000000000000000000e+00
8.730000000000000000e+02,-1.510514571149341491e-02,0.000000000000000000e+00
8.740000000000000000e+02,1.722599953182162302e-01,0.000000000000000000e+00
8.750000000000000000e+02,-5.105500905637714443e-02,0.000000000000000000e+00
8.760000000000000000e+02,2.577709782696175345e-01,0.000000000000000000e+00
8.770000000000000000e+02,-2.501261110398718679e-01,0.000000000000000000e+00
8.780000000000000000e+02,5.589914049062371326e+00,0.000000000000000000e+00
8.790000000000000000e+02,3.127197766492960884e+00,1.000000000000000000e+00
8.800000000000000000e+02,-1.488118278209287437e+00,0.000000000000000000e+00
8.810000000000000000e+02,-4.879948255043914385e-01,0.000000000000000000e+00
8.820000000000000000e+02,-9.574124975709781271e-01,0.000000000000000000e+00
8.830000000000000000e+02,-3.949783075612269823e-01,0.000000000000000000e+00
8.840000000000000000e+02,-6.062799289757813126e-01,0.000000000000000000e+00
8.850000000000000000e+02,-4.643044351150491522e-01,0.000000000000000000e+00
8.860000000000000000e+02,-4.074806336052185785e-01,0.000000000000000000e+00
8.870000000000000000e+02,-1.486833541554918869e-01,0.000000000000000000e+00
8.880000000000000000e+02,-3.638984845125529666e-01,0.000000000000000000e+00
8.890000000000000000e+02,1.784374238674956703e-01,0.000000000000000000e+00
8.900000000000000000e+02,1.558664374399755526e-01,0.000000000000000000e+00
8.910000000000000000e+02,4.849443569479852667e-01,0.000000000000000000e+00
8.920000000000000000e+02,7.584858842288613179e-01,0.000000000000000000e+00
8.930000000000000000e+02,9.798259099610058254e-01,0.000000000000000000e+00
8.940000000000000000e+02,6.981683816060116898e-01,0.000000000000000000e+00
8.950000000000000000e+02,8.784392107027774177e-01,0.000000000000000000e+00
8.960000000000000000e+02,-1.755447915507473700e-01,0.000000000000000000e+00
8.970000000000000000e+02,-7.754281205401212240e-01,0.000000000000000000e+00
8.980000000000000000e+02,-1.304458945620196930e+00,0.000000000000000000e+00
8.990000000000000000e+02,-1.239031113957299146e+00,0.000000000000000000e+00
9.000000000000000000e+02,-1.293920244019742372e+00,0.000000000000000000e+00
9.010000000000000000e+02,-1.091531572103929815e+00,0.000000000000000000e+00
9.020000000000000000e+02,-1.029131093605061276e+00,0.000000000000000000e+00
9.030000000000000000e+02,-8.284462566718773235e-01,0.000000000000000000e+00
9.040000000000000000e+02,-7.951582487543431554e-01,0.000000000000000000e+00
9.050000000000000000e+02,-7.418564456487524161e-01,0.000000000000000000e+00
9.060000000000000000e+02,-5.638323473075631531e-01,0.000000000000000000e+00
9.070000000000000000e+02,-4.539584978814317773e-01,0.000000000000000000e+00
9.080000000000000000e+02,-4.258126321725961838e-01,0.000000000000000000e+00
9.090000000000000000e+02,-2.965956008720038728e-01,0.000000000000000000e+00
9.100000000000000000e+02,-3.736476651505244440e-01,0.000000000000000000e+00
9.110000000000000000e+02,-3.010538159707998665e-02,0.000000000000000000e+00
9.120000000000000000e+02,-2.722100850335867350e-01,0.000000000000000000e+00
9.130000000000000000e+02,-5.652140012522548218e-02,0.000000000000000000e+00
9.140000000000000000e+02,3.736372950278139815e-02,0.000000000000000000e+00
9.150000000000000000e+02,-2.882281045863149815e-02,0.000000000000000000e+00
9.160000000000000000e+02,4.932229835177685817e-02,0.000000000000000000e+00
9.170000000000000000e+02,1.372249057851496479e-01,0.000000000000000000e+00
9.180000000000000000e+02,-5.727891107096787920e-02,0.000000000000000000e+00
9.190000000000000000e+02,2.389831692467474789e-01,0.000000000000000000e+00
9.200000000000000000e+02,8.464906491433502045e-02,0.000000000000000000e+00
9.210000000000000000e+02,2.257817521971700880e-01,0.000000000000000000e+00
9.220000000000000000e+02,2.199073797388375051e-01,0.000000000000000000e+00
9.230000000000000000e+02,8.551605919982438464e-02,0.000000000000000000e+00
9.240000000000000000e+02,4.003175805229050033e-01,0.000000000000000000e+00
9.250000000000000000e+02,1.810457423972974267e-01,0.000000000000000000e+00
9.260000000000000000e+02,2.154143101026663454e-01,0.000000000000000000e+00
9.270000000000000000e+02,3.358074471888238821e-01,0.000000000000000000e+00
9.280000000000000000e+02,2.316638539152884035e-01,0.000000000000000000e+00
9.290000000000000000e+02,4.576178154542060450e-01,0.000000000000000000e+00
9.300000000000000000e+02,6.444583295475106999e-01,0.000000000000000000e+00
9.310000000000000000e+02,5.869273840390233365e-01,0.000000000000000000e+00
9.320000000000000000e+02,4.149946104013486625e-01,0.000000000000000000e+00
9.330000000000000000e+02,4.289466542753788691e-01,0.000000000000000000e+00
9.340000000000000000e+02,9.553901745172348192e-02,0.000000000000000000e+00
9.350000000000000000e+02,1.564430009236433827e-01,0.000000000000000000e+00
9.360000000000000000e+02,-6.407033634686726264e-02,0.000000000000000000e+00
9.370000000000000000e+02,-3.452721629230426914e-01,0.000000000000000000e+00
9.380000000000000000e+02,1.454136323604269476e+00,0.000000000000000000e+00
9.390000000000000000e+02,6.105844245754214583e+00,0.000000000000000000e+00
9.400000000000000000e+02,9.376983127553474295e-01,1.000000000000000000e+00
9.410000000000000000e+02,-1.196679286624771521e+00,0.000000000000000000e+00
9.420000000000000000e+02,-6.915357305051735848e-01,0.000000000000000000e+00
9.430000000000000000e+02,-7.680530115246065881e-01,0.000000000000000000e+00
9.440000000000000000e+02,-7.983287200085674717e-01,0.000000000000000000e+00
9.450000000000000000e+02,-5.174668443957857189e-01,0.000000000000000000e+00
9.460000000000000000e+02,-5.194529006895556300e-01,0.000000000000000000e+00
9.470000000000000000e+02,-3.885742975587312409e-01,0.000000000000000000e+00
9.480000000000000000e+02,-2.400572417418302684e-01,0.000000000000000000e+00
9.490000000000000000e+02,-1.802674590180934344e-01,0.000000000000000000e+00
9.500000000000000000e+02,-4.236396599911850663e-02,0.000000000000000000e+00
9.510000000000000000e+02,1.992450992004219379e-01,0.000000000000000000e+00
9.520000000000000000e+02,4.481126317466340159e-01,0.000000000000000000e+00
9.530000000000000000e+02,8.868937208365050839e-01,0.000000000000000000e+00
9.540000000000000000e+02,8.768314699613696250e-01,0.000000000000000000e+00
9.550000000000000000e+02,8.178601938555295492e-01,0.000000000000000000e+00
9.560000000000000000e+02,5.241958844164928966e-01,0.000000000000000000e+00
9.570000000000000000e+02,-4.680702751786669502e-01,0.000000000000000000e+00
9.580000000000000000e+02,-9.902422572448112970e-01,0.000000000000000000e+00
9.590000000000000000e+02,-1.302793636069105920e+00,0.000000000000000000e+00
9.600000000000000000e+02,-1.291850021287958006e+00,0.000000000000000000e+00
9.610000000000000000e+02,-1.324023256637362200e+00,0.000000000000000000e+00
9.620000000000000000e+02,-1.109326361687819729e+00,0.000000000000000000e+00
9.630000000000000000e+02,-1.024176700797737372e+00,0.000000000000000000e+00
9.640000000000000000e+02,-9.052712491703208686e-01,0.000000000000000000e+00
9.650000000000000000e+02,-8.530501563719532498e-01,0.000000000000000000e+00
9.660000000000000000e+02,-6.665626027978948098e-01,0.000000000000000000e+00
9.670000000000000000e+02,-5.687579603077093093e-01,0.000000000000000000e+00
9.680000000000000000e+02,-5.588640586473436755e-01,0.000000000000000000e+00
9.690000000000000000e+02,-3.789762118389751744e-01,0.000000000000000000e+00
9.700000000000000000e+02,-4.181472617968744476e-01,0.000000000000000000e+00
9.710000000000000000e+02,-2.862778281996415375e-01,0.000000000000000000e+00
9.720000000000000000e+02,-1.710008929234282660e-01,0.000000000000000000e+00
9.730000000000000000e+02,-1.908365690411325255e-01,0.000000000000000000e+00
9.740000000000000000e+02,-2.460804886340348455e-02,0.000000000000000000e+00
9.750000000000000000e+02,-2.502129081177022485e-01,0.000000000000000000e+00
9.760000000000000000e+02,3.940619293758972075e-02,0.000000000000000000e+00
9.770000000000000000e+02,-5.958475239242355670e-02,0.000000000000000000e+00
9.780000000000000000e+02,1.329212404105673262e-01,0.000000000000000000e+00
9.790000000000000000e+02,6.562476446473194946e-02,0.000000000000000000e+00
9.800000000000000000e+02,1.697677690781135285e-01,0.000000000000000000e+00
9.810000000000000000e+02,1.017320659108427588e-01,0.000000000000000000e+00
9.820000000000000000e+02,1.586566887340065124e-01,0.000000000000000000e+00
9.830000000000000000e+02,2.937393072325138466e-01,0.000000000000000000e+00
9.840000000000000000e+02,1.374856973198501919e-01,0.000000000000000000e+00
9.850000000000000000e+02,3.455310285951946891e-01,0.000000000000000000e+00
9.860000000000000000e+02,2.467327479192699680e-01,0.000000000000000000e+00
9.870000000000000000e+02,2.906759401706079382e-01,0.000000000000000000e+00
9.880000000000000000e+02,2.239597085314271041e-01,0.000000000000000000e+00
9.890000000000000000e+02,4.186756841046430089e-01,0.000000000000000000e+00
9.900000000000000000e+02,3.715689965880965562e-01,0.000000000000000000e+00
9.910000000000000000e+02,7.782021888168056956e-01,0.000000000000000000e+00
9.920000000000000000e+02,6.021585177648032250e-01,0.000000000000000000e+00
9.930000000000000000e+02,5.128461311444438842e-01,0.000000000000000000e+00
9.940000000000000000e+02,3.045879280882605733e-01,0.000000000000000000e+00
9.950000000000000000e+02,2.341346479063372010e-01,0.000000000000000000e+00
9.960000000000000000e+02,1.056752440633861728e-02,0.000000000000000000e+00
9.970000000000000000e+02,2.536510516414658967e-01,0.000000000000000000e+00
9.980000000000000000e+02,-4.909986986280330257e-01,0.000000000000000000e+00
9.990000000000000000e+02,2.725509649711984839e+00,0.000000000000000000e+00
1.000000000000000000e+03,5.930240026360037220e+00,0.000000000000000000e+00
1.001000000000000000e+03,4.585034400811080491e-03,1.000000000000000000e+00
1.002000000000000000e+03,-8.366639927144264854e-01,0.000000000000000000e+00
1.003000000000000000e+03,-6.760615999243209107e-01,0.000000000000000000e+00
1.004000000000000000e+03,-8.588828775709731467e-01,0.000000000000000000e+00
1.005000000000000000e+03,-5.384808328554067103e-01,0.000000000000000000e+00
1.006000000000000000e+03,-5.122214421598114686e-01,0.000000000000000000e+00
1.007000000000000000e+03,-4.685604927795924968e-01,0.000000000000000000e+00
1.008000000000000000e+03,-2.911990223709988723e-01,0.000000000000000000e+00
1.009000000000000000e+03,-2.668088857021923554e-01,0.000000000000000000e+00
1.010000000000000000e+03,-8.419239534093729549e-02,0.000000000000000000e+00
1.011000000000000000e+03,-8.404681949240419558e-02,0.000000000000000000e+00
1.012000000000000000e+03,3.392293315041962631e-01,0.000000000000000000e+00
1.013000000000000000e+03,4.173917729413207933e-01,0.000000000000000000e+00
1.014000000000000000e+03,7.668774778872610165e-01,0.000000000000000000e+00
1.015000000000000000e+03,9.506276109351398107e-01,0.000000000000000000e+00
1.016000000000000000e+03,7.638929235382430072e-01,0.000000000000000000e+00
1.017000000000000000e+03,2.174299424815680504e-01,0.000000000000000000e+00
1.018000000000000000e+03,-4.556473235835725721e-01,0.000000000000000000e+00
1.019000000000000000e+03,-1.243106446820327449e+00,0.000000000000000000e+00
1.020000000000000000e+03,-1.366062828528110229e+00,0.000000000000000000e+00
1.021000000000000000e+03,-1.370910040981947242e+00,0.000000000000000000e+00
1.022000000000000000e+03,-1.192223336914267851e+00,0.000000000000000000e+00
1.023000000000000000e+03,-1.085368347571798342e+00,0.000000000000000000e+00
1.024000000000000000e+03,-1.002656393833384119e+00,0.000000000000000000e+00
1.025000000000000000e+03,-9.023820205138234352e-01,0.000000000000000000e+00
1.026000000000000000e+03,-8.234201110434056226e-01,0.000000000000000000e+00
1.027000000000000000e+03,-7.112371334672656920e-01,0.000000000000000000e+00
1.028000000000000000e+03,-5.512620253596995923e-01,0.000000000000000000e+00
1.029000000000000000e+03,-5.436695420991264349e-01,0.000000000000000000e+00
1.030000000000000000e+03,-3.183389618958543665e-01,0.000000000000000000e+00
1.031000000000000000e+03,-3.906846422240987105e-01,0.000000000000000000e+00
1.032000000000000000e+03,-2.468240409125904422e-01,0.000000000000000000e+00
1.033000000000000000e+03,-3.069357517308021754e-01,0.000000000000000000e+00
1.034000000000000000e+03,-6.056614889652987138e-02,0.000000000000000000e+00
1.035000000000000000e+03,-3.809642174359140904e-02,0.000000000000000000e+00
1.036000000000000000e+03,8.136537284123140923e-02,0.000000000000000000e+00
1.037000000000000000e+03,-7.185220333712076524e-02,0.000000000000000000e+00
1.038000000000000000e+03,2.587384878469256924e-02,0.000000000000000000e+00
1.039000000000000000e+03,1.233739518776908323e-01,0.000000000000000000e+00
1.040000000000000000e+03,2.294089279857273178e-01,0.000000000000000000e+00
1.041000000000000000e+03,7.788981433738383087e-02,0.000000000000000000e+00
1.042000000000000000e+03,3.784030590049112242e-01,0.000000000000000000e+00
1.043000000000000000e+03,1.618077223512621454e-01,0.000000000000000000e+00
1.044000000000000000e+03,2.604539249370602660e-01,0.000000000000000000e+00
1.045000000000000000e+03,2.808560748893219605e-01,0.000000000000000000e+00
1.046000000000000000e+03,3.362045512581910978e-01,0.000000000000000000e+00
1.047000000000000000e+03,2.829788839923159105e-01,0.000000000000000000e+00
1.048000000000000000e+03,3.663673039655711561e-01,0.000000000000000000e+00
1.049000000000000000e+03,2.143619501663136251e-01,0.000000000000000000e+00
1.050000000000000000e+03,4.536073023771036161e-01,0.000000000000000000e+00
1.051000000000000000e+03,4.760543384409955392e-01,0.000000000000000000e+00
1.052000000000000000e+03,8.025269818904610108e-01,0.000000000000000000e+00
1.053000000000000000e+03,6.254098475348637276e-01,0.000000000000000000e+00
1.054000000000000000e+03,6.168618629972194567e-01,0.000000000000000000e+00
1.055000000000000000e+03,2.249812766909347894e-01,0.000000000000000000e+00
1.056000000000000000e+03,2.034941451492236208e-01,0.000000000000000000e+00
1.057000000000000000e+03,1.185002833733438989e-02,0.000000000000000000e+00
1.058000000000000000e+03,2.144897676708422130e-01,0.000000000000000000e+00
1.059000000000000000e+03,-4.561889627042000628e-01,0.000000000000000000e+00
1.060000000000000000e+03,3.668444051615863621e+00,0.000000000000000000e+00
1.061000000000000000e+03,5.495925525067993256e+00,0.000000000000000000e+00
1.062000000000000000e+03,-1.002551059469182881e+00,1.000000000000000000e+00
1.063000000000000000e+03,-7.094166225030531514e-01,0.000000000000000000e+00
1.064000000000000000e+03,-9.215696912511790462e-01,0.000000000000000000e+00
1.065000000000000000e+03,-5.020236051074140615e-01,0.000000000000000000e+00
1.066000000000000000e+03,-8.100945270475216065e-01,0.000000000000000000e+00
1.067000000000000000e+03,-4.380961207917998812e-01,0.000000000000000000e+00
1.068000000000000000e+03,-5.144922032589549499e-01,0.000000000000000000e+00
1.069000000000000000e+03,-1.840904586080722161e-01,0.000000000000000000e+00
1.070000000000000000e+03,-3.921462741434009747e-01,0.000000000000000000e+00
1.071000000000000000e+03,7.863787383663961572e-02,0.000000000000000000e+00
1.072000000000000000e+03,-4.046567368163459660e-02,0.000000000000000000e+00
1.073000000000000000e+03,3.862326701736302215e-01,0.000000000000000000e+00
1.074000000000000000e+03,5.231116208545779633e-01,0.000000000000000000e+00
1.075000000000000000e+03,8.771385772145363635e-01,0.000000000000000000e+00
1.076000000000000000e+03,8.526847115650710851e-01,0.000000000000000000e+00
1.077000000000000000e+03,7.800872976779935630e-01,0.000000000000000000e+00
1.078000000000000000e+03,2.116704892983103936e-01,0.000000000000000000e+00
1.079000000000000000e+03,-7.832242752435365496e-01,0.000000000000000000e+00
1.080000000000000000e+03,-1.015182498117008114e+00,0.000000000000000000e+00
1.081000000000000000e+03,-1.400951582839447873e+00,0.000000000000000000e+00
1.082000000000000000e+03,-1.504787800142143972e+00,0.000000000000000000e+00
1.083000000000000000e+03,-1.020711968980700712e+00,0.000000000000000000e+00
1.084000000000000000e+03,-1.329973789724098410e+00,0.000000000000000000e+00
1.085000000000000000e+03,-8.847764150901811231e-01,0.000000000000000000e+00
1.086000000000000000e+03,-1.041541120514772212e+00,0.000000000000000000e+00
1.087000000000000000e+03,-7.122142880321783442e-01,0.000000000000000000e+00
1.088000000000000000e+03,-8.102305852449873669e-01,0.000000000000000000e+00
1.089000000000000000e+03,-5.380005452822893552e-01,0.000000000000000000e+00
1.090000000000000000e+03,-4.582271916855979454e-01,0.000000000000000000e+00
1.091000000000000000e+03,-3.186964617281738410e-01,0.000000000000000000e+00
1.092000000000000000e+03,-3.265326419163268046e-01,0.000000000000000000e+00
1.093000000000000000e+03,-2.337699914748543051e-01,0.000000000000000000e+00
1.094000000000000000e+03,-3.243781222190796343e-01,0.000000000000000000e+00
1.095000000000000000e+03,-3.724274697504331710e-02,0.000000000000000000e+00
1.096000000000000000e+03,-1.042020381860764150e-01,0.000000000000000000e+00
1.097000000000000000e+03,-1.026452742406517293e-01,0.000000000000000000e+00
1.098000000000000000e+03,5.142046902219756660e-02,0.000000000000000000e+00
1.099000000000000000e+03,6.415909543222718392e-02,0.000000000000000000e+00
1.100000000000000000e+03,-1.132333895465332911e-02,0.000000000000000000e+00
1.101000000000000000e+03,6.796302762369428596e-02,0.000000000000000000e+00
1.102000000000000000e+03,1.198962275120859095e-01,0.000000000000000000e+00
1.103000000000000000e+03,2.454642939561356429e-01,0.000000000000000000e+00
1.104000000000000000e+03,1.959322555748404804e-01,0.000000000000000000e+00
1.105000000000000000e+03,2.777674825583510976e-01,0.000000000000000000e+00
1.106000000000000000e+03,1.386763452912165295e-01,0.000000000000000000e+00
1.107000000000000000e+03,4.638517541373691766e-01,0.000000000000000000e+00
1.108000000000000000e+03,1.864990131764587833e-01,0.000000000000000000e+00
1.109000000000000000e+03,4.591057739748937716e-01,0.000000000000000000e+00
1.110000000000000000e+03,3.768185156965989102e-01,0.000000000000000000e+00
1.111000000000000000e+03,7.639633522944780930e-01,0.000000000000000000e+00
1.112000000000000000e+03,5.154891607270161158e-01,0.000000000000000000e+00
1.113000000000000000e+03,5.559833477915882005e-01,0.000000000000000000e+00
1.114000000000000000e+03,3.253273799582041548e-01,0.000000000000000000e+00
1.115000000000000000e+03,2.585255682875956529e-01,0.000000000000000000e+00
1.116000000000000000e+03,4.348932447760923276e-02,0.000000000000000000e+00
1.117000000000000000e+03,2.345092383543723180e-01,0.000000000000000000e+00
1.118000000000000000e+03,-5.175247646897566112e-01,0.000000000000000000e+00
1.119000000000000000e+03,3.190679777262465322e+00,0.000000000000000000e+00
1.120000000000000000e+03,5.470771783398461707e+00,0.000000000000000000e+00
1.121000000000000000e+03,-7.318670316787387886e-01,1.000000000000000000e+00
1.122000000000000000e+03,-9.065724088099627043e-01,0.000000000000000000e+00
1.123000000000000000e+03,-7.625297132562555147e-01,0.000000000000000000e+00
1.124000000000000000e+03,-5.732285637125547062e-01,0.000000000000000000e+00
1.125000000000000000e+03,-5.608272006855522518e-01,0.000000000000000000e+00
1.126000000000000000e+03,-4.810472246341455094e-01,0.000000000000000000e+00
1.127000000000000000e+03,-2.947046543494754589e-01,0.000000000000000000e+00
1.128000000000000000e+03,-1.941150551471143848e-01,0.000000000000000000e+00
1.129000000000000000e+03,-1.454739579795354398e-01,0.000000000000000000e+00
1.130000000000000000e+03,6.408316334468694420e-02,0.000000000000000000e+00
1.131000000000000000e+03,2.161191994132804009e-02,0.000000000000000000e+00
1.132000000000000000e+03,4.185205140443082339e-01,0.000000000000000000e+00
1.133000000000000000e+03,5.408004501368762762e-01,0.000000000000000000e+00
1.134000000000000000e+03,9.825691080434660885e-01,0.000000000000000000e+00
1.135000000000000000e+03,8.621468738671905774e-01,0.000000000000000000e+00
1.136000000000000000e+03,9.221790325273153677e-01,0.000000000000000000e+00
1.137000000000000000e+03,1.527180917211764244e-01,0.000000000000000000e+00
1.138000000000000000e+03,-6.015614372163727852e-01,0.000000000000000000e+00
1.139000000000000000e+03,-1.078247858404071780e+00,0.000000000000000000e+00
1.140000000000000000e+03,-1.277888561666987721e+00,0.000000000000000000e+00
1.141000000000000000e+03,-1.246270778005674762e+00,0.000000000000000000e+00
1.142000000000000000e+03,-1.202219707172065055e+00,0.000000000000000000e+00
1.143000000000000000e+03,-1.217902938196016915e+00,0.000000000000000000e+00
1.144000000000000000e+03,-9.685784857688368721e-01,0.000000000000000000e+00
1.145000000000000000e+03,-8.672998967863613240e-01,0.000000000000000000e+00
1.146000000000000000e+03,-7.910036658520179786e-01,0.000000000000000000e+00
1.147000000000000000e+03,-6.022569005285853816e-01,0.000000000000000000e+00
1.148000000000000000e+03,-6.243813377888409732e-01,0.000000000000000000e+00
1.149000000000000000e+03,-4.730330112833150968e-01,0.000000000000000000e+00
1.150000000000000000e+03,-3.045560028094741467e-01,0.000000000000000000e+00
1.151000000000000000e+03,-3.330640063365755132e-01,0.000000000000000000e+00
1.152000000000000000e+03,-1.738058435809826108e-01,0.000000000000000000e+00
1.153000000000000000e+03,-2.616472982370916522e-01,0.000000000000000000e+00
1.154000000000000000e+03,-1.313017552908083418e-01,0.000000000000000000e+00
1.155000000000000000e+03,-1.408937964434537615e-01,0.000000000000000000e+00
1.156000000000000000e+03,-1.396709518024475682e-01,0.000000000000000000e+00
1.157000000000000000e+03,8.916172249388577831e-02,0.000000000000000000e+00
1.158000000000000000e+03,-3.260198352125414506e-02,0.000000000000000000e+00
1.159000000000000000e+03,4.611746889475536182e-02,0.000000000000000000e+00
1.160000000000000000e+03,1.318495726640583066e-01,0.000000000000000000e+00
1.161000000000000000e+03,8.780090280687576076e-02,0.000000000000000000e+00
1.162000000000000000e+03,1.624283558751693779e-01,0.000000000000000000e+00
1.163000000000000000e+03,1.929684014464060071e-01,0.000000000000000000e+00
1.164000000000000000e+03,1.105961068919457807e-01,0.000000000000000000e+00
1.165000000000000000e+03,2.973674426362508116e-01,0.000000000000000000e+00
1.166000000000000000e+03,2.039645263287654386e-01,0.000000000000000000e+00
1.167000000000000000e+03,3.380031431139254861e-01,0.000000000000000000e+00
1.168000000000000000e+03,1.839451363201571044e-01,0.000000000000000000e+00
1.169000000000000000e+03,4.486654144657525323e-01,0.000000000000000000e+00
1.170000000000000000e+03,3.033301778082428957e-01,0.000000000000000000e+00
1.171000000000000000e+03,7.723140944294201171e-01,0.000000000000000000e+00
1.172000000000000000e+03,4.365921022798772699e-01,0.000000000000000000e+00
1.173000000000000000e+03,5.349188916630550628e-01,0.000000000000000000e+00
1.174000000000000000e+03,2.289261669167358682e-01,0.000000000000000000e+00
1.175000000000000000e+03,2.304569004833618984e-01,0.000000000000000000e+00
1.176000000000000000e+03,-2.212561431768863759e-02,0.000000000000000000e+00
1.177000000000000000e+03,3.267027673359704232e-01,0.000000000000000000e+00
1.178000000000000000e+03,-6.313612654072030539e-01,0.000000000000000000e+00
1.179000000000000000e+03,3.335720951188905659e+00,0.000000000000000000e+00
1.180000000000000000e+03,5.547463486831756718e+00,0.000000000000000000e+00
1.181000000000000000e+03,-5.984299565889625860e-01,1.000000000000000000e+00
1.182000000000000000e+03,-6.267159462116974611e-01,0.000000000000000000e+00
1.183000000000000000e+03,-8.435426584661073202e-01,0.000000000000000000e+00
1.184000000000000000e+03,-5.889782928322467859e-01,0.000000000000000000e+00
1.185000000000000000e+03,-7.233246405220680186e-01,0.000000000000000000e+00
1.186000000000000000e+03,-4.206006942458300202e-01,0.000000000000000000e+00
1.187000000000000000e+03,-4.281287347888350081e-01,0.000000000000000000e+00
1.188000000000000000e+03,-2.107808022537025761e-01,0.000000000000000000e+00
1.189000000000000000e+03,-2.531339063845027826e-01,0.000000000000000000e+00
1.190000000000000000e+03,-7.462231895837828644e-02,0.000000000000000000e+00
1.191000000000000000e+03,1.700212534150659927e-01,0.000000000000000000e+00
1.192000000000000000e+03,2.955993363884004688e-01,0.000000000000000000e+00
1.193000000000000000e+03,6.191736384457214859e-01,0.000000000000000000e+00
1.194000000000000000e+03,9.040361919951244163e-01,0.000000000000000000e+00
1.195000000000000000e+03,9.322711851618334933e-01,0.000000000000000000e+00
1.196000000000000000e+03,8.711053499388812238e-01,0.000000000000000000e+00
1.197000000000000000e+03,1.747481636193082277e-01,0.000000000000000000e+00
1.198000000000000000e+03,-4.936170683477839050e-01,0.000000000000000000e+00
1.199000000000000000e+03,-1.140562562310660333e+00,0.000000000000000000e+00
1.200000000000000000e+03,-1.289633786804426530e+00,0.000000000000000000e+00
1.201000000000000000e+03,-1.340226227003691317e+00,0.000000000000000000e+00
1.202000000000000000e+03,-1.126445155462262537e+00,0.000000000000000000e+00
1.203000000000000000e+03,-1.137027837621895410e+00,0.000000000000000000e+00
1.204000000000000000e+03,-9.432001956822891886e-01,0.000000000000000000e+00
1.205000000000000000e+03,-8.676790365286135565e-01,0.000000000000000000e+00
1.206000000000000000e+03,-7.926277415184630470e-01,0.000000000000000000e+00
1.207000000000000000e+03,-6.668954924853089938e-01,0.000000000000000000e+00
1.208000000000000000e+03,-5.401535515995107284e-01,0.000000000000000000e+00
1.209000000000000000e+03,-5.864748564031190270e-01,0.000000000000000000e+00
1.210000000000000000e+03,-3.290541781916547226e-01,0.000000000000000000e+00
1.211000000000000000e+03,-3.439817558969250344e-01,0.000000000000000000e+00
1.212000000000000000e+03,-3.234796356818730456e-01,0.000000000000000000e+00
1.213000000000000000e+03,-1.598130759281430335e-01,0.000000000000000000e+00
1.214000000000000000e+03,-1.875947742499788629e-01,0.000000000000000000e+00
1.215000000000000000e+03,-1.139785782748294063e-01,0.000000000000000000e+00
1.216000000000000000e+03,-1.148340656676380550e-01,0.000000000000000000e+00
1.217000000000000000e+03,2.438641714364735147e-02,0.000000000000000000e+00
1.218000000000000000e+03,9.991926958107530399e-02,0.000000000000000000e+00
1.219000000000000000e+03,-1.033013731516164643e-02,0.000000000000000000e+00
1.220000000000000000e+03,1.241154914248377705e-01,0.000000000000000000e+00
1.221000000000000000e+03,1.803867360547092569e-01,0.000000000000000000e+00
1.222000000000000000e+03,1.451404049755097014e-01,0.000000000000000000e+00
1.223000000000000000e+03,1.024729606141057681e-01,0.000000000000000000e+00
1.224000000000000000e+03,3.081080033400337426e-01,0.000000000000000000e+00
1.225000000000000000e+03,2.465875945181587314e-01,0.000000000000000000e+00
1.226000000000000000e+03,1.765728377437024155e-01,0.000000000000000000e+00
1.227000000000000000e+03,3.963406340570433950e-01,0.000000000000000000e+00
1.228000000000000000e+03,2.700536292851908882e-01,0.000000000000000000e+00
1.229000000000000000e+03,3.154144811069720111e-01,0.000000000000000000e+00
1.230000000000000000e+03,4.518659235562772492e-01,0.000000000000000000e+00
1.231000000000000000e+03,5.642560568860435222e-01,0.000000000000000000e+00
1.232000000000000000e+03,6.044434755712828622e-01,0.000000000000000000e+00
1.233000000000000000e+03,4.846509453190123717e-01,0.000000000000000000e+00
1.234000000000000000e+03,3.736429720556430079e-01,0.000000000000000000e+00
1.235000000000000000e+03,1.359814223147914891e-01,0.000000000000000000e+00
1.236000000000000000e+03,4.162137020478061389e-02,0.000000000000000000e+00
1.237000000000000000e+03,2.248979696566598407e-01,0.000000000000000000e+00
1.238000000000000000e+03,-5.706547270919241077e-01,0.000000000000000000e+00
1.239000000000000000e+03,1.931017688032121482e+00,0.000000000000000000e+00
1.240000000000000000e+03,6.365300864929856139e+00,0.000000000000000000e+00
1.241000000000000000e+03,4.065110445194419220e-01,1.000000000000000000e+00
1.242000000000000000e+03,-1.009421136835000787e+00,0.000000000000000000e+00
1.243000000000000000e+03,-7.844918777256657538e-01,0.000000000000000000e+00
1.244000000000000000e+03,-8.106771792465088389e-01,0.000000000000000000e+00
1.245000000000000000e+03,-7.110957931862504910e-01,0.000000000000000000e+00
1.246000000000000000e+03,-6.054442140662272820e-01,0.000000000000000000e+00
1.247000000000000000e+03,-5.863445284361170629e-01,0.000000000000000000e+00
1.248000000000000000e+03,-2.313221181477178590e-01,0.000000000000000000e+00
1.249000000000000000e+03,-3.015209915662385720e-01,0.000000000000000000e+00
1.250000000000000000e+03,-2.115509966690320154e-01,0.000000000000000000e+00
1.251000000000000000e+03,8.324309702986623649e-02,0.000000000000000000e+00
1.252000000000000000e+03,2.398925425080008500e-01,0.000000000000000000e+00
1.253000000000000000e+03,5.008177828381471519e-01,0.000000000000000000e+00
1.254000000000000000e+03,6.958235059882237339e-01,0.000000000000000000e+00
1.255000000000000000e+03,9.551857640285080775e-01,0.000000000000000000e+00
1.256000000000000000e+03,8.506922418108755490e-01,0.000000000000000000e+00
1.257000000000000000e+03,3.519005176773342680e-01,0.000000000000000000e+00
1.258000000000000000e+03,-5.121217848064315570e-01,0.000000000000000000e+00
1.259000000000000000e+03,-1.033085794082816422e+00,0.000000000000000000e+00
1.260000000000000000e+03,-1.324590810358568627e+00,0.000000000000000000e+00
1.261000000000000000e+03,-1.280776873110149872e+00,0.000000000000000000e+00
1.262000000000000000e+03,-1.339386947313272236e+00,0.000000000000000000e+00
1.263000000000000000e+03,-1.098765238634306307e+00,0.000000000000000000e+00
1.264000000000000000e+03,-1.134082843425518128e+00,0.000000000000000000e+00
1.265000000000000000e+03,-8.424915226892502051e-01,0.000000000000000000e+00
1.266000000000000000e+03,-8.225006968818671105e-01,0.000000000000000000e+00
1.267000000000000000e+03,-6.475322812292090280e-01,0.000000000000000000e+00
1.268000000000000000e+03,-7.403028793310827416e-01,0.000000000000000000e+00
1.269000000000000000e+03,-4.983661370010125102e-01,0.000000000000000000e+00
1.270000000000000000e+03,-4.996827368478818920e-01,0.000000000000000000e+00
1.271000000000000000e+03,-3.503120970303225112e-01,0.000000000000000000e+00
1.272000000000000000e+03,-3.032718068381883292e-01,0.000000000000000000e+00
1.273000000000000000e+03,-2.599891535388059727e-01,0.000000000000000000e+00
1.274000000000000000e+03,-1.289431425221144456e-01,0.000000000000000000e+00
1.275000000000000000e+03,-4.470540493843159352e-02,0.000000000000000000e+00
1.276000000000000000e+03,-7.760245915252329818e-02,0.000000000000000000e+00
1.277000000000000000e+03,2.764827847744190034e-02,0.000000000000000000e+00
1.278000000000000000e+03,5.992799334462372424e-02,0.000000000000000000e+00
1.279000000000000000e+03,7.913203941599994407e-02,0.000000000000000000e+00
1.280000000000000000e+03,1.537644005820210102e-01,0.000000000000000000e+00
1.281000000000000000e+03,2.014419491672709561e-01,0.000000000000000000e+00
1.282000000000000000e+03,1.605310300550452651e-01,0.000000000000000000e+00
1.283000000000000000e+03,2.906171588743549639e-01,0.000000000000000000e+00
1.284000000000000000e+03,2.800186940479565401e-01,0.000000000000000000e+00
1.285000000000000000e+03,2.334162501618132768e-01,0.000000000000000000e+00
1.286000000000000000e+03,3.592524127682301671e-01,0.000000000000000000e+00
1.287000000000000000e+03,3.077293061099269922e-01,0.000000000000000000e+00
1.288000000000000000e+03,3.758485591667337089e-01,0.000000000000000000e+00
1.289000000000000000e+03,4.689877303076772641e-01,0.000000000000000000e+00
1.290000000000000000e+03,6.086643102071417344e-01,0.000000000000000000e+00
1.291000000000000000e+03,7.822725839497989275e-01,0.000000000000000000e+00
1.292000000000000000e+03,5.174223500466070824e-01,0.000000000000000000e+00
1.293000000000000000e+03,4.584169440171846355e-01,0.000000000000000000e+00
1.294000000000000000e+03,2.169048920201701314e-01,0.000000000000000000e+00
1.295000000000000000e+03,2.500489292324015733e-01,0.000000000000000000e+00
1.296000000000000000e+03,1.833442332586191215e-01,0.000000000000000000e+00
1.297000000000000000e+03,-2.046441515603027173e-01,0.000000000000000000e+00
1.298000000000000000e+03,9.122207583093612238e-01,0.000000000000000000e+00
1.299000000000000000e+03,6.285977025296293874e+00,0.000000000000000000e+00
1.300000000000000000e+03,1.190809556884421916e+00,1.000000000000000000e+00
1.301000000000000000e+03,-1.314412718783687817e+00,0.000000000000000000e+00
1.302000000000000000e+03,-5.693797470858372733e-01,0.000000000000000000e+00
1.303000000000000000e+03,-8.056237134308852355e-01,0.000000000000000000e+00
1.304000000000000000e+03,-4.653404845246894017e-01,0.000000000000000000e+00
1.305000000000000000e+03,-4.779033362258975903e-01,0.000000000000000000e+00
1.306000000000000000e+03,-3.905535062196315299e-01,0.000000000000000000e+00
1.307000000000000000e+03,-3.523546739370908010e-01,0.000000000000000000e+00
1.308000000000000000e+03,-1.185610889278177343e-01,0.000000000000000000e+00
1.309000000000000000e+03,1.211500003420325038e-02,0.000000000000000000e+00
1.310000000000000000e+03,1.085508260676546766e-01,0.000000000000000000e+00
1.311000000000000000e+03,3.107712652643067064e-01,0.000000000000000000e+00
1.312000000000000000e+03,5.422315175579297541e-01,0.000000000000000000e+00
1.313000000000000000e+03,7.594369791880789533e-01,0.000000000000000000e+00
1.314000000000000000e+03,8.963482806440707940e-01,0.000000000000000000e+00
1.315000000000000000e+03,1.033740591047034751e+00,0.000000000000000000e+00
1.316000000000000000e+03,5.230890788704702921e-01,0.000000000000000000e+00
1.317000000000000000e+03,-3.394436946406231836e-01,0.000000000000000000e+00
1.318000000000000000e+03,-8.715644222139629083e-01,0.000000000000000000e+00
1.319000000000000000e+03,-1.292201559883644713e+00,0.000000000000000000e+00
1.320000000000000000e+03,-1.227167151916651155e+00,0.000000000000000000e+00
1.321000000000000000e+03,-1.336775516573223355e+00,0.000000000000000000e+00
1.322000000000000000e+03,-1.076758122816612540e+00,0.000000000000000000e+00
1.323000000000000000e+03,-1.141578499346871389e+00,0.000000000000000000e+00
1.324000000000000000e+03,-9.069621642150574869e-01,0.000000000000000000e+00
1.325000000000000000e+03,-7.939217032719715350e-01,0.000000000000000000e+00
1.326000000000000000e+03,-6.688221501735398533e-01,0.000000000000000000e+00
1.327000000000000000e+03,-5.329297556346505038e-01,0.000000000000000000e+00
1.328000000000000000e+03,-5.015505798657572401e-01,0.000000000000000000e+00
1.329000000000000000e+03,-3.755412961828981655e-01,0.000000000000000000e+00
1.330000000000000000e+03,-4.036753687505765797e-01,0.000000000000000000e+00
1.331000000000000000e+03,-2.499054589906470059e-01,0.000000000000000000e+00
1.332000000000000000e+03,-1.217363217919486540e-01,0.000000000000000000e+00
1.333000000000000000e+03,-1.756977089919823098e-01,0.000000000000000000e+00
1.334000000000000000e+03,-1.438201079449272224e-01,0.000000000000000000e+00
1.335000000000000000e+03,1.932611983104523187e-02,0.000000000000000000e+00
1.336000000000000000e+03,-2.998901270090913868e-02,0.000000000000000000e+00
1.337000000000000000e+03,2.862446805536533398e-02,0.000000000000000000e+00
1.338000000000000000e+03,2.437114791734524416e-02,0.000000000000000000e+00
1.339000000000000000e+03,9.688171659614912279e-02,0.000000000000000000e+00
1.340000000000000000e+03,1.104369195121908814e-01,0.000000000000000000e+00
1.341000000000000000e+03,9.573322247530760554e-02,0.000000000000000000e+00
1.342000000000000000e+03,1.662956861592670976e-01,0.000000000000000000e+00
1.343000000000000000e+03,1.619359085490141847e-01,0.000000000000000000e+00
1.344000000000000000e+03,1.702792316584184895e-01,0.000000000000000000e+00
1.345000000000000000e+03,1.436208131875341409e-01,0.000000000000000000e+00
1.346000000000000000e+03,2.633821482673120995e-01,0.000000000000000000e+00
1.347000000000000000e+03,3.550106744235725365e-01,0.000000000000000000e+00
1.348000000000000000e+03,2.942602005168748480e-01,0.000000000000000000e+00
1.349000000000000000e+03,5.701282972824582851e-01,0.000000000000000000e+00
1.350000000000000000e+03,6.379703189847129030e-01,0.000000000000000000e+00
1.351000000000000000e+03,3.716127264617868353e-01,0.000000000000000000e+00
1.352000000000000000e+03,3.504159612506246857e-01,0.000000000000000000e+00
1.353000000000000000e+03,1.853625576648404161e-01,0.000000000000000000e+00
1.354000000000000000e+03,6.243295358198937967e-02,0.000000000000000000e+00
1.355000000000000000e+03,1.097525860994755798e-01,0.000000000000000000e+00
1.356000000000000000e+03,-2.427143915715768152e-01,0.000000000000000000e+00
1.357000000000000000e+03,9.966966770459089187e-01,0.000000000000000000e+00
1.358000000000000000e+03,6.129515657716865462e+00,0.000000000000000000e+00
1.359000000000000000e+03,1.420545167438261425e+00,1.000000000000000000e+00
1.360000000000000000e+03,-1.363179424307868537e+00,0.000000000000000000e+00
1.361000000000000000e+03,-5.679552660946276532e-01,0.000000000000000000e+00
1.362000000000000000e+03,-8.066059644095394665e-01,0.000000000000000000e+00
1.363000000000000000e+03,-5.752880720137641957e-01,0.000000000000000000e+00
1.364000000000000000e+03,-5.758864791030623431e-01,0.000000000000000000e+00
1.365000000000000000e+03,-4.134709381830989905e-01,0.000000000000000000e+00
1.366000000000000000e+03,-3.557472057406865784e-01,0.000000000000000000e+00
1.367000000000000000e+03,-1.779396513401696189e-01,0.000000000000000000e+00
1.368000000000000000e+03,-1.780317571286179068e-01,0.000000000000000000e+00
1.369000000000000000e+03,1.572602511157091265e-01,0.000000000000000000e+00
1.370000000000000000e+03,1.374864441092263079e-01,0.000000000000000000e+00
1.371000000000000000e+03,5.909840892060169715e-01,0.000000000000000000e+00
1.372000000000000000e+03,6.677863628735137835e-01,0.000000000000000000e+00
1.373000000000000000e+03,1.045036387521175891e+00,0.000000000000000000e+00
1.374000000000000000e+03,8.124417734855228224e-01,0.000000000000000000e+00
1.375000000000000000e+03,5.605753848544255957e-01,0.000000000000000000e+00
1.376000000000000000e+03,-2.513494567025094106e-01,0.000000000000000000e+00
1.377000000000000000e+03,-8.717479868095623363e-01,0.000000000000000000e+00
1.378000000000000000e+03,-1.271660488178400383e+00,0.000000000000000000e+00
1.379000000000000000e+03,-1.244655286848653786e+00,0.000000000000000000e+00
1.380000000000000000e+03,-1.228332630916735280e+00,0.000000000000000000e+00
1.381000000000000000e+03,-1.111779748353939778e+00,0.000000000000000000e+00
1.382000000000000000e+03,-1.024663064212719021e+00,0.000000000000000000e+00
1.383000000000000000e+03,-8.147622091868955696e-01,0.000000000000000000e+00
1.384000000000000000e+03,-8.796139760358758775e-01,0.000000000000000000e+00
1.385000000000000000e+03,-7.023239443610640453e-01,0.000000000000000000e+00
1.386000000000000000e+03,-6.026612127667715368e-01,0.000000000000000000e+00
1.387000000000000000e+03,-4.012535921375820491e-01,0.000000000000000000e+00
1.388000000000000000e+03,-4.253582147054487672e-01,0.000000000000000000e+00
1.389000000000000000e+03,-3.732181450938974465e-01,0.000000000000000000e+00
1.390000000000000000e+03,-3.523867043882116801e-01,0.000000000000000000e+00
1.391000000000000000e+03,-2.125817059460097525e-01,0.000000000000000000e+00
1.392000000000000000e+03,-1.536024616381038155e-01,0.000000000000000000e+00
1.393000000000000000e+03,-1.742288197101601321e-01,0.000000000000000000e+00
1.394000000000000000e+03,-2.066104655703585383e-02,0.000000000000000000e+00
1.395000000000000000e+03,-5.234557513420399349e-02,0.000000000000000000e+00
1.396000000000000000e+03,6.712314364723924454e-02,0.000000000000000000e+00
1.397000000000000000e+03,5.632015017298698523e-02,0.000000000000000000e+00
1.398000000000000000e+03,3.752848678591476361e-02,0.000000000000000000e+00
1.399000000000000000e+03,2.093986357437390144e-01,0.000000000000000000e+00
1.400000000000000000e+03,-4.310759249906166886e-03,0.000000000000000000e+00
1.401000000000000000e+03,2.605195824319434528e-01,0.000000000000000000e+00
1.402000000000000000e+03,2.803251776293781417e-01,0.000000000000000000e+00
1.403000000000000000e+03,2.357171997678833286e-01,0.000000000000000000e+00
1.404000000000000000e+03,2.333735801856162417e-01,0.000000000000000000e+00
1.405000000000000000e+03,3.257183879584195640e-01,0.000000000000000000e+00
1.406000000000000000e+03,3.578741171868813908e-01,0.000000000000000000e+00
1.407000000000000000e+03,3.025383858974160511e-01,0.000000000000000000e+00
1.408000000000000000e+03,3.337026261365077517e-01,0.000000000000000000e+00
1.409000000000000000e+03,7.719400530756630463e-01,0.000000000000000000e+00
1.410000000000000000e+03,5.518565162763794385e-01,0.000000000000000000e+00
1.411000000000000000e+03,3.760457342926045166e-01,0.000000000000000000e+00
1.412000000000000000e+03,5.085641521249467667e-01,0.000000000000000000e+00
1.413000000000000000e+03,2.909619805461970132e-02,0.000000000000000000e+00
1.414000000000000000e+03,3.027034388353147532e-02,0.000000000000000000e+00
1.415000000000000000e+03,2.966816023354696408e-01,0.000000000000000000e+00
1.416000000000000000e+03,-5.821995490484065394e-01,0.000000000000000000e+00
1.417000000000000000e+03,2.395812785208150331e+00,0.000000000000000000e+00
1.418000000000000000e+03,5.925898987507238758e+00,0.000000000000000000e+00
1.419000000000000000e+03,7.831477793405290655e-02,1.000000000000000000e+00
1.420000000000000000e+03,-8.984170133140630954e-01,0.000000000000000000e+00
1.421000000000000000e+03,-7.354499161541736552e-01,0.000000000000000000e+00
1.422000000000000000e+03,-8.114574096209291598e-01,0.000000000000000000e+00
1.423000000000000000e+03,-6.646057873932560423e-01,0.000000000000000000e+00
1.424000000000000000e+03,-5.289787787598173585e-01,0.000000000000000000e+00
1.425000000000000000e+03,-4.033397925487946512e-01,0.000000000000000000e+00
1.426000000000000000e+03,-3.972158341198575027e-01,0.000000000000000000e+00
1.427000000000000000e+03,-3.115163698771463707e-01,0.000000000000000000e+00
1.428000000000000000e+03,-7.003751102262098516e-02,0.000000000000000000e+00
1.429000000000000000e+03,6.777977321071723682e-02,0.000000000000000000e+00
1.430000000000000000e+03,3.732950281838203765e-01,0.000000000000000000e+00
1.431000000000000000e+03,5.387953781481246152e-01,0.000000000000000000e+00
1.432000000000000000e+03,7.611175118590872701e-01,0.000000000000000000e+00
1.433000000000000000e+03,9.614756929177680211e-01,0.000000000000000000e+00
1.434000000000000000e+03,8.698365941405579171e-01,0.000000000000000000e+00
1.435000000000000000e+03,4.269100940905993236e-01,0.000000000000000000e+00
1.436000000000000000e+03,-4.377877772515791355e-01,0.000000000000000000e+00
1.437000000000000000e+03,-9.971652088575042594e-01,0.000000000000000000e+00
1.438000000000000000e+03,-1.183557721065094714e+00,0.000000000000000000e+00
1.439000000000000000e+03,-1.246679703628035929e+00,0.000000000000000000e+00
1.440000000000000000e+03,-1.335014504638464938e+00,0.000000000000000000e+00
1.441000000000000000e+03,-1.071921435259822974e+00,0.000000000000000000e+00
1.442000000000000000e+03,-9.184908808598729602e-01,0.000000000000000000e+00
1.443000000000000000e+03,-8.529850563039024225e-01,0.000000000000000000e+00
1.444000000000000000e+03,-8.037091694215497961e-01,0.000000000000000000e+00
1.445000000000000000e+03,-6.539139443498805937e-01,0.000000000000000000e+00
1.446000000000000000e+03,-5.408130559936614734e-01,0.000000000000000000e+00
1.447000000000000000e+03,-6.052650646676713819e-01,0.000000000000000000e+00
1.448000000000000000e+03,-4.082559463311631331e-01,0.000000000000000000e+00
1.449000000000000000e+03,-3.076699993837882507e-01,0.000000000000000000e+00
1.450000000000000000e+03,-2.384481467838772684e-01,0.000000000000000000e+00
1.451000000000000000e+03,-1.383664417319750706e-01,0.000000000000000000e+00
1.452000000000000000e+03,-1.419114703539803013e-01,0.000000000000000000e+00
1.453000000000000000e+03,-1.873039095087019462e-02,0.000000000000000000e+00
1.454000000000000000e+03,-1.106932177837113666e-02,0.000000000000000000e+00
1.455000000000000000e+03,-2.148208608213628308e-03,0.000000000000000000e+00
1.456000000000000000e+03,7.475205283800170908e-02,0.000000000000000000e+00
1.457000000000000000e+03,8.322412263222288276e-02,0.000000000000000000e+00
1.458000000000000000e+03,1.701043840183642242e-01,0.000000000000000000e+00
1.459000000000000000e+03,1.562227757964578523e-01,0.000000000000000000e+00
1.460000000000000000e+03,2.053297504824537767e-01,0.000000000000000000e+00
1.461000000000000000e+03,2.377722883076517912e-01,0.000000000000000000e+00
1.462000000000000000e+03,1.726374983993068379e-01,0.000000000000000000e+00
1.463000000000000000e+03,2.633681959605282952e-01,0.000000000000000000e+00
1.464000000000000000e+03,2.408031631922190330e-01,0.000000000000000000e+00
1.465000000000000000e+03,3.962616756548741903e-01,0.000000000000000000e+00
1.466000000000000000e+03,2.065201369380902929e-01,0.000000000000000000e+00
1.467000000000000000e+03,4.183563712465580564e-01,0.000000000000000000e+00
1.468000000000000000e+03,4.124051891065544928e-01,0.000000000000000000e+00
1.469000000000000000e+03,8.061799965361595710e-01,0.000000000000000000e+00
1.470000000000000000e+03,4.277785395783925138e-01,0.000000000000000000e+00
1.471000000000000000e+03,4.954776375058328464e-01,0.000000000000000000e+00
1.472000000000000000e+03,2.945541854219081435e-01,0.000000000000000000e+00
1.473000000000000000e+03,2.170279639443624120e-01,0.000000000000000000e+00
1.474000000000000000e+03,-7.044196791776095867e-02,0.000000000000000000e+00
1.475000000000000000e+03,2.592560572690073006e-01,0.000000000000000000e+00
1.476000000000000000e+03,-6.098618127147920065e-01,0.000000000000000000e+00
1.477000000000000000e+03,3.621189964281068541e+00,0.000000000000000000e+00
1.478000000000000000e+03,5.303478901313219751e+00,0.000000000000000000e+00
1.479000000000000000e+03,-8.765936823359545826e-01,1.000000000000000000e+00
1.480000000000000000e+03,-7.136825131152346735e-01,0.000000000000000000e+00
1.481000000000000000e+03,-8.728397264125428157e-01,0.000000000000000000e+00
1.482000000000000000e+03,-6.311542819586017927e-01,0.000000000000000000e+00
1.483000000000000000e+03,-7.187510628509699018e-01,0.000000000000000000e+00
1.484000000000000000e+03,-4.603517611496821260e-01,0.000000000000000000e+00
1.485000000000000000e+03,-6.378959338384357913e-01,0.000000000000000000e+00
1.486000000000000000e+03,-2.397891072215641295e-01,0.000000000000000000e+00
1.487000000000000000e+03,-2.435818695249967747e-01,0.000000000000000000e+00
1.488000000000000000e+03,-7.768441927905656887e-03,0.000000000000000000e+00
1.489000000000000000e+03,9.635081980979747288e-03,0.000000000000000000e+00
1.490000000000000000e+03,3.711495961052792003e-01,0.000000000000000000e+00
1.491000000000000000e+03,5.388105807485649157e-01,0.000000000000000000e+00
1.492000000000000000e+03,7.989625656769943074e-01,0.000000000000000000e+00
1.493000000000000000e+03,8.948762467089282913e-01,0.000000000000000000e+00
1.494000000000000000e+03,7.848592473462593366e-01,0.000000000000000000e+00
1.495000000000000000e+03,1.479289423612324683e-01,0.000000000000000000e+00
1.496000000000000000e+03,-6.332749641514284766e-01,0.000000000000000000e+00
1.497000000000000000e+03,-1.061010685216562166e+00,0.000000000000000000e+00
1.498000000000000000e+03,-1.368550243045213000e+00,0.000000000000000000e+00
1.499000000000000000e+03,-1.318412319986842718e+00,0.000000000000000000e+00
1.500000000000000000e+03,-1.251684759597231800e+00,0.000000000000000000e+00
1.501000000000000000e+03,-1.110437620292122896e+00,0.000000000000000000e+00
1.502000000000000000e+03,-8.899539914496809034e-01,0.000000000000000000e+00
1.503000000000000000e+03,-9.650571625675772314e-01,0.000000000000000000e+00
1.504000000000000000e+03,-7.448878161802312547e-01,0.000000000000000000e+00
1.505000000000000000e+03,-7.778501258957598585e-01,0.000000000000000000e+00
1.506000000000000000e+03,-7.173632619971754831e-01,0.000000000000000000e+00
1.507000000000000000e+03,-4.549656173104255075e-01,0.000000000000000000e+00
1.508000000000000000e+03,-3.616836324670965053e-01,0.000000000000000000e+00
1.509000000000000000e+03,-2.480788727481222644e-01,0.000000000000000000e+00
1.510000000000000000e+03,-2.561078959073455064e-01,0.000000000000000000e+00
1.511000000000000000e+03,-2.217047775266502707e-01,0.000000000000000000e+00
1.512000000000000000e+03,-7.321207448622216174e-02,0.000000000000000000e+00
1.513000000000000000e+03,-1.612521542073220571e-01,0.000000000000000000e+00
1.514000000000000000e+03,-1.526011568778383974e-02,0.000000000000000000e+00
1.515000000000000000e+03,-9.701269820223697160e-02,0.000000000000000000e+00
1.516000000000000000e+03,1.906463804437274479e-01,0.000000000000000000e+00
1.517000000000000000e+03,-4.854429594567434558e-02,0.000000000000000000e+00
1.518000000000000000e+03,1.378288403140636720e-01,0.000000000000000000e+00
1.519000000000000000e+03,1.249444790708611336e-01,0.000000000000000000e+00
1.520000000000000000e+03,1.444535732070209300e-01,0.000000000000000000e+00
1.521000000000000000e+03,1.802141530657485613e-01,0.000000000000000000e+00
1.522000000000000000e+03,2.908726000562392722e-01,0.000000000000000000e+00
1.523000000000000000e+03,2.045886713282051017e-01,0.000000000000000000e+00
1.524000000000000000e+03,2.336300369318537462e-01,0.000000000000000000e+00
1.525000000000000000e+03,3.366236895009370178e-01,0.000000000000000000e+00
1.526000000000000000e+03,3.544334604189208204e-01,0.000000000000000000e+00
1.527000000000000000e+03,3.858788620722969909e-01,0.000000000000000000e+00
1.528000000000000000e+03,8.080567241320232297e-01,0.000000000000000000e+00
1.529000000000000000e+03,5.242863451672638009e-01,0.000000000000000000e+00
1.530000000000000000e+03,4.567544681604577828e-01,0.000000000000000000e+00
1.531000000000000000e+03,2.630835724567023859e-01,0.000000000000000000e+00
1.532000000000000000e+03,2.063010169891728585e-01,0.000000000000000000e+00
1.533000000000000000e+03,4.543069457981467607e-02,0.000000000000000000e+00
1.534000000000000000e+03,8.980312910985603636e-02,0.000000000000000000e+00
1.535000000000000000e+03,1.586575974970933778e-01,0.000000000000000000e+00
1.536000000000000000e+03,5.624502131810296568e+00,0.000000000000000000e+00
1.537000000000000000e+03,2.778450922986815286e+00,1.000000000000000000e+00
1.538000000000000000e+03,-1.427571381674074269e+00,0.000000000000000000e+00
1.539000000000000000e+03,-4.906550412857454968e-01,0.000000000000000000e+00
1.540000000000000000e+03,-8.665368392112021700e-01,0.000000000000000000e+00
1.541000000000000000e+03,-5.083011695221991699e-01,0.000000000000000000e+00
1.542000000000000000e+03,-5.347780722218462568e-01,0.000000000000000000e+00
1.543000000000000000e+03,-3.438775075368349921e-01,0.000000000000000000e+00
1.544000000000000000e+03,-2.482860445327010890e-01,0.000000000000000000e+00
1.545000000000000000e+03,-1.209317282577443975e-01,0.000000000000000000e+00
1.546000000000000000e+03,-2.741715128019607262e-01,0.000000000000000000e+00
1.547000000000000000e+03,1.082170666718948321e-01,0.000000000000000000e+00
1.548000000000000000e+03,1.963968336948566651e-01,0.000000000000000000e+00
1.549000000000000000e+03,5.389576095554891033e-01,0.000000000000000000e+00
1.550000000000000000e+03,6.959996441291222968e-01,0.000000000000000000e+00
1.551000000000000000e+03,1.001301813866418700e+00,0.000000000000000000e+00
1.552000000000000000e+03,8.634154164058449599e-01,0.000000000000000000e+00
1.553000000000000000e+03,7.540287439680682935e-01,0.000000000000000000e+00
1.554000000000000000e+03,-1.763639576559054567e-01,0.000000000000000000e+00
1.555000000000000000e+03,-7.328265412370871257e-01,0.000000000000000000e+00
1.556000000000000000e+03,-1.207777482280262271e+00,0.000000000000000000e+00
1.557000000000000000e+03,-1.243546684865394658e+00,0.000000000000000000e+00
1.558000000000000000e+03,-1.287536205189710792e+00,0.000000000000000000e+00
1.559000000000000000e+03,-1.055157543807271781e+00,0.000000000000000000e+00
1.560000000000000000e+03,-1.019652039794219034e+00,0.000000000000000000e+00
1.561000000000000000e+03,-9.826732819476562408e-01,0.000000000000000000e+00
1.562000000000000000e+03,-8.995851979869444737e-01,0.000000000000000000e+00
1.563000000000000000e+03,-6.960667253786553266e-01,0.000000000000000000e+00
1.564000000000000000e+03,-6.367494656684730137e-01,0.000000000000000000e+00
1.565000000000000000e+03,-4.679709165304790641e-01,0.000000000000000000e+00
1.566000000000000000e+03,-3.902927156072141246e-01,0.000000000000000000e+00
1.567000000000000000e+03,-2.018708128442773531e-01,0.000000000000000000e+00
1.568000000000000000e+03,-3.185039083655155090e-01,0.000000000000000000e+00
1.569000000000000000e+03,-1.901616080638028616e-01,0.000000000000000000e+00
1.570000000000000000e+03,-2.843744165557170467e-01,0.000000000000000000e+00
1.571000000000000000e+03,-2.857524621062132106e-02,0.000000000000000000e+00
1.572000000000000000e+03,-9.507046331905659453e-02,0.000000000000000000e+00
1.573000000000000000e+03,7.318223637694180883e-03,0.000000000000000000e+00
1.574000000000000000e+03,1.984158047048202936e-02,0.000000000000000000e+00
1.575000000000000000e+03,1.178839042913110424e-01,0.000000000000000000e+00
1.576000000000000000e+03,-7.524102209168616329e-02,0.000000000000000000e+00
1.577000000000000000e+03,2.189064958007568007e-01,0.000000000000000000e+00
1.578000000000000000e+03,1.136034666375543567e-01,0.000000000000000000e+00
1.579000000000000000e+03,2.319482345189541328e-01,0.000000000000000000e+00
1.580000000000000000e+03,1.487237219823709378e-01,0.000000000000000000e+00
1.581000000000000000e+03,1.950171912422900000e-01,0.000000000000000000e+00
1.582000000000000000e+03,1.930598326896365569e-01,0.000000000000000000e+00
1.583000000000000000e+03,3.760097161680954758e-01,0.000000000000000000e+00
1.584000000000000000e+03,3.149242926861918757e-01,0.000000000000000000e+00
1.585000000000000000e+03,2.834772849453724430e-01,0.000000000000000000e+00
1.586000000000000000e+03,3.797799074155272514e-01,0.000000000000000000e+00
1.587000000000000000e+03,7.247512419470875100e-01,0.000000000000000000e+00
