timestamp,ecg_measurement,qrs_detected
0.000000000000000000e+00,4.775826678069673981e-01,0.000000000000000000e+00
1.000000000000000000e+00,4.084377085822545328e-01,0.000000000000000000e+00
2.000000000000000000e+00,1.223107487890301714e-01,0.000000000000000000e+00
3.000000000000000000e+00,2.419039129834827107e-01,0.000000000000000000e+00
4.000000000000000000e+00,1.177976125877490919e-02,0.000000000000000000e+00
5.000000000000000000e+00,1.482256765145112398e-01,0.000000000000000000e+00
6.000000000000000000e+00,-2.043120031828278282e-01,0.000000000000000000e+00
7.000000000000000000e+00,5.128443791188424861e+00,0.000000000000000000e+00
8.000000000000000000e+00,3.671499960430386622e+00,1.000000000000000000e+00
9.000000000000000000e+00,-1.356027337361050744e+00,0.000000000000000000e+00
1.000000000000000000e+01,-4.081376345952516527e-01,0.000000000000000000e+00
1.100000000000000000e+01,-8.525417944510226276e-01,0.000000000000000000e+00
1.200000000000000000e+01,-4.102248125018169156e-01,0.000000000000000000e+00
1.300000000000000000e+01,-5.934649628956675249e-01,0.000000000000000000e+00
1.400000000000000000e+01,-2.115072722025831686e-01,0.000000000000000000e+00
1.500000000000000000e+01,-4.097456300876405333e-01,0.000000000000000000e+00
1.600000000000000000e+01,-2.211720058920909893e-01,0.000000000000000000e+00
1.700000000000000000e+01,-5.580152607808836623e-02,0.000000000000000000e+00
1.800000000000000000e+01,1.023206244876225107e-01,0.000000000000000000e+00
1.900000000000000000e+01,3.655225088320177007e-01,0.000000000000000000e+00
2.000000000000000000e+01,6.280857275050901745e-01,0.000000000000000000e+00
2.100000000000000000e+01,6.402172091755824468e-01,0.000000000000000000e+00
2.200000000000000000e+01,9.389660282937181135e-01,0.000000000000000000e+00
2.300000000000000000e+01,1.016508564363404643e+00,0.000000000000000000e+00
2.400000000000000000e+01,7.417431926213218230e-01,0.000000000000000000e+00
2.500000000000000000e+01,-5.472649160608156205e-02,0.000000000000000000e+00
2.600000000000000000e+01,-7.967797746980933571e-01,0.000000000000000000e+00
2.700000000000000000e+01,-1.115830679980933882e+00,0.000000000000000000e+00
2.800000000000000000e+01,-1.288261447618405331e+00,0.000000000000000000e+00
2.900000000000000000e+01,-1.176468642913444329e+00,0.000000000000000000e+00
3.000000000000000000e+01,-1.151720746546079699e+00,0.000000000000000000e+00
3.100000000000000000e+01,-1.115791829651178180e+00,0.000000000000000000e+00
3.200000000000000000e+01,-8.445776756804810326e-01,0.000000000000000000e+00
3.300000000000000000e+01,-1.000477485901968278e+00,0.000000000000000000e+00
3.400000000000000000e+01,-7.170727675747633478e-01,0.000000000000000000e+00
3.500000000000000000e+01,-6.378575303107506533e-01,0.000000000000000000e+00
3.600000000000000000e+01,-6.092249357625163508e-01,0.000000000000000000e+00
3.700000000000000000e+01,-5.627806721906501997e-01,0.000000000000000000e+00
3.800000000000000000e+01,-4.727294091140167298e-01,0.000000000000000000e+00
3.900000000000000000e+01,-4.733577320833097235e-01,0.000000000000000000e+00
4.000000000000000000e+01,-2.504184213182470420e-01,0.000000000000000000e+00
4.100000000000000000e+01,-4.031611144581236372e-01,0.000000000000000000e+00
4.200000000000000000e+01,-2.320349063216956831e-01,0.000000000000000000e+00
4.300000000000000000e+01,-2.940368724766292963e-01,0.000000000000000000e+00
4.400000000000000000e+01,-1.304029461276869084e-01,0.000000000000000000e+00
4.500000000000000000e+01,-9.616237074393053919e-02,0.000000000000000000e+00
4.600000000000000000e+01,-7.947810733309880471e-02,0.000000000000000000e+00
4.700000000000000000e+01,-6.381411337877002099e-02,0.000000000000000000e+00
4.800000000000000000e+01,8.534416667303197646e-02,0.000000000000000000e+00
4.900000000000000000e+01,8.697523284898832363e-03,0.000000000000000000e+00
5.000000000000000000e+01,1.254668850329613561e-01,0.000000000000000000e+00
5.100000000000000000e+01,2.451816487658374233e-01,0.000000000000000000e+00
5.200000000000000000e+01,3.942579770703659447e-02,0.000000000000000000e+00
5.300000000000000000e+01,4.004780043767887654e-01,0.000000000000000000e+00
5.400000000000000000e+01,2.593436216515242476e-01,0.000000000000000000e+00
5.500000000000000000e+01,3.867550407990413275e-01,0.000000000000000000e+00
5.600000000000000000e+01,4.321558689887362581e-01,0.000000000000000000e+00
5.700000000000000000e+01,8.495328870671908783e-01,0.000000000000000000e+00
5.800000000000000000e+01,5.322972431593149256e-01,0.000000000000000000e+00
5.900000000000000000e+01,5.126631859864957397e-01,0.000000000000000000e+00
6.000000000000000000e+01,4.218299484658112886e-01,0.000000000000000000e+00
6.100000000000000000e+01,2.091087183689908924e-01,0.000000000000000000e+00
6.200000000000000000e+01,1.104198493498157324e-01,0.000000000000000000e+00
6.300000000000000000e+01,2.505237609901949103e-01,0.000000000000000000e+00
6.400000000000000000e+01,-3.868340428074344972e-01,0.000000000000000000e+00
6.500000000000000000e+01,4.468841468538342632e+00,0.000000000000000000e+00
6.600000000000000000e+01,4.718261353163720528e+00,0.000000000000000000e+00
6.700000000000000000e+01,-1.157434796742883520e+00,1.000000000000000000e+00
6.800000000000000000e+01,-4.045355790300207977e-01,0.000000000000000000e+00
6.900000000000000000e+01,-7.897876143174732411e-01,0.000000000000000000e+00
7.000000000000000000e+01,-3.543911481964563404e-01,0.000000000000000000e+00
7.100000000000000000e+01,-5.351142682928041738e-01,0.000000000000000000e+00
7.200000000000000000e+01,-1.891890239977115917e-01,0.000000000000000000e+00
7.300000000000000000e+01,-4.112976261413084922e-01,0.000000000000000000e+00
7.400000000000000000e+01,2.783444451191524616e-02,0.000000000000000000e+00
7.500000000000000000e+01,-1.365542480158020988e-01,0.000000000000000000e+00
7.600000000000000000e+01,2.464895546215267741e-01,0.000000000000000000e+00
7.700000000000000000e+01,3.119659241873384281e-01,0.000000000000000000e+00
7.800000000000000000e+01,6.560270859453488645e-01,0.000000000000000000e+00
7.900000000000000000e+01,8.822769400611130131e-01,0.000000000000000000e+00
8.000000000000000000e+01,1.068626600282103878e+00,0.000000000000000000e+00
8.100000000000000000e+01,1.087216985593626006e+00,0.000000000000000000e+00
8.200000000000000000e+01,9.650698465661992076e-01,0.000000000000000000e+00
8.300000000000000000e+01,1.232781634008420363e-01,0.000000000000000000e+00
8.400000000000000000e+01,-5.134779124878611212e-01,0.000000000000000000e+00
8.500000000000000000e+01,-9.657055790295955289e-01,0.000000000000000000e+00
8.600000000000000000e+01,-1.086757441004389424e+00,0.000000000000000000e+00
8.700000000000000000e+01,-1.129760652640726226e+00,0.000000000000000000e+00
8.800000000000000000e+01,-8.764619254983118113e-01,0.000000000000000000e+00
8.900000000000000000e+01,-9.880119518029508718e-01,0.000000000000000000e+00
9.000000000000000000e+01,-7.312245452732916151e-01,0.000000000000000000e+00
9.100000000000000000e+01,-8.620031105831083007e-01,0.000000000000000000e+00
9.200000000000000000e+01,-6.349238042357449041e-01,0.000000000000000000e+00
9.300000000000000000e+01,-6.582237235073782333e-01,0.000000000000000000e+00
9.400000000000000000e+01,-4.306361849880883108e-01,0.000000000000000000e+00
9.500000000000000000e+01,-5.225719237914170368e-01,0.000000000000000000e+00
9.600000000000000000e+01,-3.015405996330525196e-01,0.000000000000000000e+00
9.700000000000000000e+01,-4.325327222149739081e-01,0.000000000000000000e+00
9.800000000000000000e+01,-2.274163717720484590e-01,0.000000000000000000e+00
9.900000000000000000e+01,-2.695672579408726621e-01,0.000000000000000000e+00
1.000000000000000000e+02,-1.226092634995561981e-01,0.000000000000000000e+00
1.010000000000000000e+02,-1.707145049595552855e-01,0.000000000000000000e+00
1.020000000000000000e+02,-1.427872139998395407e-01,0.000000000000000000e+00
1.030000000000000000e+02,-1.440241689960880811e-01,0.000000000000000000e+00
1.040000000000000000e+02,1.242327745613644174e-01,0.000000000000000000e+00
1.050000000000000000e+02,2.059178386896110685e-02,0.000000000000000000e+00
1.060000000000000000e+02,6.185071084147435172e-02,0.000000000000000000e+00
1.070000000000000000e+02,6.567330030065335333e-02,0.000000000000000000e+00
1.080000000000000000e+02,2.308849772644251674e-01,0.000000000000000000e+00
1.090000000000000000e+02,1.004734895992176330e-01,0.000000000000000000e+00
1.100000000000000000e+02,9.771177960158407283e-02,0.000000000000000000e+00
1.110000000000000000e+02,1.411704902815869855e-01,0.000000000000000000e+00
1.120000000000000000e+02,1.756806041606202851e-01,0.000000000000000000e+00
1.130000000000000000e+02,2.399244186660615397e-01,0.000000000000000000e+00
1.140000000000000000e+02,3.987469056975314063e-01,0.000000000000000000e+00
1.150000000000000000e+02,4.979358817937633019e-01,0.000000000000000000e+00
1.160000000000000000e+02,3.261736090903473717e-01,0.000000000000000000e+00
1.170000000000000000e+02,2.276896793221529491e-01,0.000000000000000000e+00
1.180000000000000000e+02,1.393278604766996602e-02,0.000000000000000000e+00
1.190000000000000000e+02,-9.096787638861683623e-02,0.000000000000000000e+00
1.200000000000000000e+02,3.019799911991052563e-02,0.000000000000000000e+00
1.210000000000000000e+02,-4.068974388330798830e-01,0.000000000000000000e+00
1.220000000000000000e+02,7.075229572078698403e-01,0.000000000000000000e+00
1.230000000000000000e+02,6.264189150460788724e+00,0.000000000000000000e+00
1.240000000000000000e+02,9.381029116699158843e-01,1.000000000000000000e+00
1.250000000000000000e+02,-1.686358872987271162e+00,0.000000000000000000e+00
1.260000000000000000e+02,-7.331923586639049750e-01,0.000000000000000000e+00
1.270000000000000000e+02,-1.035593699534087753e+00,0.000000000000000000e+00
1.280000000000000000e+02,-6.042811447439186967e-01,0.000000000000000000e+00
1.290000000000000000e+02,-7.021272165343869220e-01,0.000000000000000000e+00
1.300000000000000000e+02,-4.256949454446359860e-01,0.000000000000000000e+00
1.310000000000000000e+02,-5.766350883174198305e-01,0.000000000000000000e+00
1.320000000000000000e+02,-1.811919466502465714e-01,0.000000000000000000e+00
1.330000000000000000e+02,-2.572685830031611331e-01,0.000000000000000000e+00
1.340000000000000000e+02,1.423644835731397162e-01,0.000000000000000000e+00
1.350000000000000000e+02,2.362840439987421992e-01,0.000000000000000000e+00
1.360000000000000000e+02,5.388698932038925582e-01,0.000000000000000000e+00
1.370000000000000000e+02,5.884323628592771360e-01,0.000000000000000000e+00
1.380000000000000000e+02,9.159646385923546630e-01,0.000000000000000000e+00
1.390000000000000000e+02,7.863230369199201153e-01,0.000000000000000000e+00
1.400000000000000000e+02,2.690594981196429147e-01,0.000000000000000000e+00
1.410000000000000000e+02,-4.662994692816876952e-01,0.000000000000000000e+00
1.420000000000000000e+02,-1.055278585756676879e+00,0.000000000000000000e+00
1.430000000000000000e+02,-1.257628326681599962e+00,0.000000000000000000e+00
1.440000000000000000e+02,-1.271689413850499051e+00,0.000000000000000000e+00
1.450000000000000000e+02,-1.288252848994640543e+00,0.000000000000000000e+00
1.460000000000000000e+02,-1.053276637705430341e+00,0.000000000000000000e+00
1.470000000000000000e+02,-1.092928689338649839e+00,0.000000000000000000e+00
1.480000000000000000e+02,-8.889953687893223933e-01,0.000000000000000000e+00
1.490000000000000000e+02,-8.371280176526276762e-01,0.000000000000000000e+00
1.500000000000000000e+02,-6.745358791808580001e-01,0.000000000000000000e+00
1.510000000000000000e+02,-5.383897968783395438e-01,0.000000000000000000e+00
1.520000000000000000e+02,-4.440837988959577265e-01,0.000000000000000000e+00
1.530000000000000000e+02,-4.672183818590703308e-01,0.000000000000000000e+00
1.540000000000000000e+02,-2.834130712143460018e-01,0.000000000000000000e+00
1.550000000000000000e+02,-3.429565150869312573e-01,0.000000000000000000e+00
1.560000000000000000e+02,-1.952339308055978107e-01,0.000000000000000000e+00
1.570000000000000000e+02,-5.714182837968011242e-02,0.000000000000000000e+00
1.580000000000000000e+02,-6.345414144000745271e-02,0.000000000000000000e+00
1.590000000000000000e+02,9.944827520953259531e-03,0.000000000000000000e+00
1.600000000000000000e+02,-3.599331203095319787e-02,0.000000000000000000e+00
1.610000000000000000e+02,1.000370434879311321e-01,0.000000000000000000e+00
1.620000000000000000e+02,3.829858314206045083e-02,0.000000000000000000e+00
1.630000000000000000e+02,1.410792154732135595e-01,0.000000000000000000e+00
1.640000000000000000e+02,2.087791359044467998e-01,0.000000000000000000e+00
1.650000000000000000e+02,3.029899967602237010e-01,0.000000000000000000e+00
1.660000000000000000e+02,3.542889367679263879e-01,0.000000000000000000e+00
1.670000000000000000e+02,1.670074744626337815e-01,0.000000000000000000e+00
1.680000000000000000e+02,3.621987501386473296e-01,0.000000000000000000e+00
1.690000000000000000e+02,1.890426001926737432e-01,0.000000000000000000e+00
1.700000000000000000e+02,5.346999715576150614e-01,0.000000000000000000e+00
1.710000000000000000e+02,3.488483141240971142e-01,0.000000000000000000e+00
1.720000000000000000e+02,8.193761833508274028e-01,0.000000000000000000e+00
1.730000000000000000e+02,2.958473298502923288e-01,0.000000000000000000e+00
1.740000000000000000e+02,6.634369097423009620e-01,0.000000000000000000e+00
1.750000000000000000e+02,2.477345995668106537e-01,0.000000000000000000e+00
1.760000000000000000e+02,2.899991223643442750e-01,0.000000000000000000e+00
1.770000000000000000e+02,-1.025577865939579850e-02,0.000000000000000000e+00
1.780000000000000000e+02,1.855903381891422232e-01,0.000000000000000000e+00
1.790000000000000000e+02,-2.651493514589025047e-01,0.000000000000000000e+00
1.800000000000000000e+02,5.355003048817681410e+00,0.000000000000000000e+00
1.810000000000000000e+02,3.699215681840365644e+00,1.000000000000000000e+00
1.820000000000000000e+02,-1.473537978715945274e+00,0.000000000000000000e+00
1.830000000000000000e+02,-4.912366075833574652e-01,0.000000000000000000e+00
1.840000000000000000e+02,-8.714602254734454823e-01,0.000000000000000000e+00
1.850000000000000000e+02,-3.895439387714272894e-01,0.000000000000000000e+00
1.860000000000000000e+02,-6.145109060659501576e-01,0.000000000000000000e+00
1.870000000000000000e+02,-2.898889490608601571e-01,0.000000000000000000e+00
1.880000000000000000e+02,-2.735797274251873801e-01,0.000000000000000000e+00
1.890000000000000000e+02,5.208891909815872162e-02,0.000000000000000000e+00
1.900000000000000000e+02,-2.128719034711009095e-01,0.000000000000000000e+00
1.910000000000000000e+02,2.513852540957979831e-01,0.000000000000000000e+00
1.920000000000000000e+02,3.671343174471939363e-01,0.000000000000000000e+00
1.930000000000000000e+02,7.070719484071620320e-01,0.000000000000000000e+00
1.940000000000000000e+02,8.362589580485205731e-01,0.000000000000000000e+00
1.950000000000000000e+02,1.123129503812248409e+00,0.000000000000000000e+00
1.960000000000000000e+02,9.503947118701395746e-01,0.000000000000000000e+00
1.970000000000000000e+02,8.222906031324697107e-01,0.000000000000000000e+00
1.980000000000000000e+02,2.669719652784759145e-02,0.000000000000000000e+00
1.990000000000000000e+02,-6.494278314082385650e-01,0.000000000000000000e+00
2.000000000000000000e+02,-1.013479754329154714e+00,0.000000000000000000e+00
2.010000000000000000e+02,-1.040346380284485672e+00,0.000000000000000000e+00
2.020000000000000000e+02,-1.205796731743096872e+00,0.000000000000000000e+00
2.030000000000000000e+02,-9.258599220324166268e-01,0.000000000000000000e+00
2.040000000000000000e+02,-1.054336713435224393e+00,0.000000000000000000e+00
2.050000000000000000e+02,-8.410594026696902592e-01,0.000000000000000000e+00
2.060000000000000000e+02,-7.498208202268678013e-01,0.000000000000000000e+00
2.070000000000000000e+02,-5.731001133447489737e-01,0.000000000000000000e+00
2.080000000000000000e+02,-5.347978266777594358e-01,0.000000000000000000e+00
2.090000000000000000e+02,-5.032388577024180520e-01,0.000000000000000000e+00
2.100000000000000000e+02,-3.511382234612415720e-01,0.000000000000000000e+00
2.110000000000000000e+02,-2.370415584136507658e-01,0.000000000000000000e+00
2.120000000000000000e+02,-2.509351180352266675e-01,0.000000000000000000e+00
2.130000000000000000e+02,-2.178823969343312572e-01,0.000000000000000000e+00
2.140000000000000000e+02,-4.157105416710661638e-02,0.000000000000000000e+00
2.150000000000000000e+02,-1.635697399848287936e-01,0.000000000000000000e+00
2.160000000000000000e+02,-8.066938586616625995e-02,0.000000000000000000e+00
2.170000000000000000e+02,-2.892676021522543051e-02,0.000000000000000000e+00
2.180000000000000000e+02,7.343738334773873555e-02,0.000000000000000000e+00
2.190000000000000000e+02,-2.472477206023494453e-02,0.000000000000000000e+00
2.200000000000000000e+02,1.489389092592197650e-01,0.000000000000000000e+00
2.210000000000000000e+02,-4.238055558047862381e-02,0.000000000000000000e+00
2.220000000000000000e+02,3.104505569447594399e-02,0.000000000000000000e+00
2.230000000000000000e+02,2.023417067983049322e-01,0.000000000000000000e+00
2.240000000000000000e+02,1.931072234558108003e-01,0.000000000000000000e+00
2.250000000000000000e+02,9.015367535484275496e-02,0.000000000000000000e+00
2.260000000000000000e+02,2.379278170791954417e-01,0.000000000000000000e+00
2.270000000000000000e+02,8.860771478974099891e-02,0.000000000000000000e+00
2.280000000000000000e+02,2.305774077273806955e-01,0.000000000000000000e+00
2.290000000000000000e+02,3.182464672332147582e-01,0.000000000000000000e+00
2.300000000000000000e+02,5.052778398351341904e-01,0.000000000000000000e+00
2.310000000000000000e+02,5.871917794728421791e-01,0.000000000000000000e+00
2.320000000000000000e+02,3.811574022295138864e-01,0.000000000000000000e+00
2.330000000000000000e+02,3.926760226023434663e-01,0.000000000000000000e+00
2.340000000000000000e+02,-4.934300176249361430e-02,0.000000000000000000e+00
2.350000000000000000e+02,1.329340694027163726e-02,0.000000000000000000e+00
2.360000000000000000e+02,2.022940441245129062e-01,0.000000000000000000e+00
2.370000000000000000e+02,-6.466570751385838367e-01,0.000000000000000000e+00
2.380000000000000000e+02,2.550151839394359410e+00,0.000000000000000000e+00
2.390000000000000000e+02,5.884978524572045622e+00,0.000000000000000000e+00
2.400000000000000000e+02,-2.466742658359349361e-01,1.000000000000000000e+00
2.410000000000000000e+02,-9.766281714312905482e-01,0.000000000000000000e+00
2.420000000000000000e+02,-7.692312304679524981e-01,0.000000000000000000e+00
2.430000000000000000e+02,-7.893507688808775180e-01,0.000000000000000000e+00
2.440000000000000000e+02,-6.783431002010477107e-01,0.000000000000000000e+00
2.450000000000000000e+02,-5.280388588679318929e-01,0.000000000000000000e+00
2.460000000000000000e+02,-4.446609459390462593e-01,0.000000000000000000e+00
2.470000000000000000e+02,-2.338097548081629062e-01,0.000000000000000000e+00
2.480000000000000000e+02,-3.500782579558171514e-01,0.000000000000000000e+00
2.490000000000000000e+02,-2.443750265102182656e-02,0.000000000000000000e+00
2.500000000000000000e+02,3.507400440667214625e-02,0.000000000000000000e+00
2.510000000000000000e+02,5.113667469946829858e-01,0.000000000000000000e+00
2.520000000000000000e+02,5.868119222012586622e-01,0.000000000000000000e+00
2.530000000000000000e+02,7.968196561597818972e-01,0.000000000000000000e+00
2.540000000000000000e+02,1.030652294490809417e+00,0.000000000000000000e+00
2.550000000000000000e+02,7.653426219766388261e-01,0.000000000000000000e+00
2.560000000000000000e+02,1.754800297733582481e-01,0.000000000000000000e+00
2.570000000000000000e+02,-5.522383582066612284e-01,0.000000000000000000e+00
2.580000000000000000e+02,-1.026039636448424552e+00,0.000000000000000000e+00
2.590000000000000000e+02,-1.266168101019757630e+00,0.000000000000000000e+00
2.600000000000000000e+02,-1.373946979133098933e+00,0.000000000000000000e+00
2.610000000000000000e+02,-1.182104749632906682e+00,0.000000000000000000e+00
2.620000000000000000e+02,-1.141726191292977033e+00,0.000000000000000000e+00
2.630000000000000000e+02,-9.623145323967824405e-01,0.000000000000000000e+00
2.640000000000000000e+02,-9.173942196450967090e-01,0.000000000000000000e+00
2.650000000000000000e+02,-7.123324162594586451e-01,0.000000000000000000e+00
2.660000000000000000e+02,-8.074480238142176525e-01,0.000000000000000000e+00
2.670000000000000000e+02,-6.415553663194153433e-01,0.000000000000000000e+00
2.680000000000000000e+02,-5.998550931786145179e-01,0.000000000000000000e+00
2.690000000000000000e+02,-4.613257615890826169e-01,0.000000000000000000e+00
2.700000000000000000e+02,-4.822898304780893208e-01,0.000000000000000000e+00
2.710000000000000000e+02,-2.679656268956743248e-01,0.000000000000000000e+00
2.720000000000000000e+02,-2.201430116481331856e-01,0.000000000000000000e+00
2.730000000000000000e+02,-3.688003725653730136e-01,0.000000000000000000e+00
2.740000000000000000e+02,-1.254407311411412651e-01,0.000000000000000000e+00
2.750000000000000000e+02,1.896068669084245576e-03,0.000000000000000000e+00
2.760000000000000000e+02,-2.610120746298150163e-01,0.000000000000000000e+00
2.770000000000000000e+02,1.373623334550512776e-01,0.000000000000000000e+00
2.780000000000000000e+02,1.210187630138873233e-01,0.000000000000000000e+00
2.790000000000000000e+02,2.149102428148352839e-01,0.000000000000000000e+00
2.800000000000000000e+02,4.349020857863819534e-02,0.000000000000000000e+00
2.810000000000000000e+02,1.107213421108989848e-01,0.000000000000000000e+00
2.820000000000000000e+02,1.803846907243252529e-01,0.000000000000000000e+00
2.830000000000000000e+02,3.200486669987173127e-01,0.000000000000000000e+00
2.840000000000000000e+02,2.371869097363961398e-01,0.000000000000000000e+00
2.850000000000000000e+02,2.954706055667218334e-01,0.000000000000000000e+00
2.860000000000000000e+02,2.838729466553454595e-01,0.000000000000000000e+00
2.870000000000000000e+02,4.521370656391431875e-01,0.000000000000000000e+00
2.880000000000000000e+02,4.431208261657527681e-01,0.000000000000000000e+00
2.890000000000000000e+02,9.355573919118698178e-01,0.000000000000000000e+00
2.900000000000000000e+02,3.924096975239622087e-01,0.000000000000000000e+00
2.910000000000000000e+02,6.870411384771917263e-01,0.000000000000000000e+00
2.920000000000000000e+02,2.431009260178217390e-01,0.000000000000000000e+00
2.930000000000000000e+02,2.104297562322577364e-01,0.000000000000000000e+00
2.940000000000000000e+02,3.718307130969860513e-02,0.000000000000000000e+00
2.950000000000000000e+02,1.633709360985582115e-01,0.000000000000000000e+00
2.960000000000000000e+02,-9.763409341594624091e-02,0.000000000000000000e+00
2.970000000000000000e+02,5.660149325023660971e+00,0.000000000000000000e+00
2.980000000000000000e+02,3.357633642497679372e+00,1.000000000000000000e+00
2.990000000000000000e+02,-1.510775397398975040e+00,0.000000000000000000e+00
3.000000000000000000e+02,-2.163510799945166652e-01,0.000000000000000000e+00
3.010000000000000000e+02,-9.965149608985203189e-01,0.000000000000000000e+00
3.020000000000000000e+02,-3.856970869184003781e-01,0.000000000000000000e+00
3.030000000000000000e+02,-6.761069272315002321e-01,0.000000000000000000e+00
3.040000000000000000e+02,-2.059664462267188356e-01,0.000000000000000000e+00
3.050000000000000000e+02,-4.153960213224965337e-01,0.000000000000000000e+00
3.060000000000000000e+02,-1.460451956013816485e-02,0.000000000000000000e+00
3.070000000000000000e+02,-2.179317677712064583e-01,0.000000000000000000e+00
3.080000000000000000e+02,1.304702408837002392e-01,0.000000000000000000e+00
3.090000000000000000e+02,2.724411670657585494e-01,0.000000000000000000e+00
3.100000000000000000e+02,6.678989433136989229e-01,0.000000000000000000e+00
3.110000000000000000e+02,8.279040458530548818e-01,0.000000000000000000e+00
3.120000000000000000e+02,8.947750790360904372e-01,0.000000000000000000e+00
3.130000000000000000e+02,9.554381817048148706e-01,0.000000000000000000e+00
3.140000000000000000e+02,6.911772522271525387e-01,0.000000000000000000e+00
3.150000000000000000e+02,-2.264333547743974107e-01,0.000000000000000000e+00
3.160000000000000000e+02,-6.831134715480111641e-01,0.000000000000000000e+00
3.170000000000000000e+02,-1.233212133620604334e+00,0.000000000000000000e+00
3.180000000000000000e+02,-1.215744152817320289e+00,0.000000000000000000e+00
3.190000000000000000e+02,-1.278999974493606473e+00,0.000000000000000000e+00
3.200000000000000000e+02,-1.035829189294651620e+00,0.000000000000000000e+00
3.210000000000000000e+02,-9.960523322610355113e-01,0.000000000000000000e+00
3.220000000000000000e+02,-9.180032377305252789e-01,0.000000000000000000e+00
3.230000000000000000e+02,-7.569995716767454752e-01,0.000000000000000000e+00
3.240000000000000000e+02,-7.485570727956483150e-01,0.000000000000000000e+00
3.250000000000000000e+02,-6.169443175697332249e-01,0.000000000000000000e+00
3.260000000000000000e+02,-5.648354452771159329e-01,0.000000000000000000e+00
3.270000000000000000e+02,-4.637702411162102911e-01,0.000000000000000000e+00
3.280000000000000000e+02,-3.857021734038050265e-01,0.000000000000000000e+00
3.290000000000000000e+02,-3.643264691409372480e-01,0.000000000000000000e+00
3.300000000000000000e+02,-1.762194716540748385e-01,0.000000000000000000e+00
3.310000000000000000e+02,-2.752432004488218342e-01,0.000000000000000000e+00
3.320000000000000000e+02,-1.836681621066174608e-01,0.000000000000000000e+00
3.330000000000000000e+02,-1.381399806044278089e-01,0.000000000000000000e+00
3.340000000000000000e+02,-6.520294970054235639e-02,0.000000000000000000e+00
3.350000000000000000e+02,-6.338799652184949618e-02,0.000000000000000000e+00
3.360000000000000000e+02,1.483225932387889356e-01,0.000000000000000000e+00
3.370000000000000000e+02,5.667093043446733841e-02,0.000000000000000000e+00
3.380000000000000000e+02,5.899404303031177688e-02,0.000000000000000000e+00
3.390000000000000000e+02,8.493398970604743026e-02,0.000000000000000000e+00
3.400000000000000000e+02,1.958844175040493352e-01,0.000000000000000000e+00
3.410000000000000000e+02,9.661707886767240128e-02,0.000000000000000000e+00
3.420000000000000000e+02,2.022204813424252068e-01,0.000000000000000000e+00
3.430000000000000000e+02,2.074009735290341105e-01,0.000000000000000000e+00
3.440000000000000000e+02,3.257906438934941584e-01,0.000000000000000000e+00
3.450000000000000000e+02,3.091376133810114224e-01,0.000000000000000000e+00
3.460000000000000000e+02,5.549615132696605890e-01,0.000000000000000000e+00
3.470000000000000000e+02,5.813989317088071873e-01,0.000000000000000000e+00
3.480000000000000000e+02,4.534879245602199127e-01,0.000000000000000000e+00
3.490000000000000000e+02,4.485523725735255929e-01,0.000000000000000000e+00
3.500000000000000000e+02,8.271024885291561324e-02,0.000000000000000000e+00
3.510000000000000000e+02,5.976191731079569247e-02,0.000000000000000000e+00
3.520000000000000000e+02,1.989981860237626521e-01,0.000000000000000000e+00
3.530000000000000000e+02,-2.851802819357736052e-01,0.000000000000000000e+00
3.540000000000000000e+02,1.455100062489145252e+00,0.000000000000000000e+00
3.550000000000000000e+02,6.134780472183670952e+00,0.000000000000000000e+00
3.560000000000000000e+02,2.351251447078989421e-01,1.000000000000000000e+00
3.570000000000000000e+02,-1.186789425459685132e+00,0.000000000000000000e+00
3.580000000000000000e+02,-5.540105204902563418e-01,0.000000000000000000e+00
3.590000000000000000e+02,-8.170262882695508155e-01,0.000000000000000000e+00
3.600000000000000000e+02,-4.437000481710302591e-01,0.000000000000000000e+00
3.610000000000000000e+02,-5.391415762607092432e-01,0.000000000000000000e+00
3.620000000000000000e+02,-4.076655838131738041e-01,0.000000000000000000e+00
3.630000000000000000e+02,-1.944575361707911731e-01,0.000000000000000000e+00
3.640000000000000000e+02,-2.353445651366127267e-01,0.000000000000000000e+00
3.650000000000000000e+02,-1.618449001634961540e-02,0.000000000000000000e+00
3.660000000000000000e+02,2.519984358692932691e-01,0.000000000000000000e+00
3.670000000000000000e+02,2.841793674869040887e-01,0.000000000000000000e+00
3.680000000000000000e+02,6.486176963440556387e-01,0.000000000000000000e+00
3.690000000000000000e+02,8.526967116980456174e-01,0.000000000000000000e+00
3.700000000000000000e+02,9.332995640549087701e-01,0.000000000000000000e+00
3.710000000000000000e+02,8.855650855634799035e-01,0.000000000000000000e+00
3.720000000000000000e+02,3.734984773569298144e-01,0.000000000000000000e+00
3.730000000000000000e+02,-4.356603679620314473e-01,0.000000000000000000e+00
3.740000000000000000e+02,-1.034667329671286939e+00,0.000000000000000000e+00
3.750000000000000000e+02,-1.276019627932708733e+00,0.000000000000000000e+00
3.760000000000000000e+02,-1.235428537445489416e+00,0.000000000000000000e+00
3.770000000000000000e+02,-1.154468719126786613e+00,0.000000000000000000e+00
3.780000000000000000e+02,-1.108012166040250657e+00,0.000000000000000000e+00
3.790000000000000000e+02,-9.624907450273099130e-01,0.000000000000000000e+00
3.800000000000000000e+02,-9.639792779115192722e-01,0.000000000000000000e+00
3.810000000000000000e+02,-7.477842825543052907e-01,0.000000000000000000e+00
3.820000000000000000e+02,-6.398291881721561714e-01,0.000000000000000000e+00
3.830000000000000000e+02,-6.405516605909935546e-01,0.000000000000000000e+00
3.840000000000000000e+02,-3.616307579197203803e-01,0.000000000000000000e+00
3.850000000000000000e+02,-2.414844162937372363e-01,0.000000000000000000e+00
3.860000000000000000e+02,-4.104303710171618436e-01,0.000000000000000000e+00
3.870000000000000000e+02,-1.659027611429382820e-01,0.000000000000000000e+00
3.880000000000000000e+02,-2.795765318090303042e-01,0.000000000000000000e+00
3.890000000000000000e+02,-2.394814939757159977e-01,0.000000000000000000e+00
3.900000000000000000e+02,-4.719178211317613669e-02,0.000000000000000000e+00
3.910000000000000000e+02,-9.944536741757240006e-02,0.000000000000000000e+00
3.920000000000000000e+02,-9.774812641135888214e-02,0.000000000000000000e+00
3.930000000000000000e+02,8.084400920171122551e-02,0.000000000000000000e+00
3.940000000000000000e+02,-5.006007240606579617e-02,0.000000000000000000e+00
3.950000000000000000e+02,7.655253664153423288e-02,0.000000000000000000e+00
3.960000000000000000e+02,1.797407061416431973e-01,0.000000000000000000e+00
3.970000000000000000e+02,9.624753283152494288e-02,0.000000000000000000e+00
3.980000000000000000e+02,3.115354616811168431e-01,0.000000000000000000e+00
3.990000000000000000e+02,4.480499293112628206e-02,0.000000000000000000e+00
4.000000000000000000e+02,2.416642334461353292e-01,0.000000000000000000e+00
4.010000000000000000e+02,2.192903089666774219e-01,0.000000000000000000e+00
4.020000000000000000e+02,2.256009754351220586e-01,0.000000000000000000e+00
4.030000000000000000e+02,4.660861597333437190e-01,0.000000000000000000e+00
4.040000000000000000e+02,4.743456332209899928e-01,0.000000000000000000e+00
4.050000000000000000e+02,6.922283492180038023e-01,0.000000000000000000e+00
4.060000000000000000e+02,4.060993798506864483e-01,0.000000000000000000e+00
4.070000000000000000e+02,3.014522249822105815e-01,0.000000000000000000e+00
4.080000000000000000e+02,1.996482662164143496e-01,0.000000000000000000e+00
4.090000000000000000e+02,1.126586134076561392e-02,0.000000000000000000e+00
4.100000000000000000e+02,1.854286720378107711e-01,0.000000000000000000e+00
4.110000000000000000e+02,-2.832166318003886962e-01,0.000000000000000000e+00
4.120000000000000000e+02,1.492052903492035121e+00,0.000000000000000000e+00
4.130000000000000000e+02,6.109876690963774060e+00,0.000000000000000000e+00
4.140000000000000000e+02,6.121329588436114078e-01,1.000000000000000000e+00
4.150000000000000000e+02,-1.134907970897602869e+00,0.000000000000000000e+00
4.160000000000000000e+02,-7.216874153679330162e-01,0.000000000000000000e+00
4.170000000000000000e+02,-6.979786767314308804e-01,0.000000000000000000e+00
4.180000000000000000e+02,-5.868631506543472431e-01,0.000000000000000000e+00
4.190000000000000000e+02,-4.632675961693578648e-01,0.000000000000000000e+00
4.200000000000000000e+02,-4.267969999413689375e-01,0.000000000000000000e+00
4.210000000000000000e+02,-2.900913231162294825e-01,0.000000000000000000e+00
4.220000000000000000e+02,-2.249653231420749300e-01,0.000000000000000000e+00
4.230000000000000000e+02,-7.721155055987814764e-02,0.000000000000000000e+00
4.240000000000000000e+02,2.493432387823879270e-01,0.000000000000000000e+00
4.250000000000000000e+02,3.683172292426671324e-01,0.000000000000000000e+00
4.260000000000000000e+02,5.053366483678457532e-01,0.000000000000000000e+00
4.270000000000000000e+02,7.995433673814890119e-01,0.000000000000000000e+00
4.280000000000000000e+02,1.020075184254801703e+00,0.000000000000000000e+00
4.290000000000000000e+02,8.862435978287388494e-01,0.000000000000000000e+00
4.300000000000000000e+02,4.126551398301499529e-01,0.000000000000000000e+00
4.310000000000000000e+02,-3.835485124854730032e-01,0.000000000000000000e+00
4.320000000000000000e+02,-9.103593372244445092e-01,0.000000000000000000e+00
4.330000000000000000e+02,-1.269320371477879794e+00,0.000000000000000000e+00
4.340000000000000000e+02,-1.134420891021844291e+00,0.000000000000000000e+00
4.350000000000000000e+02,-1.228721892424577300e+00,0.000000000000000000e+00
4.360000000000000000e+02,-9.102720838315135898e-01,0.000000000000000000e+00
4.370000000000000000e+02,-8.976346533765650060e-01,0.000000000000000000e+00
4.380000000000000000e+02,-8.807524055868649615e-01,0.000000000000000000e+00
4.390000000000000000e+02,-6.900669182844532124e-01,0.000000000000000000e+00
4.400000000000000000e+02,-6.404198770714090161e-01,0.000000000000000000e+00
4.410000000000000000e+02,-6.510637268240487829e-01,0.000000000000000000e+00
4.420000000000000000e+02,-2.394979446353099894e-01,0.000000000000000000e+00
4.430000000000000000e+02,-4.432019809636548180e-01,0.000000000000000000e+00
4.440000000000000000e+02,-3.782652835209457942e-01,0.000000000000000000e+00
4.450000000000000000e+02,-1.017425875963925003e-01,0.000000000000000000e+00
4.460000000000000000e+02,-1.690122334900937273e-01,0.000000000000000000e+00
4.470000000000000000e+02,-2.176874366063852873e-01,0.000000000000000000e+00
4.480000000000000000e+02,-1.311856965346363396e-02,0.000000000000000000e+00
4.490000000000000000e+02,-2.429559373466458685e-03,0.000000000000000000e+00
4.500000000000000000e+02,-1.283441129900163291e-01,0.000000000000000000e+00
4.510000000000000000e+02,1.783863181207487325e-01,0.000000000000000000e+00
4.520000000000000000e+02,2.534542837610949742e-02,0.000000000000000000e+00
4.530000000000000000e+02,5.712068490602523196e-02,0.000000000000000000e+00
4.540000000000000000e+02,1.551847929858978237e-01,0.000000000000000000e+00
4.550000000000000000e+02,2.664342299789104196e-01,0.000000000000000000e+00
4.560000000000000000e+02,1.024998782180507745e-01,0.000000000000000000e+00
4.570000000000000000e+02,2.894843871437953187e-01,0.000000000000000000e+00
4.580000000000000000e+02,2.036087507867148094e-01,0.000000000000000000e+00
4.590000000000000000e+02,3.709074257279296183e-01,0.000000000000000000e+00
4.600000000000000000e+02,2.212092649028968017e-01,0.000000000000000000e+00
4.610000000000000000e+02,3.794780739386476864e-01,0.000000000000000000e+00
4.620000000000000000e+02,4.430159287434773385e-01,0.000000000000000000e+00
4.630000000000000000e+02,7.774324000145582669e-01,0.000000000000000000e+00
4.640000000000000000e+02,5.202935062560968271e-01,0.000000000000000000e+00
4.650000000000000000e+02,4.644704119505289608e-01,0.000000000000000000e+00
4.660000000000000000e+02,3.824940155563404942e-01,0.000000000000000000e+00
4.670000000000000000e+02,1.168802888060996858e-01,0.000000000000000000e+00
4.680000000000000000e+02,-3.810992027686124772e-02,0.000000000000000000e+00
4.690000000000000000e+02,2.599803379786501667e-01,0.000000000000000000e+00
4.700000000000000000e+02,-3.627095401709813927e-01,0.000000000000000000e+00
4.710000000000000000e+02,4.222084111734296208e+00,0.000000000000000000e+00
4.720000000000000000e+02,4.611799113084432022e+00,0.000000000000000000e+00
4.730000000000000000e+02,-1.171329893214789974e+00,1.000000000000000000e+00
4.740000000000000000e+02,-4.844893115572260767e-01,0.000000000000000000e+00
4.750000000000000000e+02,-1.035675424571885550e+00,0.000000000000000000e+00
4.760000000000000000e+02,-4.722747656573457742e-01,0.000000000000000000e+00
4.770000000000000000e+02,-7.034870779455631995e-01,0.000000000000000000e+00
4.780000000000000000e+02,-4.387249988645867682e-01,0.000000000000000000e+00
4.790000000000000000e+02,-4.529558255660804944e-01,0.000000000000000000e+00
4.800000000000000000e+02,-2.360488326292524419e-01,0.000000000000000000e+00
4.810000000000000000e+02,-2.161435320579230823e-01,0.000000000000000000e+00
4.820000000000000000e+02,7.443652021802403540e-02,0.000000000000000000e+00
4.830000000000000000e+02,1.101603195018966697e-01,0.000000000000000000e+00
4.840000000000000000e+02,5.444147101701040103e-01,0.000000000000000000e+00
4.850000000000000000e+02,6.040441681357521242e-01,0.000000000000000000e+00
4.860000000000000000e+02,9.655082413546847153e-01,0.000000000000000000e+00
4.870000000000000000e+02,9.627292081636993348e-01,0.000000000000000000e+00
4.880000000000000000e+02,7.759161802325785784e-01,0.000000000000000000e+00
4.890000000000000000e+02,-2.253120019868448676e-02,0.000000000000000000e+00
4.900000000000000000e+02,-7.094470118941212933e-01,0.000000000000000000e+00
4.910000000000000000e+02,-1.279585899294676254e+00,0.000000000000000000e+00
4.920000000000000000e+02,-1.226834389248011803e+00,0.000000000000000000e+00
4.930000000000000000e+02,-1.282677380333125283e+00,0.000000000000000000e+00
4.940000000000000000e+02,-1.049037731954713282e+00,0.000000000000000000e+00
4.950000000000000000e+02,-1.003920618959009969e+00,0.000000000000000000e+00
4.960000000000000000e+02,-9.828312267192227392e-01,0.000000000000000000e+00
4.970000000000000000e+02,-8.642202695258653922e-01,0.000000000000000000e+00
4.980000000000000000e+02,-7.734967866308449791e-01,0.000000000000000000e+00
4.990000000000000000e+02,-7.086250468167317740e-01,0.000000000000000000e+00
5.000000000000000000e+02,-4.166879076225120659e-01,0.000000000000000000e+00
5.010000000000000000e+02,-5.758562876029142963e-01,0.000000000000000000e+00
5.020000000000000000e+02,-3.285146952785082952e-01,0.000000000000000000e+00
5.030000000000000000e+02,-4.380489341691050642e-01,0.000000000000000000e+00
5.040000000000000000e+02,-1.740155832150457327e-01,0.000000000000000000e+00
5.050000000000000000e+02,-3.592668937799615714e-01,0.000000000000000000e+00
5.060000000000000000e+02,-1.206028270762756881e-03,0.000000000000000000e+00
5.070000000000000000e+02,-1.778564135755785758e-01,0.000000000000000000e+00
5.080000000000000000e+02,-1.931594062442971993e-02,0.000000000000000000e+00
5.090000000000000000e+02,2.007907573180959734e-02,0.000000000000000000e+00
5.100000000000000000e+02,-2.437232427365626855e-02,0.000000000000000000e+00
5.110000000000000000e+02,9.407417192027900388e-02,0.000000000000000000e+00
5.120000000000000000e+02,1.739853629672888369e-01,0.000000000000000000e+00
5.130000000000000000e+02,1.119425926855037168e-01,0.000000000000000000e+00
5.140000000000000000e+02,2.255194498545241566e-01,0.000000000000000000e+00
5.150000000000000000e+02,1.766940666734712617e-01,0.000000000000000000e+00
5.160000000000000000e+02,3.182126196858063860e-01,0.000000000000000000e+00
5.170000000000000000e+02,1.864921609053805385e-01,0.000000000000000000e+00
5.180000000000000000e+02,4.386967762625231804e-01,0.000000000000000000e+00
5.190000000000000000e+02,1.841429997145559994e-01,0.000000000000000000e+00
5.200000000000000000e+02,3.286581190374280870e-01,0.000000000000000000e+00
5.210000000000000000e+02,5.693728890067893955e-01,0.000000000000000000e+00
5.220000000000000000e+02,7.553441145877880514e-01,0.000000000000000000e+00
5.230000000000000000e+02,3.272999414678825492e-01,0.000000000000000000e+00
5.240000000000000000e+02,5.884907809030265335e-01,0.000000000000000000e+00
5.250000000000000000e+02,8.573135066845594121e-02,0.000000000000000000e+00
5.260000000000000000e+02,1.538158893439141028e-01,0.000000000000000000e+00
5.270000000000000000e+02,3.401455503082505966e-02,0.000000000000000000e+00
5.280000000000000000e+02,-1.593980524262695805e-02,0.000000000000000000e+00
5.290000000000000000e+02,5.962534352796810405e-02,0.000000000000000000e+00
5.300000000000000000e+02,5.716127322229658247e+00,0.000000000000000000e+00
5.310000000000000000e+02,2.931708286214127046e+00,1.000000000000000000e+00
5.320000000000000000e+02,-1.582601436698420461e+00,0.000000000000000000e+00
5.330000000000000000e+02,-3.947962642912437592e-01,0.000000000000000000e+00
5.340000000000000000e+02,-1.077054848834892553e+00,0.000000000000000000e+00
5.350000000000000000e+02,-4.858131849264958335e-01,0.000000000000000000e+00
5.360000000000000000e+02,-8.026928561895078085e-01,0.000000000000000000e+00
5.370000000000000000e+02,-3.979315456712216870e-01,0.000000000000000000e+00
5.380000000000000000e+02,-4.935196196106670374e-01,0.000000000000000000e+00
5.390000000000000000e+02,-1.955595347154905350e-01,0.000000000000000000e+00
5.400000000000000000e+02,-2.141079168163095015e-01,0.000000000000000000e+00
5.410000000000000000e+02,4.781461707512619369e-02,0.000000000000000000e+00
5.420000000000000000e+02,1.511917429269180047e-01,0.000000000000000000e+00
5.430000000000000000e+02,5.167616224533160274e-01,0.000000000000000000e+00
5.440000000000000000e+02,6.792921552988315792e-01,0.000000000000000000e+00
5.450000000000000000e+02,8.744166162723994162e-01,0.000000000000000000e+00
5.460000000000000000e+02,8.758251370740410824e-01,0.000000000000000000e+00
5.470000000000000000e+02,4.730646010103711219e-01,0.000000000000000000e+00
5.480000000000000000e+02,-2.639904474444406124e-01,0.000000000000000000e+00
5.490000000000000000e+02,-8.166900879695888626e-01,0.000000000000000000e+00
5.500000000000000000e+02,-1.175918573646911991e+00,0.000000000000000000e+00
5.510000000000000000e+02,-1.287015845161854299e+00,0.000000000000000000e+00
5.520000000000000000e+02,-1.199755120170816536e+00,0.000000000000000000e+00
5.530000000000000000e+02,-1.172903801808196311e+00,0.000000000000000000e+00
5.540000000000000000e+02,-9.442880630711202317e-01,0.000000000000000000e+00
5.550000000000000000e+02,-9.313758559364021528e-01,0.000000000000000000e+00
5.560000000000000000e+02,-7.747732958662953973e-01,0.000000000000000000e+00
5.570000000000000000e+02,-7.133192296082616624e-01,0.000000000000000000e+00
5.580000000000000000e+02,-6.480590831030258459e-01,0.000000000000000000e+00
5.590000000000000000e+02,-4.963424688857769884e-01,0.000000000000000000e+00
5.600000000000000000e+02,-5.749288231047825493e-01,0.000000000000000000e+00
5.610000000000000000e+02,-3.333995975877624418e-01,0.000000000000000000e+00
5.620000000000000000e+02,-3.633916218850329893e-01,0.000000000000000000e+00
5.630000000000000000e+02,-7.530503471832170059e-02,0.000000000000000000e+00
5.640000000000000000e+02,-1.441030451185162098e-01,0.000000000000000000e+00
5.650000000000000000e+02,-1.822333914670930810e-01,0.000000000000000000e+00
5.660000000000000000e+02,-4.738592650567138159e-02,0.000000000000000000e+00
5.670000000000000000e+02,-1.019111573832386514e-01,0.000000000000000000e+00
5.680000000000000000e+02,7.907871158420768168e-03,0.000000000000000000e+00
5.690000000000000000e+02,2.370386325672906025e-01,0.000000000000000000e+00
5.700000000000000000e+02,1.173471630228587470e-01,0.000000000000000000e+00
5.710000000000000000e+02,1.957943624618234402e-01,0.000000000000000000e+00
5.720000000000000000e+02,1.381773541046165121e-01,0.000000000000000000e+00
5.730000000000000000e+02,2.944959371645274882e-01,0.000000000000000000e+00
5.740000000000000000e+02,8.943927130374421108e-02,0.000000000000000000e+00
5.750000000000000000e+02,3.676615748870707412e-01,0.000000000000000000e+00
5.760000000000000000e+02,1.895661664711458805e-01,0.000000000000000000e+00
5.770000000000000000e+02,4.071178808932420234e-01,0.000000000000000000e+00
5.780000000000000000e+02,4.164010776576316242e-01,0.000000000000000000e+00
5.790000000000000000e+02,6.727787129058413473e-01,0.000000000000000000e+00
5.800000000000000000e+02,6.013699128826091034e-01,0.000000000000000000e+00
5.810000000000000000e+02,4.627201191675631708e-01,0.000000000000000000e+00
5.820000000000000000e+02,3.086507520018125783e-01,0.000000000000000000e+00
5.830000000000000000e+02,2.640509241281177033e-01,0.000000000000000000e+00
5.840000000000000000e+02,1.258404248095046363e-01,0.000000000000000000e+00
5.850000000000000000e+02,1.989782198773314970e-01,0.000000000000000000e+00
5.860000000000000000e+02,-4.066807708854988657e-01,0.000000000000000000e+00
5.870000000000000000e+02,2.782429217992775428e+00,0.000000000000000000e+00
5.880000000000000000e+02,5.788132994737044790e+00,0.000000000000000000e+00
5.890000000000000000e+02,-5.967891261818802917e-01,1.000000000000000000e+00
5.900000000000000000e+02,-8.360445500645355965e-01,0.000000000000000000e+00
5.910000000000000000e+02,-7.518982441737407374e-01,0.000000000000000000e+00
5.920000000000000000e+02,-6.021119538317428743e-01,0.000000000000000000e+00
5.930000000000000000e+02,-6.362551894833438082e-01,0.000000000000000000e+00
5.940000000000000000e+02,-3.859785642961893193e-01,0.000000000000000000e+00
5.950000000000000000e+02,-4.644456232007594387e-01,0.000000000000000000e+00
5.960000000000000000e+02,-1.694322285961473162e-01,0.000000000000000000e+00
5.970000000000000000e+02,-2.695645515312115603e-01,0.000000000000000000e+00
5.980000000000000000e+02,1.455548016996375815e-01,0.000000000000000000e+00
5.990000000000000000e+02,7.205664127206065639e-02,0.000000000000000000e+00
6.000000000000000000e+02,5.085058911514249713e-01,0.000000000000000000e+00
6.010000000000000000e+02,6.216155416373393416e-01,0.000000000000000000e+00
6.020000000000000000e+02,9.570267385417137174e-01,0.000000000000000000e+00
6.030000000000000000e+02,8.784880330202707865e-01,0.000000000000000000e+00
6.040000000000000000e+02,8.785083922096569298e-01,0.000000000000000000e+00
6.050000000000000000e+02,2.556508025854414834e-01,0.000000000000000000e+00
6.060000000000000000e+02,-7.049037408940992400e-01,0.000000000000000000e+00
6.070000000000000000e+02,-9.296367512153302926e-01,0.000000000000000000e+00
6.080000000000000000e+02,-1.334633362145017266e+00,0.000000000000000000e+00
6.090000000000000000e+02,-1.255250181621392347e+00,0.000000000000000000e+00
6.100000000000000000e+02,-1.131749439851816863e+00,0.000000000000000000e+00
6.110000000000000000e+02,-1.084727984741228113e+00,0.000000000000000000e+00
6.120000000000000000e+02,-9.057084291663979325e-01,0.000000000000000000e+00
6.130000000000000000e+02,-8.678184319984757478e-01,0.000000000000000000e+00
6.140000000000000000e+02,-6.782900837412044748e-01,0.000000000000000000e+00
6.150000000000000000e+02,-5.816123549508355195e-01,0.000000000000000000e+00
6.160000000000000000e+02,-5.120409563250241103e-01,0.000000000000000000e+00
6.170000000000000000e+02,-4.192573226123268992e-01,0.000000000000000000e+00
6.180000000000000000e+02,-2.454661618931616718e-01,0.000000000000000000e+00
6.190000000000000000e+02,-2.314351424494357767e-01,0.000000000000000000e+00
6.200000000000000000e+02,-6.874978709470651317e-02,0.000000000000000000e+00
6.210000000000000000e+02,-2.269707406442320330e-01,0.000000000000000000e+00
6.220000000000000000e+02,-3.063302044830872733e-02,0.000000000000000000e+00
6.230000000000000000e+02,-1.718201675243836990e-01,0.000000000000000000e+00
6.240000000000000000e+02,2.850479339737482451e-02,0.000000000000000000e+00
6.250000000000000000e+02,-2.069528763801232324e-02,0.000000000000000000e+00
6.260000000000000000e+02,9.918645101798494179e-02,0.000000000000000000e+00
6.270000000000000000e+02,1.101790065559092452e-01,0.000000000000000000e+00
6.280000000000000000e+02,1.546812758181854153e-01,0.000000000000000000e+00
6.290000000000000000e+02,1.013196310763524732e-01,0.000000000000000000e+00
6.300000000000000000e+02,2.766577099038456389e-01,0.000000000000000000e+00
6.310000000000000000e+02,-3.962081238162726976e-02,0.000000000000000000e+00
6.320000000000000000e+02,2.868365057041270538e-01,0.000000000000000000e+00
6.330000000000000000e+02,1.709801426610907116e-01,0.000000000000000000e+00
6.340000000000000000e+02,3.067159760811962177e-01,0.000000000000000000e+00
6.350000000000000000e+02,2.196346053133332588e-01,0.000000000000000000e+00
6.360000000000000000e+02,3.262624866346247599e-01,0.000000000000000000e+00
6.370000000000000000e+02,6.562157609033486549e-01,0.000000000000000000e+00
6.380000000000000000e+02,5.429584555357063191e-01,0.000000000000000000e+00
6.390000000000000000e+02,4.531808105543558840e-01,0.000000000000000000e+00
6.400000000000000000e+02,2.725823937094859484e-01,0.000000000000000000e+00
6.410000000000000000e+02,1.928778678550066017e-01,0.000000000000000000e+00
6.420000000000000000e+02,-1.913472180462396375e-03,0.000000000000000000e+00
6.430000000000000000e+02,1.852952212139660493e-01,0.000000000000000000e+00
6.440000000000000000e+02,-5.147691736772560533e-01,0.000000000000000000e+00
6.450000000000000000e+02,1.604516465488205590e+00,0.000000000000000000e+00
6.460000000000000000e+02,6.145258601851693925e+00,0.000000000000000000e+00
6.470000000000000000e+02,3.337550823998329252e-01,1.000000000000000000e+00
6.480000000000000000e+02,-1.130905001330529291e+00,0.000000000000000000e+00
6.490000000000000000e+02,-5.999413549433768589e-01,0.000000000000000000e+00
6.500000000000000000e+02,-9.929708337404015150e-01,0.000000000000000000e+00
6.510000000000000000e+02,-5.951189372360506935e-01,0.000000000000000000e+00
6.520000000000000000e+02,-4.614328829090209583e-01,0.000000000000000000e+00
6.530000000000000000e+02,-5.906444108336337262e-01,0.000000000000000000e+00
6.540000000000000000e+02,-3.533331664576103148e-01,0.000000000000000000e+00
6.550000000000000000e+02,-2.097031038325190555e-01,0.000000000000000000e+00
6.560000000000000000e+02,-1.156470261357183116e-01,0.000000000000000000e+00
6.570000000000000000e+02,6.377878718749305231e-02,0.000000000000000000e+00
6.580000000000000000e+02,4.031192415764553449e-01,0.000000000000000000e+00
6.590000000000000000e+02,4.958776004480058841e-01,0.000000000000000000e+00
6.600000000000000000e+02,7.780733574148879228e-01,0.000000000000000000e+00
6.610000000000000000e+02,1.043923120157744577e+00,0.000000000000000000e+00
6.620000000000000000e+02,9.836023339467404591e-01,0.000000000000000000e+00
6.630000000000000000e+02,1.820202577318435211e-01,0.000000000000000000e+00
6.640000000000000000e+02,-4.128129936280316992e-01,0.000000000000000000e+00
6.650000000000000000e+02,-9.731617774406764454e-01,0.000000000000000000e+00
6.660000000000000000e+02,-1.239850890326261279e+00,0.000000000000000000e+00
6.670000000000000000e+02,-1.175788052498429215e+00,0.000000000000000000e+00
6.680000000000000000e+02,-1.193944802749607126e+00,0.000000000000000000e+00
6.690000000000000000e+02,-8.761230667492656554e-01,0.000000000000000000e+00
6.700000000000000000e+02,-1.000722967664511298e+00,0.000000000000000000e+00
6.710000000000000000e+02,-7.956118261642328715e-01,0.000000000000000000e+00
6.720000000000000000e+02,-6.888707908766845689e-01,0.000000000000000000e+00
6.730000000000000000e+02,-7.975373848140665523e-01,0.000000000000000000e+00
6.740000000000000000e+02,-5.119127840538336693e-01,0.000000000000000000e+00
6.750000000000000000e+02,-4.544725834117129271e-01,0.000000000000000000e+00
6.760000000000000000e+02,-4.556682709108624274e-01,0.000000000000000000e+00
6.770000000000000000e+02,-3.604026882698050938e-01,0.000000000000000000e+00
6.780000000000000000e+02,-1.782051990948595732e-01,0.000000000000000000e+00
6.790000000000000000e+02,-1.464069479252919637e-01,0.000000000000000000e+00
6.800000000000000000e+02,-2.099025743274779421e-01,0.000000000000000000e+00
6.810000000000000000e+02,1.354376160871542667e-02,0.000000000000000000e+00
6.820000000000000000e+02,-4.076036649189242883e-02,0.000000000000000000e+00
6.830000000000000000e+02,-2.073940639918823645e-02,0.000000000000000000e+00
6.840000000000000000e+02,5.374606419679574948e-02,0.000000000000000000e+00
6.850000000000000000e+02,9.769224700302561737e-02,0.000000000000000000e+00
6.860000000000000000e+02,1.692114463255117440e-01,0.000000000000000000e+00
6.870000000000000000e+02,1.052759431679570340e-01,0.000000000000000000e+00
6.880000000000000000e+02,2.771858677252836411e-01,0.000000000000000000e+00
6.890000000000000000e+02,-5.180065010850311985e-02,0.000000000000000000e+00
6.900000000000000000e+02,2.984072179491568111e-01,0.000000000000000000e+00
6.910000000000000000e+02,2.762078864640897802e-01,0.000000000000000000e+00
6.920000000000000000e+02,2.055653223100585569e-01,0.000000000000000000e+00
6.930000000000000000e+02,1.139412567919503988e-01,0.000000000000000000e+00
6.940000000000000000e+02,3.135739225179976497e-01,0.000000000000000000e+00
6.950000000000000000e+02,3.734533706018922095e-01,0.000000000000000000e+00
6.960000000000000000e+02,4.771958485883545098e-01,0.000000000000000000e+00
6.970000000000000000e+02,4.794801484765663924e-01,0.000000000000000000e+00
6.980000000000000000e+02,5.146788010522552748e-01,0.000000000000000000e+00
6.990000000000000000e+02,3.310213493398435070e-01,0.000000000000000000e+00
7.000000000000000000e+02,8.908813129160180616e-03,0.000000000000000000e+00
7.010000000000000000e+02,1.118575574597124034e-01,0.000000000000000000e+00
7.020000000000000000e+02,1.312041588613396814e-01,0.000000000000000000e+00
7.030000000000000000e+02,-6.452814743437074174e-01,0.000000000000000000e+00
7.040000000000000000e+02,1.902407215946445129e+00,0.000000000000000000e+00
7.050000000000000000e+02,5.965709496683811786e+00,0.000000000000000000e+00
7.060000000000000000e+02,3.917676119197623930e-01,1.000000000000000000e+00
7.070000000000000000e+02,-1.109646716983065717e+00,0.000000000000000000e+00
7.080000000000000000e+02,-6.206362642011494790e-01,0.000000000000000000e+00
7.090000000000000000e+02,-7.493022819625094755e-01,0.000000000000000000e+00
7.100000000000000000e+02,-7.067603646622310221e-01,0.000000000000000000e+00
7.110000000000000000e+02,-5.466190893286071439e-01,0.000000000000000000e+00
7.120000000000000000e+02,-2.995848534931611629e-01,0.000000000000000000e+00
7.130000000000000000e+02,-3.364461649509633556e-01,0.000000000000000000e+00
7.140000000000000000e+02,-8.640564987652811502e-02,0.000000000000000000e+00
7.150000000000000000e+02,-3.041369038795822821e-03,0.000000000000000000e+00
7.160000000000000000e+02,8.163575922892805925e-02,0.000000000000000000e+00
7.170000000000000000e+02,3.869342063790215391e-01,0.000000000000000000e+00
7.180000000000000000e+02,8.245158085389305835e-01,0.000000000000000000e+00
7.190000000000000000e+02,9.245603504807184958e-01,0.000000000000000000e+00
7.200000000000000000e+02,9.982867524912187873e-01,0.000000000000000000e+00
7.210000000000000000e+02,9.537328642077644858e-01,0.000000000000000000e+00
7.220000000000000000e+02,4.485290771472489890e-01,0.000000000000000000e+00
7.230000000000000000e+02,-5.548885817310590385e-01,0.000000000000000000e+00
7.240000000000000000e+02,-9.415221653478328401e-01,0.000000000000000000e+00
7.250000000000000000e+02,-1.210333807984979027e+00,0.000000000000000000e+00
7.260000000000000000e+02,-1.150482203488994326e+00,0.000000000000000000e+00
7.270000000000000000e+02,-1.273702415090188556e+00,0.000000000000000000e+00
7.280000000000000000e+02,-1.096976697262179501e+00,0.000000000000000000e+00
7.290000000000000000e+02,-9.699211903290917425e-01,0.000000000000000000e+00
7.300000000000000000e+02,-7.650713156073513099e-01,0.000000000000000000e+00
7.310000000000000000e+02,-8.167438441684128358e-01,0.000000000000000000e+00
7.320000000000000000e+02,-6.248181494141202830e-01,0.000000000000000000e+00
7.330000000000000000e+02,-5.813976843249626381e-01,0.000000000000000000e+00
7.340000000000000000e+02,-5.881835984883341251e-01,0.000000000000000000e+00
7.350000000000000000e+02,-4.287591099016212493e-01,0.000000000000000000e+00
7.360000000000000000e+02,-4.605840119476625749e-01,0.000000000000000000e+00
7.370000000000000000e+02,-1.859564174359402688e-01,0.000000000000000000e+00
7.380000000000000000e+02,-2.996562062108456548e-01,0.000000000000000000e+00
7.390000000000000000e+02,-1.273698083840250628e-01,0.000000000000000000e+00
7.400000000000000000e+02,-7.884848724790546881e-02,0.000000000000000000e+00
7.410000000000000000e+02,-1.243580446220777930e-01,0.000000000000000000e+00
7.420000000000000000e+02,-4.597607365741084723e-02,0.000000000000000000e+00
7.430000000000000000e+02,-2.365271116063666704e-02,0.000000000000000000e+00
7.440000000000000000e+02,1.346972353143865153e-01,0.000000000000000000e+00
7.450000000000000000e+02,4.109927936701621154e-02,0.000000000000000000e+00
7.460000000000000000e+02,9.632590167554304361e-02,0.000000000000000000e+00
7.470000000000000000e+02,2.138129522892252832e-01,0.000000000000000000e+00
7.480000000000000000e+02,2.313168795879045059e-01,0.000000000000000000e+00
7.490000000000000000e+02,1.720249590378984672e-01,0.000000000000000000e+00
7.500000000000000000e+02,3.280205100774579718e-01,0.000000000000000000e+00
7.510000000000000000e+02,2.715063874919387277e-01,0.000000000000000000e+00
7.520000000000000000e+02,3.164755174936270676e-01,0.000000000000000000e+00
7.530000000000000000e+02,3.432917449726858306e-01,0.000000000000000000e+00
7.540000000000000000e+02,4.290673822219580602e-01,0.000000000000000000e+00
7.550000000000000000e+02,6.899278904505171672e-01,0.000000000000000000e+00
7.560000000000000000e+02,6.701483702028304679e-01,0.000000000000000000e+00
7.570000000000000000e+02,4.261491824128130212e-01,0.000000000000000000e+00
7.580000000000000000e+02,5.593267489083383337e-01,0.000000000000000000e+00
7.590000000000000000e+02,8.263376261984425875e-02,0.000000000000000000e+00
7.600000000000000000e+02,1.041400982397796132e-01,0.000000000000000000e+00
7.610000000000000000e+02,6.144845944367580831e-02,0.000000000000000000e+00
7.620000000000000000e+02,-2.445478721653251974e-01,0.000000000000000000e+00
7.630000000000000000e+02,1.509231743758981503e+00,0.000000000000000000e+00
7.640000000000000000e+02,6.260146295564178232e+00,0.000000000000000000e+00
7.650000000000000000e+02,6.136424530490783846e-01,1.000000000000000000e+00
7.660000000000000000e+02,-1.227212221982993956e+00,0.000000000000000000e+00
7.670000000000000000e+02,-7.213007974683695034e-01,0.000000000000000000e+00
7.680000000000000000e+02,-7.412438818503302995e-01,0.000000000000000000e+00
7.690000000000000000e+02,-7.140607025654922557e-01,0.000000000000000000e+00
7.700000000000000000e+02,-4.443614574348782043e-01,0.000000000000000000e+00
7.710000000000000000e+02,-4.091761414679311315e-01,0.000000000000000000e+00
7.720000000000000000e+02,-3.761069466420580154e-01,0.000000000000000000e+00
7.730000000000000000e+02,-8.124932644525004188e-02,0.000000000000000000e+00
7.740000000000000000e+02,-1.632953699838260442e-01,0.000000000000000000e+00
7.750000000000000000e+02,2.522688362386585337e-01,0.000000000000000000e+00
7.760000000000000000e+02,3.049973667972319391e-01,0.000000000000000000e+00
7.770000000000000000e+02,4.605983237261433438e-01,0.000000000000000000e+00
7.780000000000000000e+02,8.387628920481695616e-01,0.000000000000000000e+00
7.790000000000000000e+02,8.659624974753942217e-01,0.000000000000000000e+00
7.800000000000000000e+02,8.772234217422705260e-01,0.000000000000000000e+00
7.810000000000000000e+02,3.187901139174979526e-01,0.000000000000000000e+00
7.820000000000000000e+02,-5.593284354740535314e-01,0.000000000000000000e+00
7.830000000000000000e+02,-1.045587991439706599e+00,0.000000000000000000e+00
7.840000000000000000e+02,-1.326265940330828785e+00,0.000000000000000000e+00
7.850000000000000000e+02,-1.225702253452781942e+00,0.000000000000000000e+00
7.860000000000000000e+02,-1.142675125446326323e+00,0.000000000000000000e+00
7.870000000000000000e+02,-1.100157018841843026e+00,0.000000000000000000e+00
7.880000000000000000e+02,-7.573851788535447271e-01,0.000000000000000000e+00
7.890000000000000000e+02,-1.042299628146866386e+00,0.000000000000000000e+00
7.900000000000000000e+02,-5.727608756077658958e-01,0.000000000000000000e+00
7.910000000000000000e+02,-6.705055324452422472e-01,0.000000000000000000e+00
7.920000000000000000e+02,-3.795174536984489699e-01,0.000000000000000000e+00
7.930000000000000000e+02,-3.710776741489426600e-01,0.000000000000000000e+00
7.940000000000000000e+02,-2.988770921788762025e-01,0.000000000000000000e+00
7.950000000000000000e+02,-1.875389138180449389e-01,0.000000000000000000e+00
7.960000000000000000e+02,-7.151696879800038820e-02,0.000000000000000000e+00
7.970000000000000000e+02,-2.358538482929876667e-01,0.000000000000000000e+00
7.980000000000000000e+02,1.233198127880697458e-02,0.000000000000000000e+00
7.990000000000000000e+02,-7.940001135076067001e-03,0.000000000000000000e+00
8.000000000000000000e+02,2.566080111587734983e-02,0.000000000000000000e+00
8.010000000000000000e+02,3.872115105198838114e-02,0.000000000000000000e+00
8.020000000000000000e+02,2.202487149482315956e-02,0.000000000000000000e+00
8.030000000000000000e+02,1.043981880745296492e-01,0.000000000000000000e+00
8.040000000000000000e+02,1.778417569733711789e-01,0.000000000000000000e+00
8.050000000000000000e+02,1.085875344005720194e-01,0.000000000000000000e+00
8.060000000000000000e+02,2.157141485319866991e-01,0.000000000000000000e+00
8.070000000000000000e+02,1.510414704330174662e-01,0.000000000000000000e+00
8.080000000000000000e+02,2.763477828528248526e-01,0.000000000000000000e+00
8.090000000000000000e+02,-5.677568298530679368e-03,0.000000000000000000e+00
8.100000000000000000e+02,3.418473751872184163e-01,0.000000000000000000e+00
8.110000000000000000e+02,1.720663517106135187e-01,0.000000000000000000e+00
8.120000000000000000e+02,4.034361950496792026e-01,0.000000000000000000e+00
8.130000000000000000e+02,3.005702897925056072e-01,0.000000000000000000e+00
8.140000000000000000e+02,7.322580769880872031e-01,0.000000000000000000e+00
8.150000000000000000e+02,2.822579428160711945e-01,0.000000000000000000e+00
8.160000000000000000e+02,4.951878821020061494e-01,0.000000000000000000e+00
8.170000000000000000e+02,1.222393354339826183e-01,0.000000000000000000e+00
8.180000000000000000e+02,1.069141870704743563e-01,0.000000000000000000e+00
8.190000000000000000e+02,-1.558638611202797786e-01,0.000000000000000000e+00
8.200000000000000000e+02,1.893119474041601025e-01,0.000000000000000000e+00
8.210000000000000000e+02,-4.098244061687827400e-01,0.000000000000000000e+00
8.220000000000000000e+02,5.076200689306726410e+00,0.000000000000000000e+00
8.230000000000000000e+02,3.612250586446223544e+00,1.000000000000000000e+00
8.240000000000000000e+02,-1.741059034017924390e+00,0.000000000000000000e+00
8.250000000000000000e+02,-3.861617970820606094e-01,0.000000000000000000e+00
8.260000000000000000e+02,-1.033746661479887585e+00,0.000000000000000000e+00
8.270000000000000000e+02,-5.102693340168686920e-01,0.000000000000000000e+00
8.280000000000000000e+02,-5.213815356300975923e-01,0.000000000000000000e+00
8.290000000000000000e+02,-5.180068445939232102e-01,0.000000000000000000e+00
8.300000000000000000e+02,-3.923080567442456257e-01,0.000000000000000000e+00
8.310000000000000000e+02,-4.447525016613539106e-02,0.000000000000000000e+00
8.320000000000000000e+02,-3.154244926645080049e-01,0.000000000000000000e+00
8.330000000000000000e+02,3.931667122387167562e-02,0.000000000000000000e+00
8.340000000000000000e+02,1.659436818066575836e-01,0.000000000000000000e+00
8.350000000000000000e+02,4.927539224919468275e-01,0.000000000000000000e+00
8.360000000000000000e+02,6.231805132941031777e-01,0.000000000000000000e+00
8.370000000000000000e+02,9.794360970313490400e-01,0.000000000000000000e+00
8.380000000000000000e+02,8.514105699469051158e-01,0.000000000000000000e+00
8.390000000000000000e+02,6.657914859326209411e-01,0.000000000000000000e+00
8.400000000000000000e+02,-3.735764433851051503e-01,0.000000000000000000e+00
8.410000000000000000e+02,-6.961857203589658649e-01,0.000000000000000000e+00
8.420000000000000000e+02,-1.158098528068476796e+00,0.000000000000000000e+00
8.430000000000000000e+02,-1.304716016017359648e+00,0.000000000000000000e+00
8.440000000000000000e+02,-1.333161876226920395e+00,0.000000000000000000e+00
8.450000000000000000e+02,-1.097756153091202114e+00,0.000000000000000000e+00
8.460000000000000000e+02,-1.199122048200407908e+00,0.000000000000000000e+00
8.470000000000000000e+02,-9.280970494793198133e-01,0.000000000000000000e+00
8.480000000000000000e+02,-8.291618045739110876e-01,0.000000000000000000e+00
8.490000000000000000e+02,-7.610960977650402803e-01,0.000000000000000000e+00
8.500000000000000000e+02,-7.554127106022946458e-01,0.000000000000000000e+00
8.510000000000000000e+02,-5.177796992514476226e-01,0.000000000000000000e+00
8.520000000000000000e+02,-4.938786080181383209e-01,0.000000000000000000e+00
8.530000000000000000e+02,-4.502550192160377218e-01,0.000000000000000000e+00
8.540000000000000000e+02,-2.009864757669342084e-01,0.000000000000000000e+00
8.550000000000000000e+02,-2.580325796840970964e-01,0.000000000000000000e+00
8.560000000000000000e+02,-1.420501367343655064e-01,0.000000000000000000e+00
8.570000000000000000e+02,-8.485960478739423829e-02,0.000000000000000000e+00
8.580000000000000000e+02,-1.737154570431588274e-01,0.000000000000000000e+00
8.590000000000000000e+02,-2.691376241083412793e-02,0.000000000000000000e+00
8.600000000000000000e+02,-2.205486158611234121e-02,0.000000000000000000e+00
8.610000000000000000e+02,1.555717134708443916e-01,0.000000000000000000e+00
8.620000000000000000e+02,1.627840813810767784e-01,0.000000000000000000e+00
8.630000000000000000e+02,2.207612096321368289e-01,0.000000000000000000e+00
8.640000000000000000e+02,2.420242650150534469e-01,0.000000000000000000e+00
8.650000000000000000e+02,2.390355499384949900e-01,0.000000000000000000e+00
8.660000000000000000e+02,2.931745329014824319e-01,0.000000000000000000e+00
8.670000000000000000e+02,3.587881009219121009e-01,0.000000000000000000e+00
8.680000000000000000e+02,2.395861420627828642e-01,0.000000000000000000e+00
8.690000000000000000e+02,3.761566557184868875e-01,0.000000000000000000e+00
8.700000000000000000e+02,5.107886877529931313e-01,0.000000000000000000e+00
8.710000000000000000e+02,5.977468318570831052e-01,0.000000000000000000e+00
8.720000000000000000e+02,4.498338038215738410e-01,0.000000000000000000e+00
8.730000000000000000e+02,8.948476700321102983e-01,0.000000000000000000e+00
8.740000000000000000e+02,6.457477404800111564e-01,0.000000000000000000e+00
8.750000000000000000e+02,7.252518471025648505e-01,0.000000000000000000e+00
8.760000000000000000e+02,2.281616549420794060e-01,0.000000000000000000e+00
8.770000000000000000e+02,3.169255796133638725e-01,0.000000000000000000e+00
8.780000000000000000e+02,1.113584128461682227e-01,0.000000000000000000e+00
8.790000000000000000e+02,2.000331295367971385e-01,0.000000000000000000e+00
8.800000000000000000e+02,-4.155631768881849486e-01,0.000000000000000000e+00
8.810000000000000000e+02,3.913948247457549101e+00,0.000000000000000000e+00
8.820000000000000000e+02,4.933620612659792570e+00,0.000000000000000000e+00
8.830000000000000000e+02,-1.017433496248403957e+00,1.000000000000000000e+00
8.840000000000000000e+02,-6.208095338330159585e-01,0.000000000000000000e+00
8.850000000000000000e+02,-9.817631717049132289e-01,0.000000000000000000e+00
8.860000000000000000e+02,-6.036847018272973875e-01,0.000000000000000000e+00
8.870000000000000000e+02,-7.129735396431134964e-01,0.000000000000000000e+00
8.880000000000000000e+02,-4.164437857567245271e-01,0.000000000000000000e+00
8.890000000000000000e+02,-6.315360159163819764e-01,0.000000000000000000e+00
8.900000000000000000e+02,-9.528119093837567055e-02,0.000000000000000000e+00
8.910000000000000000e+02,-3.220007500328762595e-01,0.000000000000000000e+00
8.920000000000000000e+02,8.834311879189747641e-02,0.000000000000000000e+00
8.930000000000000000e+02,1.274731263635329181e-01,0.000000000000000000e+00
8.940000000000000000e+02,4.542564200444079714e-01,0.000000000000000000e+00
8.950000000000000000e+02,5.709542480651988994e-01,0.000000000000000000e+00
8.960000000000000000e+02,8.225263526841330997e-01,0.000000000000000000e+00
8.970000000000000000e+02,1.015611875046413815e+00,0.000000000000000000e+00
8.980000000000000000e+02,7.150554180607069377e-01,0.000000000000000000e+00
8.990000000000000000e+02,4.379791226883594443e-03,0.000000000000000000e+00
9.000000000000000000e+02,-5.747257491510360250e-01,0.000000000000000000e+00
9.010000000000000000e+02,-1.162494635453325431e+00,0.000000000000000000e+00
9.020000000000000000e+02,-1.172988968872109572e+00,0.000000000000000000e+00
9.030000000000000000e+02,-1.344760917482870966e+00,0.000000000000000000e+00
9.040000000000000000e+02,-1.024019118788318083e+00,0.000000000000000000e+00
9.050000000000000000e+02,-1.084623778678165396e+00,0.000000000000000000e+00
9.060000000000000000e+02,-9.574540346119039258e-01,0.000000000000000000e+00
9.070000000000000000e+02,-7.796697134046803868e-01,0.000000000000000000e+00
9.080000000000000000e+02,-8.716166525663674447e-01,0.000000000000000000e+00
9.090000000000000000e+02,-7.443219221544566944e-01,0.000000000000000000e+00
9.100000000000000000e+02,-6.337669157647100038e-01,0.000000000000000000e+00
9.110000000000000000e+02,-5.258491476881463900e-01,0.000000000000000000e+00
9.120000000000000000e+02,-5.103942089932278492e-01,0.000000000000000000e+00
9.130000000000000000e+02,-3.941786788438089717e-01,0.000000000000000000e+00
9.140000000000000000e+02,-3.024499764384895317e-01,0.000000000000000000e+00
9.150000000000000000e+02,-3.002099235913045505e-01,0.000000000000000000e+00
9.160000000000000000e+02,-2.578827476930007356e-01,0.000000000000000000e+00
9.170000000000000000e+02,-1.121366620656779334e-01,0.000000000000000000e+00
9.180000000000000000e+02,-9.689098726754333257e-02,0.000000000000000000e+00
9.190000000000000000e+02,-1.816165395560934703e-01,0.000000000000000000e+00
9.200000000000000000e+02,2.074884302248626022e-01,0.000000000000000000e+00
9.210000000000000000e+02,-7.144497790304950302e-02,0.000000000000000000e+00
9.220000000000000000e+02,1.941958021636035203e-01,0.000000000000000000e+00
9.230000000000000000e+02,3.133446207107620785e-02,0.000000000000000000e+00
9.240000000000000000e+02,3.246583870745231026e-01,0.000000000000000000e+00
9.250000000000000000e+02,5.738882736429908732e-02,0.000000000000000000e+00
9.260000000000000000e+02,2.675269574181325383e-01,0.000000000000000000e+00
9.270000000000000000e+02,1.885626646108109483e-01,0.000000000000000000e+00
9.280000000000000000e+02,2.077513297505783896e-01,0.000000000000000000e+00
9.290000000000000000e+02,3.095016749542859880e-01,0.000000000000000000e+00
9.300000000000000000e+02,3.727822908497255838e-01,0.000000000000000000e+00
9.310000000000000000e+02,3.046708451948413332e-01,0.000000000000000000e+00
9.320000000000000000e+02,7.987977942024788724e-01,0.000000000000000000e+00
9.330000000000000000e+02,4.431124011315664690e-01,0.000000000000000000e+00
9.340000000000000000e+02,5.264123778588754021e-01,0.000000000000000000e+00
9.350000000000000000e+02,1.847039983693306020e-01,0.000000000000000000e+00
9.360000000000000000e+02,2.739214062994339005e-01,0.000000000000000000e+00
9.370000000000000000e+02,-6.084110727173979577e-02,0.000000000000000000e+00
9.380000000000000000e+02,3.104609604677148194e-01,0.000000000000000000e+00
9.390000000000000000e+02,-6.281227360272696458e-01,0.000000000000000000e+00
9.400000000000000000e+02,3.327482623635107828e+00,0.000000000000000000e+00
9.410000000000000000e+02,5.286054045332910789e+00,0.000000000000000000e+00
9.420000000000000000e+02,-7.695241156587142584e-01,1.000000000000000000e+00
9.430000000000000000e+02,-5.920534518865890883e-01,0.000000000000000000e+00
9.440000000000000000e+02,-9.258065528724135351e-01,0.000000000000000000e+00
9.450000000000000000e+02,-6.024854647790989226e-01,0.000000000000000000e+00
9.460000000000000000e+02,-7.027247446768387640e-01,0.000000000000000000e+00
9.470000000000000000e+02,-4.764110104886158381e-01,0.000000000000000000e+00
9.480000000000000000e+02,-5.126874826362224358e-01,0.000000000000000000e+00
9.490000000000000000e+02,-1.725573002426758207e-01,0.000000000000000000e+00
9.500000000000000000e+02,-2.528527256589581662e-01,0.000000000000000000e+00
9.510000000000000000e+02,-8.107611954407162314e-02,0.000000000000000000e+00
9.520000000000000000e+02,6.763570599819265783e-02,0.000000000000000000e+00
9.530000000000000000e+02,3.801928072175944084e-01,0.000000000000000000e+00
9.540000000000000000e+02,5.855106186246799016e-01,0.000000000000000000e+00
9.550000000000000000e+02,7.818443933253883538e-01,0.000000000000000000e+00
9.560000000000000000e+02,9.403768524098603532e-01,0.000000000000000000e+00
9.570000000000000000e+02,8.653184506840854162e-01,0.000000000000000000e+00
9.580000000000000000e+02,7.106914086724545887e-02,0.000000000000000000e+00
9.590000000000000000e+02,-7.125804946865954559e-01,0.000000000000000000e+00
9.600000000000000000e+02,-1.253747779548781915e+00,0.000000000000000000e+00
9.610000000000000000e+02,-1.247832321240299525e+00,0.000000000000000000e+00
9.620000000000000000e+02,-1.238782456140201438e+00,0.000000000000000000e+00
9.630000000000000000e+02,-1.169775526805862276e+00,0.000000000000000000e+00
9.640000000000000000e+02,-9.967876753457302064e-01,0.000000000000000000e+00
9.650000000000000000e+02,-1.008811597397136550e+00,0.000000000000000000e+00
9.660000000000000000e+02,-8.644560839746779912e-01,0.000000000000000000e+00
9.670000000000000000e+02,-8.194967510340507300e-01,0.000000000000000000e+00
9.680000000000000000e+02,-6.783761175215484718e-01,0.000000000000000000e+00
9.690000000000000000e+02,-6.615364171672635241e-01,0.000000000000000000e+00
9.700000000000000000e+02,-4.442547956169448642e-01,0.000000000000000000e+00
9.710000000000000000e+02,-2.515421948415100251e-01,0.000000000000000000e+00
9.720000000000000000e+02,-5.028554675276950547e-01,0.000000000000000000e+00
9.730000000000000000e+02,-1.190080837157562188e-01,0.000000000000000000e+00
9.740000000000000000e+02,-2.989371387127628399e-01,0.000000000000000000e+00
9.750000000000000000e+02,7.359330308332229231e-02,0.000000000000000000e+00
9.760000000000000000e+02,-1.526849325012163416e-01,0.000000000000000000e+00
9.770000000000000000e+02,7.291297343333534575e-02,0.000000000000000000e+00
9.780000000000000000e+02,8.698305613418341742e-02,0.000000000000000000e+00
9.790000000000000000e+02,3.939697598799828115e-02,0.000000000000000000e+00
9.800000000000000000e+02,2.116355305394851671e-01,0.000000000000000000e+00
9.810000000000000000e+02,2.301733509647603815e-01,0.000000000000000000e+00
9.820000000000000000e+02,2.544058030371504908e-01,0.000000000000000000e+00
9.830000000000000000e+02,1.881602988910585916e-01,0.000000000000000000e+00
9.840000000000000000e+02,2.995797082937403655e-01,0.000000000000000000e+00
9.850000000000000000e+02,4.534076704202129604e-01,0.000000000000000000e+00
9.860000000000000000e+02,2.154432398024293260e-01,0.000000000000000000e+00
9.870000000000000000e+02,3.613990732787477622e-01,0.000000000000000000e+00
9.880000000000000000e+02,4.274108174251056713e-01,0.000000000000000000e+00
9.890000000000000000e+02,4.781960326236357472e-01,0.000000000000000000e+00
9.900000000000000000e+02,5.777623060242188524e-01,0.000000000000000000e+00
9.910000000000000000e+02,9.164543673856334616e-01,0.000000000000000000e+00
9.920000000000000000e+02,6.856616479490842408e-01,0.000000000000000000e+00
9.930000000000000000e+02,7.266291940908848890e-01,0.000000000000000000e+00
9.940000000000000000e+02,4.420878820176138979e-01,0.000000000000000000e+00
9.950000000000000000e+02,3.164602115420223072e-01,0.000000000000000000e+00
9.960000000000000000e+02,1.428943777213628752e-01,0.000000000000000000e+00
9.970000000000000000e+02,4.371943135624196120e-01,0.000000000000000000e+00
9.980000000000000000e+02,-3.971175121614934356e-01,0.000000000000000000e+00
9.990000000000000000e+02,3.106172109795886094e+00,0.000000000000000000e+00
1.000000000000000000e+03,5.877558902430621401e+00,0.000000000000000000e+00
1.001000000000000000e+03,-5.565034223038878292e-01,1.000000000000000000e+00
1.002000000000000000e+03,-9.798594349713660723e-01,0.000000000000000000e+00
1.003000000000000000e+03,-8.217977047707308857e-01,0.000000000000000000e+00
1.004000000000000000e+03,-5.578738355798419368e-01,0.000000000000000000e+00
1.005000000000000000e+03,-7.443258935789148767e-01,0.000000000000000000e+00
1.006000000000000000e+03,-5.197179105826986723e-01,0.000000000000000000e+00
1.007000000000000000e+03,-4.310361821191269205e-01,0.000000000000000000e+00
1.008000000000000000e+03,-2.003599754794499199e-01,0.000000000000000000e+00
1.009000000000000000e+03,-3.628062951390778612e-01,0.000000000000000000e+00
1.010000000000000000e+03,2.793641640339674173e-02,0.000000000000000000e+00
1.011000000000000000e+03,7.523737759231571842e-02,0.000000000000000000e+00
1.012000000000000000e+03,3.717567731556101762e-01,0.000000000000000000e+00
1.013000000000000000e+03,6.220696058953032459e-01,0.000000000000000000e+00
1.014000000000000000e+03,8.285432407291558610e-01,0.000000000000000000e+00
1.015000000000000000e+03,8.703459344059093494e-01,0.000000000000000000e+00
1.016000000000000000e+03,7.986403445553886815e-01,0.000000000000000000e+00
1.017000000000000000e+03,1.200319133859826387e-01,0.000000000000000000e+00
1.018000000000000000e+03,-8.387905468622574023e-01,0.000000000000000000e+00
1.019000000000000000e+03,-9.608859696300011688e-01,0.000000000000000000e+00
1.020000000000000000e+03,-1.380974426967512381e+00,0.000000000000000000e+00
1.021000000000000000e+03,-1.242656091401058260e+00,0.000000000000000000e+00
1.022000000000000000e+03,-1.170707869207175289e+00,0.000000000000000000e+00
1.023000000000000000e+03,-1.282582631739062506e+00,0.000000000000000000e+00
1.024000000000000000e+03,-9.571660507429916587e-01,0.000000000000000000e+00
1.025000000000000000e+03,-9.786229182234661428e-01,0.000000000000000000e+00
1.026000000000000000e+03,-8.177698076538983951e-01,0.000000000000000000e+00
1.027000000000000000e+03,-7.077974917388258902e-01,0.000000000000000000e+00
1.028000000000000000e+03,-5.708302804103823069e-01,0.000000000000000000e+00
1.029000000000000000e+03,-4.920576232404767492e-01,0.000000000000000000e+00
1.030000000000000000e+03,-4.177285174139932500e-01,0.000000000000000000e+00
1.031000000000000000e+03,-3.387770996938070378e-01,0.000000000000000000e+00
1.032000000000000000e+03,-2.842686299563395025e-01,0.000000000000000000e+00
1.033000000000000000e+03,-1.797382702530578025e-01,0.000000000000000000e+00
1.034000000000000000e+03,-1.710266260308409281e-01,0.000000000000000000e+00
1.035000000000000000e+03,-1.529970258247067560e-01,0.000000000000000000e+00
1.036000000000000000e+03,-1.305574917147291902e-01,0.000000000000000000e+00
1.037000000000000000e+03,-8.678112581372743328e-02,0.000000000000000000e+00
1.038000000000000000e+03,-4.645549559409680590e-02,0.000000000000000000e+00
1.039000000000000000e+03,5.963437087996709129e-02,0.000000000000000000e+00
1.040000000000000000e+03,1.118067486202426464e-01,0.000000000000000000e+00
1.041000000000000000e+03,4.501132552325947528e-02,0.000000000000000000e+00
1.042000000000000000e+03,1.432837425858242419e-01,0.000000000000000000e+00
1.043000000000000000e+03,8.706730151980766885e-02,0.000000000000000000e+00
1.044000000000000000e+03,1.837152265413434238e-01,0.000000000000000000e+00
1.045000000000000000e+03,1.050942044854783070e-01,0.000000000000000000e+00
1.046000000000000000e+03,2.367996731875934013e-01,0.000000000000000000e+00
1.047000000000000000e+03,1.541906327364706841e-01,0.000000000000000000e+00
1.048000000000000000e+03,3.500808420353048178e-01,0.000000000000000000e+00
1.049000000000000000e+03,4.992633010779620184e-01,0.000000000000000000e+00
1.050000000000000000e+03,4.369397552016330843e-01,0.000000000000000000e+00
1.051000000000000000e+03,4.938508224814058267e-01,0.000000000000000000e+00
1.052000000000000000e+03,3.185029154655191763e-01,0.000000000000000000e+00
1.053000000000000000e+03,1.746789273667798403e-01,0.000000000000000000e+00
1.054000000000000000e+03,-1.053377462224576282e-02,0.000000000000000000e+00
1.055000000000000000e+03,1.294704693491738057e-01,0.000000000000000000e+00
1.056000000000000000e+03,-4.949294359439387891e-01,0.000000000000000000e+00
1.057000000000000000e+03,2.036907732359298340e+00,0.000000000000000000e+00
1.058000000000000000e+03,6.143331842583693359e+00,0.000000000000000000e+00
1.059000000000000000e+03,-1.768003736500353973e-01,1.000000000000000000e+00
1.060000000000000000e+03,-1.012292787750565637e+00,0.000000000000000000e+00
1.061000000000000000e+03,-8.163570668742166081e-01,0.000000000000000000e+00
1.062000000000000000e+03,-5.938860851125893348e-01,0.000000000000000000e+00
1.063000000000000000e+03,-5.861397982571378007e-01,0.000000000000000000e+00
1.064000000000000000e+03,-3.264132128961469426e-01,0.000000000000000000e+00
1.065000000000000000e+03,-3.879799015413652463e-01,0.000000000000000000e+00
1.066000000000000000e+03,-2.448109177523139224e-01,0.000000000000000000e+00
1.067000000000000000e+03,-1.909360602528380468e-01,0.000000000000000000e+00
1.068000000000000000e+03,4.107868874457721448e-02,0.000000000000000000e+00
1.069000000000000000e+03,2.570147747332955368e-01,0.000000000000000000e+00
1.070000000000000000e+03,4.617583504583684939e-01,0.000000000000000000e+00
1.071000000000000000e+03,7.458535735767044539e-01,0.000000000000000000e+00
1.072000000000000000e+03,8.672195798452411175e-01,0.000000000000000000e+00
1.073000000000000000e+03,1.037450755756487153e+00,0.000000000000000000e+00
1.074000000000000000e+03,8.639227299740833699e-01,0.000000000000000000e+00
1.075000000000000000e+03,3.207397366138446393e-01,0.000000000000000000e+00
1.076000000000000000e+03,-4.776803426773802430e-01,0.000000000000000000e+00
1.077000000000000000e+03,-1.092492305759210636e+00,0.000000000000000000e+00
1.078000000000000000e+03,-1.236087947712983581e+00,0.000000000000000000e+00
1.079000000000000000e+03,-1.201403218229795344e+00,0.000000000000000000e+00
1.080000000000000000e+03,-1.107976481191401685e+00,0.000000000000000000e+00
1.081000000000000000e+03,-1.194399337640141834e+00,0.000000000000000000e+00
1.082000000000000000e+03,-8.726112082462605946e-01,0.000000000000000000e+00
1.083000000000000000e+03,-8.485360092522565845e-01,0.000000000000000000e+00
1.084000000000000000e+03,-6.207823398197463982e-01,0.000000000000000000e+00
1.085000000000000000e+03,-7.483785208041823234e-01,0.000000000000000000e+00
1.086000000000000000e+03,-3.514877585363146428e-01,0.000000000000000000e+00
1.087000000000000000e+03,-4.570267258839630919e-01,0.000000000000000000e+00
1.088000000000000000e+03,-2.612706298968878182e-01,0.000000000000000000e+00
1.089000000000000000e+03,-1.873577997647542792e-01,0.000000000000000000e+00
1.090000000000000000e+03,-2.114695330804663986e-01,0.000000000000000000e+00
1.091000000000000000e+03,-8.485033000797578828e-02,0.000000000000000000e+00
1.092000000000000000e+03,-1.456624809403944121e-01,0.000000000000000000e+00
1.093000000000000000e+03,8.212457450236228338e-04,0.000000000000000000e+00
1.094000000000000000e+03,2.480234695942146184e-02,0.000000000000000000e+00
1.095000000000000000e+03,9.940004793202188160e-02,0.000000000000000000e+00
1.096000000000000000e+03,-6.625451988590546314e-03,0.000000000000000000e+00
1.097000000000000000e+03,6.754640225580005319e-02,0.000000000000000000e+00
1.098000000000000000e+03,9.151852675717268848e-02,0.000000000000000000e+00
1.099000000000000000e+03,2.723392519959871860e-01,0.000000000000000000e+00
1.100000000000000000e+03,2.246421251340127712e-01,0.000000000000000000e+00
1.101000000000000000e+03,2.228090645257719549e-01,0.000000000000000000e+00
1.102000000000000000e+03,2.529738597653659604e-01,0.000000000000000000e+00
1.103000000000000000e+03,2.927439085413682807e-01,0.000000000000000000e+00
1.104000000000000000e+03,1.930634768097288512e-01,0.000000000000000000e+00
1.105000000000000000e+03,2.942855653985009257e-01,0.000000000000000000e+00
1.106000000000000000e+03,4.571260389628731269e-01,0.000000000000000000e+00
1.107000000000000000e+03,3.371180246916175016e-01,0.000000000000000000e+00
1.108000000000000000e+03,8.279934988325413636e-01,0.000000000000000000e+00
1.109000000000000000e+03,2.906902595028096337e-01,0.000000000000000000e+00
1.110000000000000000e+03,6.169634798081270466e-01,0.000000000000000000e+00
1.111000000000000000e+03,-9.747690832173727324e-03,0.000000000000000000e+00
1.112000000000000000e+03,1.943398280975010550e-01,0.000000000000000000e+00
1.113000000000000000e+03,-4.987197265016095338e-02,0.000000000000000000e+00
1.114000000000000000e+03,-2.568092509647492208e-02,0.000000000000000000e+00
1.115000000000000000e+03,-1.130004022243175643e-01,0.000000000000000000e+00
1.116000000000000000e+03,5.336669513038454049e+00,0.000000000000000000e+00
1.117000000000000000e+03,3.213562219079612259e+00,1.000000000000000000e+00
1.118000000000000000e+03,-1.567270921642404335e+00,0.000000000000000000e+00
1.119000000000000000e+03,-5.682354090459440510e-01,0.000000000000000000e+00
1.120000000000000000e+03,-9.735953309335423356e-01,0.000000000000000000e+00
1.121000000000000000e+03,-6.812166539311436120e-01,0.000000000000000000e+00
1.122000000000000000e+03,-7.451488178380125671e-01,0.000000000000000000e+00
1.123000000000000000e+03,-3.935866074977493745e-01,0.000000000000000000e+00
1.124000000000000000e+03,-6.080612222629476760e-01,0.000000000000000000e+00
1.125000000000000000e+03,-2.525685332509111647e-01,0.000000000000000000e+00
1.126000000000000000e+03,-2.141195377710712056e-01,0.000000000000000000e+00
1.127000000000000000e+03,-3.166458683094626036e-03,0.000000000000000000e+00
1.128000000000000000e+03,5.140701793808811343e-02,0.000000000000000000e+00
1.129000000000000000e+03,5.171600772710255312e-01,0.000000000000000000e+00
1.130000000000000000e+03,6.249179141088934131e-01,0.000000000000000000e+00
1.131000000000000000e+03,9.729882555359745666e-01,0.000000000000000000e+00
1.132000000000000000e+03,7.803335994378266527e-01,0.000000000000000000e+00
1.133000000000000000e+03,7.080557321418818884e-01,0.000000000000000000e+00
1.134000000000000000e+03,-2.794164875591017005e-01,0.000000000000000000e+00
1.135000000000000000e+03,-8.984211169344523684e-01,0.000000000000000000e+00
1.136000000000000000e+03,-1.214730389871987226e+00,0.000000000000000000e+00
1.137000000000000000e+03,-1.321632582289544278e+00,0.000000000000000000e+00
1.138000000000000000e+03,-1.307892175759788111e+00,0.000000000000000000e+00
1.139000000000000000e+03,-1.147076602907858955e+00,0.000000000000000000e+00
1.140000000000000000e+03,-1.022716714434826590e+00,0.000000000000000000e+00
1.141000000000000000e+03,-8.866942524695120564e-01,0.000000000000000000e+00
1.142000000000000000e+03,-8.132001616872418515e-01,0.000000000000000000e+00
1.143000000000000000e+03,-8.257697913657841005e-01,0.000000000000000000e+00
1.144000000000000000e+03,-7.131776691675704161e-01,0.000000000000000000e+00
1.145000000000000000e+03,-5.991166686859722423e-01,0.000000000000000000e+00
1.146000000000000000e+03,-4.388690282315759195e-01,0.000000000000000000e+00
1.147000000000000000e+03,-4.033402918592216557e-01,0.000000000000000000e+00
1.148000000000000000e+03,-4.002963945874334906e-01,0.000000000000000000e+00
1.149000000000000000e+03,-1.880627860351336555e-01,0.000000000000000000e+00
1.150000000000000000e+03,-4.634142251397674328e-01,0.000000000000000000e+00
1.151000000000000000e+03,-9.820646450525302718e-02,0.000000000000000000e+00
1.152000000000000000e+03,-2.687279987001339743e-01,0.000000000000000000e+00
1.153000000000000000e+03,-2.815042807423417601e-02,0.000000000000000000e+00
1.154000000000000000e+03,-9.880840255187525734e-02,0.000000000000000000e+00
1.155000000000000000e+03,1.714340897112351658e-01,0.000000000000000000e+00
1.156000000000000000e+03,1.678169904434498316e-02,0.000000000000000000e+00
1.157000000000000000e+03,1.033764205521653656e-01,0.000000000000000000e+00
1.158000000000000000e+03,-3.001453208382082183e-02,0.000000000000000000e+00
1.159000000000000000e+03,2.831490522509035324e-01,0.000000000000000000e+00
1.160000000000000000e+03,9.929899314911251607e-02,0.000000000000000000e+00
1.161000000000000000e+03,4.097823351161836158e-01,0.000000000000000000e+00
1.162000000000000000e+03,3.457324523119186810e-01,0.000000000000000000e+00
1.163000000000000000e+03,1.498559241809266085e-01,0.000000000000000000e+00
1.164000000000000000e+03,3.724000505235491865e-01,0.000000000000000000e+00
1.165000000000000000e+03,4.527340208929546694e-01,0.000000000000000000e+00
1.166000000000000000e+03,5.271008097713382190e-01,0.000000000000000000e+00
1.167000000000000000e+03,9.301725684989469167e-01,0.000000000000000000e+00
1.168000000000000000e+03,4.805448379412246007e-01,0.000000000000000000e+00
1.169000000000000000e+03,7.486944286589679587e-01,0.000000000000000000e+00
1.170000000000000000e+03,2.482305627071259846e-01,0.000000000000000000e+00
1.171000000000000000e+03,2.730421889355983955e-01,0.000000000000000000e+00
1.172000000000000000e+03,2.048076059173632446e-01,0.000000000000000000e+00
1.173000000000000000e+03,3.176295197609561582e-01,0.000000000000000000e+00
1.174000000000000000e+03,-2.280196919686573731e-01,0.000000000000000000e+00
1.175000000000000000e+03,4.608379215870465728e+00,0.000000000000000000e+00
1.176000000000000000e+03,4.472769989048566153e+00,0.000000000000000000e+00
1.177000000000000000e+03,-9.254760208337465821e-01,1.000000000000000000e+00
1.178000000000000000e+03,-3.684498000708473220e-01,0.000000000000000000e+00
1.179000000000000000e+03,-6.420330943702099447e-01,0.000000000000000000e+00
1.180000000000000000e+03,-3.294170542484449737e-01,0.000000000000000000e+00
1.181000000000000000e+03,-5.342743651852898124e-01,0.000000000000000000e+00
1.182000000000000000e+03,-1.483476939732545352e-01,0.000000000000000000e+00
1.183000000000000000e+03,-5.062256247779648444e-01,0.000000000000000000e+00
1.184000000000000000e+03,-4.350294949414350992e-02,0.000000000000000000e+00
1.185000000000000000e+03,-1.598100759192527531e-01,0.000000000000000000e+00
1.186000000000000000e+03,2.652671095009433988e-01,0.000000000000000000e+00
1.187000000000000000e+03,2.035954433737821312e-01,0.000000000000000000e+00
1.188000000000000000e+03,5.844973031948793585e-01,0.000000000000000000e+00
1.189000000000000000e+03,7.682510303654253025e-01,0.000000000000000000e+00
1.190000000000000000e+03,1.022689653321471992e+00,0.000000000000000000e+00
1.191000000000000000e+03,9.738954418552487891e-01,0.000000000000000000e+00
1.192000000000000000e+03,8.396348884112848632e-01,0.000000000000000000e+00
1.193000000000000000e+03,-5.245490279589089255e-02,0.000000000000000000e+00
1.194000000000000000e+03,-6.121562299834790721e-01,0.000000000000000000e+00
1.195000000000000000e+03,-1.170939951042155869e+00,0.000000000000000000e+00
1.196000000000000000e+03,-1.111291958085444787e+00,0.000000000000000000e+00
1.197000000000000000e+03,-1.158680506042505831e+00,0.000000000000000000e+00
1.198000000000000000e+03,-9.935354384857078003e-01,0.000000000000000000e+00
1.199000000000000000e+03,-8.941496959101981057e-01,0.000000000000000000e+00
1.200000000000000000e+03,-7.387295118687082773e-01,0.000000000000000000e+00
1.201000000000000000e+03,-6.780739357981978577e-01,0.000000000000000000e+00
1.202000000000000000e+03,-5.926337127977293617e-01,0.000000000000000000e+00
1.203000000000000000e+03,-4.904706655584826769e-01,0.000000000000000000e+00
1.204000000000000000e+03,-5.169790841330834663e-01,0.000000000000000000e+00
1.205000000000000000e+03,-4.348043987221112405e-01,0.000000000000000000e+00
1.206000000000000000e+03,-2.655623458108009038e-01,0.000000000000000000e+00
1.207000000000000000e+03,-2.414822353427031332e-01,0.000000000000000000e+00
1.208000000000000000e+03,-2.164596669079607572e-01,0.000000000000000000e+00
1.209000000000000000e+03,-1.354458307452688082e-01,0.000000000000000000e+00
1.210000000000000000e+03,-1.769139296322011223e-01,0.000000000000000000e+00
1.211000000000000000e+03,-1.322142699835760493e-01,0.000000000000000000e+00
1.212000000000000000e+03,1.239463208124631233e-01,0.000000000000000000e+00
1.213000000000000000e+03,-2.739854279435917084e-01,0.000000000000000000e+00
1.214000000000000000e+03,1.569754606872482139e-01,0.000000000000000000e+00
1.215000000000000000e+03,-6.033242134643946458e-03,0.000000000000000000e+00
1.216000000000000000e+03,-4.442239559813998540e-02,0.000000000000000000e+00
1.217000000000000000e+03,1.011921576216995716e-01,0.000000000000000000e+00
1.218000000000000000e+03,9.280938917011723188e-02,0.000000000000000000e+00
1.219000000000000000e+03,3.999099238173962206e-02,0.000000000000000000e+00
1.220000000000000000e+03,1.483551532382124116e-01,0.000000000000000000e+00
1.221000000000000000e+03,1.954418006628861060e-01,0.000000000000000000e+00
1.222000000000000000e+03,9.345703894662424349e-02,0.000000000000000000e+00
1.223000000000000000e+03,1.601304718644238068e-01,0.000000000000000000e+00
1.224000000000000000e+03,3.650210779565316033e-01,0.000000000000000000e+00
1.225000000000000000e+03,2.021697144664983403e-01,0.000000000000000000e+00
1.226000000000000000e+03,5.856294880771847344e-01,0.000000000000000000e+00
1.227000000000000000e+03,3.971058648728359453e-01,0.000000000000000000e+00
1.228000000000000000e+03,4.699980368144522913e-01,0.000000000000000000e+00
1.229000000000000000e+03,2.000192591581975432e-01,0.000000000000000000e+00
1.230000000000000000e+03,1.673582116665973674e-01,0.000000000000000000e+00
1.231000000000000000e+03,-7.041098611724934397e-02,0.000000000000000000e+00
1.232000000000000000e+03,3.235366462008277821e-01,0.000000000000000000e+00
1.233000000000000000e+03,-6.985417898858746755e-01,0.000000000000000000e+00
1.234000000000000000e+03,2.765578240918632691e+00,0.000000000000000000e+00
1.235000000000000000e+03,5.773969282409265880e+00,0.000000000000000000e+00
1.236000000000000000e+03,-3.073231208660785474e-01,1.000000000000000000e+00
1.237000000000000000e+03,-1.039917197585394026e+00,0.000000000000000000e+00
1.238000000000000000e+03,-8.837494346671099787e-01,0.000000000000000000e+00
1.239000000000000000e+03,-7.346220778685559338e-01,0.000000000000000000e+00
1.240000000000000000e+03,-7.211001380107021630e-01,0.000000000000000000e+00
1.241000000000000000e+03,-7.609261561642529648e-01,0.000000000000000000e+00
1.242000000000000000e+03,-5.894563625132482887e-01,0.000000000000000000e+00
1.243000000000000000e+03,-4.476207838142204354e-01,0.000000000000000000e+00
1.244000000000000000e+03,-4.701390516843275136e-01,0.000000000000000000e+00
1.245000000000000000e+03,-2.257222909792160614e-01,0.000000000000000000e+00
1.246000000000000000e+03,-6.661572811755314683e-02,0.000000000000000000e+00
1.247000000000000000e+03,2.797357971282133371e-01,0.000000000000000000e+00
1.248000000000000000e+03,4.580484434351054235e-01,0.000000000000000000e+00
1.249000000000000000e+03,7.428158468471172116e-01,0.000000000000000000e+00
1.250000000000000000e+03,8.424277526792243176e-01,0.000000000000000000e+00
1.251000000000000000e+03,7.831197903810173111e-01,0.000000000000000000e+00
1.252000000000000000e+03,8.651217183864635951e-02,0.000000000000000000e+00
1.253000000000000000e+03,-6.765622434834966947e-01,0.000000000000000000e+00
1.254000000000000000e+03,-1.233694834651008154e+00,0.000000000000000000e+00
1.255000000000000000e+03,-1.317636837602513600e+00,0.000000000000000000e+00
1.256000000000000000e+03,-1.293122936306188242e+00,0.000000000000000000e+00
1.257000000000000000e+03,-1.263712876780719752e+00,0.000000000000000000e+00
1.258000000000000000e+03,-1.172425829604208714e+00,0.000000000000000000e+00
1.259000000000000000e+03,-1.029528612324746906e+00,0.000000000000000000e+00
1.260000000000000000e+03,-1.001335413989280720e+00,0.000000000000000000e+00
1.261000000000000000e+03,-7.309193775642844892e-01,0.000000000000000000e+00
1.262000000000000000e+03,-8.148038873376647340e-01,0.000000000000000000e+00
1.263000000000000000e+03,-5.125894376830507637e-01,0.000000000000000000e+00
1.264000000000000000e+03,-6.111676707623993066e-01,0.000000000000000000e+00
1.265000000000000000e+03,-3.592107745358908422e-01,0.000000000000000000e+00
1.266000000000000000e+03,-2.615376858529920301e-01,0.000000000000000000e+00
1.267000000000000000e+03,-2.661011657286950216e-01,0.000000000000000000e+00
1.268000000000000000e+03,-2.782644562555618983e-01,0.000000000000000000e+00
1.269000000000000000e+03,-1.314460233310819626e-01,0.000000000000000000e+00
1.270000000000000000e+03,-2.133165036777731338e-01,0.000000000000000000e+00
1.271000000000000000e+03,1.588076170968066164e-02,0.000000000000000000e+00
1.272000000000000000e+03,1.166886828837048612e-01,0.000000000000000000e+00
1.273000000000000000e+03,-2.872607974734017744e-02,0.000000000000000000e+00
1.274000000000000000e+03,1.780577782373560791e-01,0.000000000000000000e+00
1.275000000000000000e+03,4.847922526340176647e-02,0.000000000000000000e+00
1.276000000000000000e+03,1.440298122785022839e-01,0.000000000000000000e+00
1.277000000000000000e+03,1.868326536994500131e-01,0.000000000000000000e+00
1.278000000000000000e+03,2.728427674536212377e-01,0.000000000000000000e+00
1.279000000000000000e+03,2.344771754218697712e-01,0.000000000000000000e+00
1.280000000000000000e+03,3.017264886540988456e-01,0.000000000000000000e+00
1.281000000000000000e+03,4.172614358434694193e-01,0.000000000000000000e+00
1.282000000000000000e+03,3.135661160702711836e-01,0.000000000000000000e+00
1.283000000000000000e+03,3.752192881719089712e-01,0.000000000000000000e+00
1.284000000000000000e+03,6.248017633935112336e-01,0.000000000000000000e+00
1.285000000000000000e+03,5.113520139021279221e-01,0.000000000000000000e+00
1.286000000000000000e+03,6.379112271053467564e-01,0.000000000000000000e+00
1.287000000000000000e+03,5.343665427957158265e-01,0.000000000000000000e+00
1.288000000000000000e+03,1.836024359599887357e-01,0.000000000000000000e+00
1.289000000000000000e+03,1.223679172848323449e-01,0.000000000000000000e+00
1.290000000000000000e+03,2.205864534902491070e-01,0.000000000000000000e+00
1.291000000000000000e+03,-2.302451365833370345e-01,0.000000000000000000e+00
1.292000000000000000e+03,1.742575762170910592e+00,0.000000000000000000e+00
1.293000000000000000e+03,5.961428735860989647e+00,0.000000000000000000e+00
1.294000000000000000e+03,3.371562717802275011e-01,1.000000000000000000e+00
1.295000000000000000e+03,-1.178089609666080895e+00,0.000000000000000000e+00
1.296000000000000000e+03,-6.005038288642767785e-01,0.000000000000000000e+00
1.297000000000000000e+03,-6.573374169825588753e-01,0.000000000000000000e+00
1.298000000000000000e+03,-5.161036944136414562e-01,0.000000000000000000e+00
1.299000000000000000e+03,-4.137655729017422068e-01,0.000000000000000000e+00
1.300000000000000000e+03,-3.847674949486416529e-01,0.000000000000000000e+00
1.301000000000000000e+03,-2.468057171434603903e-01,0.000000000000000000e+00
1.302000000000000000e+03,-1.428832606062612476e-01,0.000000000000000000e+00
1.303000000000000000e+03,4.438862833536674768e-02,0.000000000000000000e+00
1.304000000000000000e+03,2.408893153442701607e-01,0.000000000000000000e+00
1.305000000000000000e+03,3.486848959400688508e-01,0.000000000000000000e+00
1.306000000000000000e+03,7.217202544519052410e-01,0.000000000000000000e+00
1.307000000000000000e+03,9.196581336332035894e-01,0.000000000000000000e+00
1.308000000000000000e+03,1.019937860708639565e+00,0.000000000000000000e+00
1.309000000000000000e+03,1.013365202573357271e+00,0.000000000000000000e+00
1.310000000000000000e+03,3.910470730184351651e-01,0.000000000000000000e+00
1.311000000000000000e+03,-4.489702858391316220e-01,0.000000000000000000e+00
1.312000000000000000e+03,-8.558005829839071543e-01,0.000000000000000000e+00
1.313000000000000000e+03,-1.232302862788544617e+00,0.000000000000000000e+00
1.314000000000000000e+03,-1.156830605176483395e+00,0.000000000000000000e+00
1.315000000000000000e+03,-1.145656273591662666e+00,0.000000000000000000e+00
1.316000000000000000e+03,-9.715641002264135961e-01,0.000000000000000000e+00
1.317000000000000000e+03,-8.990745203949905839e-01,0.000000000000000000e+00
1.318000000000000000e+03,-8.856212210615846958e-01,0.000000000000000000e+00
1.319000000000000000e+03,-6.511750414047444702e-01,0.000000000000000000e+00
1.320000000000000000e+03,-6.385750403550795040e-01,0.000000000000000000e+00
1.321000000000000000e+03,-5.118419360993194944e-01,0.000000000000000000e+00
1.322000000000000000e+03,-3.997815328369540011e-01,0.000000000000000000e+00
1.323000000000000000e+03,-3.773506641930060024e-01,0.000000000000000000e+00
1.324000000000000000e+03,-3.006718965162694102e-01,0.000000000000000000e+00
1.325000000000000000e+03,-2.523168472655843431e-01,0.000000000000000000e+00
1.326000000000000000e+03,-1.279078714602285005e-01,0.000000000000000000e+00
1.327000000000000000e+03,-4.520147679435581461e-02,0.000000000000000000e+00
1.328000000000000000e+03,-1.780503090942997524e-01,0.000000000000000000e+00
1.329000000000000000e+03,-7.244238096436643459e-02,0.000000000000000000e+00
1.330000000000000000e+03,-5.470556340946586271e-02,0.000000000000000000e+00
1.331000000000000000e+03,3.474648139022735310e-02,0.000000000000000000e+00
1.332000000000000000e+03,-6.925307982913894711e-02,0.000000000000000000e+00
1.333000000000000000e+03,1.033221449081129922e-01,0.000000000000000000e+00
1.334000000000000000e+03,6.593999832943396588e-02,0.000000000000000000e+00
1.335000000000000000e+03,6.734373376819657864e-02,0.000000000000000000e+00
1.336000000000000000e+03,8.626617176142231669e-02,0.000000000000000000e+00
1.337000000000000000e+03,2.807208977823701379e-01,0.000000000000000000e+00
1.338000000000000000e+03,-4.434409341025315893e-02,0.000000000000000000e+00
1.339000000000000000e+03,2.989048779573276193e-01,0.000000000000000000e+00
1.340000000000000000e+03,2.708998750173872150e-01,0.000000000000000000e+00
1.341000000000000000e+03,2.768435080697450590e-01,0.000000000000000000e+00
1.342000000000000000e+03,4.695784122233379598e-01,0.000000000000000000e+00
1.343000000000000000e+03,6.851318833634146843e-01,0.000000000000000000e+00
1.344000000000000000e+03,3.680468655140527456e-01,0.000000000000000000e+00
1.345000000000000000e+03,4.796770486418124868e-01,0.000000000000000000e+00
1.346000000000000000e+03,3.050701738778529779e-02,0.000000000000000000e+00
1.347000000000000000e+03,1.526614097553822824e-01,0.000000000000000000e+00
1.348000000000000000e+03,1.128588828623946494e-01,0.000000000000000000e+00
1.349000000000000000e+03,-2.102348394866687120e-01,0.000000000000000000e+00
1.350000000000000000e+03,7.206774966319240416e-01,0.000000000000000000e+00
1.351000000000000000e+03,6.135151432866503995e+00,0.000000000000000000e+00
1.352000000000000000e+03,1.603903723816731963e+00,1.000000000000000000e+00
1.353000000000000000e+03,-1.340148734672907960e+00,0.000000000000000000e+00
1.354000000000000000e+03,-6.096375620161654796e-01,0.000000000000000000e+00
1.355000000000000000e+03,-8.294139440253376350e-01,0.000000000000000000e+00
1.356000000000000000e+03,-5.881848680954478992e-01,0.000000000000000000e+00
1.357000000000000000e+03,-5.535631660977866630e-01,0.000000000000000000e+00
1.358000000000000000e+03,-2.968559161324542672e-01,0.000000000000000000e+00
1.359000000000000000e+03,-4.419544156055090767e-01,0.000000000000000000e+00
1.360000000000000000e+03,-3.230848179267233056e-02,0.000000000000000000e+00
1.361000000000000000e+03,-1.531547184103519421e-01,0.000000000000000000e+00
1.362000000000000000e+03,1.997256153744456642e-01,0.000000000000000000e+00
1.363000000000000000e+03,3.471562756621598411e-01,0.000000000000000000e+00
1.364000000000000000e+03,7.015635608316407312e-01,0.000000000000000000e+00
1.365000000000000000e+03,8.377392176903487586e-01,0.000000000000000000e+00
1.366000000000000000e+03,1.087035746069010544e+00,0.000000000000000000e+00
1.367000000000000000e+03,9.883891195045451106e-01,0.000000000000000000e+00
1.368000000000000000e+03,5.915206692188461624e-01,0.000000000000000000e+00
1.369000000000000000e+03,-2.308985109884191811e-01,0.000000000000000000e+00
1.370000000000000000e+03,-9.013015740893464134e-01,0.000000000000000000e+00
1.371000000000000000e+03,-1.126824859202943729e+00,0.000000000000000000e+00
1.372000000000000000e+03,-1.325247764508445947e+00,0.000000000000000000e+00
1.373000000000000000e+03,-1.101324603933892199e+00,0.000000000000000000e+00
1.374000000000000000e+03,-1.057129492867262321e+00,0.000000000000000000e+00
1.375000000000000000e+03,-1.024462347866085032e+00,0.000000000000000000e+00
1.376000000000000000e+03,-7.295622988302419287e-01,0.000000000000000000e+00
1.377000000000000000e+03,-7.886247232712185751e-01,0.000000000000000000e+00
1.378000000000000000e+03,-7.223955827618455672e-01,0.000000000000000000e+00
1.379000000000000000e+03,-6.534293562098812957e-01,0.000000000000000000e+00
1.380000000000000000e+03,-4.711579456505415320e-01,0.000000000000000000e+00
1.381000000000000000e+03,-4.342064178459311141e-01,0.000000000000000000e+00
1.382000000000000000e+03,-3.016858269036236107e-01,0.000000000000000000e+00
1.383000000000000000e+03,-2.493948477250983176e-01,0.000000000000000000e+00
1.384000000000000000e+03,-1.663847072997864662e-01,0.000000000000000000e+00
1.385000000000000000e+03,-2.656890756727999792e-01,0.000000000000000000e+00
1.386000000000000000e+03,-7.343536799285119154e-02,0.000000000000000000e+00
1.387000000000000000e+03,-1.640288121822799372e-01,0.000000000000000000e+00
1.388000000000000000e+03,-2.402959082554281204e-03,0.000000000000000000e+00
1.389000000000000000e+03,3.407337667983261886e-04,0.000000000000000000e+00
1.390000000000000000e+03,1.144472244924664601e-02,0.000000000000000000e+00
1.391000000000000000e+03,3.982700710293735763e-02,0.000000000000000000e+00
1.392000000000000000e+03,1.503149082371630085e-01,0.000000000000000000e+00
1.393000000000000000e+03,4.387867998623531940e-02,0.000000000000000000e+00
1.394000000000000000e+03,2.539802414276274845e-01,0.000000000000000000e+00
1.395000000000000000e+03,4.510414755116953778e-02,0.000000000000000000e+00
1.396000000000000000e+03,3.733570396916122691e-01,0.000000000000000000e+00
1.397000000000000000e+03,1.822827993893354759e-01,0.000000000000000000e+00
1.398000000000000000e+03,1.850006308746904304e-01,0.000000000000000000e+00
1.399000000000000000e+03,2.291119443493898622e-01,0.000000000000000000e+00
1.400000000000000000e+03,4.218653853509681251e-01,0.000000000000000000e+00
1.401000000000000000e+03,5.513065620872826811e-01,0.000000000000000000e+00
1.402000000000000000e+03,5.606309029886830109e-01,0.000000000000000000e+00
1.403000000000000000e+03,4.556230780082830556e-01,0.000000000000000000e+00
1.404000000000000000e+03,3.315865781650565447e-01,0.000000000000000000e+00
1.405000000000000000e+03,3.228342084756896657e-02,0.000000000000000000e+00
1.406000000000000000e+03,9.469305048529874647e-02,0.000000000000000000e+00
1.407000000000000000e+03,1.358281542578864132e-01,0.000000000000000000e+00
1.408000000000000000e+03,-4.277724417113649702e-01,0.000000000000000000e+00
1.409000000000000000e+03,1.126159163066040136e+00,0.000000000000000000e+00
1.410000000000000000e+03,6.006880827590447502e+00,0.000000000000000000e+00
1.411000000000000000e+03,1.127430822319870574e+00,1.000000000000000000e+00
1.412000000000000000e+03,-1.280860023676005488e+00,0.000000000000000000e+00
1.413000000000000000e+03,-6.069782455614546324e-01,0.000000000000000000e+00
1.414000000000000000e+03,-8.060347935799906383e-01,0.000000000000000000e+00
1.415000000000000000e+03,-5.826649037587763313e-01,0.000000000000000000e+00
1.416000000000000000e+03,-5.498977470040619098e-01,0.000000000000000000e+00
1.417000000000000000e+03,-4.819316190999430871e-01,0.000000000000000000e+00
1.418000000000000000e+03,-1.980460713937499395e-01,0.000000000000000000e+00
1.419000000000000000e+03,-2.839695309409488444e-01,0.000000000000000000e+00
1.420000000000000000e+03,-7.419889733847954971e-02,0.000000000000000000e+00
1.421000000000000000e+03,1.776231508441375451e-01,0.000000000000000000e+00
1.422000000000000000e+03,3.958764637719490720e-01,0.000000000000000000e+00
1.423000000000000000e+03,5.401393981147720735e-01,0.000000000000000000e+00
1.424000000000000000e+03,8.428106646607247399e-01,0.000000000000000000e+00
1.425000000000000000e+03,9.834180596049368894e-01,0.000000000000000000e+00
1.426000000000000000e+03,9.498248004175192660e-01,0.000000000000000000e+00
1.427000000000000000e+03,4.314225656014656352e-01,0.000000000000000000e+00
1.428000000000000000e+03,-3.999236226183356391e-01,0.000000000000000000e+00
1.429000000000000000e+03,-9.354129469728335033e-01,0.000000000000000000e+00
1.430000000000000000e+03,-1.073463774406304694e+00,0.000000000000000000e+00
1.431000000000000000e+03,-1.416734683870227274e+00,0.000000000000000000e+00
1.432000000000000000e+03,-1.074836642608069548e+00,0.000000000000000000e+00
1.433000000000000000e+03,-1.117383189416767175e+00,0.000000000000000000e+00
1.434000000000000000e+03,-9.203971518077235237e-01,0.000000000000000000e+00
1.435000000000000000e+03,-8.869548962972840789e-01,0.000000000000000000e+00
1.436000000000000000e+03,-8.531387800086775997e-01,0.000000000000000000e+00
1.437000000000000000e+03,-6.682964140786592511e-01,0.000000000000000000e+00
1.438000000000000000e+03,-6.486059565388599957e-01,0.000000000000000000e+00
1.439000000000000000e+03,-6.386425684458537644e-01,0.000000000000000000e+00
1.440000000000000000e+03,-4.767358859181440311e-01,0.000000000000000000e+00
1.441000000000000000e+03,-4.590664055961151679e-01,0.000000000000000000e+00
1.442000000000000000e+03,-2.738874875002141329e-01,0.000000000000000000e+00
1.443000000000000000e+03,-2.937897696182169560e-01,0.000000000000000000e+00
1.444000000000000000e+03,-1.211727115850437519e-01,0.000000000000000000e+00
1.445000000000000000e+03,-1.513747262259080295e-01,0.000000000000000000e+00
1.446000000000000000e+03,-2.017049219063415944e-02,0.000000000000000000e+00
1.447000000000000000e+03,-1.087472698860290042e-02,0.000000000000000000e+00
1.448000000000000000e+03,2.097396879676925036e-02,0.000000000000000000e+00
1.449000000000000000e+03,7.495446950160164490e-02,0.000000000000000000e+00
1.450000000000000000e+03,1.842756578015714852e-01,0.000000000000000000e+00
1.451000000000000000e+03,2.295240802449056150e-01,0.000000000000000000e+00
1.452000000000000000e+03,2.064101326165214689e-01,0.000000000000000000e+00
1.453000000000000000e+03,1.866701829316407268e-01,0.000000000000000000e+00
1.454000000000000000e+03,3.385441359695106067e-01,0.000000000000000000e+00
1.455000000000000000e+03,2.534411380825409843e-01,0.000000000000000000e+00
1.456000000000000000e+03,2.489325715349317292e-01,0.000000000000000000e+00
1.457000000000000000e+03,3.983237076113383401e-01,0.000000000000000000e+00
1.458000000000000000e+03,3.230844215529949381e-01,0.000000000000000000e+00
1.459000000000000000e+03,6.017227533914402127e-01,0.000000000000000000e+00
1.460000000000000000e+03,7.089601112241328273e-01,0.000000000000000000e+00
1.461000000000000000e+03,5.123095363608747288e-01,0.000000000000000000e+00
1.462000000000000000e+03,5.264078170281221158e-01,0.000000000000000000e+00
1.463000000000000000e+03,2.595547941577257545e-01,0.000000000000000000e+00
1.464000000000000000e+03,4.828247937445200727e-02,0.000000000000000000e+00
1.465000000000000000e+03,9.695870450996947609e-02,0.000000000000000000e+00
1.466000000000000000e+03,4.135494297376791917e-02,0.000000000000000000e+00
1.467000000000000000e+03,3.859640344075031954e-02,0.000000000000000000e+00
1.468000000000000000e+03,5.550439295237712400e+00,0.000000000000000000e+00
1.469000000000000000e+03,3.199434297246876113e+00,1.000000000000000000e+00
1.470000000000000000e+03,-1.519017323509101569e+00,0.000000000000000000e+00
1.471000000000000000e+03,-5.134209911846163710e-01,0.000000000000000000e+00
1.472000000000000000e+03,-9.875974461362932999e-01,0.000000000000000000e+00
1.473000000000000000e+03,-4.942822206291097031e-01,0.000000000000000000e+00
1.474000000000000000e+03,-7.171754321779033603e-01,0.000000000000000000e+00
1.475000000000000000e+03,-2.968847597866017263e-01,0.000000000000000000e+00
1.476000000000000000e+03,-5.280701910880527539e-01,0.000000000000000000e+00
1.477000000000000000e+03,-4.815706964391265610e-02,0.000000000000000000e+00
1.478000000000000000e+03,-1.656167720771335450e-01,0.000000000000000000e+00
1.479000000000000000e+03,1.459480192505146767e-01,0.000000000000000000e+00
1.480000000000000000e+03,2.399156872111960770e-01,0.000000000000000000e+00
1.481000000000000000e+03,6.158271405166170220e-01,0.000000000000000000e+00
1.482000000000000000e+03,6.051270475686225669e-01,0.000000000000000000e+00
1.483000000000000000e+03,1.002112942345478208e+00,0.000000000000000000e+00
1.484000000000000000e+03,9.246632101715831498e-01,0.000000000000000000e+00
1.485000000000000000e+03,6.812351911928883341e-01,0.000000000000000000e+00
1.486000000000000000e+03,-2.594364428108870690e-01,0.000000000000000000e+00
1.487000000000000000e+03,-8.335210406526680771e-01,0.000000000000000000e+00
1.488000000000000000e+03,-1.232257832548403043e+00,0.000000000000000000e+00
1.489000000000000000e+03,-1.271442514252095535e+00,0.000000000000000000e+00
1.490000000000000000e+03,-1.201015641717545490e+00,0.000000000000000000e+00
1.491000000000000000e+03,-1.223591493493096927e+00,0.000000000000000000e+00
1.492000000000000000e+03,-1.025042800409859733e+00,0.000000000000000000e+00
1.493000000000000000e+03,-8.989505195061323617e-01,0.000000000000000000e+00
1.494000000000000000e+03,-1.085513534403543812e+00,0.000000000000000000e+00
1.495000000000000000e+03,-6.128348612812987151e-01,0.000000000000000000e+00
1.496000000000000000e+03,-6.266421169289481119e-01,0.000000000000000000e+00
1.497000000000000000e+03,-6.859283046821149643e-01,0.000000000000000000e+00
1.498000000000000000e+03,-5.288075544542166773e-01,0.000000000000000000e+00
1.499000000000000000e+03,-1.809550197426040286e-01,0.000000000000000000e+00
1.500000000000000000e+03,-4.285434917928091503e-01,0.000000000000000000e+00
1.501000000000000000e+03,-2.433318738900976386e-01,0.000000000000000000e+00
1.502000000000000000e+03,-1.676139439226425609e-01,0.000000000000000000e+00
1.503000000000000000e+03,-2.021639337814022108e-01,0.000000000000000000e+00
1.504000000000000000e+03,-9.617349209147056655e-02,0.000000000000000000e+00
1.505000000000000000e+03,-7.068532565738358531e-02,0.000000000000000000e+00
1.506000000000000000e+03,-7.117748417420999285e-02,0.000000000000000000e+00
1.507000000000000000e+03,1.700566581208221850e-01,0.000000000000000000e+00
1.508000000000000000e+03,-1.324766067646284962e-01,0.000000000000000000e+00
1.509000000000000000e+03,2.364243854240844211e-01,0.000000000000000000e+00
1.510000000000000000e+03,6.201272542476807259e-02,0.000000000000000000e+00
1.511000000000000000e+03,2.733773393559641440e-01,0.000000000000000000e+00
1.512000000000000000e+03,2.239325816564354810e-01,0.000000000000000000e+00
1.513000000000000000e+03,2.347710542583414384e-01,0.000000000000000000e+00
1.514000000000000000e+03,1.717746979086215986e-01,0.000000000000000000e+00
1.515000000000000000e+03,5.478155133919250241e-01,0.000000000000000000e+00
1.516000000000000000e+03,1.335577209844283908e-01,0.000000000000000000e+00
1.517000000000000000e+03,6.967429249485360687e-01,0.000000000000000000e+00
1.518000000000000000e+03,5.011570066712519589e-01,0.000000000000000000e+00
1.519000000000000000e+03,4.136914451177151064e-01,0.000000000000000000e+00
1.520000000000000000e+03,1.881144884852230525e-01,0.000000000000000000e+00
1.521000000000000000e+03,1.594392176949685491e-01,0.000000000000000000e+00
1.522000000000000000e+03,-8.813753343053448708e-02,0.000000000000000000e+00
1.523000000000000000e+03,2.336761840387443501e-01,0.000000000000000000e+00
1.524000000000000000e+03,-5.569251975714720748e-01,0.000000000000000000e+00
1.525000000000000000e+03,4.247056808268771633e+00,0.000000000000000000e+00
1.526000000000000000e+03,4.348295532726243806e+00,0.000000000000000000e+00
1.527000000000000000e+03,-1.257542458270955565e+00,1.000000000000000000e+00
1.528000000000000000e+03,-6.425591918215468601e-01,0.000000000000000000e+00
1.529000000000000000e+03,-8.299156186593527051e-01,0.000000000000000000e+00
1.530000000000000000e+03,-4.591248047761652407e-01,0.000000000000000000e+00
1.531000000000000000e+03,-7.302161663964135130e-01,0.000000000000000000e+00
1.532000000000000000e+03,-3.345583740179784993e-01,0.000000000000000000e+00
1.533000000000000000e+03,-4.279390281921841566e-01,0.000000000000000000e+00
1.534000000000000000e+03,-8.564388381855322571e-03,0.000000000000000000e+00
1.535000000000000000e+03,-2.446773948984597158e-01,0.000000000000000000e+00
1.536000000000000000e+03,2.011745568552725516e-01,0.000000000000000000e+00
1.537000000000000000e+03,2.438482515175471321e-01,0.000000000000000000e+00
1.538000000000000000e+03,5.232317384480138500e-01,0.000000000000000000e+00
1.539000000000000000e+03,7.921932453134802321e-01,0.000000000000000000e+00
1.540000000000000000e+03,1.124556756378079392e+00,0.000000000000000000e+00
1.541000000000000000e+03,9.278252764204205638e-01,0.000000000000000000e+00
1.542000000000000000e+03,9.220594902500744983e-01,0.000000000000000000e+00
1.543000000000000000e+03,1.717052960991967588e-03,0.000000000000000000e+00
1.544000000000000000e+03,-6.183252725887472545e-01,0.000000000000000000e+00
1.545000000000000000e+03,-1.080700455254788084e+00,0.000000000000000000e+00
1.546000000000000000e+03,-1.230021092173196662e+00,0.000000000000000000e+00
1.547000000000000000e+03,-1.067042111993928399e+00,0.000000000000000000e+00
1.548000000000000000e+03,-1.089313460407073775e+00,0.000000000000000000e+00
1.549000000000000000e+03,-1.068822394726394398e+00,0.000000000000000000e+00
1.550000000000000000e+03,-7.137482179302933050e-01,0.000000000000000000e+00
1.551000000000000000e+03,-8.155083091187653732e-01,0.000000000000000000e+00
1.552000000000000000e+03,-6.943622702263175794e-01,0.000000000000000000e+00
1.553000000000000000e+03,-6.655210529130247687e-01,0.000000000000000000e+00
1.554000000000000000e+03,-4.264379955474679185e-01,0.000000000000000000e+00
1.555000000000000000e+03,-2.975661827077056287e-01,0.000000000000000000e+00
1.556000000000000000e+03,-4.103154745591243158e-01,0.000000000000000000e+00
1.557000000000000000e+03,-7.453528544970172698e-02,0.000000000000000000e+00
1.558000000000000000e+03,-2.680647587206153593e-01,0.000000000000000000e+00
1.559000000000000000e+03,-1.277516180545582580e-01,0.000000000000000000e+00
1.560000000000000000e+03,-2.962766901621435162e-02,0.000000000000000000e+00
1.561000000000000000e+03,-9.728218366584488741e-02,0.000000000000000000e+00
1.562000000000000000e+03,-4.018550647164038925e-02,0.000000000000000000e+00
1.563000000000000000e+03,2.673187871940256935e-02,0.000000000000000000e+00
1.564000000000000000e+03,9.770309082668943157e-02,0.000000000000000000e+00
1.565000000000000000e+03,1.159577014478476858e-01,0.000000000000000000e+00
1.566000000000000000e+03,9.538849777784735862e-02,0.000000000000000000e+00
1.567000000000000000e+03,2.568525179670397285e-01,0.000000000000000000e+00
1.568000000000000000e+03,1.134846670276080521e-01,0.000000000000000000e+00
1.569000000000000000e+03,2.252774900866802432e-01,0.000000000000000000e+00
1.570000000000000000e+03,1.842290137806009975e-01,0.000000000000000000e+00
1.571000000000000000e+03,3.333639112032646956e-01,0.000000000000000000e+00
1.572000000000000000e+03,1.346074918259842768e-01,0.000000000000000000e+00
1.573000000000000000e+03,4.107832955289355548e-01,0.000000000000000000e+00
1.574000000000000000e+03,3.476183397622811255e-01,0.000000000000000000e+00
1.575000000000000000e+03,6.357592631175182918e-01,0.000000000000000000e+00
1.576000000000000000e+03,5.782345711334270222e-01,0.000000000000000000e+00
1.577000000000000000e+03,6.034939206215050866e-01,0.000000000000000000e+00
1.578000000000000000e+03,2.615298852567809473e-01,0.000000000000000000e+00
1.579000000000000000e+03,1.421833307340263919e-01,0.000000000000000000e+00
1.580000000000000000e+03,4.305026913347660689e-02,0.000000000000000000e+00
1.581000000000000000e+03,2.908477435206063832e-01,0.000000000000000000e+00
1.582000000000000000e+03,-5.515186001057675869e-01,0.000000000000000000e+00
1.583000000000000000e+03,1.947922428967451491e+00,0.000000000000000000e+00
1.584000000000000000e+03,6.124971254014849542e+00,0.000000000000000000e+00
1.585000000000000000e+03,2.331914061643489411e-01,1.000000000000000000e+00
1.586000000000000000e+03,-1.050945658918301273e+00,0.000000000000000000e+00
1.587000000000000000e+03,-5.165704861163757933e-01,0.000000000000000000e+00
