timestamp,ecg_measurement,qrs_detected
0.000000000000000000e+00,-2.042767374144999759e-01,0.000000000000000000e+00
1.000000000000000000e+00,-3.745968071926852883e-02,0.000000000000000000e+00
2.000000000000000000e+00,-3.274954403031107297e-01,0.000000000000000000e+00
3.000000000000000000e+00,1.147114602530704616e-02,0.000000000000000000e+00
4.000000000000000000e+00,-1.239769440240561238e-01,0.000000000000000000e+00
5.000000000000000000e+00,-2.099938866510196178e-01,0.000000000000000000e+00
6.000000000000000000e+00,1.730711526994445706e-02,0.000000000000000000e+00
7.000000000000000000e+00,-3.084761969599491768e-02,0.000000000000000000e+00
8.000000000000000000e+00,4.541327268313177096e-02,0.000000000000000000e+00
9.000000000000000000e+00,-1.019161414329766285e-01,0.000000000000000000e+00
1.000000000000000000e+01,4.690427236713063386e-01,0.000000000000000000e+00
1.100000000000000000e+01,3.045899081716607060e-01,0.000000000000000000e+00
1.200000000000000000e+01,6.395226901642302453e-01,0.000000000000000000e+00
1.300000000000000000e+01,7.251601876403351854e-01,0.000000000000000000e+00
1.400000000000000000e+01,-3.988900354869025500e-01,0.000000000000000000e+00
1.500000000000000000e+01,3.309790506778005348e-01,0.000000000000000000e+00
1.600000000000000000e+01,-4.055946230901898431e-01,0.000000000000000000e+00
1.700000000000000000e+01,3.144738765329181174e+00,0.000000000000000000e+00
1.800000000000000000e+01,3.923505652961182033e+00,0.000000000000000000e+00
1.900000000000000000e+01,-1.106005995887790805e+00,1.000000000000000000e+00
2.000000000000000000e+01,-9.375844281011346260e-01,0.000000000000000000e+00
2.100000000000000000e+01,-1.056090478378930886e+00,0.000000000000000000e+00
2.200000000000000000e+01,-7.544725662774235397e-01,0.000000000000000000e+00
2.300000000000000000e+01,-6.308305863262920754e-01,0.000000000000000000e+00
2.400000000000000000e+01,-4.367343883848017749e-01,0.000000000000000000e+00
2.500000000000000000e+01,-1.000140156973408523e+00,0.000000000000000000e+00
2.600000000000000000e+01,-1.592475825820675317e-01,0.000000000000000000e+00
2.700000000000000000e+01,-3.410753360825879987e-01,0.000000000000000000e+00
2.800000000000000000e+01,3.390133580484276377e-01,0.000000000000000000e+00
2.900000000000000000e+01,4.295366569484388997e-01,0.000000000000000000e+00
3.000000000000000000e+01,4.192710674044229369e-01,0.000000000000000000e+00
3.100000000000000000e+01,1.029725438163587636e+00,0.000000000000000000e+00
3.200000000000000000e+01,1.298980095601088403e+00,0.000000000000000000e+00
3.300000000000000000e+01,8.173811516181201942e-01,0.000000000000000000e+00
3.400000000000000000e+01,5.329240981145705325e-01,0.000000000000000000e+00
3.500000000000000000e+01,-3.969456689121114712e-01,0.000000000000000000e+00
3.600000000000000000e+01,-5.177131939500306812e-01,0.000000000000000000e+00
3.700000000000000000e+01,-9.178068810455011217e-01,0.000000000000000000e+00
3.800000000000000000e+01,-6.981156253140329282e-01,0.000000000000000000e+00
3.900000000000000000e+01,-5.034773637093020726e-01,0.000000000000000000e+00
4.000000000000000000e+01,-4.404932021326798952e-01,0.000000000000000000e+00
4.100000000000000000e+01,1.630255661167608755e-02,0.000000000000000000e+00
4.200000000000000000e+01,-2.076104951657051223e-01,0.000000000000000000e+00
4.300000000000000000e+01,5.212324642504291561e-02,0.000000000000000000e+00
4.400000000000000000e+01,-2.584124494807740757e-01,0.000000000000000000e+00
4.500000000000000000e+01,4.171949177347515463e-04,0.000000000000000000e+00
4.600000000000000000e+01,-2.363463911762259395e-01,0.000000000000000000e+00
4.700000000000000000e+01,-3.148759531393445221e-01,0.000000000000000000e+00
4.800000000000000000e+01,6.782981496510059882e-02,0.000000000000000000e+00
4.900000000000000000e+01,-2.558375065361134792e-01,0.000000000000000000e+00
5.000000000000000000e+01,-2.851517893055298125e-01,0.000000000000000000e+00
5.100000000000000000e+01,-1.359763455070739369e-01,0.000000000000000000e+00
5.200000000000000000e+01,3.377107700642084653e-02,0.000000000000000000e+00
5.300000000000000000e+01,4.434711300302719705e-02,0.000000000000000000e+00
5.400000000000000000e+01,-1.264409325773664834e-02,0.000000000000000000e+00
5.500000000000000000e+01,2.658392232725114712e-01,0.000000000000000000e+00
5.600000000000000000e+01,4.770706453629536825e-01,0.000000000000000000e+00
5.700000000000000000e+01,7.000409927099663365e-01,0.000000000000000000e+00
5.800000000000000000e+01,2.145206350333441966e-02,0.000000000000000000e+00
5.900000000000000000e+01,-3.548040104554385510e-02,0.000000000000000000e+00
6.000000000000000000e+01,-2.450048540764273308e-01,0.000000000000000000e+00
6.100000000000000000e+01,1.923885858324939413e+00,0.000000000000000000e+00
6.200000000000000000e+01,4.809450980529607733e+00,0.000000000000000000e+00
6.300000000000000000e+01,6.007998250409612301e-02,1.000000000000000000e+00
6.400000000000000000e+01,-9.939453962904670759e-01,0.000000000000000000e+00
6.500000000000000000e+01,-8.338560469475334580e-01,0.000000000000000000e+00
6.600000000000000000e+01,-1.087238333880946373e+00,0.000000000000000000e+00
6.700000000000000000e+01,-9.297573759445715291e-01,0.000000000000000000e+00
6.800000000000000000e+01,-5.213549730997711906e-01,0.000000000000000000e+00
6.900000000000000000e+01,-4.730520529642033289e-01,0.000000000000000000e+00
7.000000000000000000e+01,-3.923815050283001593e-01,0.000000000000000000e+00
7.100000000000000000e+01,-5.291772353476461577e-01,0.000000000000000000e+00
7.200000000000000000e+01,-2.669762387784798685e-01,0.000000000000000000e+00
7.300000000000000000e+01,3.478626782667822853e-02,0.000000000000000000e+00
7.400000000000000000e+01,7.525165152131599866e-01,0.000000000000000000e+00
7.500000000000000000e+01,5.840019126200913790e-01,0.000000000000000000e+00
7.600000000000000000e+01,9.856671391877731558e-01,0.000000000000000000e+00
7.700000000000000000e+01,9.480093215459728384e-01,0.000000000000000000e+00
7.800000000000000000e+01,7.927831309958799366e-02,0.000000000000000000e+00
7.900000000000000000e+01,-2.087779525368343436e-01,0.000000000000000000e+00
8.000000000000000000e+01,-5.323161887885786703e-01,0.000000000000000000e+00
8.100000000000000000e+01,-7.347238686630297444e-01,0.000000000000000000e+00
8.200000000000000000e+01,-8.994264219365819546e-01,0.000000000000000000e+00
8.300000000000000000e+01,-5.725122652109672083e-01,0.000000000000000000e+00
8.400000000000000000e+01,-1.865272565342186162e-01,0.000000000000000000e+00
8.500000000000000000e+01,-5.645282619500268106e-01,0.000000000000000000e+00
8.600000000000000000e+01,-7.949818890827803353e-02,0.000000000000000000e+00
8.700000000000000000e+01,-4.185902787630396138e-01,0.000000000000000000e+00
8.800000000000000000e+01,2.603713988895416387e-01,0.000000000000000000e+00
8.900000000000000000e+01,-2.717499049458529381e-01,0.000000000000000000e+00
9.000000000000000000e+01,-2.862969688827986525e-01,0.000000000000000000e+00
9.100000000000000000e+01,-2.125633529665274801e-01,0.000000000000000000e+00
9.200000000000000000e+01,-9.169224706793559221e-02,0.000000000000000000e+00
9.300000000000000000e+01,2.333909521639837559e-01,0.000000000000000000e+00
9.400000000000000000e+01,-2.566192259204834181e-01,0.000000000000000000e+00
9.500000000000000000e+01,-9.827433093634968531e-02,0.000000000000000000e+00
9.600000000000000000e+01,-3.751678162827326579e-01,0.000000000000000000e+00
9.700000000000000000e+01,1.483356806380490556e-01,0.000000000000000000e+00
9.800000000000000000e+01,-3.105496186605618755e-02,0.000000000000000000e+00
9.900000000000000000e+01,3.184674764912933664e-01,0.000000000000000000e+00
1.000000000000000000e+02,3.249788305702740882e-03,0.000000000000000000e+00
1.010000000000000000e+02,1.204999875234303297e-01,0.000000000000000000e+00
1.020000000000000000e+02,5.696951697744846443e-01,0.000000000000000000e+00
1.030000000000000000e+02,2.228692223417398088e-01,0.000000000000000000e+00
1.040000000000000000e+02,-2.077511550769082782e-01,0.000000000000000000e+00
1.050000000000000000e+02,-8.453688088953902335e-01,0.000000000000000000e+00
1.060000000000000000e+02,7.389364823156681084e-01,0.000000000000000000e+00
1.070000000000000000e+02,5.022786397456945551e+00,0.000000000000000000e+00
1.080000000000000000e+02,1.202276960144412987e+00,1.000000000000000000e+00
1.090000000000000000e+02,-1.551432403956085171e+00,0.000000000000000000e+00
1.100000000000000000e+02,-1.049553739246017026e+00,0.000000000000000000e+00
1.110000000000000000e+02,-1.602646817705493332e+00,0.000000000000000000e+00
1.120000000000000000e+02,-1.199825119514124294e+00,0.000000000000000000e+00
1.130000000000000000e+02,-1.215632463546729713e+00,0.000000000000000000e+00
1.140000000000000000e+02,-1.186112290597547414e+00,0.000000000000000000e+00
1.150000000000000000e+02,-9.438619016674035800e-01,0.000000000000000000e+00
1.160000000000000000e+02,-7.544220003577009059e-01,0.000000000000000000e+00
1.170000000000000000e+02,-4.506687011292396239e-01,0.000000000000000000e+00
1.180000000000000000e+02,-3.157083518379730780e-01,0.000000000000000000e+00
1.190000000000000000e+02,-8.129210460454715237e-02,0.000000000000000000e+00
1.200000000000000000e+02,6.505140460494074350e-01,0.000000000000000000e+00
1.210000000000000000e+02,6.182545566410259097e-01,0.000000000000000000e+00
1.220000000000000000e+02,1.093753379181154672e+00,0.000000000000000000e+00
1.230000000000000000e+02,3.385749937229961537e-01,0.000000000000000000e+00
1.240000000000000000e+02,-1.637589566493457549e-01,0.000000000000000000e+00
1.250000000000000000e+02,-7.100288401532800497e-01,0.000000000000000000e+00
1.260000000000000000e+02,-3.778839465280237064e-01,0.000000000000000000e+00
1.270000000000000000e+02,-5.766700201109272728e-01,0.000000000000000000e+00
1.280000000000000000e+02,-3.176204238941548463e-01,0.000000000000000000e+00
1.290000000000000000e+02,-5.796797448884146720e-01,0.000000000000000000e+00
1.300000000000000000e+02,-1.164668555427455093e-01,0.000000000000000000e+00
1.310000000000000000e+02,3.902575223508233243e-02,0.000000000000000000e+00
1.320000000000000000e+02,2.835538044775254285e-01,0.000000000000000000e+00
1.330000000000000000e+02,2.157444665201099232e-01,0.000000000000000000e+00
1.340000000000000000e+02,1.436856345059121798e-01,0.000000000000000000e+00
1.350000000000000000e+02,1.025344500337194154e-01,0.000000000000000000e+00
1.360000000000000000e+02,4.072144558561740513e-01,0.000000000000000000e+00
1.370000000000000000e+02,6.680620037163161884e-01,0.000000000000000000e+00
1.380000000000000000e+02,2.190911381129750646e-01,0.000000000000000000e+00
1.390000000000000000e+02,4.397558457832430601e-01,0.000000000000000000e+00
1.400000000000000000e+02,6.310584275570642054e-01,0.000000000000000000e+00
1.410000000000000000e+02,2.002053626094858485e-01,0.000000000000000000e+00
1.420000000000000000e+02,6.062221655380547469e-01,0.000000000000000000e+00
1.430000000000000000e+02,4.114754912506790596e-01,0.000000000000000000e+00
1.440000000000000000e+02,6.503246437286323012e-01,0.000000000000000000e+00
1.450000000000000000e+02,5.555220739999642277e-01,0.000000000000000000e+00
1.460000000000000000e+02,8.888344663886464936e-01,0.000000000000000000e+00
1.470000000000000000e+02,6.057879216404650213e-01,0.000000000000000000e+00
1.480000000000000000e+02,1.428609686553550695e+00,0.000000000000000000e+00
1.490000000000000000e+02,2.069075769459505498e-01,0.000000000000000000e+00
1.500000000000000000e+02,2.431894649424975186e-01,0.000000000000000000e+00
1.510000000000000000e+02,4.198039476586618579e-01,0.000000000000000000e+00
1.520000000000000000e+02,4.019398665432233564e+00,0.000000000000000000e+00
1.530000000000000000e+02,3.478312575682579233e+00,0.000000000000000000e+00
1.540000000000000000e+02,-1.080921872785980842e+00,1.000000000000000000e+00
1.550000000000000000e+02,-3.536827916399009064e-01,0.000000000000000000e+00
1.560000000000000000e+02,-8.533231228748971997e-01,0.000000000000000000e+00
1.570000000000000000e+02,-4.193158627364868551e-01,0.000000000000000000e+00
1.580000000000000000e+02,-5.063667433197017731e-01,0.000000000000000000e+00
1.590000000000000000e+02,-1.803240822521079423e-01,0.000000000000000000e+00
1.600000000000000000e+02,-2.920604463900791647e-01,0.000000000000000000e+00
1.610000000000000000e+02,-1.783611885083612736e-01,0.000000000000000000e+00
1.620000000000000000e+02,1.105684265859452620e-01,0.000000000000000000e+00
1.630000000000000000e+02,-1.176707917929637956e-02,0.000000000000000000e+00
1.640000000000000000e+02,3.845387147842246334e-01,0.000000000000000000e+00
1.650000000000000000e+02,9.853817739898318440e-01,0.000000000000000000e+00
1.660000000000000000e+02,1.151121916466971040e+00,0.000000000000000000e+00
1.670000000000000000e+02,1.178231429341396241e+00,0.000000000000000000e+00
1.680000000000000000e+02,8.962640267352628420e-01,0.000000000000000000e+00
1.690000000000000000e+02,-2.987090181009757414e-02,0.000000000000000000e+00
1.700000000000000000e+02,-5.493601898667876959e-01,0.000000000000000000e+00
1.710000000000000000e+02,-8.971799432931397700e-01,0.000000000000000000e+00
1.720000000000000000e+02,-7.423024780731052319e-01,0.000000000000000000e+00
1.730000000000000000e+02,-8.635278202299725425e-01,0.000000000000000000e+00
1.740000000000000000e+02,-8.302957071250393062e-01,0.000000000000000000e+00
1.750000000000000000e+02,-5.355421351294722410e-01,0.000000000000000000e+00
1.760000000000000000e+02,-7.202896584065604513e-01,0.000000000000000000e+00
1.770000000000000000e+02,-1.447731903489712091e-01,0.000000000000000000e+00
1.780000000000000000e+02,-5.033285635763493637e-01,0.000000000000000000e+00
1.790000000000000000e+02,-4.317827297252391228e-01,0.000000000000000000e+00
1.800000000000000000e+02,-6.734138831634300937e-01,0.000000000000000000e+00
1.810000000000000000e+02,-3.625387155162743125e-01,0.000000000000000000e+00
1.820000000000000000e+02,-6.733753961164460344e-01,0.000000000000000000e+00
1.830000000000000000e+02,-5.863059850676963780e-01,0.000000000000000000e+00
1.840000000000000000e+02,-3.229954740019354009e-01,0.000000000000000000e+00
1.850000000000000000e+02,-5.554363355504653432e-01,0.000000000000000000e+00
1.860000000000000000e+02,-5.842861623204083088e-01,0.000000000000000000e+00
1.870000000000000000e+02,-6.352757971519209512e-01,0.000000000000000000e+00
1.880000000000000000e+02,-4.413319731851980121e-01,0.000000000000000000e+00
1.890000000000000000e+02,-5.796898606896928596e-01,0.000000000000000000e+00
1.900000000000000000e+02,-4.237629654928171119e-01,0.000000000000000000e+00
1.910000000000000000e+02,-3.209594815527911926e-01,0.000000000000000000e+00
1.920000000000000000e+02,9.690864573676882809e-02,0.000000000000000000e+00
1.930000000000000000e+02,-2.505167791579986369e-01,0.000000000000000000e+00
1.940000000000000000e+02,-1.004561640261937061e+00,0.000000000000000000e+00
1.950000000000000000e+02,-6.313696158203045972e-01,0.000000000000000000e+00
1.960000000000000000e+02,-6.722273437504137084e-01,0.000000000000000000e+00
1.970000000000000000e+02,3.968607385619627781e+00,0.000000000000000000e+00
1.980000000000000000e+02,1.930321651839776775e+00,1.000000000000000000e+00
1.990000000000000000e+02,-2.036845548769777636e+00,0.000000000000000000e+00
2.000000000000000000e+02,-1.456947584442363164e+00,0.000000000000000000e+00
2.010000000000000000e+02,-1.871970500181912023e+00,0.000000000000000000e+00
2.020000000000000000e+02,-1.395230119857200135e+00,0.000000000000000000e+00
2.030000000000000000e+02,-1.358428124138024939e+00,0.000000000000000000e+00
2.040000000000000000e+02,-1.283000660069882226e+00,0.000000000000000000e+00
2.050000000000000000e+02,-1.026685645528607527e+00,0.000000000000000000e+00
2.060000000000000000e+02,-7.450344441062780598e-01,0.000000000000000000e+00
2.070000000000000000e+02,-7.994634386065601062e-01,0.000000000000000000e+00
2.080000000000000000e+02,-4.848032711385215632e-01,0.000000000000000000e+00
2.090000000000000000e+02,-3.309301486978266649e-01,0.000000000000000000e+00
2.100000000000000000e+02,5.787732424051207358e-01,0.000000000000000000e+00
2.110000000000000000e+02,4.866809804911175208e-01,0.000000000000000000e+00
2.120000000000000000e+02,5.943024432837468174e-01,0.000000000000000000e+00
2.130000000000000000e+02,1.893153716048619484e-01,0.000000000000000000e+00
2.140000000000000000e+02,-3.980603261653442027e-01,0.000000000000000000e+00
2.150000000000000000e+02,-4.767464119008801848e-01,0.000000000000000000e+00
2.160000000000000000e+02,-1.135769778253985285e+00,0.000000000000000000e+00
2.170000000000000000e+02,-7.783166762554961648e-01,0.000000000000000000e+00
2.180000000000000000e+02,-7.090482155759613159e-01,0.000000000000000000e+00
2.190000000000000000e+02,-6.998170886918391176e-01,0.000000000000000000e+00
2.200000000000000000e+02,-3.620806830593367720e-01,0.000000000000000000e+00
2.210000000000000000e+02,-8.472781716667697471e-02,0.000000000000000000e+00
2.220000000000000000e+02,-2.586186187550229901e-02,0.000000000000000000e+00
2.230000000000000000e+02,-3.426546468130173967e-02,0.000000000000000000e+00
2.240000000000000000e+02,1.925788991752708512e-01,0.000000000000000000e+00
2.250000000000000000e+02,1.032810751054322324e-01,0.000000000000000000e+00
2.260000000000000000e+02,2.258914952316430635e-01,0.000000000000000000e+00
2.270000000000000000e+02,3.088005711754818194e-01,0.000000000000000000e+00
2.280000000000000000e+02,1.860209952504557895e-01,0.000000000000000000e+00
2.290000000000000000e+02,7.791276015647545516e-02,0.000000000000000000e+00
2.300000000000000000e+02,2.919328285031874137e-01,0.000000000000000000e+00
2.310000000000000000e+02,2.944625386572811698e-01,0.000000000000000000e+00
2.320000000000000000e+02,4.487652466740950641e-01,0.000000000000000000e+00
2.330000000000000000e+02,3.306441385169870406e-01,0.000000000000000000e+00
2.340000000000000000e+02,3.248891058597346837e-01,0.000000000000000000e+00
2.350000000000000000e+02,4.569046022982820587e-01,0.000000000000000000e+00
2.360000000000000000e+02,2.445015792180186831e-01,0.000000000000000000e+00
2.370000000000000000e+02,9.310262276970048267e-01,0.000000000000000000e+00
2.380000000000000000e+02,1.029233050371439306e+00,0.000000000000000000e+00
2.390000000000000000e+02,6.720252955298958719e-01,0.000000000000000000e+00
2.400000000000000000e+02,2.507657266094069359e-01,0.000000000000000000e+00
2.410000000000000000e+02,4.858409663378341903e-01,0.000000000000000000e+00
2.420000000000000000e+02,-1.927656024436456492e-02,0.000000000000000000e+00
2.430000000000000000e+02,4.369395837746706590e+00,0.000000000000000000e+00
2.440000000000000000e+02,4.698902539976852033e+00,0.000000000000000000e+00
2.450000000000000000e+02,-3.029479321343840348e-01,1.000000000000000000e+00
2.460000000000000000e+02,-6.373457255758301354e-01,0.000000000000000000e+00
2.470000000000000000e+02,-6.791666064368782063e-01,0.000000000000000000e+00
2.480000000000000000e+02,-4.494566258352526433e-01,0.000000000000000000e+00
2.490000000000000000e+02,-4.143602692557489808e-01,0.000000000000000000e+00
2.500000000000000000e+02,-3.943364904097566570e-01,0.000000000000000000e+00
2.510000000000000000e+02,-1.577616090935851090e-01,0.000000000000000000e+00
2.520000000000000000e+02,2.951016822486632885e-01,0.000000000000000000e+00
2.530000000000000000e+02,-8.868468594581226105e-02,0.000000000000000000e+00
2.540000000000000000e+02,3.092028345645705945e-01,0.000000000000000000e+00
2.550000000000000000e+02,7.775312644353465918e-01,0.000000000000000000e+00
2.560000000000000000e+02,9.721137288965711054e-01,0.000000000000000000e+00
2.570000000000000000e+02,1.336774361099405839e+00,0.000000000000000000e+00
2.580000000000000000e+02,1.207301679926194860e+00,0.000000000000000000e+00
2.590000000000000000e+02,8.547741057487542315e-01,0.000000000000000000e+00
2.600000000000000000e+02,7.886364390717621742e-01,0.000000000000000000e+00
2.610000000000000000e+02,-3.821730550329591747e-01,0.000000000000000000e+00
2.620000000000000000e+02,2.527550820925448041e-02,0.000000000000000000e+00
2.630000000000000000e+02,-6.001218380078171544e-01,0.000000000000000000e+00
2.640000000000000000e+02,-5.743673756051842494e-01,0.000000000000000000e+00
2.650000000000000000e+02,-1.635413938545551560e-01,0.000000000000000000e+00
2.660000000000000000e+02,-3.356917903740548326e-01,0.000000000000000000e+00
2.670000000000000000e+02,-7.956602129622360187e-02,0.000000000000000000e+00
2.680000000000000000e+02,1.731770347149035605e-01,0.000000000000000000e+00
2.690000000000000000e+02,-7.804782070887945900e-02,0.000000000000000000e+00
2.700000000000000000e+02,1.206448655007354848e-01,0.000000000000000000e+00
2.710000000000000000e+02,-8.427255250987220059e-02,0.000000000000000000e+00
2.720000000000000000e+02,8.480920349081358389e-02,0.000000000000000000e+00
2.730000000000000000e+02,-6.930902507086317277e-02,0.000000000000000000e+00
2.740000000000000000e+02,-1.906769527948284915e-01,0.000000000000000000e+00
2.750000000000000000e+02,-4.430160974066187918e-01,0.000000000000000000e+00
2.760000000000000000e+02,1.806531969497006673e-01,0.000000000000000000e+00
2.770000000000000000e+02,-3.874497068770417774e-01,0.000000000000000000e+00
2.780000000000000000e+02,-4.930637456112114680e-01,0.000000000000000000e+00
2.790000000000000000e+02,-5.714068330383612060e-03,0.000000000000000000e+00
2.800000000000000000e+02,-1.200869571132447272e-01,0.000000000000000000e+00
2.810000000000000000e+02,-4.083960533008288429e-01,0.000000000000000000e+00
2.820000000000000000e+02,8.364963914864530226e-02,0.000000000000000000e+00
2.830000000000000000e+02,-1.061078792594026404e-01,0.000000000000000000e+00
2.840000000000000000e+02,-5.074685710398902927e-01,0.000000000000000000e+00
2.850000000000000000e+02,2.450762049691424804e-01,0.000000000000000000e+00
2.860000000000000000e+02,2.231688960323595372e-01,0.000000000000000000e+00
2.870000000000000000e+02,5.586839949072061051e-01,0.000000000000000000e+00
2.880000000000000000e+02,-1.780074807930885350e-01,0.000000000000000000e+00
2.890000000000000000e+02,-2.829923836408100302e-01,0.000000000000000000e+00
2.900000000000000000e+02,-7.137337111158978953e-01,0.000000000000000000e+00
2.910000000000000000e+02,1.743126824952095255e+00,0.000000000000000000e+00
2.920000000000000000e+02,4.968765630910992215e+00,0.000000000000000000e+00
2.930000000000000000e+02,-2.745141000422408051e-01,1.000000000000000000e+00
2.940000000000000000e+02,-1.306558571583969597e+00,0.000000000000000000e+00
2.950000000000000000e+02,-1.558029241675842114e+00,0.000000000000000000e+00
2.960000000000000000e+02,-1.235205641459275361e+00,0.000000000000000000e+00
2.970000000000000000e+02,-1.379599339011072345e+00,0.000000000000000000e+00
2.980000000000000000e+02,-1.179276765147460493e+00,0.000000000000000000e+00
2.990000000000000000e+02,-1.321133528071637198e+00,0.000000000000000000e+00
3.000000000000000000e+02,-5.889903868631111150e-01,0.000000000000000000e+00
3.010000000000000000e+02,-1.057014289544503605e+00,0.000000000000000000e+00
3.020000000000000000e+02,-1.900987644325992931e-01,0.000000000000000000e+00
3.030000000000000000e+02,-5.925943048960927717e-01,0.000000000000000000e+00
3.040000000000000000e+02,1.399193215903867249e-01,0.000000000000000000e+00
3.050000000000000000e+02,7.405127193408628239e-01,0.000000000000000000e+00
3.060000000000000000e+02,6.012208433748530423e-01,0.000000000000000000e+00
3.070000000000000000e+02,5.856162886748691454e-01,0.000000000000000000e+00
3.080000000000000000e+02,5.331446665449469657e-01,0.000000000000000000e+00
3.090000000000000000e+02,-4.279332912725893889e-01,0.000000000000000000e+00
3.100000000000000000e+02,-7.141534931198370018e-01,0.000000000000000000e+00
3.110000000000000000e+02,-1.127667843363396871e+00,0.000000000000000000e+00
3.120000000000000000e+02,-6.561486696139627872e-01,0.000000000000000000e+00
3.130000000000000000e+02,-8.027861902607187350e-01,0.000000000000000000e+00
3.140000000000000000e+02,-5.724646503447597956e-01,0.000000000000000000e+00
3.150000000000000000e+02,-3.299053525911289086e-01,0.000000000000000000e+00
3.160000000000000000e+02,-2.335989341380759476e-01,0.000000000000000000e+00
3.170000000000000000e+02,-2.235119821660646877e-01,0.000000000000000000e+00
3.180000000000000000e+02,-3.797800746631070368e-01,0.000000000000000000e+00
3.190000000000000000e+02,-1.468950138940515807e-02,0.000000000000000000e+00
3.200000000000000000e+02,3.820349240328392570e-02,0.000000000000000000e+00
3.210000000000000000e+02,-2.200051924035964501e-01,0.000000000000000000e+00
3.220000000000000000e+02,-3.256671436626862870e-01,0.000000000000000000e+00
3.230000000000000000e+02,4.615390214585778778e-02,0.000000000000000000e+00
3.240000000000000000e+02,-3.303130867296512063e-01,0.000000000000000000e+00
3.250000000000000000e+02,5.307637327264621424e-02,0.000000000000000000e+00
3.260000000000000000e+02,3.126417971378798316e-02,0.000000000000000000e+00
3.270000000000000000e+02,-9.711983952841699019e-02,0.000000000000000000e+00
3.280000000000000000e+02,-2.422657537927617455e-01,0.000000000000000000e+00
3.290000000000000000e+02,3.279056194650901701e-01,0.000000000000000000e+00
3.300000000000000000e+02,1.212977220869391852e-03,0.000000000000000000e+00
3.310000000000000000e+02,1.178856581220406596e-01,0.000000000000000000e+00
3.320000000000000000e+02,1.606690740760177150e-01,0.000000000000000000e+00
3.330000000000000000e+02,-7.954856359945446098e-02,0.000000000000000000e+00
3.340000000000000000e+02,4.776428461219506261e-01,0.000000000000000000e+00
3.350000000000000000e+02,3.571714170589473381e-01,0.000000000000000000e+00
3.360000000000000000e+02,8.444781489159337573e-01,0.000000000000000000e+00
3.370000000000000000e+02,7.008402533105687060e-02,0.000000000000000000e+00
3.380000000000000000e+02,1.045010424415288852e-01,0.000000000000000000e+00
3.390000000000000000e+02,2.271546507919002533e-01,0.000000000000000000e+00
3.400000000000000000e+02,3.783087186301543614e-01,0.000000000000000000e+00
3.410000000000000000e+02,4.904061285896285760e+00,0.000000000000000000e+00
3.420000000000000000e+02,1.478062749302895496e+00,1.000000000000000000e+00
3.430000000000000000e+02,-1.570523959313182560e+00,0.000000000000000000e+00
3.440000000000000000e+02,-6.732394124961388338e-01,0.000000000000000000e+00
3.450000000000000000e+02,-1.106114014914172605e+00,0.000000000000000000e+00
3.460000000000000000e+02,-7.268787411809698451e-01,0.000000000000000000e+00
3.470000000000000000e+02,-9.364667848895095181e-01,0.000000000000000000e+00
3.480000000000000000e+02,-2.902461473786530077e-01,0.000000000000000000e+00
3.490000000000000000e+02,-8.066553153245920038e-01,0.000000000000000000e+00
3.500000000000000000e+02,-6.819733031797524381e-02,0.000000000000000000e+00
3.510000000000000000e+02,-7.480591674816067238e-01,0.000000000000000000e+00
3.520000000000000000e+02,3.948564108160936281e-01,0.000000000000000000e+00
3.530000000000000000e+02,3.974313145503527434e-01,0.000000000000000000e+00
3.540000000000000000e+02,9.212015453381385832e-01,0.000000000000000000e+00
3.550000000000000000e+02,7.793319606858327697e-01,0.000000000000000000e+00
3.560000000000000000e+02,1.561886883106592849e+00,0.000000000000000000e+00
3.570000000000000000e+02,7.034840186218368485e-01,0.000000000000000000e+00
3.580000000000000000e+02,4.604775193047152548e-01,0.000000000000000000e+00
3.590000000000000000e+02,-5.485489598053078231e-01,0.000000000000000000e+00
3.600000000000000000e+02,-7.071777016461300303e-01,0.000000000000000000e+00
3.610000000000000000e+02,-6.735221423713947386e-01,0.000000000000000000e+00
3.620000000000000000e+02,-3.547920418650117869e-01,0.000000000000000000e+00
3.630000000000000000e+02,-5.593320482851261710e-01,0.000000000000000000e+00
3.640000000000000000e+02,4.132295327714953226e-01,0.000000000000000000e+00
3.650000000000000000e+02,-2.571707089082508890e-01,0.000000000000000000e+00
3.660000000000000000e+02,1.881378269370536094e-01,0.000000000000000000e+00
3.670000000000000000e+02,1.029995156373402498e-01,0.000000000000000000e+00
3.680000000000000000e+02,4.187968796451939091e-01,0.000000000000000000e+00
3.690000000000000000e+02,-2.204603649189978420e-01,0.000000000000000000e+00
3.700000000000000000e+02,-5.113885197783569342e-02,0.000000000000000000e+00
3.710000000000000000e+02,1.228872542499033910e-01,0.000000000000000000e+00
3.720000000000000000e+02,4.868883351034659912e-02,0.000000000000000000e+00
3.730000000000000000e+02,6.369344644518114273e-02,0.000000000000000000e+00
3.740000000000000000e+02,1.902684568297978440e-01,0.000000000000000000e+00
3.750000000000000000e+02,9.689167357877062625e-02,0.000000000000000000e+00
3.760000000000000000e+02,2.379712718621152800e-01,0.000000000000000000e+00
3.770000000000000000e+02,4.643288195100474941e-02,0.000000000000000000e+00
3.780000000000000000e+02,-6.013946649650813575e-02,0.000000000000000000e+00
3.790000000000000000e+02,-1.949581888262139351e-01,0.000000000000000000e+00
3.800000000000000000e+02,5.798716275868258663e-01,0.000000000000000000e+00
3.810000000000000000e+02,1.675070376219679399e-02,0.000000000000000000e+00
3.820000000000000000e+02,2.417917548973476938e-01,0.000000000000000000e+00
3.830000000000000000e+02,3.715154587781095974e-01,0.000000000000000000e+00
3.840000000000000000e+02,4.746593466944782347e-01,0.000000000000000000e+00
3.850000000000000000e+02,-1.364987891101947792e-01,0.000000000000000000e+00
3.860000000000000000e+02,-4.008963126695039292e-01,0.000000000000000000e+00
3.870000000000000000e+02,2.770130083716860758e-01,0.000000000000000000e+00
3.880000000000000000e+02,4.740014448766586952e+00,0.000000000000000000e+00
3.890000000000000000e+02,1.558503717628344498e+00,1.000000000000000000e+00
3.900000000000000000e+02,-1.361966348046117270e+00,0.000000000000000000e+00
3.910000000000000000e+02,-1.109852582955074718e+00,0.000000000000000000e+00
3.920000000000000000e+02,-1.362720458202510532e+00,0.000000000000000000e+00
3.930000000000000000e+02,-1.125145961006337680e+00,0.000000000000000000e+00
3.940000000000000000e+02,-9.353131913253970309e-01,0.000000000000000000e+00
3.950000000000000000e+02,-9.484110366628683009e-01,0.000000000000000000e+00
3.960000000000000000e+02,-5.733848101289485966e-01,0.000000000000000000e+00
3.970000000000000000e+02,-4.910337838908527819e-01,0.000000000000000000e+00
3.980000000000000000e+02,-5.865132689651993969e-01,0.000000000000000000e+00
3.990000000000000000e+02,-3.290101499730535561e-01,0.000000000000000000e+00
4.000000000000000000e+02,2.979177425851058381e-01,0.000000000000000000e+00
4.010000000000000000e+02,5.547571830232330692e-01,0.000000000000000000e+00
4.020000000000000000e+02,7.749648660644271603e-01,0.000000000000000000e+00
4.030000000000000000e+02,9.586829087328422316e-01,0.000000000000000000e+00
4.040000000000000000e+02,2.060019360722198656e-01,0.000000000000000000e+00
4.050000000000000000e+02,-1.399234461077649982e-01,0.000000000000000000e+00
4.060000000000000000e+02,-5.192343963375601890e-01,0.000000000000000000e+00
4.070000000000000000e+02,-1.238606407091333184e+00,0.000000000000000000e+00
4.080000000000000000e+02,-7.333710688107767384e-01,0.000000000000000000e+00
4.090000000000000000e+02,-1.044806789203098107e+00,0.000000000000000000e+00
4.100000000000000000e+02,-5.141705572847737882e-01,0.000000000000000000e+00
4.110000000000000000e+02,-1.349000650875862017e-01,0.000000000000000000e+00
4.120000000000000000e+02,-7.241883380655220748e-01,0.000000000000000000e+00
4.130000000000000000e+02,-2.072531539341932461e-01,0.000000000000000000e+00
4.140000000000000000e+02,1.889662764585345323e-02,0.000000000000000000e+00
4.150000000000000000e+02,-1.761064305913496164e-01,0.000000000000000000e+00
4.160000000000000000e+02,5.196821335091423438e-02,0.000000000000000000e+00
4.170000000000000000e+02,-4.095944652812872899e-01,0.000000000000000000e+00
4.180000000000000000e+02,4.528207159724376152e-02,0.000000000000000000e+00
4.190000000000000000e+02,-2.808813160346597670e-01,0.000000000000000000e+00
4.200000000000000000e+02,-2.312094101490103082e-01,0.000000000000000000e+00
4.210000000000000000e+02,-2.429863239472390690e-01,0.000000000000000000e+00
4.220000000000000000e+02,9.835058292513822187e-02,0.000000000000000000e+00
4.230000000000000000e+02,-2.648484738769213975e-01,0.000000000000000000e+00
4.240000000000000000e+02,2.132375195241387189e-01,0.000000000000000000e+00
4.250000000000000000e+02,-4.377379679918846911e-02,0.000000000000000000e+00
4.260000000000000000e+02,1.406564374270251050e-01,0.000000000000000000e+00
4.270000000000000000e+02,4.319295540051101834e-01,0.000000000000000000e+00
4.280000000000000000e+02,5.905136438923277442e-01,0.000000000000000000e+00
4.290000000000000000e+02,8.137827972002618093e-01,0.000000000000000000e+00
4.300000000000000000e+02,9.743977899948566002e-01,0.000000000000000000e+00
4.310000000000000000e+02,3.698998005974433734e-01,0.000000000000000000e+00
4.320000000000000000e+02,4.822012743941715002e-02,0.000000000000000000e+00
4.330000000000000000e+02,1.351967006011702346e-02,0.000000000000000000e+00
4.340000000000000000e+02,2.603931832143593361e+00,0.000000000000000000e+00
4.350000000000000000e+02,5.540349515824812165e+00,0.000000000000000000e+00
4.360000000000000000e+02,4.389045863589288721e-01,1.000000000000000000e+00
4.370000000000000000e+02,-1.056780042023607979e+00,0.000000000000000000e+00
4.380000000000000000e+02,-9.480724846343400181e-01,0.000000000000000000e+00
4.390000000000000000e+02,-3.646290998029335650e-01,0.000000000000000000e+00
4.400000000000000000e+02,-8.958333573322281307e-01,0.000000000000000000e+00
4.410000000000000000e+02,-7.375754242937003768e-01,0.000000000000000000e+00
4.420000000000000000e+02,-5.260905037141312413e-01,0.000000000000000000e+00
4.430000000000000000e+02,-5.766712255246804197e-01,0.000000000000000000e+00
4.440000000000000000e+02,-2.389568319180507272e-01,0.000000000000000000e+00
4.450000000000000000e+02,-9.456710043703057955e-02,0.000000000000000000e+00
4.460000000000000000e+02,-3.648597469262924997e-02,0.000000000000000000e+00
4.470000000000000000e+02,6.874930828823756501e-01,0.000000000000000000e+00
4.480000000000000000e+02,6.121055532373441688e-01,0.000000000000000000e+00
4.490000000000000000e+02,6.433378835027331322e-01,0.000000000000000000e+00
4.500000000000000000e+02,9.821203307483068468e-01,0.000000000000000000e+00
4.510000000000000000e+02,-3.142673625996177389e-01,0.000000000000000000e+00
4.520000000000000000e+02,-5.363559840768638010e-01,0.000000000000000000e+00
4.530000000000000000e+02,-8.846024353472408119e-01,0.000000000000000000e+00
4.540000000000000000e+02,-1.084752661675198127e+00,0.000000000000000000e+00
4.550000000000000000e+02,-1.340781517648875321e+00,0.000000000000000000e+00
4.560000000000000000e+02,-9.165724567214023066e-01,0.000000000000000000e+00
4.570000000000000000e+02,-8.844854055174082852e-01,0.000000000000000000e+00
4.580000000000000000e+02,-7.882111997062104525e-01,0.000000000000000000e+00
4.590000000000000000e+02,-2.428561867673708907e-01,0.000000000000000000e+00
4.600000000000000000e+02,-4.473286336894211623e-01,0.000000000000000000e+00
4.610000000000000000e+02,-2.534888849140473077e-01,0.000000000000000000e+00
4.620000000000000000e+02,-4.090128008641631396e-01,0.000000000000000000e+00
4.630000000000000000e+02,-6.681644031484890167e-01,0.000000000000000000e+00
4.640000000000000000e+02,-2.435005841466265364e-01,0.000000000000000000e+00
4.650000000000000000e+02,-4.573803747731909342e-01,0.000000000000000000e+00
4.660000000000000000e+02,-4.529302727678204965e-01,0.000000000000000000e+00
4.670000000000000000e+02,-6.295957900402736618e-01,0.000000000000000000e+00
4.680000000000000000e+02,-4.778765221603756830e-01,0.000000000000000000e+00
4.690000000000000000e+02,-3.640433463365313482e-01,0.000000000000000000e+00
4.700000000000000000e+02,-5.828563231807708522e-01,0.000000000000000000e+00
4.710000000000000000e+02,-4.211098751488457914e-01,0.000000000000000000e+00
4.720000000000000000e+02,-2.946687123298885047e-01,0.000000000000000000e+00
4.730000000000000000e+02,-4.833725740004364280e-01,0.000000000000000000e+00
4.740000000000000000e+02,-3.751628998168062834e-01,0.000000000000000000e+00
4.750000000000000000e+02,1.071342005779016456e-02,0.000000000000000000e+00
4.760000000000000000e+02,4.369586189801485249e-02,0.000000000000000000e+00
4.770000000000000000e+02,3.484901604411480558e-01,0.000000000000000000e+00
4.780000000000000000e+02,1.402191777696303043e-01,0.000000000000000000e+00
4.790000000000000000e+02,-6.363358151515731143e-01,0.000000000000000000e+00
4.800000000000000000e+02,2.591839334640438919e-01,0.000000000000000000e+00
4.810000000000000000e+02,-5.972305445622221320e-01,0.000000000000000000e+00
4.820000000000000000e+02,4.639823153461499317e+00,0.000000000000000000e+00
4.830000000000000000e+02,3.624197582083812375e+00,1.000000000000000000e+00
4.840000000000000000e+02,-1.302242832843492071e+00,0.000000000000000000e+00
4.850000000000000000e+02,-6.629701293230638726e-01,0.000000000000000000e+00
4.860000000000000000e+02,-1.122416027932527038e+00,0.000000000000000000e+00
4.870000000000000000e+02,-5.222589434364627303e-01,0.000000000000000000e+00
4.880000000000000000e+02,-2.130710391407103776e-01,0.000000000000000000e+00
4.890000000000000000e+02,2.406177874130042277e-02,0.000000000000000000e+00
4.900000000000000000e+02,-2.917904450386659132e-01,0.000000000000000000e+00
4.910000000000000000e+02,4.207127463409446322e-01,0.000000000000000000e+00
4.920000000000000000e+02,5.247418011841542551e-01,0.000000000000000000e+00
4.930000000000000000e+02,7.248909710699471542e-01,0.000000000000000000e+00
4.940000000000000000e+02,6.677040103425050388e-01,0.000000000000000000e+00
4.950000000000000000e+02,1.796522063703075656e+00,0.000000000000000000e+00
4.960000000000000000e+02,1.499150249436396409e+00,0.000000000000000000e+00
4.970000000000000000e+02,1.883648124795128220e+00,0.000000000000000000e+00
4.980000000000000000e+02,1.178213470261217255e+00,0.000000000000000000e+00
4.990000000000000000e+02,7.247918441269165513e-01,0.000000000000000000e+00
5.000000000000000000e+02,9.187407261031335301e-03,0.000000000000000000e+00
5.010000000000000000e+02,-1.331876711112471023e-01,0.000000000000000000e+00
5.020000000000000000e+02,-4.043716972898029338e-01,0.000000000000000000e+00
5.030000000000000000e+02,-1.882848676521381714e-01,0.000000000000000000e+00
5.040000000000000000e+02,-2.324925452755933486e-01,0.000000000000000000e+00
5.050000000000000000e+02,-3.937567522998940417e-01,0.000000000000000000e+00
5.060000000000000000e+02,8.535901032293850832e-02,0.000000000000000000e+00
5.070000000000000000e+02,1.200945423696062227e-02,0.000000000000000000e+00
5.080000000000000000e+02,3.662810529200766219e-01,0.000000000000000000e+00
5.090000000000000000e+02,-3.508638544152254402e-01,0.000000000000000000e+00
5.100000000000000000e+02,4.627330384702753319e-02,0.000000000000000000e+00
5.110000000000000000e+02,-2.910356336015818557e-01,0.000000000000000000e+00
5.120000000000000000e+02,-1.381028907366330105e-01,0.000000000000000000e+00
5.130000000000000000e+02,-3.268687490930363149e-01,0.000000000000000000e+00
5.140000000000000000e+02,-2.662664738097253458e-01,0.000000000000000000e+00
5.150000000000000000e+02,-1.329565036431678005e-01,0.000000000000000000e+00
5.160000000000000000e+02,-3.644285147860828467e-01,0.000000000000000000e+00
5.170000000000000000e+02,-2.396031108085437122e-01,0.000000000000000000e+00
5.180000000000000000e+02,-1.518365948099182905e-01,0.000000000000000000e+00
5.190000000000000000e+02,1.542057557888909525e-01,0.000000000000000000e+00
5.200000000000000000e+02,-1.412323432338409013e-01,0.000000000000000000e+00
5.210000000000000000e+02,-8.540406768797162429e-02,0.000000000000000000e+00
5.220000000000000000e+02,-2.644012113995487523e-01,0.000000000000000000e+00
5.230000000000000000e+02,-1.966380264339404327e-01,0.000000000000000000e+00
5.240000000000000000e+02,-2.210281883000669578e-01,0.000000000000000000e+00
5.250000000000000000e+02,1.649488388541263395e-01,0.000000000000000000e+00
5.260000000000000000e+02,3.438681387449280535e-01,0.000000000000000000e+00
5.270000000000000000e+02,-2.488961807476640087e-01,0.000000000000000000e+00
5.280000000000000000e+02,-5.134012399222583900e-01,0.000000000000000000e+00
5.290000000000000000e+02,-4.244986397851778781e-01,0.000000000000000000e+00
5.300000000000000000e+02,1.098443243655617740e+00,0.000000000000000000e+00
5.310000000000000000e+02,4.970758275289146155e+00,0.000000000000000000e+00
5.320000000000000000e+02,-7.318410778496638180e-02,1.000000000000000000e+00
5.330000000000000000e+02,-1.648005387054409576e+00,0.000000000000000000e+00
5.340000000000000000e+02,-1.009661138869693442e+00,0.000000000000000000e+00
5.350000000000000000e+02,-9.309578068795103523e-01,0.000000000000000000e+00
5.360000000000000000e+02,-5.475705107977912878e-01,0.000000000000000000e+00
5.370000000000000000e+02,-4.377187664426189784e-01,0.000000000000000000e+00
5.380000000000000000e+02,-4.041382218204919718e-01,0.000000000000000000e+00
5.390000000000000000e+02,-4.878329947381072201e-02,0.000000000000000000e+00
5.400000000000000000e+02,-3.126570451708809636e-03,0.000000000000000000e+00
5.410000000000000000e+02,5.200557128895035852e-01,0.000000000000000000e+00
5.420000000000000000e+02,5.653544469473927858e-01,0.000000000000000000e+00
5.430000000000000000e+02,6.005259584001385598e-01,0.000000000000000000e+00
5.440000000000000000e+02,1.559327098519994959e+00,0.000000000000000000e+00
5.450000000000000000e+02,1.401547111499874765e+00,0.000000000000000000e+00
5.460000000000000000e+02,1.248321834657902807e+00,0.000000000000000000e+00
5.470000000000000000e+02,7.213241061643280716e-01,0.000000000000000000e+00
5.480000000000000000e+02,4.467707505994739613e-03,0.000000000000000000e+00
5.490000000000000000e+02,-7.171721039892695604e-01,0.000000000000000000e+00
5.500000000000000000e+02,-7.571609869259369185e-01,0.000000000000000000e+00
5.510000000000000000e+02,-8.361972396217697279e-01,0.000000000000000000e+00
5.520000000000000000e+02,-9.787112235385950765e-01,0.000000000000000000e+00
5.530000000000000000e+02,-5.566817986744475588e-01,0.000000000000000000e+00
5.540000000000000000e+02,-7.012774721216140650e-01,0.000000000000000000e+00
5.550000000000000000e+02,-6.935108784397197024e-01,0.000000000000000000e+00
5.560000000000000000e+02,-3.657970519876094229e-01,0.000000000000000000e+00
5.570000000000000000e+02,-6.693441266776787302e-01,0.000000000000000000e+00
5.580000000000000000e+02,-6.525905542020632444e-01,0.000000000000000000e+00
5.590000000000000000e+02,-7.116423272277153655e-01,0.000000000000000000e+00
5.600000000000000000e+02,-8.898618592251257287e-01,0.000000000000000000e+00
5.610000000000000000e+02,-7.986008742703054608e-01,0.000000000000000000e+00
5.620000000000000000e+02,-8.302151002712183647e-01,0.000000000000000000e+00
5.630000000000000000e+02,-1.009091565726152995e+00,0.000000000000000000e+00
5.640000000000000000e+02,-4.015665478260261878e-01,0.000000000000000000e+00
5.650000000000000000e+02,-6.454782476608756925e-01,0.000000000000000000e+00
5.660000000000000000e+02,-8.086744182331708775e-01,0.000000000000000000e+00
5.670000000000000000e+02,-4.739817493129505066e-01,0.000000000000000000e+00
5.680000000000000000e+02,-6.960476916572749806e-01,0.000000000000000000e+00
5.690000000000000000e+02,-1.421699247064769633e-01,0.000000000000000000e+00
5.700000000000000000e+02,7.800872362782738934e-02,0.000000000000000000e+00
5.710000000000000000e+02,-6.304965832150012661e-02,0.000000000000000000e+00
5.720000000000000000e+02,2.082543114171158949e-01,0.000000000000000000e+00
5.730000000000000000e+02,-3.188118819515253222e-01,0.000000000000000000e+00
5.740000000000000000e+02,-4.346629086591629054e-01,0.000000000000000000e+00
5.750000000000000000e+02,6.561835401558638314e-02,0.000000000000000000e+00
5.760000000000000000e+02,4.675488270247754485e+00,0.000000000000000000e+00
5.770000000000000000e+02,1.921747125799688316e+00,1.000000000000000000e+00
5.780000000000000000e+02,-1.436722138670324611e+00,0.000000000000000000e+00
5.790000000000000000e+02,-9.102935561083258520e-01,0.000000000000000000e+00
5.800000000000000000e+02,-1.142754164554350194e+00,0.000000000000000000e+00
5.810000000000000000e+02,-3.134612521114767403e-01,0.000000000000000000e+00
5.820000000000000000e+02,-5.628860351379474380e-01,0.000000000000000000e+00
5.830000000000000000e+02,-2.622771886294577581e-01,0.000000000000000000e+00
5.840000000000000000e+02,-7.956532211095870832e-02,0.000000000000000000e+00
5.850000000000000000e+02,2.804552714417997417e-02,0.000000000000000000e+00
5.860000000000000000e+02,2.905994883225930248e-01,0.000000000000000000e+00
5.870000000000000000e+02,1.899358032147916431e-01,0.000000000000000000e+00
5.880000000000000000e+02,6.032239249793964753e-01,0.000000000000000000e+00
5.890000000000000000e+02,1.611629874587862776e+00,0.000000000000000000e+00
5.900000000000000000e+02,1.368570644480721965e+00,0.000000000000000000e+00
5.910000000000000000e+02,1.363924927226319195e+00,0.000000000000000000e+00
5.920000000000000000e+02,1.155291394116394921e+00,0.000000000000000000e+00
5.930000000000000000e+02,-8.007967251964303104e-03,0.000000000000000000e+00
5.940000000000000000e+02,-1.679260932579628995e-01,0.000000000000000000e+00
5.950000000000000000e+02,-3.793474935859543207e-01,0.000000000000000000e+00
5.960000000000000000e+02,-8.623230048728685038e-01,0.000000000000000000e+00
5.970000000000000000e+02,-5.390499284812634295e-01,0.000000000000000000e+00
5.980000000000000000e+02,-4.129328804762693594e-01,0.000000000000000000e+00
5.990000000000000000e+02,-3.751517512832901469e-01,0.000000000000000000e+00
6.000000000000000000e+02,2.129496787442647088e-01,0.000000000000000000e+00
6.010000000000000000e+02,-1.764415281492260346e-01,0.000000000000000000e+00
6.020000000000000000e+02,-8.265320336025180903e-02,0.000000000000000000e+00
6.030000000000000000e+02,2.437177332195844814e-01,0.000000000000000000e+00
6.040000000000000000e+02,2.350846531263550976e-01,0.000000000000000000e+00
6.050000000000000000e+02,-1.083546953479124358e-01,0.000000000000000000e+00
6.060000000000000000e+02,5.272279251239651854e-02,0.000000000000000000e+00
6.070000000000000000e+02,9.105990770782983190e-02,0.000000000000000000e+00
6.080000000000000000e+02,7.285798589644863765e-02,0.000000000000000000e+00
6.090000000000000000e+02,-1.589381725763490058e-02,0.000000000000000000e+00
6.100000000000000000e+02,-1.502758955146404618e-01,0.000000000000000000e+00
6.110000000000000000e+02,2.407141804560050946e-01,0.000000000000000000e+00
6.120000000000000000e+02,-2.555258762586040330e-02,0.000000000000000000e+00
6.130000000000000000e+02,7.700860826974406659e-02,0.000000000000000000e+00
6.140000000000000000e+02,6.078000617767413682e-02,0.000000000000000000e+00
6.150000000000000000e+02,1.470142248438029708e-01,0.000000000000000000e+00
6.160000000000000000e+02,6.673635592737406919e-01,0.000000000000000000e+00
6.170000000000000000e+02,6.866342410648932360e-01,0.000000000000000000e+00
6.180000000000000000e+02,3.457519084840969814e-01,0.000000000000000000e+00
6.190000000000000000e+02,-2.236075051381977707e-01,0.000000000000000000e+00
6.200000000000000000e+02,-4.476951213535512730e-01,0.000000000000000000e+00
6.210000000000000000e+02,1.135749668283858149e+00,0.000000000000000000e+00
6.220000000000000000e+02,5.902537466217379958e+00,0.000000000000000000e+00
6.230000000000000000e+02,1.104559006038025037e+00,1.000000000000000000e+00
6.240000000000000000e+02,-1.271224364082779834e+00,0.000000000000000000e+00
6.250000000000000000e+02,-1.045513964519119599e+00,0.000000000000000000e+00
6.260000000000000000e+02,-7.150125914535496729e-01,0.000000000000000000e+00
6.270000000000000000e+02,-9.661801336901777448e-01,0.000000000000000000e+00
6.280000000000000000e+02,-4.728374274511290554e-01,0.000000000000000000e+00
6.290000000000000000e+02,-4.669343352867894592e-01,0.000000000000000000e+00
6.300000000000000000e+02,-6.209498235321366799e-01,0.000000000000000000e+00
6.310000000000000000e+02,-3.856082734592337080e-01,0.000000000000000000e+00
6.320000000000000000e+02,3.263653541558804716e-01,0.000000000000000000e+00
6.330000000000000000e+02,-2.976276043097291768e-01,0.000000000000000000e+00
6.340000000000000000e+02,6.121193808576514961e-01,0.000000000000000000e+00
6.350000000000000000e+02,5.079941738472720791e-01,0.000000000000000000e+00
6.360000000000000000e+02,1.000384893862715341e+00,0.000000000000000000e+00
6.370000000000000000e+02,8.530690881472147158e-01,0.000000000000000000e+00
6.380000000000000000e+02,1.421143556650498463e-01,0.000000000000000000e+00
6.390000000000000000e+02,-4.807954502894651316e-01,0.000000000000000000e+00
6.400000000000000000e+02,-7.226950934299517515e-01,0.000000000000000000e+00
6.410000000000000000e+02,-1.023832780576330093e+00,0.000000000000000000e+00
6.420000000000000000e+02,-9.622903992449154398e-01,0.000000000000000000e+00
6.430000000000000000e+02,-7.306108594653860644e-01,0.000000000000000000e+00
6.440000000000000000e+02,-1.061801054327492499e+00,0.000000000000000000e+00
6.450000000000000000e+02,-5.024096645729695387e-01,0.000000000000000000e+00
6.460000000000000000e+02,-6.023631755220317796e-01,0.000000000000000000e+00
6.470000000000000000e+02,-5.586976838015544899e-01,0.000000000000000000e+00
6.480000000000000000e+02,2.199304779962409084e-02,0.000000000000000000e+00
6.490000000000000000e+02,-5.712878806983721081e-01,0.000000000000000000e+00
6.500000000000000000e+02,-2.546352758979501529e-01,0.000000000000000000e+00
6.510000000000000000e+02,-9.555173670499358951e-02,0.000000000000000000e+00
6.520000000000000000e+02,-5.577103797411419039e-01,0.000000000000000000e+00
6.530000000000000000e+02,-1.372973180927942738e-01,0.000000000000000000e+00
6.540000000000000000e+02,-3.287295967753106063e-01,0.000000000000000000e+00
6.550000000000000000e+02,-7.739495792156517173e-02,0.000000000000000000e+00
6.560000000000000000e+02,8.484617728367810363e-02,0.000000000000000000e+00
6.570000000000000000e+02,-4.627196261339958649e-01,0.000000000000000000e+00
6.580000000000000000e+02,-1.502365408156565718e-01,0.000000000000000000e+00
6.590000000000000000e+02,2.191692092590213567e-02,0.000000000000000000e+00
6.600000000000000000e+02,1.587441029048885233e-01,0.000000000000000000e+00
6.610000000000000000e+02,-7.535206873977470798e-02,0.000000000000000000e+00
6.620000000000000000e+02,-1.807988482944300479e-01,0.000000000000000000e+00
6.630000000000000000e+02,5.727565914136959480e-01,0.000000000000000000e+00
6.640000000000000000e+02,4.894870712653661138e-01,0.000000000000000000e+00
6.650000000000000000e+02,1.009317554775238518e-01,0.000000000000000000e+00
6.660000000000000000e+02,-2.119775060017658197e-01,0.000000000000000000e+00
6.670000000000000000e+02,-3.074852956387624237e-01,0.000000000000000000e+00
6.680000000000000000e+02,2.121317410442197016e+00,0.000000000000000000e+00
6.690000000000000000e+02,5.264131865817592626e+00,0.000000000000000000e+00
6.700000000000000000e+02,-7.644701553916419257e-02,1.000000000000000000e+00
6.710000000000000000e+02,-9.299300270290163928e-01,0.000000000000000000e+00
6.720000000000000000e+02,-1.621994196266953958e+00,0.000000000000000000e+00
6.730000000000000000e+02,-5.242669939234337884e-01,0.000000000000000000e+00
6.740000000000000000e+02,-1.126591760670257569e+00,0.000000000000000000e+00
6.750000000000000000e+02,-1.018866889168112078e+00,0.000000000000000000e+00
6.760000000000000000e+02,-8.533037630965777387e-01,0.000000000000000000e+00
6.770000000000000000e+02,-4.793861196745232145e-01,0.000000000000000000e+00
6.780000000000000000e+02,-2.641857318054583459e-01,0.000000000000000000e+00
6.790000000000000000e+02,-2.516182048372854752e-01,0.000000000000000000e+00
6.800000000000000000e+02,-9.315196179318138703e-02,0.000000000000000000e+00
6.810000000000000000e+02,8.006086306999200541e-01,0.000000000000000000e+00
6.820000000000000000e+02,8.222555437913139365e-01,0.000000000000000000e+00
6.830000000000000000e+02,1.562801530826962937e+00,0.000000000000000000e+00
6.840000000000000000e+02,9.356403092601680571e-01,0.000000000000000000e+00
6.850000000000000000e+02,5.996523624427121391e-01,0.000000000000000000e+00
6.860000000000000000e+02,-7.478797808323557617e-02,0.000000000000000000e+00
6.870000000000000000e+02,-1.626778065513593552e-01,0.000000000000000000e+00
6.880000000000000000e+02,-6.780824527848188232e-01,0.000000000000000000e+00
6.890000000000000000e+02,-3.256608733212955631e-01,0.000000000000000000e+00
6.900000000000000000e+02,-7.397276963306198549e-01,0.000000000000000000e+00
6.910000000000000000e+02,-2.589427483406939734e-01,0.000000000000000000e+00
6.920000000000000000e+02,-3.740850134487377909e-01,0.000000000000000000e+00
6.930000000000000000e+02,-1.846333311033089286e-01,0.000000000000000000e+00
6.940000000000000000e+02,2.877445243371827902e-02,0.000000000000000000e+00
6.950000000000000000e+02,-1.546537996495761236e-01,0.000000000000000000e+00
6.960000000000000000e+02,-1.525144380634446684e-01,0.000000000000000000e+00
6.970000000000000000e+02,-1.515820701430568573e-01,0.000000000000000000e+00
6.980000000000000000e+02,-2.418963078549533630e-01,0.000000000000000000e+00
6.990000000000000000e+02,-1.975254175763691555e-01,0.000000000000000000e+00
7.000000000000000000e+02,1.268294729867195519e-02,0.000000000000000000e+00
7.010000000000000000e+02,-5.618345464267832101e-01,0.000000000000000000e+00
7.020000000000000000e+02,-7.196655596361885288e-02,0.000000000000000000e+00
7.030000000000000000e+02,-4.738429864859832197e-01,0.000000000000000000e+00
7.040000000000000000e+02,-8.602866908928943901e-02,0.000000000000000000e+00
7.050000000000000000e+02,5.491063687323859133e-02,0.000000000000000000e+00
7.060000000000000000e+02,-2.818480656508821069e-01,0.000000000000000000e+00
7.070000000000000000e+02,2.286737578600323839e-01,0.000000000000000000e+00
7.080000000000000000e+02,-1.064375143696338205e-01,0.000000000000000000e+00
7.090000000000000000e+02,1.364081776901903964e-01,0.000000000000000000e+00
7.100000000000000000e+02,7.048330754993102909e-01,0.000000000000000000e+00
7.110000000000000000e+02,4.765637758160317095e-01,0.000000000000000000e+00
7.120000000000000000e+02,-2.915408774364390831e-01,0.000000000000000000e+00
7.130000000000000000e+02,2.156599128213834149e-01,0.000000000000000000e+00
7.140000000000000000e+02,-8.289550357037746009e-01,0.000000000000000000e+00
7.150000000000000000e+02,2.893802045107572329e+00,0.000000000000000000e+00
7.160000000000000000e+02,4.030263606719139524e+00,0.000000000000000000e+00
7.170000000000000000e+02,-1.420924191107098444e+00,1.000000000000000000e+00
7.180000000000000000e+02,-1.199475275488104398e+00,0.000000000000000000e+00
7.190000000000000000e+02,-1.515586745043116856e+00,0.000000000000000000e+00
7.200000000000000000e+02,-6.417715444945787384e-01,0.000000000000000000e+00
7.210000000000000000e+02,-1.164787382287659545e+00,0.000000000000000000e+00
7.220000000000000000e+02,-1.015822828448334603e+00,0.000000000000000000e+00
7.230000000000000000e+02,-9.445318450049263737e-01,0.000000000000000000e+00
7.240000000000000000e+02,-1.380981000581777141e-01,0.000000000000000000e+00
7.250000000000000000e+02,-5.373159501398855342e-01,0.000000000000000000e+00
7.260000000000000000e+02,-2.928559236793706888e-01,0.000000000000000000e+00
7.270000000000000000e+02,1.033735329828930904e-01,0.000000000000000000e+00
7.280000000000000000e+02,8.356532401597710491e-01,0.000000000000000000e+00
7.290000000000000000e+02,9.193769255960568820e-01,0.000000000000000000e+00
7.300000000000000000e+02,1.151464925163677488e+00,0.000000000000000000e+00
7.310000000000000000e+02,1.010943715435737689e+00,0.000000000000000000e+00
7.320000000000000000e+02,3.108155308252816273e-02,0.000000000000000000e+00
7.330000000000000000e+02,-2.437229949135019669e-01,0.000000000000000000e+00
7.340000000000000000e+02,-5.774762922974854273e-01,0.000000000000000000e+00
7.350000000000000000e+02,-7.699650217233319216e-01,0.000000000000000000e+00
7.360000000000000000e+02,-9.102878826486474617e-01,0.000000000000000000e+00
7.370000000000000000e+02,-5.266458847152097889e-01,0.000000000000000000e+00
7.380000000000000000e+02,-6.910089756486866852e-01,0.000000000000000000e+00
7.390000000000000000e+02,2.823732047781362872e-02,0.000000000000000000e+00
7.400000000000000000e+02,-1.024180040055457791e-01,0.000000000000000000e+00
7.410000000000000000e+02,2.875359869116263511e-01,0.000000000000000000e+00
7.420000000000000000e+02,-2.881002085005658908e-01,0.000000000000000000e+00
7.430000000000000000e+02,1.225804066715985297e-01,0.000000000000000000e+00
7.440000000000000000e+02,-6.405093450821408574e-02,0.000000000000000000e+00
7.450000000000000000e+02,2.453637843213000991e-01,0.000000000000000000e+00
7.460000000000000000e+02,-1.476197248155368680e-01,0.000000000000000000e+00
7.470000000000000000e+02,-3.675058348965079547e-01,0.000000000000000000e+00
7.480000000000000000e+02,1.246706539834682714e-01,0.000000000000000000e+00
7.490000000000000000e+02,-4.146796131703936461e-02,0.000000000000000000e+00
7.500000000000000000e+02,1.590331724754948661e-01,0.000000000000000000e+00
7.510000000000000000e+02,-2.100724710649153615e-01,0.000000000000000000e+00
7.520000000000000000e+02,2.207069235248486083e-01,0.000000000000000000e+00
7.530000000000000000e+02,4.413238750220840195e-02,0.000000000000000000e+00
7.540000000000000000e+02,-4.370442716714158238e-02,0.000000000000000000e+00
7.550000000000000000e+02,6.083210649853868501e-01,0.000000000000000000e+00
7.560000000000000000e+02,5.635467665415373473e-01,0.000000000000000000e+00
7.570000000000000000e+02,5.293284361123994364e-01,0.000000000000000000e+00
7.580000000000000000e+02,2.389875359097061169e-01,0.000000000000000000e+00
7.590000000000000000e+02,3.231755394963717332e-01,0.000000000000000000e+00
7.600000000000000000e+02,-5.460812027312712535e-01,0.000000000000000000e+00
7.610000000000000000e+02,2.572803684123281531e+00,0.000000000000000000e+00
7.620000000000000000e+02,4.895904590752452989e+00,0.000000000000000000e+00
7.630000000000000000e+02,-1.433180544581831584e-02,1.000000000000000000e+00
7.640000000000000000e+02,-9.717849583418489701e-01,0.000000000000000000e+00
7.650000000000000000e+02,-1.143231222872263197e+00,0.000000000000000000e+00
7.660000000000000000e+02,-1.068586465317482581e+00,0.000000000000000000e+00
7.670000000000000000e+02,-1.313215212624897710e+00,0.000000000000000000e+00
7.680000000000000000e+02,-3.439212240727673175e-01,0.000000000000000000e+00
7.690000000000000000e+02,-6.933585789307904479e-01,0.000000000000000000e+00
7.700000000000000000e+02,-4.845113212883006559e-01,0.000000000000000000e+00
7.710000000000000000e+02,-6.548732281308562442e-01,0.000000000000000000e+00
7.720000000000000000e+02,2.760324410135874817e-01,0.000000000000000000e+00
7.730000000000000000e+02,1.029728894312457732e-01,0.000000000000000000e+00
7.740000000000000000e+02,6.548730198742312991e-01,0.000000000000000000e+00
7.750000000000000000e+02,1.197407537351184770e+00,0.000000000000000000e+00
7.760000000000000000e+02,1.135418344241632793e+00,0.000000000000000000e+00
7.770000000000000000e+02,8.902996850045267196e-01,0.000000000000000000e+00
7.780000000000000000e+02,4.852025319292608829e-01,0.000000000000000000e+00
7.790000000000000000e+02,3.605029215976562201e-02,0.000000000000000000e+00
7.800000000000000000e+02,-5.435472718608489462e-01,0.000000000000000000e+00
7.810000000000000000e+02,-7.377629559047768071e-01,0.000000000000000000e+00
7.820000000000000000e+02,-2.839323131574202908e-01,0.000000000000000000e+00
7.830000000000000000e+02,-7.978581834382050264e-01,0.000000000000000000e+00
7.840000000000000000e+02,-1.612579327726941791e-01,0.000000000000000000e+00
7.850000000000000000e+02,-6.943641684002606063e-01,0.000000000000000000e+00
7.860000000000000000e+02,-3.108764361596274770e-02,0.000000000000000000e+00
7.870000000000000000e+02,-1.846483431217746107e-01,0.000000000000000000e+00
7.880000000000000000e+02,2.368686638709199821e-01,0.000000000000000000e+00
7.890000000000000000e+02,1.763245224323219118e-01,0.000000000000000000e+00
7.900000000000000000e+02,2.622078557368950208e-02,0.000000000000000000e+00
7.910000000000000000e+02,-5.069939916353747439e-02,0.000000000000000000e+00
7.920000000000000000e+02,-2.251459589716398590e-01,0.000000000000000000e+00
7.930000000000000000e+02,6.761300472833470243e-02,0.000000000000000000e+00
7.940000000000000000e+02,-1.261567828647091050e-01,0.000000000000000000e+00
7.950000000000000000e+02,7.643380152642931247e-02,0.000000000000000000e+00
7.960000000000000000e+02,-3.309731348084136715e-01,0.000000000000000000e+00
7.970000000000000000e+02,-1.725161558987538257e-01,0.000000000000000000e+00
7.980000000000000000e+02,-5.259400017231378663e-03,0.000000000000000000e+00
7.990000000000000000e+02,-3.058238594808194294e-02,0.000000000000000000e+00
8.000000000000000000e+02,2.915258318934339787e-02,0.000000000000000000e+00
8.010000000000000000e+02,8.926579104240443124e-03,0.000000000000000000e+00
8.020000000000000000e+02,-1.907994353643113761e-02,0.000000000000000000e+00
8.030000000000000000e+02,1.093421802078282518e-01,0.000000000000000000e+00
8.040000000000000000e+02,3.906627807975667777e-01,0.000000000000000000e+00
8.050000000000000000e+02,3.403397812593464966e-01,0.000000000000000000e+00
8.060000000000000000e+02,-3.738577476155775514e-01,0.000000000000000000e+00
8.070000000000000000e+02,-2.242849549096668782e-01,0.000000000000000000e+00
8.080000000000000000e+02,-5.992206226943646019e-01,0.000000000000000000e+00
8.090000000000000000e+02,3.012097370918666250e+00,0.000000000000000000e+00
8.100000000000000000e+02,4.691419021401882716e+00,0.000000000000000000e+00
8.110000000000000000e+02,-1.001244972701958336e+00,1.000000000000000000e+00
8.120000000000000000e+02,-1.162637219642116415e+00,0.000000000000000000e+00
8.130000000000000000e+02,-1.419648491395415935e+00,0.000000000000000000e+00
8.140000000000000000e+02,-1.026854045748506250e+00,0.000000000000000000e+00
8.150000000000000000e+02,-1.242714675377603051e+00,0.000000000000000000e+00
8.160000000000000000e+02,-1.133107424251735829e+00,0.000000000000000000e+00
8.170000000000000000e+02,-7.967562947697657272e-01,0.000000000000000000e+00
8.180000000000000000e+02,-3.688065499331126817e-01,0.000000000000000000e+00
8.190000000000000000e+02,-6.900593839001825103e-01,0.000000000000000000e+00
8.200000000000000000e+02,-1.361786825058462769e-01,0.000000000000000000e+00
8.210000000000000000e+02,2.423032596217778722e-01,0.000000000000000000e+00
8.220000000000000000e+02,1.436989022438696362e-01,0.000000000000000000e+00
8.230000000000000000e+02,9.134872386241116304e-01,0.000000000000000000e+00
8.240000000000000000e+02,1.238631917294857221e+00,0.000000000000000000e+00
8.250000000000000000e+02,1.042197341909982589e+00,0.000000000000000000e+00
8.260000000000000000e+02,7.160884761478802929e-01,0.000000000000000000e+00
8.270000000000000000e+02,-4.593853760390347318e-01,0.000000000000000000e+00
8.280000000000000000e+02,-2.088377265635679436e-01,0.000000000000000000e+00
8.290000000000000000e+02,-3.506156337445828775e-01,0.000000000000000000e+00
8.300000000000000000e+02,-3.338946109498360237e-01,0.000000000000000000e+00
8.310000000000000000e+02,-5.396268685894516359e-01,0.000000000000000000e+00
8.320000000000000000e+02,-3.156929495153336651e-01,0.000000000000000000e+00
8.330000000000000000e+02,-2.390332417437103507e-02,0.000000000000000000e+00
8.340000000000000000e+02,-3.951046326126669145e-02,0.000000000000000000e+00
8.350000000000000000e+02,4.536324388458468082e-03,0.000000000000000000e+00
8.360000000000000000e+02,3.643036943053785670e-01,0.000000000000000000e+00
8.370000000000000000e+02,9.015780308785904806e-02,0.000000000000000000e+00
8.380000000000000000e+02,4.384866982335474672e-01,0.000000000000000000e+00
8.390000000000000000e+02,-4.233747238574718519e-02,0.000000000000000000e+00
8.400000000000000000e+02,4.750584081098793710e-02,0.000000000000000000e+00
8.410000000000000000e+02,3.934612012741467990e-01,0.000000000000000000e+00
8.420000000000000000e+02,4.682515767340002522e-01,0.000000000000000000e+00
8.430000000000000000e+02,5.546468451248879328e-01,0.000000000000000000e+00
8.440000000000000000e+02,7.931061313515722633e-01,0.000000000000000000e+00
8.450000000000000000e+02,4.858011538451184053e-01,0.000000000000000000e+00
8.460000000000000000e+02,3.047980242914264948e-01,0.000000000000000000e+00
8.470000000000000000e+02,5.546804866705341563e-01,0.000000000000000000e+00
8.480000000000000000e+02,6.211819047758242451e-01,0.000000000000000000e+00
8.490000000000000000e+02,8.481759181986509022e-01,0.000000000000000000e+00
8.500000000000000000e+02,4.316178835764518662e-01,0.000000000000000000e+00
8.510000000000000000e+02,3.456770431321442016e-01,0.000000000000000000e+00
8.520000000000000000e+02,8.563131350911989959e-01,0.000000000000000000e+00
8.530000000000000000e+02,1.019244676387191184e+00,0.000000000000000000e+00
8.540000000000000000e+02,7.769608645193918361e-01,0.000000000000000000e+00
8.550000000000000000e+02,9.901484778523057528e-01,0.000000000000000000e+00
8.560000000000000000e+02,8.700524254772633304e-02,0.000000000000000000e+00
8.570000000000000000e+02,1.826104355151943748e-01,0.000000000000000000e+00
8.580000000000000000e+02,7.667774500786098679e-01,0.000000000000000000e+00
8.590000000000000000e+02,4.592040545672413820e+00,0.000000000000000000e+00
8.600000000000000000e+02,2.601771088802855569e+00,1.000000000000000000e+00
8.610000000000000000e+02,-1.667961260364885234e+00,0.000000000000000000e+00
8.620000000000000000e+02,-1.221958389518975396e+00,0.000000000000000000e+00
8.630000000000000000e+02,-1.562257415990224718e+00,0.000000000000000000e+00
8.640000000000000000e+02,-1.410768527648679438e+00,0.000000000000000000e+00
8.650000000000000000e+02,-1.507165706395736438e+00,0.000000000000000000e+00
8.660000000000000000e+02,-8.580641302672359361e-01,0.000000000000000000e+00
8.670000000000000000e+02,-1.240739627461481476e+00,0.000000000000000000e+00
8.680000000000000000e+02,-8.852522468155952229e-01,0.000000000000000000e+00
8.690000000000000000e+02,-9.669047446552311298e-01,0.000000000000000000e+00
8.700000000000000000e+02,-1.034958172067432569e+00,0.000000000000000000e+00
8.710000000000000000e+02,-7.398689351653330304e-01,0.000000000000000000e+00
8.720000000000000000e+02,-3.205268330918976671e-01,0.000000000000000000e+00
8.730000000000000000e+02,-3.499101230703415832e-01,0.000000000000000000e+00
8.740000000000000000e+02,-9.098006075625439393e-02,0.000000000000000000e+00
8.750000000000000000e+02,-8.040847437362050876e-01,0.000000000000000000e+00
8.760000000000000000e+02,-1.765147114105529713e+00,0.000000000000000000e+00
8.770000000000000000e+02,-2.022358288923144176e+00,0.000000000000000000e+00
8.780000000000000000e+02,-1.841960896193766573e+00,0.000000000000000000e+00
8.790000000000000000e+02,-2.279458710041131653e+00,0.000000000000000000e+00
8.800000000000000000e+02,-1.900889131556986689e+00,0.000000000000000000e+00
8.810000000000000000e+02,-1.465273556513665865e+00,0.000000000000000000e+00
8.820000000000000000e+02,-1.542897280612938404e+00,0.000000000000000000e+00
8.830000000000000000e+02,-9.895727711095857471e-01,0.000000000000000000e+00
8.840000000000000000e+02,-1.019309550158838062e+00,0.000000000000000000e+00
8.850000000000000000e+02,-7.650180572948255264e-01,0.000000000000000000e+00
8.860000000000000000e+02,-8.959314421391460781e-02,0.000000000000000000e+00
8.870000000000000000e+02,-9.029320872918000784e-01,0.000000000000000000e+00
8.880000000000000000e+02,-1.784439421440212614e-01,0.000000000000000000e+00
8.890000000000000000e+02,-4.666721659228249552e-01,0.000000000000000000e+00
8.900000000000000000e+02,-1.009701122073993970e-02,0.000000000000000000e+00
8.910000000000000000e+02,-1.717966391781729774e-01,0.000000000000000000e+00
8.920000000000000000e+02,2.434445353330402517e-01,0.000000000000000000e+00
8.930000000000000000e+02,-8.509625091441450073e-02,0.000000000000000000e+00
8.940000000000000000e+02,1.934632655528815415e-01,0.000000000000000000e+00
8.950000000000000000e+02,2.612184427024428213e-01,0.000000000000000000e+00
8.960000000000000000e+02,4.818298239893074042e-01,0.000000000000000000e+00
8.970000000000000000e+02,5.784569310972577094e-01,0.000000000000000000e+00
8.980000000000000000e+02,1.865709869200020410e-01,0.000000000000000000e+00
8.990000000000000000e+02,4.141428132978772769e-01,0.000000000000000000e+00
9.000000000000000000e+02,1.203377614655289085e-01,0.000000000000000000e+00
9.010000000000000000e+02,2.900657433565556054e-01,0.000000000000000000e+00
9.020000000000000000e+02,4.223158301918046864e-01,0.000000000000000000e+00
9.030000000000000000e+02,2.673785601844994031e-01,0.000000000000000000e+00
9.040000000000000000e+02,6.011448992024164273e-01,0.000000000000000000e+00
9.050000000000000000e+02,5.317651257507856680e-03,0.000000000000000000e+00
9.060000000000000000e+02,-1.164250695410592312e-01,0.000000000000000000e+00
9.070000000000000000e+02,-3.996327251424502958e-01,0.000000000000000000e+00
9.080000000000000000e+02,2.806024887929187805e+00,0.000000000000000000e+00
9.090000000000000000e+02,4.390623437755152736e+00,0.000000000000000000e+00
9.100000000000000000e+02,-5.148695503148481567e-01,1.000000000000000000e+00
9.110000000000000000e+02,-8.266084432366201940e-01,0.000000000000000000e+00
9.120000000000000000e+02,-1.291002946082993041e+00,0.000000000000000000e+00
9.130000000000000000e+02,-6.015901295204508781e-01,0.000000000000000000e+00
9.140000000000000000e+02,-8.094040793069827711e-01,0.000000000000000000e+00
9.150000000000000000e+02,-5.998446057806798848e-01,0.000000000000000000e+00
9.160000000000000000e+02,-1.924996815760878222e-01,0.000000000000000000e+00
9.170000000000000000e+02,-5.043847263791615410e-01,0.000000000000000000e+00
9.180000000000000000e+02,3.210540042475511502e-01,0.000000000000000000e+00
9.190000000000000000e+02,-4.213201725063561026e-02,0.000000000000000000e+00
9.200000000000000000e+02,2.863697705711190644e-01,0.000000000000000000e+00
9.210000000000000000e+02,8.237131984979197963e-01,0.000000000000000000e+00
9.220000000000000000e+02,1.088060190472228461e+00,0.000000000000000000e+00
9.230000000000000000e+02,1.891565766079763566e+00,0.000000000000000000e+00
9.240000000000000000e+02,1.324116664754007910e+00,0.000000000000000000e+00
9.250000000000000000e+02,7.001051815770161779e-01,0.000000000000000000e+00
9.260000000000000000e+02,1.600576323199249529e-01,0.000000000000000000e+00
9.270000000000000000e+02,-1.650677564710523737e-01,0.000000000000000000e+00
9.280000000000000000e+02,-2.662809245294579519e-01,0.000000000000000000e+00
9.290000000000000000e+02,-4.491401535953171154e-01,0.000000000000000000e+00
9.300000000000000000e+02,-1.829414936727393470e-01,0.000000000000000000e+00
9.310000000000000000e+02,-3.052160118906328129e-02,0.000000000000000000e+00
9.320000000000000000e+02,2.024513561691482777e-01,0.000000000000000000e+00
9.330000000000000000e+02,4.489673862035272606e-02,0.000000000000000000e+00
9.340000000000000000e+02,8.276605210493664933e-01,0.000000000000000000e+00
9.350000000000000000e+02,1.144811204790211756e-01,0.000000000000000000e+00
9.360000000000000000e+02,4.947597923150635069e-01,0.000000000000000000e+00
9.370000000000000000e+02,5.804031400683323794e-01,0.000000000000000000e+00
9.380000000000000000e+02,4.464228803915889499e-01,0.000000000000000000e+00
9.390000000000000000e+02,1.305338504906620734e-01,0.000000000000000000e+00
9.400000000000000000e+02,1.288843367443139876e-01,0.000000000000000000e+00
9.410000000000000000e+02,1.035642402442963350e-01,0.000000000000000000e+00
9.420000000000000000e+02,3.822320532329813170e-01,0.000000000000000000e+00
9.430000000000000000e+02,7.991726251907964318e-02,0.000000000000000000e+00
9.440000000000000000e+02,2.358216859937551091e-01,0.000000000000000000e+00
9.450000000000000000e+02,1.429662066342408111e-01,0.000000000000000000e+00
9.460000000000000000e+02,-1.180758073536277014e-01,0.000000000000000000e+00
9.470000000000000000e+02,2.477309841058304707e-01,0.000000000000000000e+00
9.480000000000000000e+02,8.360550630391412608e-02,0.000000000000000000e+00
9.490000000000000000e+02,1.437081478207640206e-01,0.000000000000000000e+00
9.500000000000000000e+02,3.609726680534616206e-01,0.000000000000000000e+00
9.510000000000000000e+02,3.065868430431258063e-02,0.000000000000000000e+00
9.520000000000000000e+02,4.822999654343606002e-01,0.000000000000000000e+00
9.530000000000000000e+02,6.100336973073898772e-01,0.000000000000000000e+00
9.540000000000000000e+02,6.598668014719718533e-01,0.000000000000000000e+00
9.550000000000000000e+02,-2.706582229106464510e-01,0.000000000000000000e+00
9.560000000000000000e+02,-2.294789356771182176e-01,0.000000000000000000e+00
9.570000000000000000e+02,2.815802026820843351e-01,0.000000000000000000e+00
9.580000000000000000e+02,4.633045759573753308e+00,0.000000000000000000e+00
9.590000000000000000e+02,2.335759839094389889e+00,1.000000000000000000e+00
9.600000000000000000e+02,-1.273875613971431786e+00,0.000000000000000000e+00
9.610000000000000000e+02,-1.187286645324559409e+00,0.000000000000000000e+00
9.620000000000000000e+02,-1.870289724071826365e+00,0.000000000000000000e+00
9.630000000000000000e+02,-1.199065328578071021e+00,0.000000000000000000e+00
9.640000000000000000e+02,-1.236859873462595294e+00,0.000000000000000000e+00
9.650000000000000000e+02,-1.029856973956001953e+00,0.000000000000000000e+00
9.660000000000000000e+02,-7.421393817977230967e-01,0.000000000000000000e+00
9.670000000000000000e+02,-6.738293158528763094e-01,0.000000000000000000e+00
9.680000000000000000e+02,-7.603629252757575507e-01,0.000000000000000000e+00
9.690000000000000000e+02,-1.552299806057378436e-03,0.000000000000000000e+00
9.700000000000000000e+02,-1.726765191979730829e-01,0.000000000000000000e+00
9.710000000000000000e+02,2.530099464205904924e-01,0.000000000000000000e+00
9.720000000000000000e+02,9.796498682054218810e-01,0.000000000000000000e+00
9.730000000000000000e+02,9.416685327801652683e-01,0.000000000000000000e+00
9.740000000000000000e+02,7.431644131865581260e-01,0.000000000000000000e+00
9.750000000000000000e+02,5.700702632928338759e-02,0.000000000000000000e+00
9.760000000000000000e+02,-7.949066458975916349e-01,0.000000000000000000e+00
9.770000000000000000e+02,-7.719566430777157207e-01,0.000000000000000000e+00
9.780000000000000000e+02,-5.962203627572364439e-01,0.000000000000000000e+00
9.790000000000000000e+02,-4.290111939837171762e-01,0.000000000000000000e+00
9.800000000000000000e+02,-8.549969110516626447e-01,0.000000000000000000e+00
9.810000000000000000e+02,-5.202962888289983656e-01,0.000000000000000000e+00
9.820000000000000000e+02,-1.968742738712406515e-01,0.000000000000000000e+00
9.830000000000000000e+02,-1.913165186081035862e-01,0.000000000000000000e+00
9.840000000000000000e+02,-4.851891127815598226e-02,0.000000000000000000e+00
9.850000000000000000e+02,1.831490483003620634e-02,0.000000000000000000e+00
9.860000000000000000e+02,3.000631098603839253e-01,0.000000000000000000e+00
9.870000000000000000e+02,8.708713965137385160e-02,0.000000000000000000e+00
9.880000000000000000e+02,3.250560021283507850e-01,0.000000000000000000e+00
9.890000000000000000e+02,-1.797021438769628443e-01,0.000000000000000000e+00
9.900000000000000000e+02,1.897205110866363176e-01,0.000000000000000000e+00
9.910000000000000000e+02,-4.548762958642159349e-02,0.000000000000000000e+00
9.920000000000000000e+02,3.281533773181817826e-01,0.000000000000000000e+00
9.930000000000000000e+02,2.917916819064125464e-02,0.000000000000000000e+00
9.940000000000000000e+02,3.068358487561633208e-01,0.000000000000000000e+00
9.950000000000000000e+02,1.773941820080137954e-01,0.000000000000000000e+00
9.960000000000000000e+02,5.055727461957519875e-01,0.000000000000000000e+00
9.970000000000000000e+02,4.354611983903898809e-01,0.000000000000000000e+00
9.980000000000000000e+02,3.360736444862224559e-01,0.000000000000000000e+00
9.990000000000000000e+02,3.851481020702048341e-01,0.000000000000000000e+00
1.000000000000000000e+03,4.681565103637169156e-01,0.000000000000000000e+00
1.001000000000000000e+03,3.961612392855115017e-01,0.000000000000000000e+00
1.002000000000000000e+03,5.736519695428516918e-01,0.000000000000000000e+00
1.003000000000000000e+03,1.051885674830580930e+00,0.000000000000000000e+00
1.004000000000000000e+03,6.867931733970348285e-01,0.000000000000000000e+00
1.005000000000000000e+03,3.902244980580129585e-01,0.000000000000000000e+00
1.006000000000000000e+03,1.974345893714803679e-01,0.000000000000000000e+00
1.007000000000000000e+03,-3.209421877323669348e-01,0.000000000000000000e+00
1.008000000000000000e+03,2.662414406875252659e+00,0.000000000000000000e+00
1.009000000000000000e+03,5.218053568759384753e+00,0.000000000000000000e+00
1.010000000000000000e+03,1.671569452855792975e-02,1.000000000000000000e+00
1.011000000000000000e+03,-8.690916035337430401e-01,0.000000000000000000e+00
1.012000000000000000e+03,-1.134023369491565791e+00,0.000000000000000000e+00
1.013000000000000000e+03,-6.797560116075038739e-01,0.000000000000000000e+00
1.014000000000000000e+03,-1.244679327057827134e+00,0.000000000000000000e+00
1.015000000000000000e+03,-5.735736922291415629e-01,0.000000000000000000e+00
1.016000000000000000e+03,-8.851531479622929410e-01,0.000000000000000000e+00
1.017000000000000000e+03,-6.548213643139123574e-01,0.000000000000000000e+00
1.018000000000000000e+03,-6.849600510758615535e-01,0.000000000000000000e+00
1.019000000000000000e+03,-5.899364816657438615e-01,0.000000000000000000e+00
1.020000000000000000e+03,-3.370001041838474598e-01,0.000000000000000000e+00
1.021000000000000000e+03,6.392442148482685438e-02,0.000000000000000000e+00
1.022000000000000000e+03,4.488957887776998668e-01,0.000000000000000000e+00
1.023000000000000000e+03,5.712479068399403115e-01,0.000000000000000000e+00
1.024000000000000000e+03,3.745097926074559269e-01,0.000000000000000000e+00
1.025000000000000000e+03,-4.417961001509226882e-02,0.000000000000000000e+00
1.026000000000000000e+03,-6.494247460376197933e-01,0.000000000000000000e+00
1.027000000000000000e+03,-1.344918654533060920e+00,0.000000000000000000e+00
1.028000000000000000e+03,-1.288834086660121558e+00,0.000000000000000000e+00
1.029000000000000000e+03,-1.221245839811103462e+00,0.000000000000000000e+00
1.030000000000000000e+03,-1.137291177872872261e+00,0.000000000000000000e+00
1.031000000000000000e+03,-1.299229278106213803e+00,0.000000000000000000e+00
1.032000000000000000e+03,-9.044842141413882430e-01,0.000000000000000000e+00
1.033000000000000000e+03,-8.989241321274856755e-01,0.000000000000000000e+00
1.034000000000000000e+03,-7.333736016568073168e-01,0.000000000000000000e+00
1.035000000000000000e+03,-3.746830164577881761e-01,0.000000000000000000e+00
1.036000000000000000e+03,-4.646120637606379611e-01,0.000000000000000000e+00
1.037000000000000000e+03,-3.449009849467253863e-01,0.000000000000000000e+00
1.038000000000000000e+03,-4.687729622417594055e-01,0.000000000000000000e+00
1.039000000000000000e+03,-3.888155737483195429e-01,0.000000000000000000e+00
1.040000000000000000e+03,-2.463370122008210483e-01,0.000000000000000000e+00
1.041000000000000000e+03,-1.394405309369521340e-01,0.000000000000000000e+00
1.042000000000000000e+03,-2.925927432126561034e-01,0.000000000000000000e+00
1.043000000000000000e+03,1.713414209912723571e-02,0.000000000000000000e+00
1.044000000000000000e+03,2.133417508738164395e-02,0.000000000000000000e+00
1.045000000000000000e+03,-1.663108544279581213e-01,0.000000000000000000e+00
1.046000000000000000e+03,1.645151637299506475e-01,0.000000000000000000e+00
1.047000000000000000e+03,1.158536255802837117e-01,0.000000000000000000e+00
1.048000000000000000e+03,2.843987087847542061e-01,0.000000000000000000e+00
1.049000000000000000e+03,1.294370276277959364e-01,0.000000000000000000e+00
1.050000000000000000e+03,3.067630724380809859e-01,0.000000000000000000e+00
1.051000000000000000e+03,-2.872511265790418222e-03,0.000000000000000000e+00
1.052000000000000000e+03,3.572285527489691970e-01,0.000000000000000000e+00
1.053000000000000000e+03,3.659670327701073506e-02,0.000000000000000000e+00
1.054000000000000000e+03,8.636409283797241709e-01,0.000000000000000000e+00
1.055000000000000000e+03,3.060197193522019576e-01,0.000000000000000000e+00
1.056000000000000000e+03,3.545421318006886646e-01,0.000000000000000000e+00
1.057000000000000000e+03,2.556499394103751988e-02,0.000000000000000000e+00
1.058000000000000000e+03,-2.766018563245496442e-01,0.000000000000000000e+00
1.059000000000000000e+03,2.136102478198960708e-01,0.000000000000000000e+00
1.060000000000000000e+03,4.546598280693372018e+00,0.000000000000000000e+00
1.061000000000000000e+03,1.821004261079142594e+00,1.000000000000000000e+00
1.062000000000000000e+03,-1.470160568610431984e+00,0.000000000000000000e+00
1.063000000000000000e+03,-8.855753730799574841e-01,0.000000000000000000e+00
1.064000000000000000e+03,-1.424905392187287623e+00,0.000000000000000000e+00
1.065000000000000000e+03,-9.377538941446020848e-01,0.000000000000000000e+00
1.066000000000000000e+03,-1.074945910728272391e+00,0.000000000000000000e+00
1.067000000000000000e+03,-5.823339733023614739e-01,0.000000000000000000e+00
1.068000000000000000e+03,-1.123251118263130621e+00,0.000000000000000000e+00
1.069000000000000000e+03,-1.940305976266507859e-01,0.000000000000000000e+00
1.070000000000000000e+03,-6.471794585681386325e-01,0.000000000000000000e+00
1.071000000000000000e+03,-4.639558585956526371e-01,0.000000000000000000e+00
1.072000000000000000e+03,-5.160559181617165037e-02,0.000000000000000000e+00
1.073000000000000000e+03,7.832280797192633370e-01,0.000000000000000000e+00
1.074000000000000000e+03,1.090255471766254702e+00,0.000000000000000000e+00
1.075000000000000000e+03,1.155462832784870164e+00,0.000000000000000000e+00
1.076000000000000000e+03,6.528563649617054043e-01,0.000000000000000000e+00
1.077000000000000000e+03,2.212763423275656283e-01,0.000000000000000000e+00
1.078000000000000000e+03,-5.990016162229286900e-01,0.000000000000000000e+00
1.079000000000000000e+03,-1.176506150094204006e+00,0.000000000000000000e+00
1.080000000000000000e+03,-6.456783143351382259e-01,0.000000000000000000e+00
1.081000000000000000e+03,-1.130352643969469550e+00,0.000000000000000000e+00
1.082000000000000000e+03,-5.760081112999909658e-01,0.000000000000000000e+00
1.083000000000000000e+03,-3.416228548792696884e-01,0.000000000000000000e+00
1.084000000000000000e+03,-4.015323826403973118e-01,0.000000000000000000e+00
1.085000000000000000e+03,-3.501871762671052157e-01,0.000000000000000000e+00
1.086000000000000000e+03,-1.086322828104636651e-01,0.000000000000000000e+00
1.087000000000000000e+03,1.526107578965474609e-01,0.000000000000000000e+00
1.088000000000000000e+03,-6.160631701274593697e-02,0.000000000000000000e+00
1.089000000000000000e+03,-3.631310258629119603e-01,0.000000000000000000e+00
1.090000000000000000e+03,1.197698985724746784e-01,0.000000000000000000e+00
1.091000000000000000e+03,-2.472595021561374840e-01,0.000000000000000000e+00
1.092000000000000000e+03,-1.201258525544593170e-01,0.000000000000000000e+00
1.093000000000000000e+03,2.764771626373505736e-02,0.000000000000000000e+00
1.094000000000000000e+03,2.392092787447629987e-01,0.000000000000000000e+00
1.095000000000000000e+03,8.109223684968978885e-02,0.000000000000000000e+00
1.096000000000000000e+03,1.568974919547400926e-01,0.000000000000000000e+00
1.097000000000000000e+03,1.669563776347962047e-01,0.000000000000000000e+00
1.098000000000000000e+03,3.631409913467023021e-01,0.000000000000000000e+00
1.099000000000000000e+03,4.093514675463965635e-01,0.000000000000000000e+00
1.100000000000000000e+03,-5.742634522902961836e-02,0.000000000000000000e+00
1.101000000000000000e+03,9.706236455608562297e-01,0.000000000000000000e+00
1.102000000000000000e+03,1.644262754284380179e-01,0.000000000000000000e+00
1.103000000000000000e+03,7.676269610532570065e-01,0.000000000000000000e+00
1.104000000000000000e+03,7.842792373775955284e-01,0.000000000000000000e+00
1.105000000000000000e+03,7.307009253529083148e-01,0.000000000000000000e+00
1.106000000000000000e+03,1.129870854996376517e+00,0.000000000000000000e+00
1.107000000000000000e+03,2.417443165213526146e-01,0.000000000000000000e+00
1.108000000000000000e+03,1.227797605221033761e-01,0.000000000000000000e+00
1.109000000000000000e+03,4.915052219498946551e-01,0.000000000000000000e+00
1.110000000000000000e+03,3.073878060436859627e+00,0.000000000000000000e+00
1.111000000000000000e+03,4.787583953798177916e+00,0.000000000000000000e+00
1.112000000000000000e+03,-2.947788407533863952e-01,1.000000000000000000e+00
1.113000000000000000e+03,-1.063832519775327556e+00,0.000000000000000000e+00
1.114000000000000000e+03,-7.280394790441222508e-01,0.000000000000000000e+00
1.115000000000000000e+03,-5.100946725856176922e-01,0.000000000000000000e+00
1.116000000000000000e+03,-4.423845571687073930e-01,0.000000000000000000e+00
1.117000000000000000e+03,-4.581570717009673666e-01,0.000000000000000000e+00
1.118000000000000000e+03,-2.446289669467187622e-01,0.000000000000000000e+00
1.119000000000000000e+03,-7.222650087799893648e-02,0.000000000000000000e+00
1.120000000000000000e+03,-3.039416661426881383e-01,0.000000000000000000e+00
1.121000000000000000e+03,5.310905117552814358e-01,0.000000000000000000e+00
1.122000000000000000e+03,2.779212160303027868e-01,0.000000000000000000e+00
1.123000000000000000e+03,6.596476110633403556e-01,0.000000000000000000e+00
1.124000000000000000e+03,1.221227554084083122e+00,0.000000000000000000e+00
1.125000000000000000e+03,1.627880581681920846e+00,0.000000000000000000e+00
1.126000000000000000e+03,8.009706049195137734e-01,0.000000000000000000e+00
1.127000000000000000e+03,5.403919594405042215e-01,0.000000000000000000e+00
1.128000000000000000e+03,-6.141355775175243170e-02,0.000000000000000000e+00
1.129000000000000000e+03,-5.644738856867285159e-01,0.000000000000000000e+00
1.130000000000000000e+03,-8.643233990534385791e-01,0.000000000000000000e+00
1.131000000000000000e+03,-3.888094163692854544e-01,0.000000000000000000e+00
1.132000000000000000e+03,-4.527087035077259070e-01,0.000000000000000000e+00
1.133000000000000000e+03,-9.313143160786472308e-01,0.000000000000000000e+00
1.134000000000000000e+03,-3.895619263176005598e-01,0.000000000000000000e+00
1.135000000000000000e+03,-1.965101827276220792e-01,0.000000000000000000e+00
1.136000000000000000e+03,-4.230264296793151968e-01,0.000000000000000000e+00
1.137000000000000000e+03,-5.754334984324713242e-02,0.000000000000000000e+00
1.138000000000000000e+03,-1.622234647017195275e-01,0.000000000000000000e+00
1.139000000000000000e+03,-1.046557046853952844e-01,0.000000000000000000e+00
1.140000000000000000e+03,-1.386535086428975216e-01,0.000000000000000000e+00
1.141000000000000000e+03,-4.049869849543445421e-01,0.000000000000000000e+00
1.142000000000000000e+03,-2.047868934145544162e-01,0.000000000000000000e+00
1.143000000000000000e+03,-1.822833740697225313e-01,0.000000000000000000e+00
1.144000000000000000e+03,-5.823805196463810452e-01,0.000000000000000000e+00
1.145000000000000000e+03,-2.533128105862045287e-01,0.000000000000000000e+00
1.146000000000000000e+03,-2.641871698359623544e-01,0.000000000000000000e+00
1.147000000000000000e+03,-3.556870801405805360e-01,0.000000000000000000e+00
1.148000000000000000e+03,-4.459389784056652095e-01,0.000000000000000000e+00
1.149000000000000000e+03,-3.747414879574993973e-01,0.000000000000000000e+00
1.150000000000000000e+03,-1.827010756303251993e-01,0.000000000000000000e+00
1.151000000000000000e+03,-6.640061328383973782e-01,0.000000000000000000e+00
1.152000000000000000e+03,1.049771116503753904e-02,0.000000000000000000e+00
1.153000000000000000e+03,-4.642988486108176605e-01,0.000000000000000000e+00
1.154000000000000000e+03,-1.286834367161571180e-01,0.000000000000000000e+00
1.155000000000000000e+03,-8.123079570713556685e-02,0.000000000000000000e+00
1.156000000000000000e+03,-1.295759469997513451e-02,0.000000000000000000e+00
1.157000000000000000e+03,-8.682617972045707511e-01,0.000000000000000000e+00
1.158000000000000000e+03,-2.910499446077923213e-01,0.000000000000000000e+00
1.159000000000000000e+03,-1.584986653089912045e-01,0.000000000000000000e+00
1.160000000000000000e+03,4.062102794657682203e+00,0.000000000000000000e+00
1.161000000000000000e+03,2.541150262686955319e+00,1.000000000000000000e+00
1.162000000000000000e+03,-1.232123009900579991e+00,0.000000000000000000e+00
1.163000000000000000e+03,-1.008772873816589977e+00,0.000000000000000000e+00
1.164000000000000000e+03,-1.132071462185917587e+00,0.000000000000000000e+00
1.165000000000000000e+03,-1.510638802285458437e+00,0.000000000000000000e+00
1.166000000000000000e+03,-1.335820936310704754e+00,0.000000000000000000e+00
1.167000000000000000e+03,-8.285408683731245727e-01,0.000000000000000000e+00
1.168000000000000000e+03,-7.578585910790325286e-01,0.000000000000000000e+00
1.169000000000000000e+03,-5.851613370135990699e-01,0.000000000000000000e+00
1.170000000000000000e+03,-7.022310862210445759e-01,0.000000000000000000e+00
1.171000000000000000e+03,-6.370394243230178555e-01,0.000000000000000000e+00
1.172000000000000000e+03,-2.787573453713724780e-01,0.000000000000000000e+00
1.173000000000000000e+03,6.579794278606214408e-02,0.000000000000000000e+00
1.174000000000000000e+03,7.336275985232160179e-01,0.000000000000000000e+00
1.175000000000000000e+03,4.915489022815907605e-01,0.000000000000000000e+00
1.176000000000000000e+03,5.450476361780143275e-01,0.000000000000000000e+00
1.177000000000000000e+03,-3.278368971883067751e-01,0.000000000000000000e+00
1.178000000000000000e+03,-1.352887523021315097e+00,0.000000000000000000e+00
1.179000000000000000e+03,-8.054065036307527237e-01,0.000000000000000000e+00
1.180000000000000000e+03,-1.103517018107935899e+00,0.000000000000000000e+00
1.181000000000000000e+03,-1.020613652689657203e+00,0.000000000000000000e+00
1.182000000000000000e+03,-9.101235954509975246e-01,0.000000000000000000e+00
1.183000000000000000e+03,-9.127686493609619145e-01,0.000000000000000000e+00
1.184000000000000000e+03,-5.764699478454240467e-01,0.000000000000000000e+00
1.185000000000000000e+03,-2.859787869553679363e-01,0.000000000000000000e+00
1.186000000000000000e+03,-3.408820551934915177e-01,0.000000000000000000e+00
1.187000000000000000e+03,-6.650734990931581048e-02,0.000000000000000000e+00
1.188000000000000000e+03,1.220509905879593182e-01,0.000000000000000000e+00
1.189000000000000000e+03,-2.163703880306045157e-01,0.000000000000000000e+00
1.190000000000000000e+03,3.373269649203750054e-01,0.000000000000000000e+00
1.191000000000000000e+03,2.101064142819192848e-01,0.000000000000000000e+00
1.192000000000000000e+03,1.286017345331705031e-01,0.000000000000000000e+00
1.193000000000000000e+03,4.130113834449581356e-01,0.000000000000000000e+00
1.194000000000000000e+03,-1.687867829433213895e-01,0.000000000000000000e+00
1.195000000000000000e+03,5.006765098307121020e-01,0.000000000000000000e+00
1.196000000000000000e+03,5.098428832414073630e-01,0.000000000000000000e+00
1.197000000000000000e+03,4.924587033551192095e-01,0.000000000000000000e+00
1.198000000000000000e+03,1.994036263820418708e-01,0.000000000000000000e+00
1.199000000000000000e+03,3.078269154052888923e-01,0.000000000000000000e+00
1.200000000000000000e+03,6.361234265560192780e-01,0.000000000000000000e+00
1.201000000000000000e+03,4.903249917967124061e-01,0.000000000000000000e+00
1.202000000000000000e+03,5.733690349962863309e-01,0.000000000000000000e+00
1.203000000000000000e+03,4.087402987713761870e-01,0.000000000000000000e+00
1.204000000000000000e+03,8.692770912155183272e-01,0.000000000000000000e+00
1.205000000000000000e+03,8.477845655591204066e-01,0.000000000000000000e+00
1.206000000000000000e+03,1.217629684511643440e+00,0.000000000000000000e+00
1.207000000000000000e+03,1.963745997699692658e-01,0.000000000000000000e+00
1.208000000000000000e+03,2.258877652483637644e-01,0.000000000000000000e+00
1.209000000000000000e+03,4.592679765664913760e-01,0.000000000000000000e+00
1.210000000000000000e+03,4.345166501183907570e+00,0.000000000000000000e+00
1.211000000000000000e+03,3.855206485409353512e+00,0.000000000000000000e+00
1.212000000000000000e+03,-6.144652704582194147e-01,1.000000000000000000e+00
1.213000000000000000e+03,-4.358790887884091414e-01,0.000000000000000000e+00
1.214000000000000000e+03,-9.494478029318327295e-01,0.000000000000000000e+00
1.215000000000000000e+03,-5.416650959204125648e-01,0.000000000000000000e+00
1.216000000000000000e+03,-7.687563360940853352e-01,0.000000000000000000e+00
1.217000000000000000e+03,-1.606932864589005472e-01,0.000000000000000000e+00
1.218000000000000000e+03,-4.776889076801852374e-01,0.000000000000000000e+00
1.219000000000000000e+03,-1.721706617276256429e-02,0.000000000000000000e+00
1.220000000000000000e+03,3.361061918049578767e-01,0.000000000000000000e+00
1.221000000000000000e+03,-2.530542843023624866e-01,0.000000000000000000e+00
1.222000000000000000e+03,7.615317039379994046e-01,0.000000000000000000e+00
1.223000000000000000e+03,6.375250874335723905e-01,0.000000000000000000e+00
1.224000000000000000e+03,1.158189403602575052e+00,0.000000000000000000e+00
1.225000000000000000e+03,1.309509841588152312e+00,0.000000000000000000e+00
1.226000000000000000e+03,1.369574117675822489e+00,0.000000000000000000e+00
1.227000000000000000e+03,3.605606440847102800e-01,0.000000000000000000e+00
1.228000000000000000e+03,-1.840454455832389868e-01,0.000000000000000000e+00
1.229000000000000000e+03,-5.370321023734438981e-01,0.000000000000000000e+00
1.230000000000000000e+03,-4.680255065757676358e-01,0.000000000000000000e+00
1.231000000000000000e+03,-6.934854234726007816e-01,0.000000000000000000e+00
1.232000000000000000e+03,-8.625447473713995228e-01,0.000000000000000000e+00
1.233000000000000000e+03,-6.614608311334303492e-01,0.000000000000000000e+00
1.234000000000000000e+03,-5.706983250268675700e-01,0.000000000000000000e+00
1.235000000000000000e+03,-1.554612015614113829e-01,0.000000000000000000e+00
1.236000000000000000e+03,-5.493494043339280930e-01,0.000000000000000000e+00
1.237000000000000000e+03,-1.497755187340049920e-01,0.000000000000000000e+00
1.238000000000000000e+03,3.776959467599561027e-02,0.000000000000000000e+00
1.239000000000000000e+03,-4.502821249017466276e-01,0.000000000000000000e+00
1.240000000000000000e+03,-4.272418943931143714e-02,0.000000000000000000e+00
1.241000000000000000e+03,-3.700586920982910089e-01,0.000000000000000000e+00
1.242000000000000000e+03,7.439962877283796960e-02,0.000000000000000000e+00
1.243000000000000000e+03,-3.366251808093584375e-01,0.000000000000000000e+00
1.244000000000000000e+03,-1.017922303806841761e-02,0.000000000000000000e+00
1.245000000000000000e+03,-2.212870036952531705e-01,0.000000000000000000e+00
1.246000000000000000e+03,4.630905683263510098e-02,0.000000000000000000e+00
1.247000000000000000e+03,3.220591329779974241e-03,0.000000000000000000e+00
1.248000000000000000e+03,-1.561354406961914243e-01,0.000000000000000000e+00
1.249000000000000000e+03,1.425385701738699218e-01,0.000000000000000000e+00
1.250000000000000000e+03,-2.418200780097357339e-01,0.000000000000000000e+00
1.251000000000000000e+03,7.726330131086460440e-02,0.000000000000000000e+00
1.252000000000000000e+03,3.171206447707723974e-01,0.000000000000000000e+00
1.253000000000000000e+03,5.555580012152818714e-01,0.000000000000000000e+00
1.254000000000000000e+03,5.688640637685621337e-01,0.000000000000000000e+00
1.255000000000000000e+03,-1.915057283060140059e-01,0.000000000000000000e+00
1.256000000000000000e+03,-6.372480166827086678e-02,0.000000000000000000e+00
1.257000000000000000e+03,9.023582562688638176e-02,0.000000000000000000e+00
1.258000000000000000e+03,3.653433042880771975e+00,0.000000000000000000e+00
1.259000000000000000e+03,3.256914824911642192e+00,0.000000000000000000e+00
1.260000000000000000e+03,-1.456362092701685151e+00,1.000000000000000000e+00
1.261000000000000000e+03,-1.047530884131846030e+00,0.000000000000000000e+00
1.262000000000000000e+03,-1.277928731796891038e+00,0.000000000000000000e+00
1.263000000000000000e+03,-7.519161361025938906e-01,0.000000000000000000e+00
1.264000000000000000e+03,-1.030381617710474540e+00,0.000000000000000000e+00
1.265000000000000000e+03,-5.568041623600842316e-01,0.000000000000000000e+00
1.266000000000000000e+03,-8.221073101514599912e-01,0.000000000000000000e+00
1.267000000000000000e+03,-2.466691288714721042e-01,0.000000000000000000e+00
1.268000000000000000e+03,-3.379382951985857031e-01,0.000000000000000000e+00
1.269000000000000000e+03,-1.200393513914872062e-01,0.000000000000000000e+00
1.270000000000000000e+03,-1.499170999606996013e-01,0.000000000000000000e+00
1.271000000000000000e+03,7.431699912513255457e-01,0.000000000000000000e+00
1.272000000000000000e+03,6.001306900568684766e-01,0.000000000000000000e+00
1.273000000000000000e+03,1.153961962520845708e+00,0.000000000000000000e+00
1.274000000000000000e+03,5.661016220575822988e-01,0.000000000000000000e+00
1.275000000000000000e+03,2.929419321277705324e-01,0.000000000000000000e+00
1.276000000000000000e+03,-8.570758974854663093e-01,0.000000000000000000e+00
1.277000000000000000e+03,-9.486103417263831439e-01,0.000000000000000000e+00
1.278000000000000000e+03,-1.424772158217299189e+00,0.000000000000000000e+00
1.279000000000000000e+03,-1.031329431904236316e+00,0.000000000000000000e+00
1.280000000000000000e+03,-1.136250711192470675e+00,0.000000000000000000e+00
1.281000000000000000e+03,-9.356859013291183302e-01,0.000000000000000000e+00
1.282000000000000000e+03,-8.238334013020781610e-01,0.000000000000000000e+00
1.283000000000000000e+03,-4.297939241672905086e-01,0.000000000000000000e+00
1.284000000000000000e+03,-6.734872993976371847e-01,0.000000000000000000e+00
1.285000000000000000e+03,-2.234654218751954136e-01,0.000000000000000000e+00
1.286000000000000000e+03,-7.649570698334532404e-01,0.000000000000000000e+00
1.287000000000000000e+03,-6.083360684896614856e-01,0.000000000000000000e+00
1.288000000000000000e+03,-3.367507207710818129e-01,0.000000000000000000e+00
1.289000000000000000e+03,-8.572887411406170388e-01,0.000000000000000000e+00
1.290000000000000000e+03,-3.961360825690937171e-01,0.000000000000000000e+00
1.291000000000000000e+03,-8.933776053066477818e-01,0.000000000000000000e+00
1.292000000000000000e+03,-6.522412774679759995e-01,0.000000000000000000e+00
1.293000000000000000e+03,-4.651081089922524670e-01,0.000000000000000000e+00
1.294000000000000000e+03,-2.315931249818198590e-01,0.000000000000000000e+00
1.295000000000000000e+03,-6.399768609343815529e-01,0.000000000000000000e+00
1.296000000000000000e+03,-2.832282520033065909e-01,0.000000000000000000e+00
1.297000000000000000e+03,-1.901037890202421365e-01,0.000000000000000000e+00
1.298000000000000000e+03,-2.660324645538775234e-01,0.000000000000000000e+00
1.299000000000000000e+03,-3.734572790543640997e-01,0.000000000000000000e+00
1.300000000000000000e+03,5.838846126454211305e-01,0.000000000000000000e+00
1.301000000000000000e+03,3.344063731129140460e-01,0.000000000000000000e+00
1.302000000000000000e+03,-5.048432959803977882e-01,0.000000000000000000e+00
1.303000000000000000e+03,-1.008958863921362026e-01,0.000000000000000000e+00
1.304000000000000000e+03,-5.519026828492793468e-01,0.000000000000000000e+00
1.305000000000000000e+03,3.899247580647952738e+00,0.000000000000000000e+00
1.306000000000000000e+03,3.892642230870117626e+00,0.000000000000000000e+00
1.307000000000000000e+03,-9.046766750341290741e-01,1.000000000000000000e+00
1.308000000000000000e+03,-8.882883105686395497e-01,0.000000000000000000e+00
1.309000000000000000e+03,-1.479025562934391580e+00,0.000000000000000000e+00
1.310000000000000000e+03,-8.672330434279228450e-01,0.000000000000000000e+00
1.311000000000000000e+03,-9.222803952953059214e-01,0.000000000000000000e+00
1.312000000000000000e+03,-6.126402221755876676e-01,0.000000000000000000e+00
1.313000000000000000e+03,-5.937995926593324647e-01,0.000000000000000000e+00
1.314000000000000000e+03,-7.347085231876281375e-01,0.000000000000000000e+00
1.315000000000000000e+03,-2.666077011488661719e-01,0.000000000000000000e+00
1.316000000000000000e+03,-5.169272922155895844e-02,0.000000000000000000e+00
1.317000000000000000e+03,1.236310549317517216e-01,0.000000000000000000e+00
1.318000000000000000e+03,5.575623118497026187e-01,0.000000000000000000e+00
1.319000000000000000e+03,1.092443345429017887e+00,0.000000000000000000e+00
1.320000000000000000e+03,1.463698775777712235e+00,0.000000000000000000e+00
1.321000000000000000e+03,1.196758183291630528e+00,0.000000000000000000e+00
1.322000000000000000e+03,4.293057231669580309e-01,0.000000000000000000e+00
1.323000000000000000e+03,-8.300800773566421528e-03,0.000000000000000000e+00
1.324000000000000000e+03,-1.233590785616208163e-01,0.000000000000000000e+00
1.325000000000000000e+03,5.401873367755470612e-02,0.000000000000000000e+00
1.326000000000000000e+03,-4.452945878407132962e-01,0.000000000000000000e+00
1.327000000000000000e+03,2.357768822065965941e-01,0.000000000000000000e+00
1.328000000000000000e+03,-1.363365856765668196e-02,0.000000000000000000e+00
1.329000000000000000e+03,4.894489139040731907e-01,0.000000000000000000e+00
1.330000000000000000e+03,-2.391245923265269691e-01,0.000000000000000000e+00
1.331000000000000000e+03,6.716347263903243991e-01,0.000000000000000000e+00
1.332000000000000000e+03,6.475469919143534980e-01,0.000000000000000000e+00
1.333000000000000000e+03,6.433389789649213153e-01,0.000000000000000000e+00
1.334000000000000000e+03,8.253660112771731283e-01,0.000000000000000000e+00
1.335000000000000000e+03,7.465727688395064066e-01,0.000000000000000000e+00
1.336000000000000000e+03,8.714796798764942176e-01,0.000000000000000000e+00
1.337000000000000000e+03,8.682327487293161061e-01,0.000000000000000000e+00
1.338000000000000000e+03,6.146275828735877633e-01,0.000000000000000000e+00
1.339000000000000000e+03,7.817380813234844350e-01,0.000000000000000000e+00
1.340000000000000000e+03,8.686859292159292423e-01,0.000000000000000000e+00
1.341000000000000000e+03,7.758845484073528809e-01,0.000000000000000000e+00
1.342000000000000000e+03,6.688199386602956542e-01,0.000000000000000000e+00
1.343000000000000000e+03,1.011563646125894333e+00,0.000000000000000000e+00
1.344000000000000000e+03,7.620892017626383907e-01,0.000000000000000000e+00
1.345000000000000000e+03,6.834892358249423649e-01,0.000000000000000000e+00
1.346000000000000000e+03,6.242032646520191408e-01,0.000000000000000000e+00
1.347000000000000000e+03,9.829711592923660035e-01,0.000000000000000000e+00
1.348000000000000000e+03,8.263806811311181777e-01,0.000000000000000000e+00
1.349000000000000000e+03,6.363777613767714891e-01,0.000000000000000000e+00
1.350000000000000000e+03,-3.099758591276390307e-01,0.000000000000000000e+00
1.351000000000000000e+03,9.672552918400953437e-02,0.000000000000000000e+00
1.352000000000000000e+03,-3.446669337129644461e-02,0.000000000000000000e+00
1.353000000000000000e+03,4.605834225254013425e+00,0.000000000000000000e+00
1.354000000000000000e+03,2.650292541276816127e+00,1.000000000000000000e+00
1.355000000000000000e+03,-1.272324035679592402e+00,0.000000000000000000e+00
1.356000000000000000e+03,-1.416393924137718141e+00,0.000000000000000000e+00
1.357000000000000000e+03,-1.694959695326182070e+00,0.000000000000000000e+00
1.358000000000000000e+03,-1.322636856167704433e+00,0.000000000000000000e+00
1.359000000000000000e+03,-1.059507317746406718e+00,0.000000000000000000e+00
1.360000000000000000e+03,-9.341899763957047798e-01,0.000000000000000000e+00
1.361000000000000000e+03,-8.343836201637552241e-01,0.000000000000000000e+00
1.362000000000000000e+03,-4.566711565911278359e-01,0.000000000000000000e+00
1.363000000000000000e+03,-3.329831943958593832e-01,0.000000000000000000e+00
1.364000000000000000e+03,-2.888908161935376806e-01,0.000000000000000000e+00
1.365000000000000000e+03,2.507057661332705578e-01,0.000000000000000000e+00
1.366000000000000000e+03,9.749239093188195593e-01,0.000000000000000000e+00
1.367000000000000000e+03,1.097131332094137823e+00,0.000000000000000000e+00
1.368000000000000000e+03,1.312426274063598575e+00,0.000000000000000000e+00
1.369000000000000000e+03,1.139367070528828352e+00,0.000000000000000000e+00
1.370000000000000000e+03,9.773460733373792175e-01,0.000000000000000000e+00
1.371000000000000000e+03,3.208787542339308629e-01,0.000000000000000000e+00
1.372000000000000000e+03,4.470139469813836364e-01,0.000000000000000000e+00
1.373000000000000000e+03,7.745791764753084951e-01,0.000000000000000000e+00
1.374000000000000000e+03,4.242178021045642788e-01,0.000000000000000000e+00
1.375000000000000000e+03,8.702785587711795445e-01,0.000000000000000000e+00
1.376000000000000000e+03,5.351545364434970864e-01,0.000000000000000000e+00
1.377000000000000000e+03,4.260898140601304673e-01,0.000000000000000000e+00
1.378000000000000000e+03,3.628833964715354465e-01,0.000000000000000000e+00
1.379000000000000000e+03,-1.389217359936337770e-01,0.000000000000000000e+00
1.380000000000000000e+03,-2.945997522481824324e-02,0.000000000000000000e+00
1.381000000000000000e+03,-3.941626776517884179e-02,0.000000000000000000e+00
1.382000000000000000e+03,-6.525621656847885310e-01,0.000000000000000000e+00
1.383000000000000000e+03,-6.937780522112464432e-01,0.000000000000000000e+00
1.384000000000000000e+03,-1.056511099601658676e+00,0.000000000000000000e+00
1.385000000000000000e+03,-1.435493655738565355e+00,0.000000000000000000e+00
1.386000000000000000e+03,-1.155598458494548009e+00,0.000000000000000000e+00
1.387000000000000000e+03,-1.158295760093174698e+00,0.000000000000000000e+00
1.388000000000000000e+03,-1.224784187832602234e+00,0.000000000000000000e+00
1.389000000000000000e+03,-1.103700366428332469e+00,0.000000000000000000e+00
1.390000000000000000e+03,-1.552624105681654321e+00,0.000000000000000000e+00
1.391000000000000000e+03,-1.203502548446284681e+00,0.000000000000000000e+00
1.392000000000000000e+03,-1.065181328635157687e+00,0.000000000000000000e+00
1.393000000000000000e+03,-1.369388081265245249e+00,0.000000000000000000e+00
1.394000000000000000e+03,-1.120556981845712841e+00,0.000000000000000000e+00
1.395000000000000000e+03,-1.636743251945919964e+00,0.000000000000000000e+00
1.396000000000000000e+03,-9.807462774404970274e-01,0.000000000000000000e+00
1.397000000000000000e+03,-9.922267657983327993e-01,0.000000000000000000e+00
1.398000000000000000e+03,-7.787213868117754956e-01,0.000000000000000000e+00
1.399000000000000000e+03,-8.623632564817979018e-01,0.000000000000000000e+00
1.400000000000000000e+03,-1.589771991855257305e+00,0.000000000000000000e+00
1.401000000000000000e+03,-1.474082713813015699e+00,0.000000000000000000e+00
1.402000000000000000e+03,-1.832985546737690985e+00,0.000000000000000000e+00
1.403000000000000000e+03,2.888307612733690188e+00,0.000000000000000000e+00
1.404000000000000000e+03,2.049450925053032169e+00,1.000000000000000000e+00
1.405000000000000000e+03,-2.713501736416181309e+00,0.000000000000000000e+00
1.406000000000000000e+03,-2.232166397550539916e+00,0.000000000000000000e+00
1.407000000000000000e+03,-2.112819704319809144e+00,0.000000000000000000e+00
1.408000000000000000e+03,-1.949236229931486042e+00,0.000000000000000000e+00
1.409000000000000000e+03,-2.030719530724452770e+00,0.000000000000000000e+00
1.410000000000000000e+03,-1.674127736940276057e+00,0.000000000000000000e+00
1.411000000000000000e+03,-1.612903964703304993e+00,0.000000000000000000e+00
1.412000000000000000e+03,-1.353125175097443789e+00,0.000000000000000000e+00
1.413000000000000000e+03,-1.145818934953890089e+00,0.000000000000000000e+00
1.414000000000000000e+03,-4.940623758875118954e-01,0.000000000000000000e+00
1.415000000000000000e+03,-5.183581628625846260e-01,0.000000000000000000e+00
1.416000000000000000e+03,-2.834460744731214232e-01,0.000000000000000000e+00
1.417000000000000000e+03,5.207854582854568593e-01,0.000000000000000000e+00
1.418000000000000000e+03,9.353786044514543763e-01,0.000000000000000000e+00
1.419000000000000000e+03,2.759197107064219057e-01,0.000000000000000000e+00
1.420000000000000000e+03,-3.914360694971230625e-01,0.000000000000000000e+00
1.421000000000000000e+03,-7.255862640147612286e-01,0.000000000000000000e+00
1.422000000000000000e+03,-7.406044884267554140e-01,0.000000000000000000e+00
1.423000000000000000e+03,-1.043632110332020302e+00,0.000000000000000000e+00
1.424000000000000000e+03,-1.067590702683830495e+00,0.000000000000000000e+00
1.425000000000000000e+03,-8.416874216051500879e-01,0.000000000000000000e+00
1.426000000000000000e+03,-7.763317607900664941e-01,0.000000000000000000e+00
1.427000000000000000e+03,1.175981836121701013e-01,0.000000000000000000e+00
1.428000000000000000e+03,-7.689727328998766098e-02,0.000000000000000000e+00
1.429000000000000000e+03,-1.168296370520813948e-01,0.000000000000000000e+00
1.430000000000000000e+03,4.405513117546872026e-01,0.000000000000000000e+00
1.431000000000000000e+03,4.348476011061370716e-01,0.000000000000000000e+00
1.432000000000000000e+03,5.816686057958332379e-01,0.000000000000000000e+00
1.433000000000000000e+03,5.191638794117635625e-01,0.000000000000000000e+00
1.434000000000000000e+03,6.755573103930561096e-01,0.000000000000000000e+00
1.435000000000000000e+03,9.397059385871299186e-01,0.000000000000000000e+00
1.436000000000000000e+03,6.792064778583656315e-01,0.000000000000000000e+00
1.437000000000000000e+03,9.625452262660347813e-01,0.000000000000000000e+00
1.438000000000000000e+03,1.065407789835877361e+00,0.000000000000000000e+00
1.439000000000000000e+03,1.175734126467259610e+00,0.000000000000000000e+00
1.440000000000000000e+03,8.539909446713130903e-01,0.000000000000000000e+00
1.441000000000000000e+03,1.552123787524667842e+00,0.000000000000000000e+00
1.442000000000000000e+03,1.296286769875227618e+00,0.000000000000000000e+00
1.443000000000000000e+03,1.307482210478142948e+00,0.000000000000000000e+00
1.444000000000000000e+03,1.927080500780049332e+00,0.000000000000000000e+00
1.445000000000000000e+03,1.521887195914829460e+00,0.000000000000000000e+00
1.446000000000000000e+03,1.621309379213886626e+00,0.000000000000000000e+00
1.447000000000000000e+03,1.703061660605778904e+00,0.000000000000000000e+00
1.448000000000000000e+03,1.973086560323270122e+00,0.000000000000000000e+00
1.449000000000000000e+03,2.083544566874018678e+00,0.000000000000000000e+00
1.450000000000000000e+03,2.049281252694417077e+00,0.000000000000000000e+00
1.451000000000000000e+03,1.203199136906943023e+00,0.000000000000000000e+00
1.452000000000000000e+03,1.288717960243016769e+00,0.000000000000000000e+00
1.453000000000000000e+03,1.340634989423066248e+00,0.000000000000000000e+00
1.454000000000000000e+03,5.624154687565214417e+00,0.000000000000000000e+00
1.455000000000000000e+03,4.151130352213690422e+00,1.000000000000000000e+00
1.456000000000000000e+03,-1.996686072096303111e-01,0.000000000000000000e+00
1.457000000000000000e+03,2.102863529709475265e-01,0.000000000000000000e+00
1.458000000000000000e+03,-3.410686731406604305e-02,0.000000000000000000e+00
1.459000000000000000e+03,5.333462115947910087e-01,0.000000000000000000e+00
1.460000000000000000e+03,-2.139259176453616462e-01,0.000000000000000000e+00
1.461000000000000000e+03,1.613529156373869067e-01,0.000000000000000000e+00
1.462000000000000000e+03,-1.316253095780809193e-02,0.000000000000000000e+00
1.463000000000000000e+03,3.134330335550806201e-01,0.000000000000000000e+00
1.464000000000000000e+03,-2.255150070540357012e-03,0.000000000000000000e+00
1.465000000000000000e+03,2.335847228162707956e-01,0.000000000000000000e+00
1.466000000000000000e+03,3.743373160922388032e-01,0.000000000000000000e+00
1.467000000000000000e+03,8.681852391102478084e-01,0.000000000000000000e+00
1.468000000000000000e+03,9.302374074983551511e-01,0.000000000000000000e+00
1.469000000000000000e+03,1.284417111204712691e+00,0.000000000000000000e+00
1.470000000000000000e+03,8.086245241820524399e-01,0.000000000000000000e+00
1.471000000000000000e+03,2.156794180424072838e-01,0.000000000000000000e+00
1.472000000000000000e+03,-6.584974666597042114e-01,0.000000000000000000e+00
1.473000000000000000e+03,-9.841787203914723614e-01,0.000000000000000000e+00
1.474000000000000000e+03,-6.939714386819890724e-01,0.000000000000000000e+00
1.475000000000000000e+03,-7.482627877495998669e-01,0.000000000000000000e+00
1.476000000000000000e+03,-1.315288490229454155e+00,0.000000000000000000e+00
1.477000000000000000e+03,-7.776178374146114347e-01,0.000000000000000000e+00
1.478000000000000000e+03,-8.373578450669832973e-01,0.000000000000000000e+00
1.479000000000000000e+03,-5.383762151546194197e-01,0.000000000000000000e+00
1.480000000000000000e+03,-6.083078895041453826e-01,0.000000000000000000e+00
1.481000000000000000e+03,-4.645980192971990164e-01,0.000000000000000000e+00
1.482000000000000000e+03,-6.665871886011026648e-01,0.000000000000000000e+00
1.483000000000000000e+03,-7.865611038847977188e-01,0.000000000000000000e+00
1.484000000000000000e+03,-4.490207988509805070e-01,0.000000000000000000e+00
1.485000000000000000e+03,-4.439330656510411255e-01,0.000000000000000000e+00
1.486000000000000000e+03,-2.948048804905274434e-01,0.000000000000000000e+00
1.487000000000000000e+03,-8.181625554554948776e-01,0.000000000000000000e+00
1.488000000000000000e+03,-9.065744043301511568e-02,0.000000000000000000e+00
1.489000000000000000e+03,-3.949167434788455888e-01,0.000000000000000000e+00
1.490000000000000000e+03,-3.394290351633009739e-01,0.000000000000000000e+00
1.491000000000000000e+03,-1.005736782364179960e-01,0.000000000000000000e+00
1.492000000000000000e+03,-4.849340726346923480e-01,0.000000000000000000e+00
1.493000000000000000e+03,1.042089833089936413e-01,0.000000000000000000e+00
1.494000000000000000e+03,-7.237595227356524719e-01,0.000000000000000000e+00
1.495000000000000000e+03,5.378706747484614248e-02,0.000000000000000000e+00
1.496000000000000000e+03,-5.314118842384792929e-01,0.000000000000000000e+00
1.497000000000000000e+03,-3.836203492646842461e-01,0.000000000000000000e+00
1.498000000000000000e+03,-5.967336405812393441e-01,0.000000000000000000e+00
1.499000000000000000e+03,-4.083887231473627977e-01,0.000000000000000000e+00
1.500000000000000000e+03,1.681799856185570985e-01,0.000000000000000000e+00
1.501000000000000000e+03,-5.022110170225094761e-01,0.000000000000000000e+00
1.502000000000000000e+03,-6.874923552858486220e-01,0.000000000000000000e+00
1.503000000000000000e+03,-1.057329456591013628e+00,0.000000000000000000e+00
1.504000000000000000e+03,-1.569967668465478194e+00,0.000000000000000000e+00
1.505000000000000000e+03,2.278587789262733754e+00,0.000000000000000000e+00
1.506000000000000000e+03,3.772000581778453654e+00,0.000000000000000000e+00
1.507000000000000000e+03,-1.662614785082190183e+00,1.000000000000000000e+00
1.508000000000000000e+03,-1.974146484725641804e+00,0.000000000000000000e+00
1.509000000000000000e+03,-2.343181316067068476e+00,0.000000000000000000e+00
1.510000000000000000e+03,-1.927305118073953327e+00,0.000000000000000000e+00
1.511000000000000000e+03,-1.997116354395376270e+00,0.000000000000000000e+00
1.512000000000000000e+03,-1.608024203914498518e+00,0.000000000000000000e+00
1.513000000000000000e+03,-1.716033183876917168e+00,0.000000000000000000e+00
1.514000000000000000e+03,-1.321273055540812313e+00,0.000000000000000000e+00
1.515000000000000000e+03,-1.099485717841590438e+00,0.000000000000000000e+00
1.516000000000000000e+03,-8.217687905984512042e-01,0.000000000000000000e+00
1.517000000000000000e+03,-5.608976954882373134e-01,0.000000000000000000e+00
1.518000000000000000e+03,1.956255323626600040e-01,0.000000000000000000e+00
1.519000000000000000e+03,1.889755231899113153e-01,0.000000000000000000e+00
1.520000000000000000e+03,1.047959118086714270e+00,0.000000000000000000e+00
1.521000000000000000e+03,9.105444898278813870e-01,0.000000000000000000e+00
1.522000000000000000e+03,2.606243540444800888e-01,0.000000000000000000e+00
1.523000000000000000e+03,-5.393750635019823464e-02,0.000000000000000000e+00
1.524000000000000000e+03,-6.583815704709341521e-01,0.000000000000000000e+00
1.525000000000000000e+03,-5.069366225642577550e-01,0.000000000000000000e+00
1.526000000000000000e+03,-5.888949917864529926e-01,0.000000000000000000e+00
1.527000000000000000e+03,-2.460938408592612259e-01,0.000000000000000000e+00
1.528000000000000000e+03,-3.853775174433894390e-01,0.000000000000000000e+00
1.529000000000000000e+03,-2.351135051420187583e-01,0.000000000000000000e+00
1.530000000000000000e+03,1.621604484431380666e-01,0.000000000000000000e+00
1.531000000000000000e+03,2.532235893357879797e-01,0.000000000000000000e+00
1.532000000000000000e+03,3.979678780314360176e-01,0.000000000000000000e+00
1.533000000000000000e+03,6.903474491711832917e-01,0.000000000000000000e+00
1.534000000000000000e+03,5.694773083564944605e-01,0.000000000000000000e+00
1.535000000000000000e+03,2.988148245665110392e-01,0.000000000000000000e+00
1.536000000000000000e+03,4.758238250906639544e-01,0.000000000000000000e+00
1.537000000000000000e+03,7.936171937236802254e-01,0.000000000000000000e+00
1.538000000000000000e+03,1.868448990401348486e-01,0.000000000000000000e+00
1.539000000000000000e+03,7.749399390657872866e-01,0.000000000000000000e+00
1.540000000000000000e+03,3.746939174889684088e-01,0.000000000000000000e+00
1.541000000000000000e+03,8.257581161241485113e-01,0.000000000000000000e+00
1.542000000000000000e+03,3.475087948203038346e-01,0.000000000000000000e+00
1.543000000000000000e+03,6.329786025534953620e-01,0.000000000000000000e+00
1.544000000000000000e+03,5.812792456815424336e-01,0.000000000000000000e+00
1.545000000000000000e+03,9.067862258203898129e-01,0.000000000000000000e+00
1.546000000000000000e+03,6.490669727629057029e-01,0.000000000000000000e+00
1.547000000000000000e+03,7.985518266403542897e-01,0.000000000000000000e+00
1.548000000000000000e+03,6.268251413214155354e-01,0.000000000000000000e+00
1.549000000000000000e+03,1.097402977024608539e+00,0.000000000000000000e+00
1.550000000000000000e+03,7.303905178695810907e-01,0.000000000000000000e+00
1.551000000000000000e+03,8.320955368651099526e-01,0.000000000000000000e+00
1.552000000000000000e+03,1.647623438702364718e+00,0.000000000000000000e+00
1.553000000000000000e+03,6.106446581241037341e-01,0.000000000000000000e+00
1.554000000000000000e+03,5.912520221694073097e-01,0.000000000000000000e+00
1.555000000000000000e+03,9.909080079121951323e-02,0.000000000000000000e+00
1.556000000000000000e+03,9.908191972320211649e-01,0.000000000000000000e+00
1.557000000000000000e+03,5.427240082559671386e+00,0.000000000000000000e+00
1.558000000000000000e+03,2.909360891491222123e+00,1.000000000000000000e+00
1.559000000000000000e+03,-6.723336779888273718e-01,0.000000000000000000e+00
1.560000000000000000e+03,-8.323461412609916010e-01,0.000000000000000000e+00
1.561000000000000000e+03,-9.647524962390999770e-01,0.000000000000000000e+00
1.562000000000000000e+03,-7.806701055534154277e-01,0.000000000000000000e+00
1.563000000000000000e+03,-1.049077964869563617e+00,0.000000000000000000e+00
1.564000000000000000e+03,-6.367008111846701457e-01,0.000000000000000000e+00
1.565000000000000000e+03,-5.439583678952161216e-01,0.000000000000000000e+00
1.566000000000000000e+03,-7.118875442867543812e-01,0.000000000000000000e+00
1.567000000000000000e+03,-6.618100875830260632e-01,0.000000000000000000e+00
1.568000000000000000e+03,-1.623579458291972977e-01,0.000000000000000000e+00
1.569000000000000000e+03,-1.898334147580696754e-02,0.000000000000000000e+00
1.570000000000000000e+03,3.797663182566702322e-01,0.000000000000000000e+00
1.571000000000000000e+03,7.307742024008408999e-01,0.000000000000000000e+00
1.572000000000000000e+03,8.328060584535081912e-01,0.000000000000000000e+00
1.573000000000000000e+03,6.746659267264529802e-01,0.000000000000000000e+00
1.574000000000000000e+03,-2.663628722991439601e-01,0.000000000000000000e+00
1.575000000000000000e+03,-7.953152936779952498e-01,0.000000000000000000e+00
1.576000000000000000e+03,-8.576617708190207301e-01,0.000000000000000000e+00
1.577000000000000000e+03,-1.008978692210517059e+00,0.000000000000000000e+00
1.578000000000000000e+03,-1.180866597984890687e+00,0.000000000000000000e+00
1.579000000000000000e+03,-1.050536683852562048e+00,0.000000000000000000e+00
1.580000000000000000e+03,-8.123715059780740599e-01,0.000000000000000000e+00
1.581000000000000000e+03,-5.876776836744915800e-01,0.000000000000000000e+00
1.582000000000000000e+03,-9.294550837936077503e-01,0.000000000000000000e+00
1.583000000000000000e+03,-5.110842755007132254e-01,0.000000000000000000e+00
1.584000000000000000e+03,-1.902990198599024685e-01,0.000000000000000000e+00
1.585000000000000000e+03,-3.997127233211814623e-01,0.000000000000000000e+00
1.586000000000000000e+03,-5.393471124127182659e-01,0.000000000000000000e+00
