timestamp,ecg_measurement,qrs_detected
0.000000000000000000e+00,2.683630516329532423e+00,0.000000000000000000e+00
1.000000000000000000e+00,4.584397047313450990e+00,0.000000000000000000e+00
2.000000000000000000e+00,-3.854221868490328995e-01,0.000000000000000000e+00
3.000000000000000000e+00,-6.579376657325357591e-01,0.000000000000000000e+00
4.000000000000000000e+00,-7.975596601353840409e-01,0.000000000000000000e+00
5.000000000000000000e+00,-5.816137284807681995e-01,0.000000000000000000e+00
6.000000000000000000e+00,-7.071571141490634593e-01,0.000000000000000000e+00
7.000000000000000000e+00,-5.409338891053132314e-02,0.000000000000000000e+00
8.000000000000000000e+00,-1.338708418238625242e-02,0.000000000000000000e+00
9.000000000000000000e+00,-6.673400443325304410e-02,0.000000000000000000e+00
1.000000000000000000e+01,4.690373744504955922e-01,0.000000000000000000e+00
1.100000000000000000e+01,4.337568065118783678e-01,0.000000000000000000e+00
1.200000000000000000e+01,4.028263818771464222e-01,0.000000000000000000e+00
1.300000000000000000e+01,1.150281933817602464e+00,0.000000000000000000e+00
1.400000000000000000e+01,1.634933537178539398e+00,0.000000000000000000e+00
1.500000000000000000e+01,1.595430011274793225e+00,0.000000000000000000e+00
1.600000000000000000e+01,1.943453802228195304e+00,0.000000000000000000e+00
1.700000000000000000e+01,1.180895108089380363e+00,0.000000000000000000e+00
1.800000000000000000e+01,2.239234710024549935e-01,0.000000000000000000e+00
1.900000000000000000e+01,2.225859883861402988e-01,1.000000000000000000e+00
2.000000000000000000e+01,-3.218808292579458663e-01,0.000000000000000000e+00
2.100000000000000000e+01,3.863292753975920268e-03,0.000000000000000000e+00
2.200000000000000000e+01,-2.064382179919654892e-01,0.000000000000000000e+00
2.300000000000000000e+01,-2.208210208484394921e-01,0.000000000000000000e+00
2.400000000000000000e+01,2.458537864130831696e-02,0.000000000000000000e+00
2.500000000000000000e+01,4.400489171878192024e-02,0.000000000000000000e+00
2.600000000000000000e+01,-7.706671200064747762e-02,0.000000000000000000e+00
2.700000000000000000e+01,4.694841850531289995e-01,0.000000000000000000e+00
2.800000000000000000e+01,4.433351563785187244e-01,0.000000000000000000e+00
2.900000000000000000e+01,-1.652279283734380336e-02,0.000000000000000000e+00
3.000000000000000000e+01,-1.637769104414681653e-01,0.000000000000000000e+00
3.100000000000000000e+01,3.652017834930934570e-01,0.000000000000000000e+00
3.200000000000000000e+01,-1.885976939874232372e-01,0.000000000000000000e+00
3.300000000000000000e+01,1.583287983843878755e-01,0.000000000000000000e+00
3.400000000000000000e+01,7.679667353844878142e-03,0.000000000000000000e+00
3.500000000000000000e+01,-7.669520031507093272e-02,0.000000000000000000e+00
3.600000000000000000e+01,-4.461780240146726029e-01,0.000000000000000000e+00
3.700000000000000000e+01,3.336939311737832647e-01,0.000000000000000000e+00
3.800000000000000000e+01,-1.605783758294247465e-01,0.000000000000000000e+00
3.900000000000000000e+01,-2.620075226322791662e-01,0.000000000000000000e+00
4.000000000000000000e+01,-1.629935976741146431e-01,0.000000000000000000e+00
4.100000000000000000e+01,-2.659337315121234613e-01,0.000000000000000000e+00
4.200000000000000000e+01,-4.993852049564850848e-02,0.000000000000000000e+00
4.300000000000000000e+01,-3.021273173003127810e-01,0.000000000000000000e+00
4.400000000000000000e+01,-4.114508194344395631e-01,0.000000000000000000e+00
4.500000000000000000e+01,-3.641240009147716367e-02,0.000000000000000000e+00
4.600000000000000000e+01,-2.591982223039980271e-01,0.000000000000000000e+00
4.700000000000000000e+01,-2.761313263649394778e-01,0.000000000000000000e+00
4.800000000000000000e+01,1.832979394020116393e-02,0.000000000000000000e+00
4.900000000000000000e+01,-7.204205304386915310e-02,0.000000000000000000e+00
5.000000000000000000e+01,4.993598657679857444e-01,0.000000000000000000e+00
5.100000000000000000e+01,-2.155551018003230845e-01,0.000000000000000000e+00
5.200000000000000000e+01,-4.016775359741446838e-01,0.000000000000000000e+00
5.300000000000000000e+01,-4.673421297857645595e-01,0.000000000000000000e+00
5.400000000000000000e+01,8.638235600095925948e-01,0.000000000000000000e+00
5.500000000000000000e+01,4.448945488590964281e+00,0.000000000000000000e+00
5.600000000000000000e+01,1.902670073875809553e-01,1.000000000000000000e+00
5.700000000000000000e+01,-1.607847351965963956e+00,0.000000000000000000e+00
5.800000000000000000e+01,-1.228229934671011492e+00,0.000000000000000000e+00
5.900000000000000000e+01,-1.254993329059297169e+00,0.000000000000000000e+00
6.000000000000000000e+01,-1.499985546302270434e+00,0.000000000000000000e+00
6.100000000000000000e+01,-6.623250208678141959e-01,0.000000000000000000e+00
6.200000000000000000e+01,-1.279900352609623315e+00,0.000000000000000000e+00
6.300000000000000000e+01,-1.043272931109847645e+00,0.000000000000000000e+00
6.400000000000000000e+01,-5.195624322101334291e-01,0.000000000000000000e+00
6.500000000000000000e+01,-6.688425584550077296e-01,0.000000000000000000e+00
6.600000000000000000e+01,-3.251314576400662348e-01,0.000000000000000000e+00
6.700000000000000000e+01,-9.742342406337230198e-02,0.000000000000000000e+00
6.800000000000000000e+01,4.190793216037125291e-01,0.000000000000000000e+00
6.900000000000000000e+01,9.810055945179005921e-01,0.000000000000000000e+00
7.000000000000000000e+01,8.277434069645569492e-01,0.000000000000000000e+00
7.100000000000000000e+01,6.916660522461074434e-01,0.000000000000000000e+00
7.200000000000000000e+01,-5.478336465132362942e-01,0.000000000000000000e+00
7.300000000000000000e+01,-8.531442277796894569e-01,0.000000000000000000e+00
7.400000000000000000e+01,-7.270218454464102420e-01,0.000000000000000000e+00
7.500000000000000000e+01,-7.063488205994770119e-01,0.000000000000000000e+00
7.600000000000000000e+01,-9.182349836425229839e-01,0.000000000000000000e+00
7.700000000000000000e+01,-8.182708077688438664e-01,0.000000000000000000e+00
7.800000000000000000e+01,-7.569868621321250712e-01,0.000000000000000000e+00
7.900000000000000000e+01,-5.906849767447621691e-01,0.000000000000000000e+00
8.000000000000000000e+01,-4.072164446389443526e-01,0.000000000000000000e+00
8.100000000000000000e+01,-2.669709605657438756e-01,0.000000000000000000e+00
8.200000000000000000e+01,-2.267505682545633838e-01,0.000000000000000000e+00
8.300000000000000000e+01,-1.709788555106211694e-01,0.000000000000000000e+00
8.400000000000000000e+01,-3.083309181107343200e-01,0.000000000000000000e+00
8.500000000000000000e+01,-7.997171082540112386e-02,0.000000000000000000e+00
8.600000000000000000e+01,-3.043188616971131966e-02,0.000000000000000000e+00
8.700000000000000000e+01,-1.168408273331485586e-01,0.000000000000000000e+00
8.800000000000000000e+01,-1.490733556806489724e-01,0.000000000000000000e+00
8.900000000000000000e+01,-7.756960479958807664e-02,0.000000000000000000e+00
9.000000000000000000e+01,-1.050357541354293572e-01,0.000000000000000000e+00
9.100000000000000000e+01,1.801676084610646933e-01,0.000000000000000000e+00
9.200000000000000000e+01,1.779515718597258211e-01,0.000000000000000000e+00
9.300000000000000000e+01,4.523821658690063696e-01,0.000000000000000000e+00
9.400000000000000000e+01,-2.904169664869633849e-02,0.000000000000000000e+00
9.500000000000000000e+01,2.629944486688396421e-01,0.000000000000000000e+00
9.600000000000000000e+01,5.071369989512108933e-01,0.000000000000000000e+00
9.700000000000000000e+01,2.672498728717594974e-01,0.000000000000000000e+00
9.800000000000000000e+01,5.976480891746367430e-01,0.000000000000000000e+00
9.900000000000000000e+01,-3.180066695315324210e-02,0.000000000000000000e+00
1.000000000000000000e+02,1.400995201035114546e-01,0.000000000000000000e+00
1.010000000000000000e+02,3.423782667195054419e-01,0.000000000000000000e+00
1.020000000000000000e+02,3.055943234733339287e-01,0.000000000000000000e+00
1.030000000000000000e+02,6.662184951442878811e-02,0.000000000000000000e+00
1.040000000000000000e+02,3.497598337795634893e-01,0.000000000000000000e+00
1.050000000000000000e+02,7.628249117153430570e-01,0.000000000000000000e+00
1.060000000000000000e+02,7.432170179618274863e-01,0.000000000000000000e+00
1.070000000000000000e+02,-2.621449914114534208e-01,0.000000000000000000e+00
1.080000000000000000e+02,1.941181393233856745e-01,0.000000000000000000e+00
1.090000000000000000e+02,-2.197975736789339329e-01,0.000000000000000000e+00
1.100000000000000000e+02,2.742574049624807664e+00,0.000000000000000000e+00
1.110000000000000000e+02,4.529540850399781604e+00,0.000000000000000000e+00
1.120000000000000000e+02,-1.709164569549886936e-01,1.000000000000000000e+00
1.130000000000000000e+02,-9.265733346582634145e-01,0.000000000000000000e+00
1.140000000000000000e+02,-1.152558605665094271e+00,0.000000000000000000e+00
1.150000000000000000e+02,-9.026881096507189950e-01,0.000000000000000000e+00
1.160000000000000000e+02,-9.778131012691555490e-01,0.000000000000000000e+00
1.170000000000000000e+02,-4.710984040152479957e-01,0.000000000000000000e+00
1.180000000000000000e+02,-9.573792882749874167e-01,0.000000000000000000e+00
1.190000000000000000e+02,-9.333929927697893758e-01,0.000000000000000000e+00
1.200000000000000000e+02,-1.606654844792601844e-01,0.000000000000000000e+00
1.210000000000000000e+02,-3.028138054209374985e-01,0.000000000000000000e+00
1.220000000000000000e+02,-2.979870867558008785e-01,0.000000000000000000e+00
1.230000000000000000e+02,1.539911203330913414e-01,0.000000000000000000e+00
1.240000000000000000e+02,5.865583236649607457e-01,0.000000000000000000e+00
1.250000000000000000e+02,8.011272685773387359e-01,0.000000000000000000e+00
1.260000000000000000e+02,1.236453635531245654e+00,0.000000000000000000e+00
1.270000000000000000e+02,3.493612065820689283e-01,0.000000000000000000e+00
1.280000000000000000e+02,-6.532915536721601857e-01,0.000000000000000000e+00
1.290000000000000000e+02,-3.532387239633960063e-01,0.000000000000000000e+00
1.300000000000000000e+02,-9.784628900383941508e-01,0.000000000000000000e+00
1.310000000000000000e+02,-7.594632624118579090e-01,0.000000000000000000e+00
1.320000000000000000e+02,-8.128191905637959236e-01,0.000000000000000000e+00
1.330000000000000000e+02,-7.761962671406589243e-01,0.000000000000000000e+00
1.340000000000000000e+02,-8.342591788728789259e-01,0.000000000000000000e+00
1.350000000000000000e+02,-7.392757061198907964e-01,0.000000000000000000e+00
1.360000000000000000e+02,-4.814068962137638130e-01,0.000000000000000000e+00
1.370000000000000000e+02,-4.687001971859511285e-01,0.000000000000000000e+00
1.380000000000000000e+02,-1.355101219429967752e-01,0.000000000000000000e+00
1.390000000000000000e+02,-2.155699678927539276e-01,0.000000000000000000e+00
1.400000000000000000e+02,-4.234762355236713072e-01,0.000000000000000000e+00
1.410000000000000000e+02,-9.535727130371614291e-02,0.000000000000000000e+00
1.420000000000000000e+02,-3.083286162978366995e-01,0.000000000000000000e+00
1.430000000000000000e+02,-1.542665829382530163e-01,0.000000000000000000e+00
1.440000000000000000e+02,-2.352136208662694850e-01,0.000000000000000000e+00
1.450000000000000000e+02,-2.175169919618417103e-01,0.000000000000000000e+00
1.460000000000000000e+02,-1.558022798833928468e-01,0.000000000000000000e+00
1.470000000000000000e+02,-6.793552191244388305e-02,0.000000000000000000e+00
1.480000000000000000e+02,5.748923823576277542e-02,0.000000000000000000e+00
1.490000000000000000e+02,-9.959051581234608375e-02,0.000000000000000000e+00
1.500000000000000000e+02,-1.004849763661950710e-02,0.000000000000000000e+00
1.510000000000000000e+02,3.385876615447386828e-01,0.000000000000000000e+00
1.520000000000000000e+02,5.679144483180795788e-01,0.000000000000000000e+00
1.530000000000000000e+02,4.290492247477333265e-01,0.000000000000000000e+00
1.540000000000000000e+02,7.298043517005097236e-01,0.000000000000000000e+00
1.550000000000000000e+02,5.423803120247062681e-01,0.000000000000000000e+00
1.560000000000000000e+02,5.693460312600674422e-01,0.000000000000000000e+00
1.570000000000000000e+02,7.348927118057267949e-01,0.000000000000000000e+00
1.580000000000000000e+02,7.169221419448600363e-01,0.000000000000000000e+00
1.590000000000000000e+02,1.051004005775352690e+00,0.000000000000000000e+00
1.600000000000000000e+02,4.192320526199911357e-01,0.000000000000000000e+00
1.610000000000000000e+02,1.187994381806586786e+00,0.000000000000000000e+00
1.620000000000000000e+02,1.071747753486016252e+00,0.000000000000000000e+00
1.630000000000000000e+02,7.779559226880446987e-01,0.000000000000000000e+00
1.640000000000000000e+02,5.865529480653456362e-01,0.000000000000000000e+00
1.650000000000000000e+02,3.842297379963328652e-01,0.000000000000000000e+00
1.660000000000000000e+02,1.502665069395889397e+00,0.000000000000000000e+00
1.670000000000000000e+02,5.187077856466024706e+00,0.000000000000000000e+00
1.680000000000000000e+02,2.249439146111412491e+00,1.000000000000000000e+00
1.690000000000000000e+02,-1.071307329979641620e+00,0.000000000000000000e+00
1.700000000000000000e+02,-6.963815581678064470e-01,0.000000000000000000e+00
1.710000000000000000e+02,-7.030936045414122315e-01,0.000000000000000000e+00
1.720000000000000000e+02,-6.858899234415742896e-01,0.000000000000000000e+00
1.730000000000000000e+02,-8.474419699001703998e-01,0.000000000000000000e+00
1.740000000000000000e+02,-3.655237646230704573e-01,0.000000000000000000e+00
1.750000000000000000e+02,-4.668661095348441425e-01,0.000000000000000000e+00
1.760000000000000000e+02,-5.823204721319613641e-01,0.000000000000000000e+00
1.770000000000000000e+02,-1.528892626783378283e-01,0.000000000000000000e+00
1.780000000000000000e+02,-4.985673117747718153e-01,0.000000000000000000e+00
1.790000000000000000e+02,3.308874446942867142e-01,0.000000000000000000e+00
1.800000000000000000e+02,5.690389997663799493e-01,0.000000000000000000e+00
1.810000000000000000e+02,9.645795006234162416e-01,0.000000000000000000e+00
1.820000000000000000e+02,9.188206926396087493e-01,0.000000000000000000e+00
1.830000000000000000e+02,6.243292453716450252e-01,0.000000000000000000e+00
1.840000000000000000e+02,-8.140236116368865238e-02,0.000000000000000000e+00
1.850000000000000000e+02,-6.241141955481274151e-01,0.000000000000000000e+00
1.860000000000000000e+02,-7.625686715074951882e-01,0.000000000000000000e+00
1.870000000000000000e+02,-1.138844840567091676e+00,0.000000000000000000e+00
1.880000000000000000e+02,-9.134790785650043210e-01,0.000000000000000000e+00
1.890000000000000000e+02,-7.459876425539253564e-01,0.000000000000000000e+00
1.900000000000000000e+02,-6.540683565004212774e-01,0.000000000000000000e+00
1.910000000000000000e+02,-6.965005627228291196e-01,0.000000000000000000e+00
1.920000000000000000e+02,-8.874565494332343762e-01,0.000000000000000000e+00
1.930000000000000000e+02,-3.926687341855540359e-01,0.000000000000000000e+00
1.940000000000000000e+02,-4.443918255937193140e-01,0.000000000000000000e+00
1.950000000000000000e+02,-3.890138736254176721e-01,0.000000000000000000e+00
1.960000000000000000e+02,-4.813349244035487473e-01,0.000000000000000000e+00
1.970000000000000000e+02,-1.862114516540801235e-01,0.000000000000000000e+00
1.980000000000000000e+02,-4.741523583353671190e-01,0.000000000000000000e+00
1.990000000000000000e+02,-4.003219777710936844e-01,0.000000000000000000e+00
2.000000000000000000e+02,-4.299864760658015927e-01,0.000000000000000000e+00
2.010000000000000000e+02,-3.084021083216615389e-01,0.000000000000000000e+00
2.020000000000000000e+02,-2.103389418248359510e-01,0.000000000000000000e+00
2.030000000000000000e+02,-2.508420366721139660e-01,0.000000000000000000e+00
2.040000000000000000e+02,-7.242589199800048005e-02,0.000000000000000000e+00
2.050000000000000000e+02,-3.134957068057695473e-01,0.000000000000000000e+00
2.060000000000000000e+02,-9.949846320566566038e-02,0.000000000000000000e+00
2.070000000000000000e+02,-1.105619575714947983e-01,0.000000000000000000e+00
2.080000000000000000e+02,6.363528243951467600e-02,0.000000000000000000e+00
2.090000000000000000e+02,3.120006383167424624e-01,0.000000000000000000e+00
2.100000000000000000e+02,-1.739801187870472499e-01,0.000000000000000000e+00
2.110000000000000000e+02,1.095908191420275346e-01,0.000000000000000000e+00
2.120000000000000000e+02,5.618503465379583173e-02,0.000000000000000000e+00
2.130000000000000000e+02,4.262941734673104943e-02,0.000000000000000000e+00
2.140000000000000000e+02,5.578238702351413503e-01,0.000000000000000000e+00
2.150000000000000000e+02,4.885446320535073439e-01,0.000000000000000000e+00
2.160000000000000000e+02,6.101449503460235624e-01,0.000000000000000000e+00
2.170000000000000000e+02,5.689238565381742330e-01,0.000000000000000000e+00
2.180000000000000000e+02,6.039284458890785690e-01,0.000000000000000000e+00
2.190000000000000000e+02,2.392631119039468901e-01,0.000000000000000000e+00
2.200000000000000000e+02,-5.425154581002413455e-03,0.000000000000000000e+00
2.210000000000000000e+02,5.676347841859605836e-01,0.000000000000000000e+00
2.220000000000000000e+02,4.506176879781991218e+00,0.000000000000000000e+00
2.230000000000000000e+02,9.347203731843570784e-01,1.000000000000000000e+00
2.240000000000000000e+02,-1.276877520674759348e+00,0.000000000000000000e+00
2.250000000000000000e+02,-8.411431494265316777e-01,0.000000000000000000e+00
2.260000000000000000e+02,-1.242902578969411698e+00,0.000000000000000000e+00
2.270000000000000000e+02,-1.047301104342066580e+00,0.000000000000000000e+00
2.280000000000000000e+02,-5.985926325750113852e-01,0.000000000000000000e+00
2.290000000000000000e+02,-6.230898327697073080e-01,0.000000000000000000e+00
2.300000000000000000e+02,-6.903308673111672178e-01,0.000000000000000000e+00
2.310000000000000000e+02,-5.004182231593087282e-01,0.000000000000000000e+00
2.320000000000000000e+02,-1.823215975644078835e-01,0.000000000000000000e+00
2.330000000000000000e+02,-3.598602837316553504e-01,0.000000000000000000e+00
2.340000000000000000e+02,-3.501915638271823616e-01,0.000000000000000000e+00
2.350000000000000000e+02,6.520607232726133295e-01,0.000000000000000000e+00
2.360000000000000000e+02,7.825055400856053556e-01,0.000000000000000000e+00
2.370000000000000000e+02,8.960095075376252050e-01,0.000000000000000000e+00
2.380000000000000000e+02,6.500541127502457162e-01,0.000000000000000000e+00
2.390000000000000000e+02,1.109272291442463393e-01,0.000000000000000000e+00
2.400000000000000000e+02,-6.735313068594269703e-01,0.000000000000000000e+00
2.410000000000000000e+02,-1.027717575226750002e+00,0.000000000000000000e+00
2.420000000000000000e+02,-9.409891929708634750e-01,0.000000000000000000e+00
2.430000000000000000e+02,-8.667066095949627069e-01,0.000000000000000000e+00
2.440000000000000000e+02,-9.719718535632335676e-01,0.000000000000000000e+00
2.450000000000000000e+02,-3.965541635693659028e-01,0.000000000000000000e+00
2.460000000000000000e+02,-7.509811527845404733e-01,0.000000000000000000e+00
2.470000000000000000e+02,-2.612572212796368532e-01,0.000000000000000000e+00
2.480000000000000000e+02,-4.221602268759885312e-01,0.000000000000000000e+00
2.490000000000000000e+02,-4.057172637433981710e-01,0.000000000000000000e+00
2.500000000000000000e+02,-3.291823209163300956e-01,0.000000000000000000e+00
2.510000000000000000e+02,-2.344715994503372980e-01,0.000000000000000000e+00
2.520000000000000000e+02,-3.240026112009553039e-01,0.000000000000000000e+00
2.530000000000000000e+02,-3.083103771192837739e-01,0.000000000000000000e+00
2.540000000000000000e+02,-3.837721526224322499e-01,0.000000000000000000e+00
2.550000000000000000e+02,-5.387125098614595764e-01,0.000000000000000000e+00
2.560000000000000000e+02,-2.031147941693731696e-01,0.000000000000000000e+00
2.570000000000000000e+02,-4.460675074333211865e-02,0.000000000000000000e+00
2.580000000000000000e+02,-5.440569950083867790e-01,0.000000000000000000e+00
2.590000000000000000e+02,-3.447042436952401090e-01,0.000000000000000000e+00
2.600000000000000000e+02,-4.132884968228666689e-01,0.000000000000000000e+00
2.610000000000000000e+02,3.329244280360522668e-01,0.000000000000000000e+00
2.620000000000000000e+02,-1.760963911940241766e-01,0.000000000000000000e+00
2.630000000000000000e+02,-5.536089561173408724e-02,0.000000000000000000e+00
2.640000000000000000e+02,-8.126273700667741018e-02,0.000000000000000000e+00
2.650000000000000000e+02,-1.096945428251639570e-02,0.000000000000000000e+00
2.660000000000000000e+02,3.185642746817373694e-01,0.000000000000000000e+00
2.670000000000000000e+02,3.685290351806678744e-01,0.000000000000000000e+00
2.680000000000000000e+02,1.073901586039157779e-01,0.000000000000000000e+00
2.690000000000000000e+02,4.493677573121713786e-01,0.000000000000000000e+00
2.700000000000000000e+02,4.031077180416969274e-01,0.000000000000000000e+00
2.710000000000000000e+02,4.211377181540875148e-01,0.000000000000000000e+00
2.720000000000000000e+02,9.165137008418965392e-01,0.000000000000000000e+00
2.730000000000000000e+02,3.894546760272729613e-01,0.000000000000000000e+00
2.740000000000000000e+02,4.843666796753798992e-02,0.000000000000000000e+00
2.750000000000000000e+02,1.035790742057825786e-01,0.000000000000000000e+00
2.760000000000000000e+02,1.476966047882722011e+00,0.000000000000000000e+00
2.770000000000000000e+02,5.223510120009835056e+00,0.000000000000000000e+00
2.780000000000000000e+02,1.240207330935056085e+00,1.000000000000000000e+00
2.790000000000000000e+02,-1.091709171759841279e+00,0.000000000000000000e+00
2.800000000000000000e+02,-7.079646019844798577e-01,0.000000000000000000e+00
2.810000000000000000e+02,-6.125889157661080775e-01,0.000000000000000000e+00
2.820000000000000000e+02,-7.951002688131404428e-01,0.000000000000000000e+00
2.830000000000000000e+02,-6.849835484086826964e-01,0.000000000000000000e+00
2.840000000000000000e+02,-2.824959429042136483e-01,0.000000000000000000e+00
2.850000000000000000e+02,-7.266325291809648812e-01,0.000000000000000000e+00
2.860000000000000000e+02,-1.917907889167346780e-01,0.000000000000000000e+00
2.870000000000000000e+02,-7.291348260993632535e-03,0.000000000000000000e+00
2.880000000000000000e+02,-9.968142545188948822e-02,0.000000000000000000e+00
2.890000000000000000e+02,4.124463845071397183e-01,0.000000000000000000e+00
2.900000000000000000e+02,6.626471804462605864e-01,0.000000000000000000e+00
2.910000000000000000e+02,1.059952128219599388e+00,0.000000000000000000e+00
2.920000000000000000e+02,1.399115997347279761e+00,0.000000000000000000e+00
2.930000000000000000e+02,9.543310505353983508e-01,0.000000000000000000e+00
2.940000000000000000e+02,4.288707514305724611e-01,0.000000000000000000e+00
2.950000000000000000e+02,1.755048886875303360e-01,0.000000000000000000e+00
2.960000000000000000e+02,-5.644672478624886969e-01,0.000000000000000000e+00
2.970000000000000000e+02,-4.604439255376743118e-02,0.000000000000000000e+00
2.980000000000000000e+02,-5.056556839359159783e-01,0.000000000000000000e+00
2.990000000000000000e+02,-3.018818514245628637e-01,0.000000000000000000e+00
3.000000000000000000e+02,-1.099302563548950201e-01,0.000000000000000000e+00
3.010000000000000000e+02,4.599936317247610429e-01,0.000000000000000000e+00
3.020000000000000000e+02,-3.618901518814647555e-02,0.000000000000000000e+00
3.030000000000000000e+02,1.651440919471995616e-01,0.000000000000000000e+00
3.040000000000000000e+02,-1.124753954005839052e-01,0.000000000000000000e+00
3.050000000000000000e+02,1.936442919628658665e-01,0.000000000000000000e+00
3.060000000000000000e+02,-7.195810287036676946e-03,0.000000000000000000e+00
3.070000000000000000e+02,3.005652457345558415e-01,0.000000000000000000e+00
3.080000000000000000e+02,-3.537220045380322087e-01,0.000000000000000000e+00
3.090000000000000000e+02,-3.720733061008267561e-02,0.000000000000000000e+00
3.100000000000000000e+02,-9.252333341147057910e-02,0.000000000000000000e+00
3.110000000000000000e+02,-2.820119261224286467e-01,0.000000000000000000e+00
3.120000000000000000e+02,-2.043867792672177386e-01,0.000000000000000000e+00
3.130000000000000000e+02,-4.585346075575019720e-01,0.000000000000000000e+00
3.140000000000000000e+02,-4.057129679667314526e-01,0.000000000000000000e+00
3.150000000000000000e+02,-9.827567476882841102e-02,0.000000000000000000e+00
3.160000000000000000e+02,1.693668284246518108e-01,0.000000000000000000e+00
3.170000000000000000e+02,-2.655140071450035055e-01,0.000000000000000000e+00
3.180000000000000000e+02,-1.841530758859351857e-01,0.000000000000000000e+00
3.190000000000000000e+02,-3.498628204419995669e-02,0.000000000000000000e+00
3.200000000000000000e+02,-1.971657152210293251e-01,0.000000000000000000e+00
3.210000000000000000e+02,-2.016725301490150390e-01,0.000000000000000000e+00
3.220000000000000000e+02,7.084933455414126058e-02,0.000000000000000000e+00
3.230000000000000000e+02,-9.253041087196202386e-02,0.000000000000000000e+00
3.240000000000000000e+02,3.013295636388976795e-02,0.000000000000000000e+00
3.250000000000000000e+02,-4.488096231875163961e-02,0.000000000000000000e+00
3.260000000000000000e+02,5.985060942647086879e-01,0.000000000000000000e+00
3.270000000000000000e+02,3.182850712898541157e-01,0.000000000000000000e+00
3.280000000000000000e+02,-3.147816888118188938e-01,0.000000000000000000e+00
3.290000000000000000e+02,-4.457739379799735002e-01,0.000000000000000000e+00
3.300000000000000000e+02,2.478782761665922207e-01,0.000000000000000000e+00
3.310000000000000000e+02,4.612289479934066350e+00,0.000000000000000000e+00
3.320000000000000000e+02,1.958397613640610713e+00,1.000000000000000000e+00
3.330000000000000000e+02,-1.434429994826168953e+00,0.000000000000000000e+00
3.340000000000000000e+02,-1.148266715970905683e+00,0.000000000000000000e+00
3.350000000000000000e+02,-1.442501552570852441e+00,0.000000000000000000e+00
3.360000000000000000e+02,-7.377874384199260005e-01,0.000000000000000000e+00
3.370000000000000000e+02,-7.977847995288077643e-01,0.000000000000000000e+00
3.380000000000000000e+02,-8.278224222591342718e-01,0.000000000000000000e+00
3.390000000000000000e+02,-5.642467959957405688e-01,0.000000000000000000e+00
3.400000000000000000e+02,-5.855374834708356735e-01,0.000000000000000000e+00
3.410000000000000000e+02,-3.069593400754571169e-02,0.000000000000000000e+00
3.420000000000000000e+02,6.532614641786929632e-02,0.000000000000000000e+00
3.430000000000000000e+02,-4.839517762729002304e-02,0.000000000000000000e+00
3.440000000000000000e+02,4.144876173295627964e-01,0.000000000000000000e+00
3.450000000000000000e+02,1.155522608255553418e+00,0.000000000000000000e+00
3.460000000000000000e+02,8.911098277475516527e-01,0.000000000000000000e+00
3.470000000000000000e+02,1.225443665714575081e+00,0.000000000000000000e+00
3.480000000000000000e+02,2.846389343982890230e-01,0.000000000000000000e+00
3.490000000000000000e+02,-3.079439345568233399e-01,0.000000000000000000e+00
3.500000000000000000e+02,-7.763446531160019815e-01,0.000000000000000000e+00
3.510000000000000000e+02,-7.184863358313365866e-01,0.000000000000000000e+00
3.520000000000000000e+02,-5.023352867199568639e-01,0.000000000000000000e+00
3.530000000000000000e+02,-5.543315469011547147e-01,0.000000000000000000e+00
3.540000000000000000e+02,-3.081311447988710484e-01,0.000000000000000000e+00
3.550000000000000000e+02,-4.272794510930544853e-01,0.000000000000000000e+00
3.560000000000000000e+02,-5.482000812631296904e-01,0.000000000000000000e+00
3.570000000000000000e+02,-2.061408828303753493e-01,0.000000000000000000e+00
3.580000000000000000e+02,-1.574418417173202578e-01,0.000000000000000000e+00
3.590000000000000000e+02,-1.580202531276294065e-01,0.000000000000000000e+00
3.600000000000000000e+02,-3.504962338317958448e-01,0.000000000000000000e+00
3.610000000000000000e+02,-3.350806115181182432e-01,0.000000000000000000e+00
3.620000000000000000e+02,-7.985526946492012279e-02,0.000000000000000000e+00
3.630000000000000000e+02,-2.966718627899301297e-01,0.000000000000000000e+00
3.640000000000000000e+02,-1.438468938796143570e-01,0.000000000000000000e+00
3.650000000000000000e+02,-3.667280593537399214e-01,0.000000000000000000e+00
3.660000000000000000e+02,-2.340851770859246617e-01,0.000000000000000000e+00
3.670000000000000000e+02,-4.506443481428076825e-02,0.000000000000000000e+00
3.680000000000000000e+02,-4.068789558654090088e-01,0.000000000000000000e+00
3.690000000000000000e+02,4.516575640401003164e-03,0.000000000000000000e+00
3.700000000000000000e+02,7.481912395713403996e-02,0.000000000000000000e+00
3.710000000000000000e+02,-1.041730309766935730e-01,0.000000000000000000e+00
3.720000000000000000e+02,1.144977629227976294e-02,0.000000000000000000e+00
3.730000000000000000e+02,-1.232877557277636399e-01,0.000000000000000000e+00
3.740000000000000000e+02,2.113600035099915120e-01,0.000000000000000000e+00
3.750000000000000000e+02,2.331225085821487797e-01,0.000000000000000000e+00
3.760000000000000000e+02,1.181062309541107830e-01,0.000000000000000000e+00
3.770000000000000000e+02,1.406103428450254378e-01,0.000000000000000000e+00
3.780000000000000000e+02,5.251024556801627829e-01,0.000000000000000000e+00
3.790000000000000000e+02,4.748725832976498085e-01,0.000000000000000000e+00
3.800000000000000000e+02,-3.177416060240306067e-02,0.000000000000000000e+00
3.810000000000000000e+02,-1.551832380702453662e-01,0.000000000000000000e+00
3.820000000000000000e+02,1.060873415770035716e-01,0.000000000000000000e+00
3.830000000000000000e+02,4.442543853308545287e+00,0.000000000000000000e+00
3.840000000000000000e+02,2.235322219277064537e+00,1.000000000000000000e+00
3.850000000000000000e+02,-1.099562215640028429e+00,0.000000000000000000e+00
3.860000000000000000e+02,-4.041574974611732429e-01,0.000000000000000000e+00
3.870000000000000000e+02,-1.269445087988773091e+00,0.000000000000000000e+00
3.880000000000000000e+02,-3.576184356029971090e-01,0.000000000000000000e+00
3.890000000000000000e+02,-4.839287453052201204e-01,0.000000000000000000e+00
3.900000000000000000e+02,-6.965917652293333040e-01,0.000000000000000000e+00
3.910000000000000000e+02,-1.525832937876111239e-01,0.000000000000000000e+00
3.920000000000000000e+02,-5.257893586618034298e-01,0.000000000000000000e+00
3.930000000000000000e+02,4.144248175631391057e-02,0.000000000000000000e+00
3.940000000000000000e+02,1.336679116322799787e-01,0.000000000000000000e+00
3.950000000000000000e+02,3.716287870622076994e-01,0.000000000000000000e+00
3.960000000000000000e+02,5.442957264075807267e-01,0.000000000000000000e+00
3.970000000000000000e+02,1.420691435547196679e+00,0.000000000000000000e+00
3.980000000000000000e+02,1.523099472169748170e+00,0.000000000000000000e+00
3.990000000000000000e+02,1.357662978249238428e+00,0.000000000000000000e+00
4.000000000000000000e+02,2.667328505429884533e-01,0.000000000000000000e+00
4.010000000000000000e+02,1.593502989478543796e-01,0.000000000000000000e+00
4.020000000000000000e+02,-8.867986249140313859e-01,0.000000000000000000e+00
4.030000000000000000e+02,-5.271733610864723918e-01,0.000000000000000000e+00
4.040000000000000000e+02,-7.616256630727007426e-01,0.000000000000000000e+00
4.050000000000000000e+02,-5.186396375076403054e-01,0.000000000000000000e+00
4.060000000000000000e+02,-2.062097543989818149e-01,0.000000000000000000e+00
4.070000000000000000e+02,-1.265998778648554923e-01,0.000000000000000000e+00
4.080000000000000000e+02,-1.361088840939896627e-01,0.000000000000000000e+00
4.090000000000000000e+02,-1.633534617063909788e-01,0.000000000000000000e+00
4.100000000000000000e+02,-1.596047282842757153e-01,0.000000000000000000e+00
4.110000000000000000e+02,-5.418012266692867618e-01,0.000000000000000000e+00
4.120000000000000000e+02,-6.632782159291489288e-02,0.000000000000000000e+00
4.130000000000000000e+02,-3.524093055572464772e-01,0.000000000000000000e+00
4.140000000000000000e+02,-6.895413477932820223e-01,0.000000000000000000e+00
4.150000000000000000e+02,-2.971044828825380457e-01,0.000000000000000000e+00
4.160000000000000000e+02,-7.706651239923578700e-01,0.000000000000000000e+00
4.170000000000000000e+02,-2.991609839578730501e-01,0.000000000000000000e+00
4.180000000000000000e+02,-4.713984195630824825e-01,0.000000000000000000e+00
4.190000000000000000e+02,-3.638071403929086789e-01,0.000000000000000000e+00
4.200000000000000000e+02,-4.783813909824606858e-01,0.000000000000000000e+00
4.210000000000000000e+02,-3.721001847778905858e-01,0.000000000000000000e+00
4.220000000000000000e+02,3.398885067995998654e-01,0.000000000000000000e+00
4.230000000000000000e+02,-6.197978654449339819e-01,0.000000000000000000e+00
4.240000000000000000e+02,-1.604597188546370012e-01,0.000000000000000000e+00
4.250000000000000000e+02,-2.184519795489807681e-01,0.000000000000000000e+00
4.260000000000000000e+02,-1.421713818525484341e-01,0.000000000000000000e+00
4.270000000000000000e+02,-4.556874049877698146e-02,0.000000000000000000e+00
4.280000000000000000e+02,-2.101055797090448651e-01,0.000000000000000000e+00
4.290000000000000000e+02,-8.193772518481355627e-02,0.000000000000000000e+00
4.300000000000000000e+02,1.690520315865177425e-01,0.000000000000000000e+00
4.310000000000000000e+02,3.992370932021647167e-01,0.000000000000000000e+00
4.320000000000000000e+02,-5.130826205657203209e-02,0.000000000000000000e+00
4.330000000000000000e+02,-2.986466083936659133e-01,0.000000000000000000e+00
4.340000000000000000e+02,-1.379324941588117026e-01,0.000000000000000000e+00
4.350000000000000000e+02,4.503378826741665231e-01,0.000000000000000000e+00
4.360000000000000000e+02,4.721949888647880123e+00,0.000000000000000000e+00
4.370000000000000000e+02,1.420620278977192896e+00,1.000000000000000000e+00
4.380000000000000000e+02,-1.385490356423123348e+00,0.000000000000000000e+00
4.390000000000000000e+02,-9.379942620113381757e-01,0.000000000000000000e+00
4.400000000000000000e+02,-1.401220942167161754e+00,0.000000000000000000e+00
4.410000000000000000e+02,-8.575788028080936209e-01,0.000000000000000000e+00
4.420000000000000000e+02,-1.163293078478493836e+00,0.000000000000000000e+00
4.430000000000000000e+02,-6.492484940860743237e-01,0.000000000000000000e+00
4.440000000000000000e+02,-8.996391095295050988e-01,0.000000000000000000e+00
4.450000000000000000e+02,-5.675184169454128291e-01,0.000000000000000000e+00
4.460000000000000000e+02,-4.865890064241933377e-01,0.000000000000000000e+00
4.470000000000000000e+02,-1.860873038437045879e-01,0.000000000000000000e+00
4.480000000000000000e+02,1.463892942387708951e-01,0.000000000000000000e+00
4.490000000000000000e+02,7.058230507505360851e-01,0.000000000000000000e+00
4.500000000000000000e+02,9.161155203361526222e-01,0.000000000000000000e+00
4.510000000000000000e+02,1.066076346223441051e+00,0.000000000000000000e+00
4.520000000000000000e+02,5.538712032702878263e-01,0.000000000000000000e+00
4.530000000000000000e+02,-4.845881601060623989e-02,0.000000000000000000e+00
4.540000000000000000e+02,-5.700686365586186133e-01,0.000000000000000000e+00
4.550000000000000000e+02,-4.980680883331858877e-01,0.000000000000000000e+00
4.560000000000000000e+02,-1.258795436932542477e+00,0.000000000000000000e+00
4.570000000000000000e+02,-5.798472296095625866e-01,0.000000000000000000e+00
4.580000000000000000e+02,-7.660649932001558637e-01,0.000000000000000000e+00
4.590000000000000000e+02,-3.077323476314648421e-01,0.000000000000000000e+00
4.600000000000000000e+02,-7.223658470861484826e-01,0.000000000000000000e+00
4.610000000000000000e+02,-5.698951754835320793e-01,0.000000000000000000e+00
4.620000000000000000e+02,1.025310876370420787e-01,0.000000000000000000e+00
4.630000000000000000e+02,-2.500699693142298674e-01,0.000000000000000000e+00
4.640000000000000000e+02,2.817108290639299684e-01,0.000000000000000000e+00
4.650000000000000000e+02,5.366368725322163274e-02,0.000000000000000000e+00
4.660000000000000000e+02,1.931065280500631476e-01,0.000000000000000000e+00
4.670000000000000000e+02,1.005183496005663812e-01,0.000000000000000000e+00
4.680000000000000000e+02,4.021015727687621832e-01,0.000000000000000000e+00
4.690000000000000000e+02,3.575694417717678042e-01,0.000000000000000000e+00
4.700000000000000000e+02,2.576511150463060562e-01,0.000000000000000000e+00
4.710000000000000000e+02,4.465286802761690432e-01,0.000000000000000000e+00
4.720000000000000000e+02,1.497484445592002222e-01,0.000000000000000000e+00
4.730000000000000000e+02,5.375769336846484281e-01,0.000000000000000000e+00
4.740000000000000000e+02,1.813243054167211488e-01,0.000000000000000000e+00
4.750000000000000000e+02,5.564697613076247107e-01,0.000000000000000000e+00
4.760000000000000000e+02,3.473691462049423584e-01,0.000000000000000000e+00
4.770000000000000000e+02,7.141732207697741863e-01,0.000000000000000000e+00
4.780000000000000000e+02,2.071716161956488889e-01,0.000000000000000000e+00
4.790000000000000000e+02,5.233549091894543759e-01,0.000000000000000000e+00
4.800000000000000000e+02,3.956841091624280216e-01,0.000000000000000000e+00
4.810000000000000000e+02,2.811327618670682593e-01,0.000000000000000000e+00
4.820000000000000000e+02,6.421867891212930113e-01,0.000000000000000000e+00
4.830000000000000000e+02,4.353934002785453949e-01,0.000000000000000000e+00
4.840000000000000000e+02,6.711403826362614122e-01,0.000000000000000000e+00
4.850000000000000000e+02,8.041841511255310992e-01,0.000000000000000000e+00
4.860000000000000000e+02,3.821524465262777226e-01,0.000000000000000000e+00
4.870000000000000000e+02,2.747013651689112490e-01,0.000000000000000000e+00
4.880000000000000000e+02,-2.178877731662351089e-02,0.000000000000000000e+00
4.890000000000000000e+02,1.972274857095014378e+00,0.000000000000000000e+00
4.900000000000000000e+02,4.659811603392705059e+00,0.000000000000000000e+00
4.910000000000000000e+02,1.102364955578739453e-01,1.000000000000000000e+00
4.920000000000000000e+02,-7.811298562620615504e-01,0.000000000000000000e+00
4.930000000000000000e+02,-1.137749436136433534e+00,0.000000000000000000e+00
4.940000000000000000e+02,-7.753495272688700757e-01,0.000000000000000000e+00
4.950000000000000000e+02,-5.093993314010161200e-01,0.000000000000000000e+00
4.960000000000000000e+02,-6.140111184996971394e-01,0.000000000000000000e+00
4.970000000000000000e+02,-4.923234206646358024e-01,0.000000000000000000e+00
4.980000000000000000e+02,-5.596235835263682068e-01,0.000000000000000000e+00
4.990000000000000000e+02,-3.133190426695223185e-01,0.000000000000000000e+00
5.000000000000000000e+02,-2.144361464076171842e-01,0.000000000000000000e+00
5.010000000000000000e+02,-2.594251350130684641e-01,0.000000000000000000e+00
5.020000000000000000e+02,2.205769293067983416e-01,0.000000000000000000e+00
5.030000000000000000e+02,8.425678026401457466e-01,0.000000000000000000e+00
5.040000000000000000e+02,1.219886629449319582e+00,0.000000000000000000e+00
5.050000000000000000e+02,1.057361399431429483e+00,0.000000000000000000e+00
5.060000000000000000e+02,7.927726104522722084e-01,0.000000000000000000e+00
5.070000000000000000e+02,-7.204747708551488550e-02,0.000000000000000000e+00
5.080000000000000000e+02,-5.109319163108950734e-01,0.000000000000000000e+00
5.090000000000000000e+02,-5.424382564383188887e-01,0.000000000000000000e+00
5.100000000000000000e+02,-9.390122038303400087e-01,0.000000000000000000e+00
5.110000000000000000e+02,-8.449178909183446828e-01,0.000000000000000000e+00
5.120000000000000000e+02,-1.056944950096314617e+00,0.000000000000000000e+00
5.130000000000000000e+02,-5.429758512554616612e-01,0.000000000000000000e+00
5.140000000000000000e+02,-3.233736363993831575e-01,0.000000000000000000e+00
5.150000000000000000e+02,-4.295910998268373526e-01,0.000000000000000000e+00
5.160000000000000000e+02,-1.186239801174552716e-01,0.000000000000000000e+00
5.170000000000000000e+02,-1.546004724713464507e-01,0.000000000000000000e+00
5.180000000000000000e+02,1.752313599410066369e-01,0.000000000000000000e+00
5.190000000000000000e+02,-2.765172455779754679e-01,0.000000000000000000e+00
5.200000000000000000e+02,3.098346949479126033e-01,0.000000000000000000e+00
5.210000000000000000e+02,-3.016733820527814358e-01,0.000000000000000000e+00
5.220000000000000000e+02,-1.852652752161931815e-01,0.000000000000000000e+00
5.230000000000000000e+02,-2.873693787470669725e-01,0.000000000000000000e+00
5.240000000000000000e+02,-8.330431700633272873e-02,0.000000000000000000e+00
5.250000000000000000e+02,-1.837724610024729643e-01,0.000000000000000000e+00
5.260000000000000000e+02,-1.673637590995761815e-01,0.000000000000000000e+00
5.270000000000000000e+02,-3.333884610284881811e-01,0.000000000000000000e+00
5.280000000000000000e+02,1.237973112822192551e-01,0.000000000000000000e+00
5.290000000000000000e+02,-3.807999243690459723e-01,0.000000000000000000e+00
5.300000000000000000e+02,5.454983772613376108e-03,0.000000000000000000e+00
5.310000000000000000e+02,-1.216625154116444396e-01,0.000000000000000000e+00
5.320000000000000000e+02,-9.355755084422377743e-02,0.000000000000000000e+00
5.330000000000000000e+02,1.364497754025238985e-01,0.000000000000000000e+00
5.340000000000000000e+02,8.355531924445787351e-02,0.000000000000000000e+00
5.350000000000000000e+02,6.543724572208356981e-03,0.000000000000000000e+00
5.360000000000000000e+02,2.766763659341348047e-01,0.000000000000000000e+00
5.370000000000000000e+02,4.039163514133191635e-01,0.000000000000000000e+00
5.380000000000000000e+02,3.750101115341739622e-01,0.000000000000000000e+00
5.390000000000000000e+02,-1.244618654274153857e-01,0.000000000000000000e+00
5.400000000000000000e+02,-1.277570226343222037e-01,0.000000000000000000e+00
5.410000000000000000e+02,-4.436175843739980640e-01,0.000000000000000000e+00
5.420000000000000000e+02,2.451507856623878379e+00,0.000000000000000000e+00
5.430000000000000000e+02,4.092747432116702555e+00,0.000000000000000000e+00
5.440000000000000000e+02,-1.213763563445029170e-01,1.000000000000000000e+00
5.450000000000000000e+02,-1.373580791073667484e+00,0.000000000000000000e+00
5.460000000000000000e+02,-1.357710899486498368e+00,0.000000000000000000e+00
5.470000000000000000e+02,-1.152238715219201959e+00,0.000000000000000000e+00
5.480000000000000000e+02,-9.527799933962706191e-01,0.000000000000000000e+00
5.490000000000000000e+02,-5.870679240352365547e-01,0.000000000000000000e+00
5.500000000000000000e+02,-9.117854629144772627e-01,0.000000000000000000e+00
5.510000000000000000e+02,-8.900637160953294158e-01,0.000000000000000000e+00
5.520000000000000000e+02,-3.233320065766852047e-01,0.000000000000000000e+00
5.530000000000000000e+02,-3.318986250931685866e-01,0.000000000000000000e+00
5.540000000000000000e+02,-2.435178916888462997e-01,0.000000000000000000e+00
5.550000000000000000e+02,1.520981436731609349e-01,0.000000000000000000e+00
5.560000000000000000e+02,4.673969789415779452e-01,0.000000000000000000e+00
5.570000000000000000e+02,7.039462387372509289e-01,0.000000000000000000e+00
5.580000000000000000e+02,9.998232786169582997e-01,0.000000000000000000e+00
5.590000000000000000e+02,5.063457836568663328e-01,0.000000000000000000e+00
5.600000000000000000e+02,-2.345922971656442813e-01,0.000000000000000000e+00
5.610000000000000000e+02,-4.578468734394861017e-01,0.000000000000000000e+00
5.620000000000000000e+02,-6.100600026656352037e-01,0.000000000000000000e+00
5.630000000000000000e+02,-8.411349073203654436e-01,0.000000000000000000e+00
5.640000000000000000e+02,-5.448700008588908128e-01,0.000000000000000000e+00
5.650000000000000000e+02,-4.839378218018782762e-01,0.000000000000000000e+00
5.660000000000000000e+02,-4.592595739225014961e-01,0.000000000000000000e+00
5.670000000000000000e+02,-3.677301294322655734e-01,0.000000000000000000e+00
5.680000000000000000e+02,-6.058060639433741068e-01,0.000000000000000000e+00
5.690000000000000000e+02,-1.811353761506558357e-01,0.000000000000000000e+00
5.700000000000000000e+02,-3.343085130959932982e-01,0.000000000000000000e+00
5.710000000000000000e+02,8.985652698378579495e-02,0.000000000000000000e+00
5.720000000000000000e+02,-6.505040456848101837e-02,0.000000000000000000e+00
5.730000000000000000e+02,-1.112506978295404146e-02,0.000000000000000000e+00
5.740000000000000000e+02,-2.943937767067231204e-01,0.000000000000000000e+00
5.750000000000000000e+02,-1.269153478794577405e-01,0.000000000000000000e+00
5.760000000000000000e+02,1.390936289259953329e-01,0.000000000000000000e+00
5.770000000000000000e+02,-2.984079182982189438e-01,0.000000000000000000e+00
5.780000000000000000e+02,1.917143178001959880e-01,0.000000000000000000e+00
5.790000000000000000e+02,-5.340728648978223525e-01,0.000000000000000000e+00
5.800000000000000000e+02,-7.627545457616138891e-02,0.000000000000000000e+00
5.810000000000000000e+02,8.361401907594846750e-02,0.000000000000000000e+00
5.820000000000000000e+02,5.022554056838120229e-02,0.000000000000000000e+00
5.830000000000000000e+02,-2.566783445523777019e-01,0.000000000000000000e+00
5.840000000000000000e+02,1.143746845344000423e-01,0.000000000000000000e+00
5.850000000000000000e+02,-4.962674036288974161e-02,0.000000000000000000e+00
5.860000000000000000e+02,1.644819716825909328e-01,0.000000000000000000e+00
5.870000000000000000e+02,-2.811952399875371471e-03,0.000000000000000000e+00
5.880000000000000000e+02,-3.197863331334436371e-02,0.000000000000000000e+00
5.890000000000000000e+02,1.682997866087583283e-01,0.000000000000000000e+00
5.900000000000000000e+02,2.367056218752326968e-01,0.000000000000000000e+00
5.910000000000000000e+02,2.885305429889271633e-01,0.000000000000000000e+00
5.920000000000000000e+02,2.558838195884246547e-01,0.000000000000000000e+00
5.930000000000000000e+02,4.093036435710520338e-01,0.000000000000000000e+00
5.940000000000000000e+02,9.106548650210724016e-01,0.000000000000000000e+00
5.950000000000000000e+02,3.534165806301139412e-01,0.000000000000000000e+00
5.960000000000000000e+02,-5.619380515248188074e-02,0.000000000000000000e+00
5.970000000000000000e+02,-2.420415279334698355e-01,0.000000000000000000e+00
5.980000000000000000e+02,2.407441502178650605e+00,0.000000000000000000e+00
5.990000000000000000e+02,4.928193687814577117e+00,0.000000000000000000e+00
6.000000000000000000e+02,3.703523054253272662e-01,1.000000000000000000e+00
6.010000000000000000e+02,-6.076238998383013401e-01,0.000000000000000000e+00
6.020000000000000000e+02,-1.039592581810456995e+00,0.000000000000000000e+00
6.030000000000000000e+02,-9.844799644736953459e-01,0.000000000000000000e+00
6.040000000000000000e+02,-5.306237835869264119e-01,0.000000000000000000e+00
6.050000000000000000e+02,-3.369383515207038382e-01,0.000000000000000000e+00
6.060000000000000000e+02,-2.308947187977256899e-01,0.000000000000000000e+00
6.070000000000000000e+02,-2.460019520912361535e-01,0.000000000000000000e+00
6.080000000000000000e+02,-2.715263497532329207e-01,0.000000000000000000e+00
6.090000000000000000e+02,-1.583473853068024517e-01,0.000000000000000000e+00
6.100000000000000000e+02,3.911296113703581212e-01,0.000000000000000000e+00
6.110000000000000000e+02,3.562558252680090298e-01,0.000000000000000000e+00
6.120000000000000000e+02,9.756860129446977004e-01,0.000000000000000000e+00
6.130000000000000000e+02,1.264887559133099248e+00,0.000000000000000000e+00
6.140000000000000000e+02,1.508203118872346815e+00,0.000000000000000000e+00
6.150000000000000000e+02,8.169264902637526360e-01,0.000000000000000000e+00
6.160000000000000000e+02,1.639393746739686575e-01,0.000000000000000000e+00
6.170000000000000000e+02,-2.254567470304471022e-01,0.000000000000000000e+00
6.180000000000000000e+02,-1.913591799749814748e-01,0.000000000000000000e+00
6.190000000000000000e+02,-6.548090430431749986e-01,0.000000000000000000e+00
6.200000000000000000e+02,-4.058869390996953097e-01,0.000000000000000000e+00
6.210000000000000000e+02,-2.116620654219781850e-01,0.000000000000000000e+00
6.220000000000000000e+02,-3.367580114755620024e-01,0.000000000000000000e+00
6.230000000000000000e+02,-4.479204105806244840e-01,0.000000000000000000e+00
6.240000000000000000e+02,-4.732812715823507266e-01,0.000000000000000000e+00
6.250000000000000000e+02,-1.003185380005401778e-01,0.000000000000000000e+00
6.260000000000000000e+02,-1.388867653153099679e-01,0.000000000000000000e+00
6.270000000000000000e+02,1.710361744122301450e-02,0.000000000000000000e+00
6.280000000000000000e+02,-1.602959871094329289e-02,0.000000000000000000e+00
6.290000000000000000e+02,-3.551254427639123357e-01,0.000000000000000000e+00
6.300000000000000000e+02,-2.885858681049409680e-01,0.000000000000000000e+00
6.310000000000000000e+02,-8.815668643233788571e-02,0.000000000000000000e+00
6.320000000000000000e+02,-5.094113418933536863e-01,0.000000000000000000e+00
6.330000000000000000e+02,-1.855783527385678200e-01,0.000000000000000000e+00
6.340000000000000000e+02,-3.207200083473053520e-01,0.000000000000000000e+00
6.350000000000000000e+02,-1.907747419290126978e-01,0.000000000000000000e+00
6.360000000000000000e+02,-2.228241324046046912e-01,0.000000000000000000e+00
6.370000000000000000e+02,-1.671069938614773778e-02,0.000000000000000000e+00
6.380000000000000000e+02,-5.033610488149583562e-01,0.000000000000000000e+00
6.390000000000000000e+02,1.066265513914682328e-01,0.000000000000000000e+00
6.400000000000000000e+02,2.304711332280524536e-02,0.000000000000000000e+00
6.410000000000000000e+02,-2.751626568122786942e-01,0.000000000000000000e+00
6.420000000000000000e+02,-3.406450598395953100e-01,0.000000000000000000e+00
6.430000000000000000e+02,-2.403986247692979292e-02,0.000000000000000000e+00
6.440000000000000000e+02,-1.132196011563771226e-01,0.000000000000000000e+00
6.450000000000000000e+02,-4.611591931406813782e-02,0.000000000000000000e+00
6.460000000000000000e+02,-2.712617198904178073e-01,0.000000000000000000e+00
6.470000000000000000e+02,-2.234397486016217182e-01,0.000000000000000000e+00
6.480000000000000000e+02,4.944906192910687726e-02,0.000000000000000000e+00
6.490000000000000000e+02,-1.720934882225026163e-01,0.000000000000000000e+00
6.500000000000000000e+02,7.648625801105775057e-01,0.000000000000000000e+00
6.510000000000000000e+02,1.352252108994544400e-01,0.000000000000000000e+00
6.520000000000000000e+02,-4.470047353779939558e-01,0.000000000000000000e+00
6.530000000000000000e+02,-9.696642653695712599e-02,0.000000000000000000e+00
6.540000000000000000e+02,-3.770146225594653844e-01,0.000000000000000000e+00
6.550000000000000000e+02,3.855647921756991892e+00,0.000000000000000000e+00
6.560000000000000000e+02,2.953488721248398008e+00,1.000000000000000000e+00
6.570000000000000000e+02,-1.173717134846967936e+00,0.000000000000000000e+00
6.580000000000000000e+02,-9.260028049387135640e-01,0.000000000000000000e+00
6.590000000000000000e+02,-1.481235776679856064e+00,0.000000000000000000e+00
6.600000000000000000e+02,-1.126449660194097868e+00,0.000000000000000000e+00
6.610000000000000000e+02,-1.136564452193493002e+00,0.000000000000000000e+00
6.620000000000000000e+02,-9.524646327060984907e-01,0.000000000000000000e+00
6.630000000000000000e+02,-7.687805123970790078e-01,0.000000000000000000e+00
6.640000000000000000e+02,-7.330550536587824295e-01,0.000000000000000000e+00
6.650000000000000000e+02,-5.468085988351931714e-01,0.000000000000000000e+00
6.660000000000000000e+02,-3.563936007378131210e-01,0.000000000000000000e+00
6.670000000000000000e+02,-2.874120087190649708e-01,0.000000000000000000e+00
6.680000000000000000e+02,2.029322768859218862e-01,0.000000000000000000e+00
6.690000000000000000e+02,5.694223039289431076e-01,0.000000000000000000e+00
6.700000000000000000e+02,1.022752015859800245e+00,0.000000000000000000e+00
6.710000000000000000e+02,9.698294475155068151e-01,0.000000000000000000e+00
6.720000000000000000e+02,2.413804140289596278e-01,0.000000000000000000e+00
6.730000000000000000e+02,-3.620041102852494252e-01,0.000000000000000000e+00
6.740000000000000000e+02,-6.173487457049343652e-01,0.000000000000000000e+00
6.750000000000000000e+02,-6.867745705297153558e-01,0.000000000000000000e+00
6.760000000000000000e+02,-5.539523715022663941e-01,0.000000000000000000e+00
6.770000000000000000e+02,-9.755440356594005102e-01,0.000000000000000000e+00
6.780000000000000000e+02,-6.254494582069017872e-01,0.000000000000000000e+00
6.790000000000000000e+02,-6.654543862099161489e-01,0.000000000000000000e+00
6.800000000000000000e+02,7.291109724377224655e-02,0.000000000000000000e+00
6.810000000000000000e+02,-7.307159670191958334e-01,0.000000000000000000e+00
6.820000000000000000e+02,-1.297839786175205290e-01,0.000000000000000000e+00
6.830000000000000000e+02,-1.452438154405713278e-01,0.000000000000000000e+00
6.840000000000000000e+02,-2.080283202807412801e-01,0.000000000000000000e+00
6.850000000000000000e+02,-1.457891403885962917e-02,0.000000000000000000e+00
6.860000000000000000e+02,9.240602170158439266e-02,0.000000000000000000e+00
6.870000000000000000e+02,-8.792881826377657584e-02,0.000000000000000000e+00
6.880000000000000000e+02,-1.399851100771969947e-01,0.000000000000000000e+00
6.890000000000000000e+02,-1.275059497282937104e-01,0.000000000000000000e+00
6.900000000000000000e+02,1.419178459264255621e-01,0.000000000000000000e+00
6.910000000000000000e+02,7.428245088388342465e-02,0.000000000000000000e+00
6.920000000000000000e+02,1.517558056924439569e-01,0.000000000000000000e+00
6.930000000000000000e+02,1.158834429824915357e-01,0.000000000000000000e+00
6.940000000000000000e+02,4.524232404352196424e-01,0.000000000000000000e+00
6.950000000000000000e+02,3.038065455059045794e-01,0.000000000000000000e+00
6.960000000000000000e+02,9.521584601170653139e-02,0.000000000000000000e+00
6.970000000000000000e+02,3.525530822380533724e-01,0.000000000000000000e+00
6.980000000000000000e+02,3.098414391849994565e-01,0.000000000000000000e+00
6.990000000000000000e+02,1.172508873728884404e-01,0.000000000000000000e+00
7.000000000000000000e+02,6.864260685637406656e-01,0.000000000000000000e+00
7.010000000000000000e+02,8.184914877240889730e-02,0.000000000000000000e+00
7.020000000000000000e+02,4.735375750587817456e-01,0.000000000000000000e+00
7.030000000000000000e+02,3.240634906519153091e-01,0.000000000000000000e+00
7.040000000000000000e+02,9.081701487496074421e-01,0.000000000000000000e+00
7.050000000000000000e+02,8.729593537601249009e-01,0.000000000000000000e+00
7.060000000000000000e+02,6.032147858390564110e-01,0.000000000000000000e+00
7.070000000000000000e+02,1.397374666660358179e-02,0.000000000000000000e+00
7.080000000000000000e+02,2.769131023234631672e-01,0.000000000000000000e+00
7.090000000000000000e+02,3.836751714330269986e-02,0.000000000000000000e+00
7.100000000000000000e+02,4.102532452083822001e+00,0.000000000000000000e+00
7.110000000000000000e+02,3.108743436681401295e+00,1.000000000000000000e+00
7.120000000000000000e+02,-1.363647691166486542e+00,0.000000000000000000e+00
7.130000000000000000e+02,-5.690739398282790296e-01,0.000000000000000000e+00
7.140000000000000000e+02,-8.946061210984825873e-01,0.000000000000000000e+00
7.150000000000000000e+02,-7.004628744814662689e-01,0.000000000000000000e+00
7.160000000000000000e+02,-1.007958366685173024e+00,0.000000000000000000e+00
7.170000000000000000e+02,-6.892992914878027788e-01,0.000000000000000000e+00
7.180000000000000000e+02,-7.907594478538702010e-01,0.000000000000000000e+00
7.190000000000000000e+02,-6.509866813824142229e-01,0.000000000000000000e+00
7.200000000000000000e+02,-6.071260597007233084e-01,0.000000000000000000e+00
7.210000000000000000e+02,-2.586410026581931754e-01,0.000000000000000000e+00
7.220000000000000000e+02,1.514588879435804225e-01,0.000000000000000000e+00
7.230000000000000000e+02,1.694669658885589458e-01,0.000000000000000000e+00
7.240000000000000000e+02,9.975986391169899825e-01,0.000000000000000000e+00
7.250000000000000000e+02,8.096450710503906301e-01,0.000000000000000000e+00
7.260000000000000000e+02,9.759546077991929636e-01,0.000000000000000000e+00
7.270000000000000000e+02,4.066792516326735996e-01,0.000000000000000000e+00
7.280000000000000000e+02,-1.050309326881935512e-01,0.000000000000000000e+00
7.290000000000000000e+02,-5.884316923729147053e-01,0.000000000000000000e+00
7.300000000000000000e+02,-7.916285206867242907e-01,0.000000000000000000e+00
7.310000000000000000e+02,-9.412498826857432777e-01,0.000000000000000000e+00
7.320000000000000000e+02,-5.343667052340810297e-01,0.000000000000000000e+00
7.330000000000000000e+02,-4.855401266919580627e-01,0.000000000000000000e+00
7.340000000000000000e+02,-6.183741308485243282e-01,0.000000000000000000e+00
7.350000000000000000e+02,-4.308729453472070481e-01,0.000000000000000000e+00
7.360000000000000000e+02,-3.496572064599819396e-01,0.000000000000000000e+00
7.370000000000000000e+02,-1.127940739595542814e-02,0.000000000000000000e+00
7.380000000000000000e+02,-1.077816437259588034e-01,0.000000000000000000e+00
7.390000000000000000e+02,9.525053849518054505e-02,0.000000000000000000e+00
7.400000000000000000e+02,-1.560073716986002113e-01,0.000000000000000000e+00
7.410000000000000000e+02,1.832536205895549108e-01,0.000000000000000000e+00
7.420000000000000000e+02,-2.499342811457190006e-01,0.000000000000000000e+00
7.430000000000000000e+02,-1.711314907943827790e-01,0.000000000000000000e+00
7.440000000000000000e+02,2.262272761069175353e-01,0.000000000000000000e+00
7.450000000000000000e+02,-3.472179793646644475e-02,0.000000000000000000e+00
7.460000000000000000e+02,1.440069217582095051e-01,0.000000000000000000e+00
7.470000000000000000e+02,1.196257050608601352e-01,0.000000000000000000e+00
7.480000000000000000e+02,1.808512519789192141e-01,0.000000000000000000e+00
7.490000000000000000e+02,1.602764979993762939e-01,0.000000000000000000e+00
7.500000000000000000e+02,1.283452900231932814e-01,0.000000000000000000e+00
7.510000000000000000e+02,1.152923839967062020e-01,0.000000000000000000e+00
7.520000000000000000e+02,3.895526034931069970e-01,0.000000000000000000e+00
7.530000000000000000e+02,7.909641754479453113e-02,0.000000000000000000e+00
7.540000000000000000e+02,-3.572641591362165497e-02,0.000000000000000000e+00
7.550000000000000000e+02,3.614371194940174115e-01,0.000000000000000000e+00
7.560000000000000000e+02,7.976116043567535452e-02,0.000000000000000000e+00
7.570000000000000000e+02,8.247682188661545344e-02,0.000000000000000000e+00
7.580000000000000000e+02,4.747869117269892247e-01,0.000000000000000000e+00
7.590000000000000000e+02,2.987870716684071781e-01,0.000000000000000000e+00
7.600000000000000000e+02,5.772418218422160213e-02,0.000000000000000000e+00
7.610000000000000000e+02,5.803177619463965042e-01,0.000000000000000000e+00
7.620000000000000000e+02,5.591109888737130218e-01,0.000000000000000000e+00
7.630000000000000000e+02,6.613777409319920864e-01,0.000000000000000000e+00
7.640000000000000000e+02,-2.196740826812103309e-01,0.000000000000000000e+00
7.650000000000000000e+02,-1.387109198131747378e-01,0.000000000000000000e+00
7.660000000000000000e+02,-2.950508011778519846e-01,0.000000000000000000e+00
7.670000000000000000e+02,3.773126898285874997e+00,0.000000000000000000e+00
7.680000000000000000e+02,3.382787355353999104e+00,0.000000000000000000e+00
7.690000000000000000e+02,-8.617844351562677918e-01,1.000000000000000000e+00
7.700000000000000000e+02,-1.052903769333336514e+00,0.000000000000000000e+00
7.710000000000000000e+02,-1.258247423413666244e+00,0.000000000000000000e+00
7.720000000000000000e+02,-1.072761935863902005e+00,0.000000000000000000e+00
7.730000000000000000e+02,-1.062430375048547759e+00,0.000000000000000000e+00
7.740000000000000000e+02,-7.094993877140755023e-01,0.000000000000000000e+00
7.750000000000000000e+02,-7.098679465134358768e-01,0.000000000000000000e+00
7.760000000000000000e+02,-8.073680649989247726e-01,0.000000000000000000e+00
7.770000000000000000e+02,-8.529789846487455529e-01,0.000000000000000000e+00
7.780000000000000000e+02,-1.827601614181774414e-01,0.000000000000000000e+00
7.790000000000000000e+02,-1.566424083138071299e-01,0.000000000000000000e+00
7.800000000000000000e+02,-3.930614896778934775e-02,0.000000000000000000e+00
7.810000000000000000e+02,6.746616232562188120e-01,0.000000000000000000e+00
7.820000000000000000e+02,7.550710617680448378e-01,0.000000000000000000e+00
7.830000000000000000e+02,8.239431692608372160e-01,0.000000000000000000e+00
7.840000000000000000e+02,1.194404668597774943e-01,0.000000000000000000e+00
7.850000000000000000e+02,-5.431667879761549189e-01,0.000000000000000000e+00
7.860000000000000000e+02,-1.046388208056275859e+00,0.000000000000000000e+00
7.870000000000000000e+02,-8.793092962475008711e-01,0.000000000000000000e+00
7.880000000000000000e+02,-5.638506105717758787e-01,0.000000000000000000e+00
7.890000000000000000e+02,-8.816987120744691486e-01,0.000000000000000000e+00
7.900000000000000000e+02,-5.861729518532438066e-01,0.000000000000000000e+00
7.910000000000000000e+02,-8.118830821190429203e-01,0.000000000000000000e+00
7.920000000000000000e+02,-3.780505575487327907e-01,0.000000000000000000e+00
7.930000000000000000e+02,-3.602610284814747876e-01,0.000000000000000000e+00
7.940000000000000000e+02,2.127792698313587041e-02,0.000000000000000000e+00
7.950000000000000000e+02,-2.639794374749607764e-01,0.000000000000000000e+00
7.960000000000000000e+02,-1.332056780902975968e-01,0.000000000000000000e+00
7.970000000000000000e+02,1.450514388588519388e-01,0.000000000000000000e+00
7.980000000000000000e+02,9.080871754795676043e-02,0.000000000000000000e+00
7.990000000000000000e+02,2.643276996863108685e-01,0.000000000000000000e+00
8.000000000000000000e+02,4.197195243399806097e-01,0.000000000000000000e+00
8.010000000000000000e+02,4.564152162829068771e-02,0.000000000000000000e+00
8.020000000000000000e+02,7.682680518914898615e-02,0.000000000000000000e+00
8.030000000000000000e+02,3.139839794992818622e-01,0.000000000000000000e+00
8.040000000000000000e+02,2.712270428275120882e-01,0.000000000000000000e+00
8.050000000000000000e+02,-1.503268423694006234e-02,0.000000000000000000e+00
8.060000000000000000e+02,3.475274094571370598e-01,0.000000000000000000e+00
8.070000000000000000e+02,8.319669334157026030e-02,0.000000000000000000e+00
8.080000000000000000e+02,2.801632770356558000e-01,0.000000000000000000e+00
8.090000000000000000e+02,5.397487878563852481e-01,0.000000000000000000e+00
8.100000000000000000e+02,4.106335387891708044e-01,0.000000000000000000e+00
8.110000000000000000e+02,1.668282440589309024e-01,0.000000000000000000e+00
8.120000000000000000e+02,4.183045768268049414e-01,0.000000000000000000e+00
8.130000000000000000e+02,3.386091430546201431e-01,0.000000000000000000e+00
8.140000000000000000e+02,5.645736134150924901e-01,0.000000000000000000e+00
8.150000000000000000e+02,-5.733719469179859168e-02,0.000000000000000000e+00
8.160000000000000000e+02,4.913008064902089078e-01,0.000000000000000000e+00
8.170000000000000000e+02,3.072648736478340026e-01,0.000000000000000000e+00
8.180000000000000000e+02,5.508839335165096607e-01,0.000000000000000000e+00
8.190000000000000000e+02,3.458219896759367473e-01,0.000000000000000000e+00
8.200000000000000000e+02,8.023828183320502738e-01,0.000000000000000000e+00
8.210000000000000000e+02,1.211204544457579468e-01,0.000000000000000000e+00
8.220000000000000000e+02,9.832452023496923710e-02,0.000000000000000000e+00
8.230000000000000000e+02,-3.223624214251417652e-01,0.000000000000000000e+00
8.240000000000000000e+02,2.443114618262444804e+00,0.000000000000000000e+00
8.250000000000000000e+02,4.359956499578661493e+00,0.000000000000000000e+00
8.260000000000000000e+02,-3.171878369009937249e-01,1.000000000000000000e+00
8.270000000000000000e+02,-1.362062314648071926e+00,0.000000000000000000e+00
8.280000000000000000e+02,-1.368274802527321032e+00,0.000000000000000000e+00
8.290000000000000000e+02,-1.149818981447897404e+00,0.000000000000000000e+00
8.300000000000000000e+02,-1.481975859584039767e+00,0.000000000000000000e+00
8.310000000000000000e+02,-1.069347662168129931e+00,0.000000000000000000e+00
8.320000000000000000e+02,-1.242562541635661377e+00,0.000000000000000000e+00
8.330000000000000000e+02,-8.196840380669232484e-01,0.000000000000000000e+00
8.340000000000000000e+02,-4.775715647263105157e-01,0.000000000000000000e+00
8.350000000000000000e+02,-5.570583551158297952e-01,0.000000000000000000e+00
8.360000000000000000e+02,-2.321825862395671403e-01,0.000000000000000000e+00
8.370000000000000000e+02,-2.763422043480736612e-01,0.000000000000000000e+00
8.380000000000000000e+02,2.993831957717114634e-01,0.000000000000000000e+00
8.390000000000000000e+02,5.660311357184281134e-01,0.000000000000000000e+00
8.400000000000000000e+02,9.254207566162990783e-01,0.000000000000000000e+00
8.410000000000000000e+02,3.932372962100848524e-01,0.000000000000000000e+00
8.420000000000000000e+02,-3.540919998492358250e-02,0.000000000000000000e+00
8.430000000000000000e+02,-6.017214771287314745e-01,0.000000000000000000e+00
8.440000000000000000e+02,-1.011690275592101562e+00,0.000000000000000000e+00
8.450000000000000000e+02,-7.015734642293935952e-01,0.000000000000000000e+00
8.460000000000000000e+02,-7.349050684413872547e-01,0.000000000000000000e+00
8.470000000000000000e+02,-6.379141423272960409e-01,0.000000000000000000e+00
8.480000000000000000e+02,-7.798580153659852021e-01,0.000000000000000000e+00
8.490000000000000000e+02,-9.138667622579946803e-01,0.000000000000000000e+00
8.500000000000000000e+02,-6.171249012315971338e-01,0.000000000000000000e+00
8.510000000000000000e+02,-1.040720597060769970e-01,0.000000000000000000e+00
8.520000000000000000e+02,4.204598339033163018e-02,0.000000000000000000e+00
8.530000000000000000e+02,-9.648403729889035163e-02,0.000000000000000000e+00
8.540000000000000000e+02,-1.330033001687163687e-02,0.000000000000000000e+00
8.550000000000000000e+02,-1.054873481790182116e-01,0.000000000000000000e+00
8.560000000000000000e+02,1.549914685888124644e-01,0.000000000000000000e+00
8.570000000000000000e+02,1.579705277802539998e-01,0.000000000000000000e+00
8.580000000000000000e+02,6.142081922180886444e-02,0.000000000000000000e+00
8.590000000000000000e+02,-2.139738997332827908e-01,0.000000000000000000e+00
8.600000000000000000e+02,1.319602135809255228e-01,0.000000000000000000e+00
8.610000000000000000e+02,-1.364541688326977587e-01,0.000000000000000000e+00
8.620000000000000000e+02,4.744559790812880734e-02,0.000000000000000000e+00
8.630000000000000000e+02,1.651745584612722417e-01,0.000000000000000000e+00
8.640000000000000000e+02,6.080970598595044491e-02,0.000000000000000000e+00
8.650000000000000000e+02,-4.123139981291035205e-02,0.000000000000000000e+00
8.660000000000000000e+02,2.032481644037880120e-01,0.000000000000000000e+00
8.670000000000000000e+02,-2.610228542693496800e-01,0.000000000000000000e+00
8.680000000000000000e+02,3.049252575403570975e-01,0.000000000000000000e+00
8.690000000000000000e+02,-1.844401224755054247e-01,0.000000000000000000e+00
8.700000000000000000e+02,5.290838741132868756e-02,0.000000000000000000e+00
8.710000000000000000e+02,-1.774474409203544156e-02,0.000000000000000000e+00
8.720000000000000000e+02,2.035905399018161643e-01,0.000000000000000000e+00
8.730000000000000000e+02,5.391784871258876732e-01,0.000000000000000000e+00
8.740000000000000000e+02,-1.329014279259597420e-01,0.000000000000000000e+00
8.750000000000000000e+02,-2.168135819081638549e-01,0.000000000000000000e+00
8.760000000000000000e+02,-3.821131215673576609e-01,0.000000000000000000e+00
8.770000000000000000e+02,4.509610968162340860e-01,0.000000000000000000e+00
8.780000000000000000e+02,4.404166345212749079e+00,0.000000000000000000e+00
8.790000000000000000e+02,5.283576034307890801e-01,1.000000000000000000e+00
8.800000000000000000e+02,-1.374392005284897689e+00,0.000000000000000000e+00
8.810000000000000000e+02,-1.121132512282722704e+00,0.000000000000000000e+00
8.820000000000000000e+02,-1.154574525055904299e+00,0.000000000000000000e+00
8.830000000000000000e+02,-6.076891489026398085e-01,0.000000000000000000e+00
8.840000000000000000e+02,-9.681046272613095249e-01,0.000000000000000000e+00
8.850000000000000000e+02,-3.690391015939372132e-01,0.000000000000000000e+00
8.860000000000000000e+02,-3.797100999511245356e-01,0.000000000000000000e+00
8.870000000000000000e+02,-1.734311937217898891e-01,0.000000000000000000e+00
8.880000000000000000e+02,1.483080734445220428e-01,0.000000000000000000e+00
8.890000000000000000e+02,2.414744016376046687e-01,0.000000000000000000e+00
8.900000000000000000e+02,4.544921861951544684e-01,0.000000000000000000e+00
8.910000000000000000e+02,9.281353364656110827e-01,0.000000000000000000e+00
8.920000000000000000e+02,1.268389106938303090e+00,0.000000000000000000e+00
8.930000000000000000e+02,1.685154094558744653e+00,0.000000000000000000e+00
8.940000000000000000e+02,1.410494389588277109e+00,0.000000000000000000e+00
8.950000000000000000e+02,8.652901017522790506e-01,0.000000000000000000e+00
8.960000000000000000e+02,-1.853304130387392057e-01,0.000000000000000000e+00
8.970000000000000000e+02,9.880824052574230243e-02,0.000000000000000000e+00
8.980000000000000000e+02,-3.683835494537383570e-01,0.000000000000000000e+00
8.990000000000000000e+02,-8.803850232048379687e-02,0.000000000000000000e+00
9.000000000000000000e+02,-2.124658819041117530e-01,0.000000000000000000e+00
9.010000000000000000e+02,-5.134013305568884133e-01,0.000000000000000000e+00
9.020000000000000000e+02,-4.687216804525842079e-02,0.000000000000000000e+00
9.030000000000000000e+02,-2.894792965075158181e-02,0.000000000000000000e+00
9.040000000000000000e+02,1.330773939612583112e-01,0.000000000000000000e+00
9.050000000000000000e+02,1.040036568338036510e-01,0.000000000000000000e+00
9.060000000000000000e+02,4.108009475080896811e-02,0.000000000000000000e+00
9.070000000000000000e+02,2.000313081565194551e-01,0.000000000000000000e+00
9.080000000000000000e+02,1.076367449729697529e-01,0.000000000000000000e+00
9.090000000000000000e+02,-1.381258689576929377e-01,0.000000000000000000e+00
9.100000000000000000e+02,2.142489066373448048e-01,0.000000000000000000e+00
9.110000000000000000e+02,-1.767190517081310697e-01,0.000000000000000000e+00
9.120000000000000000e+02,-4.687950360861293381e-02,0.000000000000000000e+00
9.130000000000000000e+02,6.066472609847133046e-02,0.000000000000000000e+00
9.140000000000000000e+02,-2.990705417734260130e-01,0.000000000000000000e+00
9.150000000000000000e+02,-3.291648149919162436e-01,0.000000000000000000e+00
9.160000000000000000e+02,4.700175914173004843e-02,0.000000000000000000e+00
9.170000000000000000e+02,-2.686623479673523329e-01,0.000000000000000000e+00
9.180000000000000000e+02,-1.829638839762731672e-01,0.000000000000000000e+00
9.190000000000000000e+02,-9.344612886935653451e-02,0.000000000000000000e+00
9.200000000000000000e+02,-3.826898509801539006e-01,0.000000000000000000e+00
9.210000000000000000e+02,1.369164159607027254e-01,0.000000000000000000e+00
9.220000000000000000e+02,-3.628673602082487792e-01,0.000000000000000000e+00
9.230000000000000000e+02,1.215010171222893377e-02,0.000000000000000000e+00
9.240000000000000000e+02,-9.536632550918662521e-02,0.000000000000000000e+00
9.250000000000000000e+02,-1.945477334318274909e-01,0.000000000000000000e+00
9.260000000000000000e+02,6.639404934696799265e-02,0.000000000000000000e+00
9.270000000000000000e+02,2.268264477888311537e-01,0.000000000000000000e+00
9.280000000000000000e+02,4.326077285613312839e-01,0.000000000000000000e+00
9.290000000000000000e+02,2.071544318560293030e-01,0.000000000000000000e+00
9.300000000000000000e+02,-3.297768369891464907e-02,0.000000000000000000e+00
9.310000000000000000e+02,-2.771581596794448488e-01,0.000000000000000000e+00
9.320000000000000000e+02,2.389202986111971794e-01,0.000000000000000000e+00
9.330000000000000000e+02,4.614916870106334557e+00,0.000000000000000000e+00
9.340000000000000000e+02,2.160173667601829273e+00,1.000000000000000000e+00
9.350000000000000000e+02,-1.004845772818440786e+00,0.000000000000000000e+00
9.360000000000000000e+02,-9.593274111399161530e-01,0.000000000000000000e+00
9.370000000000000000e+02,-1.505514386152007944e+00,0.000000000000000000e+00
9.380000000000000000e+02,-5.311220890712153864e-01,0.000000000000000000e+00
9.390000000000000000e+02,-1.199646269683387834e+00,0.000000000000000000e+00
9.400000000000000000e+02,-7.132898432935876887e-01,0.000000000000000000e+00
9.410000000000000000e+02,-9.025166690245853829e-01,0.000000000000000000e+00
9.420000000000000000e+02,-5.270096050141414024e-01,0.000000000000000000e+00
9.430000000000000000e+02,-5.214055418931888841e-01,0.000000000000000000e+00
9.440000000000000000e+02,-1.058659631622123065e-01,0.000000000000000000e+00
9.450000000000000000e+02,-3.347344393863466855e-02,0.000000000000000000e+00
9.460000000000000000e+02,4.565061991071191483e-01,0.000000000000000000e+00
9.470000000000000000e+02,6.768743003264702240e-01,0.000000000000000000e+00
9.480000000000000000e+02,9.695940542452150535e-01,0.000000000000000000e+00
9.490000000000000000e+02,9.588665457064585729e-01,0.000000000000000000e+00
9.500000000000000000e+02,4.647175481329079427e-01,0.000000000000000000e+00
9.510000000000000000e+02,-3.690175945695671755e-01,0.000000000000000000e+00
9.520000000000000000e+02,-8.338871331185054858e-01,0.000000000000000000e+00
9.530000000000000000e+02,-8.977953002141483285e-01,0.000000000000000000e+00
9.540000000000000000e+02,-6.371706563595341821e-01,0.000000000000000000e+00
9.550000000000000000e+02,-5.941030790606246503e-01,0.000000000000000000e+00
9.560000000000000000e+02,-6.557062341133694794e-01,0.000000000000000000e+00
9.570000000000000000e+02,-6.445406703264210391e-01,0.000000000000000000e+00
9.580000000000000000e+02,-7.331295628311050860e-01,0.000000000000000000e+00
9.590000000000000000e+02,-1.956955637326190101e-01,0.000000000000000000e+00
9.600000000000000000e+02,-4.543812122150886479e-01,0.000000000000000000e+00
9.610000000000000000e+02,-9.373659090037049502e-02,0.000000000000000000e+00
9.620000000000000000e+02,8.158825335782302068e-02,0.000000000000000000e+00
9.630000000000000000e+02,-8.480908511901327773e-02,0.000000000000000000e+00
9.640000000000000000e+02,2.978284588015132073e-01,0.000000000000000000e+00
9.650000000000000000e+02,-6.588982752246064223e-02,0.000000000000000000e+00
9.660000000000000000e+02,-1.263808962390545743e-01,0.000000000000000000e+00
9.670000000000000000e+02,6.140739128513706541e-02,0.000000000000000000e+00
9.680000000000000000e+02,7.658444821782164902e-02,0.000000000000000000e+00
9.690000000000000000e+02,-2.135317000657192266e-01,0.000000000000000000e+00
9.700000000000000000e+02,4.892248986164565022e-02,0.000000000000000000e+00
9.710000000000000000e+02,1.034846265051720254e-01,0.000000000000000000e+00
9.720000000000000000e+02,1.168342473949918192e-02,0.000000000000000000e+00
9.730000000000000000e+02,1.649632191161232719e-01,0.000000000000000000e+00
9.740000000000000000e+02,2.891265198557071425e-01,0.000000000000000000e+00
9.750000000000000000e+02,4.638944831892794496e-01,0.000000000000000000e+00
9.760000000000000000e+02,-3.116190552127483526e-01,0.000000000000000000e+00
9.770000000000000000e+02,5.501340007922970177e-01,0.000000000000000000e+00
9.780000000000000000e+02,2.949822289066145187e-01,0.000000000000000000e+00
9.790000000000000000e+02,2.734057999582791693e-02,0.000000000000000000e+00
9.800000000000000000e+02,4.089213928986695223e-01,0.000000000000000000e+00
9.810000000000000000e+02,3.143131173852432014e-01,0.000000000000000000e+00
9.820000000000000000e+02,1.284865169702680832e-01,0.000000000000000000e+00
9.830000000000000000e+02,5.452136711547551640e-01,0.000000000000000000e+00
9.840000000000000000e+02,3.988410104854304694e-01,0.000000000000000000e+00
9.850000000000000000e+02,8.181851856319727334e-01,0.000000000000000000e+00
9.860000000000000000e+02,1.722566766239593539e-01,0.000000000000000000e+00
9.870000000000000000e+02,8.773608486994138173e-03,0.000000000000000000e+00
9.880000000000000000e+02,4.786239644457437187e-02,0.000000000000000000e+00
9.890000000000000000e+02,1.429850320607605862e+00,0.000000000000000000e+00
9.900000000000000000e+02,4.749625641607853943e+00,0.000000000000000000e+00
9.910000000000000000e+02,6.314934468672815937e-01,1.000000000000000000e+00
9.920000000000000000e+02,-1.328628400723993019e+00,0.000000000000000000e+00
9.930000000000000000e+02,-1.123918135748486202e+00,0.000000000000000000e+00
9.940000000000000000e+02,-9.165769997658022028e-01,0.000000000000000000e+00
9.950000000000000000e+02,-1.233936776472328134e+00,0.000000000000000000e+00
9.960000000000000000e+02,-1.095161445364827735e+00,0.000000000000000000e+00
9.970000000000000000e+02,-9.180677045923464341e-01,0.000000000000000000e+00
9.980000000000000000e+02,-6.576170523827542524e-01,0.000000000000000000e+00
9.990000000000000000e+02,-2.471108513890259428e-01,0.000000000000000000e+00
1.000000000000000000e+03,-6.127065060862854073e-01,0.000000000000000000e+00
1.001000000000000000e+03,-3.822074467334174441e-01,0.000000000000000000e+00
1.002000000000000000e+03,-1.613979591089407806e-01,0.000000000000000000e+00
1.003000000000000000e+03,6.220414910150171561e-01,0.000000000000000000e+00
1.004000000000000000e+03,5.466531178275082503e-01,0.000000000000000000e+00
1.005000000000000000e+03,8.078238063155176452e-01,0.000000000000000000e+00
1.006000000000000000e+03,5.089641299403224739e-01,0.000000000000000000e+00
1.007000000000000000e+03,-1.176270450889622780e-02,0.000000000000000000e+00
1.008000000000000000e+03,-3.550403631122149850e-01,0.000000000000000000e+00
1.009000000000000000e+03,-1.067737168308125817e+00,0.000000000000000000e+00
1.010000000000000000e+03,-1.182696077700579718e+00,0.000000000000000000e+00
1.011000000000000000e+03,-9.197884298695575556e-01,0.000000000000000000e+00
1.012000000000000000e+03,-8.087466324325557343e-01,0.000000000000000000e+00
1.013000000000000000e+03,-9.397286346367511589e-01,0.000000000000000000e+00
1.014000000000000000e+03,-5.996681906289639263e-01,0.000000000000000000e+00
1.015000000000000000e+03,-3.942288164643754089e-01,0.000000000000000000e+00
1.016000000000000000e+03,-2.565534733005607748e-01,0.000000000000000000e+00
1.017000000000000000e+03,-1.731102793559933517e-01,0.000000000000000000e+00
1.018000000000000000e+03,-3.815550508052449330e-01,0.000000000000000000e+00
1.019000000000000000e+03,4.287329705110629607e-01,0.000000000000000000e+00
1.020000000000000000e+03,-5.015292271380806383e-02,0.000000000000000000e+00
1.021000000000000000e+03,1.895087267318180391e-01,0.000000000000000000e+00
1.022000000000000000e+03,-1.544587141625021198e-01,0.000000000000000000e+00
1.023000000000000000e+03,2.568444271323378492e-01,0.000000000000000000e+00
1.024000000000000000e+03,-1.468915419750945438e-02,0.000000000000000000e+00
1.025000000000000000e+03,2.406051098603307625e-01,0.000000000000000000e+00
1.026000000000000000e+03,-1.050549840438324972e-01,0.000000000000000000e+00
1.027000000000000000e+03,1.918983315067778472e-01,0.000000000000000000e+00
1.028000000000000000e+03,3.305541101783968094e-01,0.000000000000000000e+00
1.029000000000000000e+03,1.513837142141750414e-01,0.000000000000000000e+00
1.030000000000000000e+03,1.568387838774018550e-01,0.000000000000000000e+00
1.031000000000000000e+03,3.383841194085033810e-01,0.000000000000000000e+00
1.032000000000000000e+03,1.976570264403559318e-01,0.000000000000000000e+00
1.033000000000000000e+03,2.021681796561377101e-02,0.000000000000000000e+00
1.034000000000000000e+03,-1.255338462379652908e-02,0.000000000000000000e+00
1.035000000000000000e+03,3.278273264863593162e-01,0.000000000000000000e+00
1.036000000000000000e+03,4.438144647239875562e-01,0.000000000000000000e+00
1.037000000000000000e+03,2.026151981069132246e-01,0.000000000000000000e+00
1.038000000000000000e+03,4.838928413023241282e-01,0.000000000000000000e+00
1.039000000000000000e+03,4.055399045304712291e-01,0.000000000000000000e+00
1.040000000000000000e+03,5.259036096246499925e-01,0.000000000000000000e+00
1.041000000000000000e+03,1.032754297344542271e+00,0.000000000000000000e+00
1.042000000000000000e+03,9.550630552849993515e-01,0.000000000000000000e+00
1.043000000000000000e+03,2.053453402072272227e-01,0.000000000000000000e+00
1.044000000000000000e+03,4.489419968375050751e-01,0.000000000000000000e+00
1.045000000000000000e+03,-9.177249460691799116e-03,0.000000000000000000e+00
1.046000000000000000e+03,2.611155658062493057e+00,0.000000000000000000e+00
1.047000000000000000e+03,4.673137541201083600e+00,0.000000000000000000e+00
1.048000000000000000e+03,-8.650114628416352702e-02,1.000000000000000000e+00
1.049000000000000000e+03,-7.308354566128393293e-01,0.000000000000000000e+00
1.050000000000000000e+03,-9.585425190063522338e-01,0.000000000000000000e+00
1.051000000000000000e+03,-4.596130895397929073e-01,0.000000000000000000e+00
1.052000000000000000e+03,-9.380053459276284089e-01,0.000000000000000000e+00
1.053000000000000000e+03,-7.228529861934520628e-01,0.000000000000000000e+00
1.054000000000000000e+03,-3.343012396987532497e-01,0.000000000000000000e+00
1.055000000000000000e+03,-2.849576416015477398e-01,0.000000000000000000e+00
1.056000000000000000e+03,-5.085378999081768825e-01,0.000000000000000000e+00
1.057000000000000000e+03,-2.833439877684381103e-01,0.000000000000000000e+00
1.058000000000000000e+03,-5.258907402651681329e-01,0.000000000000000000e+00
1.059000000000000000e+03,3.126854514369589166e-01,0.000000000000000000e+00
1.060000000000000000e+03,4.619769074253625707e-01,0.000000000000000000e+00
1.061000000000000000e+03,9.395357291111612330e-01,0.000000000000000000e+00
1.062000000000000000e+03,9.901610159208766859e-01,0.000000000000000000e+00
1.063000000000000000e+03,4.659748770883197500e-01,0.000000000000000000e+00
1.064000000000000000e+03,3.995968038804668943e-02,0.000000000000000000e+00
1.065000000000000000e+03,-6.926113962848667871e-01,0.000000000000000000e+00
1.066000000000000000e+03,-8.221972162628307101e-01,0.000000000000000000e+00
1.067000000000000000e+03,-9.346781729792784654e-01,0.000000000000000000e+00
1.068000000000000000e+03,-8.670615734983637690e-01,0.000000000000000000e+00
1.069000000000000000e+03,-9.418845105696277420e-01,0.000000000000000000e+00
1.070000000000000000e+03,-5.882357761785332873e-01,0.000000000000000000e+00
1.071000000000000000e+03,-6.921561325636089723e-01,0.000000000000000000e+00
1.072000000000000000e+03,-5.361419538459818446e-01,0.000000000000000000e+00
1.073000000000000000e+03,-2.237228581496742974e-01,0.000000000000000000e+00
1.074000000000000000e+03,-5.930181406654397858e-01,0.000000000000000000e+00
1.075000000000000000e+03,4.685391397085047148e-04,0.000000000000000000e+00
1.076000000000000000e+03,-2.840583236004353695e-01,0.000000000000000000e+00
1.077000000000000000e+03,-2.904322932319844952e-01,0.000000000000000000e+00
1.078000000000000000e+03,-6.524129754516654334e-01,0.000000000000000000e+00
1.079000000000000000e+03,-2.337815597649995081e-01,0.000000000000000000e+00
1.080000000000000000e+03,-5.335302821146707952e-01,0.000000000000000000e+00
1.081000000000000000e+03,-1.909979941969147665e-01,0.000000000000000000e+00
1.082000000000000000e+03,-4.449833038354953918e-01,0.000000000000000000e+00
1.083000000000000000e+03,-4.733239476663970158e-01,0.000000000000000000e+00
1.084000000000000000e+03,-1.632372227078866256e-01,0.000000000000000000e+00
1.085000000000000000e+03,-4.670314998171193888e-01,0.000000000000000000e+00
1.086000000000000000e+03,-1.907744542015235578e-01,0.000000000000000000e+00
1.087000000000000000e+03,-1.506026987437417974e-01,0.000000000000000000e+00
1.088000000000000000e+03,-3.721506318886070863e-01,0.000000000000000000e+00
1.089000000000000000e+03,6.486216978788465759e-02,0.000000000000000000e+00
1.090000000000000000e+03,-3.795286569165071677e-01,0.000000000000000000e+00
1.091000000000000000e+03,-1.543292777586456055e-01,0.000000000000000000e+00
1.092000000000000000e+03,-1.053036447309210338e-01,0.000000000000000000e+00
1.093000000000000000e+03,1.277176437994495262e-01,0.000000000000000000e+00
1.094000000000000000e+03,1.004165816431923895e-02,0.000000000000000000e+00
1.095000000000000000e+03,1.294995518761805908e-02,0.000000000000000000e+00
1.096000000000000000e+03,5.671735571203148085e-01,0.000000000000000000e+00
1.097000000000000000e+03,2.448641710530563842e-01,0.000000000000000000e+00
1.098000000000000000e+03,2.052446843040249824e-01,0.000000000000000000e+00
1.099000000000000000e+03,-4.529790656269223059e-01,0.000000000000000000e+00
1.100000000000000000e+03,5.627189255434584814e-01,0.000000000000000000e+00
1.101000000000000000e+03,4.615855052516816492e+00,0.000000000000000000e+00
1.102000000000000000e+03,1.531473610690457399e+00,1.000000000000000000e+00
1.103000000000000000e+03,-1.282071559011289219e+00,0.000000000000000000e+00
1.104000000000000000e+03,-3.712807225768009478e-01,0.000000000000000000e+00
1.105000000000000000e+03,-9.604385694690726893e-01,0.000000000000000000e+00
1.106000000000000000e+03,-2.175553138031041112e-01,0.000000000000000000e+00
1.107000000000000000e+03,-6.956743390937873972e-01,0.000000000000000000e+00
1.108000000000000000e+03,-5.149687750711491319e-01,0.000000000000000000e+00
1.109000000000000000e+03,-9.464869479802691388e-02,0.000000000000000000e+00
1.110000000000000000e+03,6.278546642158248751e-03,0.000000000000000000e+00
1.111000000000000000e+03,3.606713372500822135e-02,0.000000000000000000e+00
1.112000000000000000e+03,2.044609567067838807e-01,0.000000000000000000e+00
1.113000000000000000e+03,-2.035793074193618657e-01,0.000000000000000000e+00
1.114000000000000000e+03,1.019660197913955013e+00,0.000000000000000000e+00
1.115000000000000000e+03,8.826810542088371347e-01,0.000000000000000000e+00
1.116000000000000000e+03,1.354066470983410042e+00,0.000000000000000000e+00
1.117000000000000000e+03,8.706608466857267414e-01,0.000000000000000000e+00
1.118000000000000000e+03,3.995415046370310308e-01,0.000000000000000000e+00
1.119000000000000000e+03,-6.157497571444741497e-02,0.000000000000000000e+00
1.120000000000000000e+03,-7.195646464195361025e-01,0.000000000000000000e+00
1.121000000000000000e+03,-2.867722308090229211e-01,0.000000000000000000e+00
1.122000000000000000e+03,-6.510718065391132292e-01,0.000000000000000000e+00
1.123000000000000000e+03,-5.795158464374300378e-01,0.000000000000000000e+00
1.124000000000000000e+03,-6.328538277874201645e-01,0.000000000000000000e+00
1.125000000000000000e+03,-2.901333098740706551e-01,0.000000000000000000e+00
1.126000000000000000e+03,-4.680971490432402904e-01,0.000000000000000000e+00
1.127000000000000000e+03,-1.566874761942501845e-02,0.000000000000000000e+00
1.128000000000000000e+03,2.404195654704356644e-01,0.000000000000000000e+00
1.129000000000000000e+03,3.527197831517627641e-02,0.000000000000000000e+00
1.130000000000000000e+03,1.217710250417436135e-01,0.000000000000000000e+00
1.131000000000000000e+03,9.290733627934630312e-02,0.000000000000000000e+00
1.132000000000000000e+03,-5.137913337456120194e-02,0.000000000000000000e+00
1.133000000000000000e+03,2.269205435139731997e-01,0.000000000000000000e+00
1.134000000000000000e+03,5.373678803326471104e-03,0.000000000000000000e+00
1.135000000000000000e+03,-5.353127328364647164e-02,0.000000000000000000e+00
1.136000000000000000e+03,-1.834718997115681802e-02,0.000000000000000000e+00
1.137000000000000000e+03,-1.909873020231791097e-04,0.000000000000000000e+00
1.138000000000000000e+03,1.308575367889694419e-01,0.000000000000000000e+00
1.139000000000000000e+03,6.692466098647872896e-02,0.000000000000000000e+00
1.140000000000000000e+03,4.974968952938335631e-02,0.000000000000000000e+00
1.141000000000000000e+03,6.670600789208197545e-02,0.000000000000000000e+00
1.142000000000000000e+03,-3.027001485673837533e-01,0.000000000000000000e+00
1.143000000000000000e+03,3.804328050629683933e-01,0.000000000000000000e+00
1.144000000000000000e+03,1.388894888178489329e-01,0.000000000000000000e+00
1.145000000000000000e+03,1.795330010311686070e-02,0.000000000000000000e+00
1.146000000000000000e+03,-3.855140505305308940e-01,0.000000000000000000e+00
1.147000000000000000e+03,7.270268003681930324e-02,0.000000000000000000e+00
1.148000000000000000e+03,-7.524140545771552946e-02,0.000000000000000000e+00
1.149000000000000000e+03,2.569737898227045791e-01,0.000000000000000000e+00
1.150000000000000000e+03,2.461508914903716705e-01,0.000000000000000000e+00
1.151000000000000000e+03,-9.114613228028675684e-02,0.000000000000000000e+00
1.152000000000000000e+03,8.857110018582899924e-01,0.000000000000000000e+00
1.153000000000000000e+03,1.483983616540051342e-01,0.000000000000000000e+00
1.154000000000000000e+03,-6.699342146967694755e-02,0.000000000000000000e+00
1.155000000000000000e+03,-3.339220434314676411e-01,0.000000000000000000e+00
1.156000000000000000e+03,1.386181549746754005e+00,0.000000000000000000e+00
1.157000000000000000e+03,4.814588139738781969e+00,0.000000000000000000e+00
1.158000000000000000e+03,1.107687873101974363e+00,1.000000000000000000e+00
1.159000000000000000e+03,-1.266152383673539328e+00,0.000000000000000000e+00
1.160000000000000000e+03,-9.428310725146006321e-01,0.000000000000000000e+00
1.161000000000000000e+03,-9.853463147905991981e-01,0.000000000000000000e+00
1.162000000000000000e+03,-1.170377940728705823e+00,0.000000000000000000e+00
1.163000000000000000e+03,-3.148102568955359337e-01,0.000000000000000000e+00
1.164000000000000000e+03,-5.796981515533350393e-01,0.000000000000000000e+00
1.165000000000000000e+03,-7.241089294643501262e-01,0.000000000000000000e+00
1.166000000000000000e+03,-3.197892798234396317e-01,0.000000000000000000e+00
1.167000000000000000e+03,-3.149527497006474053e-01,0.000000000000000000e+00
1.168000000000000000e+03,-1.478403094871145462e-01,0.000000000000000000e+00
1.169000000000000000e+03,1.222397637204603454e-01,0.000000000000000000e+00
1.170000000000000000e+03,4.177757724709129095e-01,0.000000000000000000e+00
1.171000000000000000e+03,8.706662820951708293e-01,0.000000000000000000e+00
1.172000000000000000e+03,1.448124742739490989e+00,0.000000000000000000e+00
1.173000000000000000e+03,8.401280115186393616e-01,0.000000000000000000e+00
1.174000000000000000e+03,6.745056374745072025e-01,0.000000000000000000e+00
1.175000000000000000e+03,-6.117907611925395006e-01,0.000000000000000000e+00
1.176000000000000000e+03,-2.103060566426786515e-01,0.000000000000000000e+00
1.177000000000000000e+03,-5.970647078504308647e-01,0.000000000000000000e+00
1.178000000000000000e+03,-5.517172724881252988e-01,0.000000000000000000e+00
1.179000000000000000e+03,-1.685623900033633438e-01,0.000000000000000000e+00
1.180000000000000000e+03,-6.879914775649955683e-01,0.000000000000000000e+00
1.181000000000000000e+03,-8.710339390431178774e-01,0.000000000000000000e+00
1.182000000000000000e+03,-1.766034668364908078e-01,0.000000000000000000e+00
1.183000000000000000e+03,-7.163791633242609924e-01,0.000000000000000000e+00
1.184000000000000000e+03,-2.478104937214441195e-02,0.000000000000000000e+00
1.185000000000000000e+03,-1.423265278434866499e-01,0.000000000000000000e+00
1.186000000000000000e+03,-7.490818566854388072e-01,0.000000000000000000e+00
1.187000000000000000e+03,-3.325443649326558782e-01,0.000000000000000000e+00
1.188000000000000000e+03,-3.814796449379019849e-01,0.000000000000000000e+00
1.189000000000000000e+03,-4.946951380450523295e-02,0.000000000000000000e+00
1.190000000000000000e+03,-4.037747040157190215e-01,0.000000000000000000e+00
1.191000000000000000e+03,-3.767475807292469114e-01,0.000000000000000000e+00
1.192000000000000000e+03,-5.498202507684347706e-01,0.000000000000000000e+00
1.193000000000000000e+03,-1.578701725025127289e-01,0.000000000000000000e+00
1.194000000000000000e+03,1.595274265662307081e-02,0.000000000000000000e+00
1.195000000000000000e+03,-2.740437957301252725e-01,0.000000000000000000e+00
1.196000000000000000e+03,-1.037304857314376993e-01,0.000000000000000000e+00
1.197000000000000000e+03,-4.476371208277177272e-02,0.000000000000000000e+00
1.198000000000000000e+03,6.785917093845292292e-02,0.000000000000000000e+00
1.199000000000000000e+03,9.624907952669266298e-02,0.000000000000000000e+00
1.200000000000000000e+03,-1.142598768015695015e-01,0.000000000000000000e+00
1.201000000000000000e+03,-5.469659980841672792e-02,0.000000000000000000e+00
1.202000000000000000e+03,4.535163018480930369e-02,0.000000000000000000e+00
1.203000000000000000e+03,2.219326309164650624e-01,0.000000000000000000e+00
1.204000000000000000e+03,1.113623067918788345e-01,0.000000000000000000e+00
1.205000000000000000e+03,4.519220676703446238e-02,0.000000000000000000e+00
1.206000000000000000e+03,3.290095353702230940e-01,0.000000000000000000e+00
1.207000000000000000e+03,3.507443132965822885e-01,0.000000000000000000e+00
1.208000000000000000e+03,6.541045726185471532e-01,0.000000000000000000e+00
1.209000000000000000e+03,2.495201519413793867e-01,0.000000000000000000e+00
1.210000000000000000e+03,5.213494607173810996e-02,0.000000000000000000e+00
1.211000000000000000e+03,-6.028514397546166359e-01,0.000000000000000000e+00
1.212000000000000000e+03,9.917962389312594551e-01,0.000000000000000000e+00
1.213000000000000000e+03,4.648092847273004757e+00,0.000000000000000000e+00
1.214000000000000000e+03,1.048801964095074313e+00,1.000000000000000000e+00
1.215000000000000000e+03,-1.080850785070768039e+00,0.000000000000000000e+00
1.216000000000000000e+03,-1.245581242161448499e+00,0.000000000000000000e+00
1.217000000000000000e+03,-4.472624461595985368e-01,0.000000000000000000e+00
1.218000000000000000e+03,-1.256432952819644511e+00,0.000000000000000000e+00
1.219000000000000000e+03,-5.508358169356121214e-01,0.000000000000000000e+00
1.220000000000000000e+03,-5.994506028340367276e-01,0.000000000000000000e+00
1.221000000000000000e+03,-8.334876597105883578e-01,0.000000000000000000e+00
1.222000000000000000e+03,-2.764010855788587295e-01,0.000000000000000000e+00
1.223000000000000000e+03,-3.559400142531117250e-01,0.000000000000000000e+00
1.224000000000000000e+03,-2.997347397708535754e-01,0.000000000000000000e+00
1.225000000000000000e+03,2.004472391014900379e-01,0.000000000000000000e+00
1.226000000000000000e+03,4.218217882080140257e-01,0.000000000000000000e+00
1.227000000000000000e+03,9.323681781273519542e-01,0.000000000000000000e+00
1.228000000000000000e+03,6.265588834018308573e-01,0.000000000000000000e+00
1.229000000000000000e+03,8.166364705921692613e-01,0.000000000000000000e+00
1.230000000000000000e+03,5.101964604774997247e-02,0.000000000000000000e+00
1.231000000000000000e+03,-6.315522061756625449e-01,0.000000000000000000e+00
1.232000000000000000e+03,-7.994324551439315751e-01,0.000000000000000000e+00
1.233000000000000000e+03,-1.023516861870499062e+00,0.000000000000000000e+00
1.234000000000000000e+03,-9.132971701073570037e-01,0.000000000000000000e+00
1.235000000000000000e+03,-8.474664478693700875e-01,0.000000000000000000e+00
1.236000000000000000e+03,-1.055814728952624071e+00,0.000000000000000000e+00
1.237000000000000000e+03,-6.016063399114069954e-01,0.000000000000000000e+00
1.238000000000000000e+03,-4.947140861649869104e-01,0.000000000000000000e+00
1.239000000000000000e+03,-3.714885623473790366e-01,0.000000000000000000e+00
1.240000000000000000e+03,-1.844852081876948713e-01,0.000000000000000000e+00
1.241000000000000000e+03,4.830448978123467324e-02,0.000000000000000000e+00
1.242000000000000000e+03,-7.986925208680795141e-02,0.000000000000000000e+00
1.243000000000000000e+03,-3.519319856125457946e-01,0.000000000000000000e+00
1.244000000000000000e+03,2.191319317542282374e-01,0.000000000000000000e+00
1.245000000000000000e+03,-6.322321911159226593e-01,0.000000000000000000e+00
1.246000000000000000e+03,3.803312422704737128e-01,0.000000000000000000e+00
1.247000000000000000e+03,-3.572956056432467081e-02,0.000000000000000000e+00
1.248000000000000000e+03,-2.194970965013952890e-01,0.000000000000000000e+00
1.249000000000000000e+03,3.667054642972610856e-01,0.000000000000000000e+00
1.250000000000000000e+03,-5.588674850560348267e-02,0.000000000000000000e+00
1.251000000000000000e+03,9.423355932526422674e-02,0.000000000000000000e+00
1.252000000000000000e+03,-1.544050891369037615e-01,0.000000000000000000e+00
1.253000000000000000e+03,5.211503785081669227e-01,0.000000000000000000e+00
1.254000000000000000e+03,-1.270263511564574677e-01,0.000000000000000000e+00
1.255000000000000000e+03,2.790885118749507066e-01,0.000000000000000000e+00
1.256000000000000000e+03,6.880854294122709658e-02,0.000000000000000000e+00
1.257000000000000000e+03,2.616284792634781531e-01,0.000000000000000000e+00
1.258000000000000000e+03,4.125236481043654257e-01,0.000000000000000000e+00
1.259000000000000000e+03,6.271864363269403775e-01,0.000000000000000000e+00
1.260000000000000000e+03,6.289113698050411427e-01,0.000000000000000000e+00
1.261000000000000000e+03,3.791314786438906848e-01,0.000000000000000000e+00
1.262000000000000000e+03,8.513238864794381300e-01,0.000000000000000000e+00
1.263000000000000000e+03,1.059199430319763824e+00,0.000000000000000000e+00
1.264000000000000000e+03,2.004515946253304925e-01,0.000000000000000000e+00
1.265000000000000000e+03,2.611277194391220524e-01,0.000000000000000000e+00
1.266000000000000000e+03,1.133795452372701462e-01,0.000000000000000000e+00
1.267000000000000000e+03,2.678420565639994422e+00,0.000000000000000000e+00
1.268000000000000000e+03,4.362540412893627817e+00,0.000000000000000000e+00
1.269000000000000000e+03,2.109794192511898481e-01,1.000000000000000000e+00
1.270000000000000000e+03,-9.653903903057227120e-01,0.000000000000000000e+00
1.271000000000000000e+03,-7.697749591738666242e-01,0.000000000000000000e+00
1.272000000000000000e+03,-4.346693853599180590e-01,0.000000000000000000e+00
1.273000000000000000e+03,-8.138730992236448136e-01,0.000000000000000000e+00
1.274000000000000000e+03,-1.099554319989721474e-01,0.000000000000000000e+00
1.275000000000000000e+03,-5.517585147904869869e-01,0.000000000000000000e+00
1.276000000000000000e+03,-3.954855555084063612e-01,0.000000000000000000e+00
1.277000000000000000e+03,-1.904693891656525639e-01,0.000000000000000000e+00
1.278000000000000000e+03,-2.640026879888611733e-01,0.000000000000000000e+00
1.279000000000000000e+03,-9.420884715438790358e-02,0.000000000000000000e+00
1.280000000000000000e+03,3.499298881007450457e-01,0.000000000000000000e+00
1.281000000000000000e+03,4.771627619486830674e-01,0.000000000000000000e+00
1.282000000000000000e+03,8.046803178328062467e-01,0.000000000000000000e+00
1.283000000000000000e+03,1.026732280547340226e+00,0.000000000000000000e+00
1.284000000000000000e+03,7.246642069871177538e-01,0.000000000000000000e+00
1.285000000000000000e+03,-7.739250249907970725e-01,0.000000000000000000e+00
1.286000000000000000e+03,-6.005585089220972783e-01,0.000000000000000000e+00
1.287000000000000000e+03,-9.488351694736093522e-01,0.000000000000000000e+00
1.288000000000000000e+03,-1.135928390652937603e+00,0.000000000000000000e+00
1.289000000000000000e+03,-5.817940509400316706e-01,0.000000000000000000e+00
1.290000000000000000e+03,-1.271156632671105013e+00,0.000000000000000000e+00
1.291000000000000000e+03,-6.865863732505863570e-01,0.000000000000000000e+00
1.292000000000000000e+03,-6.560116161829411263e-01,0.000000000000000000e+00
1.293000000000000000e+03,-4.018464757201280491e-01,0.000000000000000000e+00
1.294000000000000000e+03,-2.983128361218939650e-01,0.000000000000000000e+00
1.295000000000000000e+03,6.449216598229183528e-02,0.000000000000000000e+00
1.296000000000000000e+03,-3.080933538530705174e-01,0.000000000000000000e+00
1.297000000000000000e+03,-7.341420573491286294e-02,0.000000000000000000e+00
1.298000000000000000e+03,3.324507333300070339e-02,0.000000000000000000e+00
1.299000000000000000e+03,6.721150201734292506e-02,0.000000000000000000e+00
1.300000000000000000e+03,-2.533420767369182203e-01,0.000000000000000000e+00
1.301000000000000000e+03,-1.478962988199959139e-01,0.000000000000000000e+00
1.302000000000000000e+03,-1.747214663715065397e-01,0.000000000000000000e+00
1.303000000000000000e+03,1.340666076074890911e-01,0.000000000000000000e+00
1.304000000000000000e+03,-2.228569250336949192e-01,0.000000000000000000e+00
1.305000000000000000e+03,-1.969524984835497039e-01,0.000000000000000000e+00
1.306000000000000000e+03,2.540668147578941105e-01,0.000000000000000000e+00
1.307000000000000000e+03,-3.722779689722051089e-01,0.000000000000000000e+00
1.308000000000000000e+03,3.944711232944739243e-01,0.000000000000000000e+00
1.309000000000000000e+03,-2.795947903296363557e-01,0.000000000000000000e+00
1.310000000000000000e+03,1.868894093213196161e-01,0.000000000000000000e+00
1.311000000000000000e+03,-1.716332634747450014e-02,0.000000000000000000e+00
1.312000000000000000e+03,3.449723527273886869e-01,0.000000000000000000e+00
1.313000000000000000e+03,-6.823820631271532156e-02,0.000000000000000000e+00
1.314000000000000000e+03,2.478564346699636545e-01,0.000000000000000000e+00
1.315000000000000000e+03,-4.400127238594132503e-03,0.000000000000000000e+00
1.316000000000000000e+03,3.434244355151496175e-01,0.000000000000000000e+00
1.317000000000000000e+03,3.578222495563799233e-01,0.000000000000000000e+00
1.318000000000000000e+03,2.571202229134871842e-01,0.000000000000000000e+00
1.319000000000000000e+03,6.884378225390884731e-01,0.000000000000000000e+00
1.320000000000000000e+03,5.725753171729640600e-01,0.000000000000000000e+00
1.321000000000000000e+03,-1.755184868674651844e-01,0.000000000000000000e+00
1.322000000000000000e+03,-9.344052430322194458e-02,0.000000000000000000e+00
1.323000000000000000e+03,1.135989767422415309e+00,0.000000000000000000e+00
1.324000000000000000e+03,4.712705310238704648e+00,0.000000000000000000e+00
1.325000000000000000e+03,1.491007329833940132e+00,1.000000000000000000e+00
1.326000000000000000e+03,-1.162742317261235669e+00,0.000000000000000000e+00
1.327000000000000000e+03,-9.894475321993929651e-01,0.000000000000000000e+00
1.328000000000000000e+03,-9.618570495085618788e-01,0.000000000000000000e+00
1.329000000000000000e+03,-7.766336528957419327e-01,0.000000000000000000e+00
1.330000000000000000e+03,-8.627231413818078343e-01,0.000000000000000000e+00
1.331000000000000000e+03,-4.303171818350822186e-01,0.000000000000000000e+00
1.332000000000000000e+03,-8.662061580113888937e-01,0.000000000000000000e+00
1.333000000000000000e+03,-4.426146434609621316e-01,0.000000000000000000e+00
1.334000000000000000e+03,-2.464503160767785306e-01,0.000000000000000000e+00
1.335000000000000000e+03,-2.405442383510040250e-01,0.000000000000000000e+00
1.336000000000000000e+03,3.677128154182925379e-01,0.000000000000000000e+00
1.337000000000000000e+03,1.970195756697981360e-01,0.000000000000000000e+00
1.338000000000000000e+03,4.370670119683448540e-01,0.000000000000000000e+00
1.339000000000000000e+03,1.092784388060164869e+00,0.000000000000000000e+00
1.340000000000000000e+03,9.872457133647351002e-01,0.000000000000000000e+00
1.341000000000000000e+03,2.515596689603592506e-01,0.000000000000000000e+00
1.342000000000000000e+03,-2.665963652754190782e-01,0.000000000000000000e+00
1.343000000000000000e+03,-1.181461038696489885e+00,0.000000000000000000e+00
1.344000000000000000e+03,-5.809939330278961478e-01,0.000000000000000000e+00
1.345000000000000000e+03,-3.821748005856897556e-01,0.000000000000000000e+00
1.346000000000000000e+03,-1.040940587471931078e+00,0.000000000000000000e+00
1.347000000000000000e+03,-2.770906855454776663e-01,0.000000000000000000e+00
1.348000000000000000e+03,-7.228192733677962778e-01,0.000000000000000000e+00
1.349000000000000000e+03,-4.945128135311622208e-01,0.000000000000000000e+00
1.350000000000000000e+03,-1.381223104388721867e-01,0.000000000000000000e+00
1.351000000000000000e+03,-4.500394077169905249e-01,0.000000000000000000e+00
1.352000000000000000e+03,-2.148917230912163467e-01,0.000000000000000000e+00
1.353000000000000000e+03,-2.439344362302810765e-01,0.000000000000000000e+00
1.354000000000000000e+03,-2.024454101852971311e-01,0.000000000000000000e+00
1.355000000000000000e+03,3.237926032207893434e-01,0.000000000000000000e+00
1.356000000000000000e+03,-8.996812500689593817e-02,0.000000000000000000e+00
1.357000000000000000e+03,8.158571857004695560e-02,0.000000000000000000e+00
1.358000000000000000e+03,-1.607567116196743640e-01,0.000000000000000000e+00
1.359000000000000000e+03,6.051521889458707885e-03,0.000000000000000000e+00
1.360000000000000000e+03,2.457021218608563817e-01,0.000000000000000000e+00
1.361000000000000000e+03,-1.885255537338327569e-02,0.000000000000000000e+00
1.362000000000000000e+03,-5.908102639037519227e-03,0.000000000000000000e+00
1.363000000000000000e+03,3.098886404734787492e-01,0.000000000000000000e+00
1.364000000000000000e+03,-2.890599380272897423e-01,0.000000000000000000e+00
1.365000000000000000e+03,5.596700929176443573e-01,0.000000000000000000e+00
1.366000000000000000e+03,-4.899025174599087179e-02,0.000000000000000000e+00
1.367000000000000000e+03,2.295828950210478392e-01,0.000000000000000000e+00
1.368000000000000000e+03,-2.129562660036179722e-01,0.000000000000000000e+00
1.369000000000000000e+03,2.219378275128196243e-01,0.000000000000000000e+00
1.370000000000000000e+03,4.440726281606424686e-03,0.000000000000000000e+00
1.371000000000000000e+03,1.536425967338169440e-01,0.000000000000000000e+00
1.372000000000000000e+03,1.068773498626807983e-01,0.000000000000000000e+00
1.373000000000000000e+03,2.231627592303447594e-01,0.000000000000000000e+00
1.374000000000000000e+03,3.075199292068725790e-02,0.000000000000000000e+00
1.375000000000000000e+03,5.121942115973725507e-01,0.000000000000000000e+00
1.376000000000000000e+03,3.427996206398840617e-01,0.000000000000000000e+00
1.377000000000000000e+03,6.919323624623383573e-01,0.000000000000000000e+00
1.378000000000000000e+03,-3.359802548647913834e-01,0.000000000000000000e+00
1.379000000000000000e+03,-2.214950958166828354e-01,0.000000000000000000e+00
1.380000000000000000e+03,2.380140711552594102e-01,0.000000000000000000e+00
1.381000000000000000e+03,3.594069346638809392e+00,0.000000000000000000e+00
1.382000000000000000e+03,3.232185913981696856e+00,0.000000000000000000e+00
1.383000000000000000e+03,-8.384086950724913834e-01,1.000000000000000000e+00
1.384000000000000000e+03,-1.083546296021616229e+00,0.000000000000000000e+00
1.385000000000000000e+03,-9.768353976418433504e-01,0.000000000000000000e+00
1.386000000000000000e+03,-1.135878347830028279e+00,0.000000000000000000e+00
1.387000000000000000e+03,-1.044759320023116667e+00,0.000000000000000000e+00
1.388000000000000000e+03,-7.701094574523515979e-01,0.000000000000000000e+00
1.389000000000000000e+03,-8.571934076950400438e-01,0.000000000000000000e+00
1.390000000000000000e+03,-7.665240570492347638e-01,0.000000000000000000e+00
1.391000000000000000e+03,-4.217106984121657964e-01,0.000000000000000000e+00
1.392000000000000000e+03,-5.789999326757165887e-01,0.000000000000000000e+00
1.393000000000000000e+03,-1.964805700013378120e-01,0.000000000000000000e+00
1.394000000000000000e+03,-3.824408712644595393e-02,0.000000000000000000e+00
1.395000000000000000e+03,3.894731633864867981e-01,0.000000000000000000e+00
1.396000000000000000e+03,8.309331375740529602e-01,0.000000000000000000e+00
1.397000000000000000e+03,7.943048097592573242e-01,0.000000000000000000e+00
1.398000000000000000e+03,5.437304951655086427e-01,0.000000000000000000e+00
1.399000000000000000e+03,-3.891960421541139081e-01,0.000000000000000000e+00
1.400000000000000000e+03,-7.351718035888630265e-01,0.000000000000000000e+00
1.401000000000000000e+03,-7.462518085264038259e-01,0.000000000000000000e+00
1.402000000000000000e+03,-7.438271507767463264e-01,0.000000000000000000e+00
1.403000000000000000e+03,-7.267874617515656110e-01,0.000000000000000000e+00
1.404000000000000000e+03,-7.593819780353349147e-01,0.000000000000000000e+00
1.405000000000000000e+03,-4.788418325244367946e-01,0.000000000000000000e+00
1.406000000000000000e+03,-3.943742305896087985e-01,0.000000000000000000e+00
1.407000000000000000e+03,-2.998262626550052823e-01,0.000000000000000000e+00
1.408000000000000000e+03,-1.402846666951302612e-01,0.000000000000000000e+00
1.409000000000000000e+03,-2.670718594131661350e-01,0.000000000000000000e+00
1.410000000000000000e+03,2.365271177438771355e-02,0.000000000000000000e+00
1.411000000000000000e+03,-1.473997798494993405e-01,0.000000000000000000e+00
1.412000000000000000e+03,5.130326460820620188e-02,0.000000000000000000e+00
1.413000000000000000e+03,-1.552656319990910194e-01,0.000000000000000000e+00
1.414000000000000000e+03,1.625533985269448853e-02,0.000000000000000000e+00
1.415000000000000000e+03,2.311429412329371880e-01,0.000000000000000000e+00
1.416000000000000000e+03,1.351248720607267084e-01,0.000000000000000000e+00
1.417000000000000000e+03,-5.117707068674830911e-02,0.000000000000000000e+00
1.418000000000000000e+03,4.033136226932994006e-01,0.000000000000000000e+00
1.419000000000000000e+03,-1.248562850361819264e-02,0.000000000000000000e+00
1.420000000000000000e+03,4.641449317023520482e-01,0.000000000000000000e+00
1.421000000000000000e+03,3.329278428225826425e-01,0.000000000000000000e+00
1.422000000000000000e+03,1.798599640301967451e-01,0.000000000000000000e+00
1.423000000000000000e+03,5.728048240117552536e-01,0.000000000000000000e+00
1.424000000000000000e+03,-2.620971778402826982e-02,0.000000000000000000e+00
1.425000000000000000e+03,3.344120681913215765e-01,0.000000000000000000e+00
1.426000000000000000e+03,6.071744122806917998e-01,0.000000000000000000e+00
1.427000000000000000e+03,6.503445704919735837e-01,0.000000000000000000e+00
1.428000000000000000e+03,2.248526049879694122e-01,0.000000000000000000e+00
1.429000000000000000e+03,3.678170065351901719e-01,0.000000000000000000e+00
1.430000000000000000e+03,2.323794082636668479e-01,0.000000000000000000e+00
1.431000000000000000e+03,6.514437197514096889e-01,0.000000000000000000e+00
1.432000000000000000e+03,4.880972637202458664e-01,0.000000000000000000e+00
1.433000000000000000e+03,6.202439785275669637e-01,0.000000000000000000e+00
1.434000000000000000e+03,7.743216129712157114e-01,0.000000000000000000e+00
1.435000000000000000e+03,6.430846771984524146e-01,0.000000000000000000e+00
1.436000000000000000e+03,-1.603926558412376302e-01,0.000000000000000000e+00
1.437000000000000000e+03,3.691921877964612908e-01,0.000000000000000000e+00
1.438000000000000000e+03,2.024055847888922288e-01,0.000000000000000000e+00
1.439000000000000000e+03,4.612807136241331207e+00,0.000000000000000000e+00
1.440000000000000000e+03,2.272574414376366647e+00,1.000000000000000000e+00
1.441000000000000000e+03,-1.161244456979767081e+00,0.000000000000000000e+00
1.442000000000000000e+03,-8.795805333586317332e-01,0.000000000000000000e+00
1.443000000000000000e+03,-8.617089024659541074e-01,0.000000000000000000e+00
1.444000000000000000e+03,-9.283478907395593671e-01,0.000000000000000000e+00
1.445000000000000000e+03,-1.178104859401847948e+00,0.000000000000000000e+00
1.446000000000000000e+03,-5.334593015025531626e-01,0.000000000000000000e+00
1.447000000000000000e+03,-9.309497820216321440e-01,0.000000000000000000e+00
1.448000000000000000e+03,-3.613574012139638136e-01,0.000000000000000000e+00
1.449000000000000000e+03,-4.780979067282820627e-01,0.000000000000000000e+00
1.450000000000000000e+03,-5.080319400678330322e-01,0.000000000000000000e+00
1.451000000000000000e+03,-1.643286734442954700e-01,0.000000000000000000e+00
1.452000000000000000e+03,3.587334655509024084e-01,0.000000000000000000e+00
1.453000000000000000e+03,6.820391798813174589e-01,0.000000000000000000e+00
1.454000000000000000e+03,6.417673446093697942e-01,0.000000000000000000e+00
1.455000000000000000e+03,9.498735593528808696e-01,0.000000000000000000e+00
1.456000000000000000e+03,3.041919335482707876e-01,0.000000000000000000e+00
1.457000000000000000e+03,-2.307867769688261017e-01,0.000000000000000000e+00
1.458000000000000000e+03,-8.238779402278871844e-01,0.000000000000000000e+00
1.459000000000000000e+03,-1.061442262779721535e+00,0.000000000000000000e+00
1.460000000000000000e+03,-1.093464295479010140e+00,0.000000000000000000e+00
1.461000000000000000e+03,-6.525343216375721900e-01,0.000000000000000000e+00
1.462000000000000000e+03,-8.361716754995817125e-01,0.000000000000000000e+00
1.463000000000000000e+03,-5.940558930818312655e-01,0.000000000000000000e+00
1.464000000000000000e+03,-4.635174049522964301e-01,0.000000000000000000e+00
1.465000000000000000e+03,-3.829623045233747636e-01,0.000000000000000000e+00
1.466000000000000000e+03,-5.469227988418364772e-01,0.000000000000000000e+00
1.467000000000000000e+03,7.801872602545550407e-03,0.000000000000000000e+00
1.468000000000000000e+03,-9.605165792188027907e-02,0.000000000000000000e+00
1.469000000000000000e+03,-3.771451383980409244e-01,0.000000000000000000e+00
1.470000000000000000e+03,-2.061532767361016205e-01,0.000000000000000000e+00
1.471000000000000000e+03,-1.484870748902744342e-01,0.000000000000000000e+00
1.472000000000000000e+03,-4.827687723490796112e-01,0.000000000000000000e+00
1.473000000000000000e+03,-2.240450379513805323e-01,0.000000000000000000e+00
1.474000000000000000e+03,1.245265453038775158e-02,0.000000000000000000e+00
1.475000000000000000e+03,-2.599282138360923811e-01,0.000000000000000000e+00
1.476000000000000000e+03,1.791982649282901352e-01,0.000000000000000000e+00
1.477000000000000000e+03,-2.315981616196536308e-01,0.000000000000000000e+00
1.478000000000000000e+03,-2.075999606456412072e-01,0.000000000000000000e+00
1.479000000000000000e+03,1.397726729481121588e-01,0.000000000000000000e+00
1.480000000000000000e+03,3.477144244312905808e-01,0.000000000000000000e+00
1.481000000000000000e+03,-1.807319893515127451e-01,0.000000000000000000e+00
1.482000000000000000e+03,1.008213452283159423e-01,0.000000000000000000e+00
1.483000000000000000e+03,2.446562919978163830e-02,0.000000000000000000e+00
1.484000000000000000e+03,-1.143143416355404812e-01,0.000000000000000000e+00
1.485000000000000000e+03,8.848665147047461710e-02,0.000000000000000000e+00
1.486000000000000000e+03,2.647313987545749647e-01,0.000000000000000000e+00
1.487000000000000000e+03,1.403014132796949198e-01,0.000000000000000000e+00
1.488000000000000000e+03,1.725193778966763181e-02,0.000000000000000000e+00
1.489000000000000000e+03,3.906458250163327706e-02,0.000000000000000000e+00
1.490000000000000000e+03,4.757033546967612825e-01,0.000000000000000000e+00
1.491000000000000000e+03,6.351832312888984200e-01,0.000000000000000000e+00
1.492000000000000000e+03,4.367580458985897973e-01,0.000000000000000000e+00
1.493000000000000000e+03,-1.096076346227623372e-01,0.000000000000000000e+00
1.494000000000000000e+03,-1.830734465068892813e-01,0.000000000000000000e+00
1.495000000000000000e+03,2.336056815129434194e-01,0.000000000000000000e+00
1.496000000000000000e+03,3.868231177506670893e+00,0.000000000000000000e+00
1.497000000000000000e+03,3.005380031299940136e+00,1.000000000000000000e+00
1.498000000000000000e+03,-8.772359472275627068e-01,0.000000000000000000e+00
1.499000000000000000e+03,-1.006137759382567998e+00,0.000000000000000000e+00
1.500000000000000000e+03,-9.156416428109890315e-01,0.000000000000000000e+00
1.501000000000000000e+03,-1.148826957881907029e+00,0.000000000000000000e+00
1.502000000000000000e+03,-6.006397413228162785e-01,0.000000000000000000e+00
1.503000000000000000e+03,-9.061537615976682503e-01,0.000000000000000000e+00
1.504000000000000000e+03,-7.308749607074872534e-01,0.000000000000000000e+00
1.505000000000000000e+03,-2.227243924027991762e-01,0.000000000000000000e+00
1.506000000000000000e+03,-5.858218417899184738e-01,0.000000000000000000e+00
1.507000000000000000e+03,-1.838584146230592686e-01,0.000000000000000000e+00
1.508000000000000000e+03,2.809242282628034160e-02,0.000000000000000000e+00
1.509000000000000000e+03,1.652372599642499551e-01,0.000000000000000000e+00
1.510000000000000000e+03,6.522271223951562336e-01,0.000000000000000000e+00
1.511000000000000000e+03,9.407019856904104138e-01,0.000000000000000000e+00
1.512000000000000000e+03,9.524819880715552634e-01,0.000000000000000000e+00
1.513000000000000000e+03,6.445365734458334828e-01,0.000000000000000000e+00
1.514000000000000000e+03,-1.335470885072171932e-01,0.000000000000000000e+00
1.515000000000000000e+03,-5.556126109221316556e-01,0.000000000000000000e+00
1.516000000000000000e+03,-7.889039337877916669e-01,0.000000000000000000e+00
1.517000000000000000e+03,-5.924519021881509140e-01,0.000000000000000000e+00
1.518000000000000000e+03,-5.756301227514692975e-01,0.000000000000000000e+00
1.519000000000000000e+03,-5.363345844174696175e-01,0.000000000000000000e+00
1.520000000000000000e+03,-3.111919208755600796e-01,0.000000000000000000e+00
1.521000000000000000e+03,-5.009860704747899351e-01,0.000000000000000000e+00
1.522000000000000000e+03,1.064350663842087985e-01,0.000000000000000000e+00
1.523000000000000000e+03,4.681520261304440711e-02,0.000000000000000000e+00
1.524000000000000000e+03,4.488589684705723143e-02,0.000000000000000000e+00
1.525000000000000000e+03,9.879800535081623147e-02,0.000000000000000000e+00
1.526000000000000000e+03,-4.151054424677562138e-01,0.000000000000000000e+00
1.527000000000000000e+03,3.841554479086026208e-01,0.000000000000000000e+00
1.528000000000000000e+03,7.925362980384116629e-02,0.000000000000000000e+00
1.529000000000000000e+03,-1.365586032358243225e-02,0.000000000000000000e+00
1.530000000000000000e+03,9.621867864739479248e-02,0.000000000000000000e+00
1.531000000000000000e+03,-3.133480917809774446e-01,0.000000000000000000e+00
1.532000000000000000e+03,5.580869211268857030e-03,0.000000000000000000e+00
1.533000000000000000e+03,2.465936767132806962e-01,0.000000000000000000e+00
1.534000000000000000e+03,-3.908447568791327820e-01,0.000000000000000000e+00
1.535000000000000000e+03,2.759698608621903304e-01,0.000000000000000000e+00
1.536000000000000000e+03,-4.685372546429459328e-01,0.000000000000000000e+00
1.537000000000000000e+03,-3.601402162777334048e-01,0.000000000000000000e+00
1.538000000000000000e+03,6.403381089598435272e-02,0.000000000000000000e+00
1.539000000000000000e+03,5.243326125593383152e-02,0.000000000000000000e+00
1.540000000000000000e+03,6.641396265402767229e-02,0.000000000000000000e+00
1.541000000000000000e+03,-3.619885901442035370e-01,0.000000000000000000e+00
1.542000000000000000e+03,-1.575575930927824303e-02,0.000000000000000000e+00
1.543000000000000000e+03,-1.227653036119016189e-01,0.000000000000000000e+00
1.544000000000000000e+03,4.967103304797020752e-02,0.000000000000000000e+00
1.545000000000000000e+03,1.001806681733736631e-01,0.000000000000000000e+00
1.546000000000000000e+03,-1.355920965442269643e-01,0.000000000000000000e+00
1.547000000000000000e+03,-4.908276256140446658e-02,0.000000000000000000e+00
1.548000000000000000e+03,3.594631157715556524e-01,0.000000000000000000e+00
1.549000000000000000e+03,7.132278865079362262e-01,0.000000000000000000e+00
1.550000000000000000e+03,-2.075389684446169447e-01,0.000000000000000000e+00
1.551000000000000000e+03,-8.192230764549972288e-02,0.000000000000000000e+00
1.552000000000000000e+03,-4.268341189918615219e-01,0.000000000000000000e+00
1.553000000000000000e+03,2.285560550445680406e+00,0.000000000000000000e+00
1.554000000000000000e+03,4.733425665690032424e+00,0.000000000000000000e+00
1.555000000000000000e+03,1.137218524234173550e-01,1.000000000000000000e+00
1.556000000000000000e+03,-1.323332813936754171e+00,0.000000000000000000e+00
1.557000000000000000e+03,-8.690931280898295253e-01,0.000000000000000000e+00
1.558000000000000000e+03,-1.159460691315308267e+00,0.000000000000000000e+00
1.559000000000000000e+03,-9.595226022352307815e-01,0.000000000000000000e+00
1.560000000000000000e+03,-6.149284430764930809e-01,0.000000000000000000e+00
1.561000000000000000e+03,-9.729202949871949002e-01,0.000000000000000000e+00
1.562000000000000000e+03,-2.573937562947871127e-01,0.000000000000000000e+00
1.563000000000000000e+03,-3.695133941445505332e-01,0.000000000000000000e+00
1.564000000000000000e+03,-3.173469000544322238e-01,0.000000000000000000e+00
1.565000000000000000e+03,2.612112311144091925e-01,0.000000000000000000e+00
1.566000000000000000e+03,-7.894235167845052581e-02,0.000000000000000000e+00
1.567000000000000000e+03,7.396984532841927029e-01,0.000000000000000000e+00
1.568000000000000000e+03,1.153317673788007092e+00,0.000000000000000000e+00
1.569000000000000000e+03,8.638165684638859920e-01,0.000000000000000000e+00
1.570000000000000000e+03,8.021125609305701509e-01,0.000000000000000000e+00
1.571000000000000000e+03,4.887483108008920385e-01,0.000000000000000000e+00
1.572000000000000000e+03,-1.726173239477098720e-01,0.000000000000000000e+00
1.573000000000000000e+03,-4.379142139758783192e-01,0.000000000000000000e+00
1.574000000000000000e+03,-5.223729615788064162e-01,0.000000000000000000e+00
1.575000000000000000e+03,-4.709047767083279212e-01,0.000000000000000000e+00
1.576000000000000000e+03,-7.139793621381299582e-01,0.000000000000000000e+00
1.577000000000000000e+03,-3.417689653033009201e-01,0.000000000000000000e+00
1.578000000000000000e+03,-1.003828027806031448e-01,0.000000000000000000e+00
1.579000000000000000e+03,-4.324310662449571407e-01,0.000000000000000000e+00
1.580000000000000000e+03,9.333366466253364968e-02,0.000000000000000000e+00
1.581000000000000000e+03,-2.087027217702141502e-01,0.000000000000000000e+00
1.582000000000000000e+03,1.261707363500036427e-01,0.000000000000000000e+00
1.583000000000000000e+03,1.887660096587418304e-02,0.000000000000000000e+00
1.584000000000000000e+03,-1.129945279329298558e-01,0.000000000000000000e+00
1.585000000000000000e+03,-8.627454831127933516e-03,0.000000000000000000e+00
1.586000000000000000e+03,5.102057816788706235e-02,0.000000000000000000e+00
