timestamp,ecg_measurement,qrs_detected
0.000000000000000000e+00,1.096366890697099805e+00,0.000000000000000000e+00
1.000000000000000000e+00,6.113325549583435992e-01,0.000000000000000000e+00
2.000000000000000000e+00,4.505290984490046280e-01,0.000000000000000000e+00
3.000000000000000000e+00,1.915934285685931071e-03,0.000000000000000000e+00
4.000000000000000000e+00,2.497042556897162979e-01,0.000000000000000000e+00
5.000000000000000000e+00,3.752250413480233693e-01,0.000000000000000000e+00
6.000000000000000000e+00,1.161314850624220574e+00,0.000000000000000000e+00
7.000000000000000000e+00,1.179444341882871283e+00,1.000000000000000000e+00
8.000000000000000000e+00,9.150737981283000311e-01,0.000000000000000000e+00
9.000000000000000000e+00,5.684771818368671292e-01,0.000000000000000000e+00
1.000000000000000000e+01,8.452123667613167801e-02,0.000000000000000000e+00
1.100000000000000000e+01,1.585892265682046776e-01,0.000000000000000000e+00
1.200000000000000000e+01,-9.664352966756228902e-02,0.000000000000000000e+00
1.300000000000000000e+01,7.903637602178428256e-01,0.000000000000000000e+00
1.400000000000000000e+01,7.785671353428483821e-01,0.000000000000000000e+00
1.500000000000000000e+01,1.282767916443918077e+00,0.000000000000000000e+00
1.600000000000000000e+01,1.007467138254362293e+00,0.000000000000000000e+00
1.700000000000000000e+01,6.245433117728061978e-01,0.000000000000000000e+00
1.800000000000000000e+01,3.503534355120980215e-01,0.000000000000000000e+00
1.900000000000000000e+01,-1.005335635695483731e-01,0.000000000000000000e+00
2.000000000000000000e+01,-2.350948829967345888e-01,0.000000000000000000e+00
2.100000000000000000e+01,-1.442884451900594278e-01,0.000000000000000000e+00
2.200000000000000000e+01,5.451867340957401720e-02,0.000000000000000000e+00
2.300000000000000000e+01,2.767724551624207163e-01,0.000000000000000000e+00
2.400000000000000000e+01,7.549038260589558957e-01,0.000000000000000000e+00
2.500000000000000000e+01,2.524314438135029648e-01,0.000000000000000000e+00
2.600000000000000000e+01,4.181793409858341470e-01,0.000000000000000000e+00
2.700000000000000000e+01,-2.826807463416355359e-01,0.000000000000000000e+00
2.800000000000000000e+01,1.581783017828547466e-01,0.000000000000000000e+00
2.900000000000000000e+01,1.903610338801406121e-01,0.000000000000000000e+00
3.000000000000000000e+01,2.278754255418326657e+00,0.000000000000000000e+00
3.100000000000000000e+01,-1.253588429908629065e+00,0.000000000000000000e+00
3.200000000000000000e+01,-1.553038093114148976e+00,0.000000000000000000e+00
3.300000000000000000e+01,2.199922197083387321e+00,0.000000000000000000e+00
3.400000000000000000e+01,-8.375648608341148549e-01,0.000000000000000000e+00
3.500000000000000000e+01,-1.319457227434944313e+00,0.000000000000000000e+00
3.600000000000000000e+01,-8.536454188349458239e-01,0.000000000000000000e+00
3.700000000000000000e+01,-8.969696493081669164e-01,0.000000000000000000e+00
3.800000000000000000e+01,-3.151757337882303278e-01,0.000000000000000000e+00
3.900000000000000000e+01,-6.937266286349932365e-01,0.000000000000000000e+00
4.000000000000000000e+01,-1.412006552777214652e-01,0.000000000000000000e+00
4.100000000000000000e+01,-1.130732163252454597e-01,0.000000000000000000e+00
4.200000000000000000e+01,-7.578608654426220725e-02,0.000000000000000000e+00
4.300000000000000000e+01,-9.848234358019931911e-02,0.000000000000000000e+00
4.400000000000000000e+01,-4.447100177461866810e-01,0.000000000000000000e+00
4.500000000000000000e+01,-4.288666327138188628e-01,0.000000000000000000e+00
4.600000000000000000e+01,-3.058833516210574532e-01,0.000000000000000000e+00
4.700000000000000000e+01,-4.061740862395346596e-02,0.000000000000000000e+00
4.800000000000000000e+01,4.828811786480362578e-01,0.000000000000000000e+00
4.900000000000000000e+01,1.003918992562675250e+00,0.000000000000000000e+00
5.000000000000000000e+01,1.562093780885475125e+00,0.000000000000000000e+00
5.100000000000000000e+01,1.751593580216779911e+00,0.000000000000000000e+00
5.200000000000000000e+01,8.364057558464633724e-01,0.000000000000000000e+00
5.300000000000000000e+01,-2.742370640163719897e-01,0.000000000000000000e+00
5.400000000000000000e+01,-1.154719015940847360e+00,1.000000000000000000e+00
5.500000000000000000e+01,-2.206579084908801835e+00,0.000000000000000000e+00
5.600000000000000000e+01,-2.116897764946995775e+00,0.000000000000000000e+00
5.700000000000000000e+01,-2.331788233999993576e+00,0.000000000000000000e+00
5.800000000000000000e+01,-2.081311303091922582e+00,0.000000000000000000e+00
5.900000000000000000e+01,-2.341456264043494162e+00,0.000000000000000000e+00
6.000000000000000000e+01,-1.813209428469796158e+00,0.000000000000000000e+00
6.100000000000000000e+01,-1.335215554366622870e+00,0.000000000000000000e+00
6.200000000000000000e+01,-1.707807458192365901e+00,0.000000000000000000e+00
6.300000000000000000e+01,-1.246519621104887676e+00,0.000000000000000000e+00
6.400000000000000000e+01,-1.271897810325975930e+00,0.000000000000000000e+00
6.500000000000000000e+01,-6.378275142090745753e-01,0.000000000000000000e+00
6.600000000000000000e+01,-1.251188716436470783e+00,0.000000000000000000e+00
6.700000000000000000e+01,-1.090265298297119045e+00,0.000000000000000000e+00
6.800000000000000000e+01,-9.013519247213751528e-01,0.000000000000000000e+00
6.900000000000000000e+01,-4.386275702594081283e-01,0.000000000000000000e+00
7.000000000000000000e+01,-4.559953635335528555e-01,0.000000000000000000e+00
7.100000000000000000e+01,-3.100243808568960979e-01,0.000000000000000000e+00
7.200000000000000000e+01,-4.642996641004088626e-02,0.000000000000000000e+00
7.300000000000000000e+01,-2.286805824164772627e-01,0.000000000000000000e+00
7.400000000000000000e+01,-4.388619110273109802e-01,0.000000000000000000e+00
7.500000000000000000e+01,-1.558142118636212936e-01,0.000000000000000000e+00
7.600000000000000000e+01,2.094206126968644124e-02,0.000000000000000000e+00
7.700000000000000000e+01,9.718184985298158884e-02,0.000000000000000000e+00
7.800000000000000000e+01,4.877777821058308927e-01,0.000000000000000000e+00
7.900000000000000000e+01,5.701126143341800345e-01,0.000000000000000000e+00
8.000000000000000000e+01,6.278090003285139442e-01,0.000000000000000000e+00
8.100000000000000000e+01,4.967963003172545799e-01,0.000000000000000000e+00
8.200000000000000000e+01,8.366329112977477500e-02,0.000000000000000000e+00
8.300000000000000000e+01,2.548665527964321109e-01,0.000000000000000000e+00
8.400000000000000000e+01,9.002836456431294321e-02,0.000000000000000000e+00
8.500000000000000000e+01,5.831730566501680535e-01,0.000000000000000000e+00
8.600000000000000000e+01,4.893925055663147505e-01,0.000000000000000000e+00
8.700000000000000000e+01,7.203031654845579723e-01,0.000000000000000000e+00
8.800000000000000000e+01,5.126850513316683067e-01,0.000000000000000000e+00
8.900000000000000000e+01,7.374748647867021001e-01,0.000000000000000000e+00
9.000000000000000000e+01,9.537526754943943530e-01,0.000000000000000000e+00
9.100000000000000000e+01,4.943967184746198007e-01,0.000000000000000000e+00
9.200000000000000000e+01,9.185214228101757916e-01,0.000000000000000000e+00
9.300000000000000000e+01,6.490329037795204981e-01,0.000000000000000000e+00
9.400000000000000000e+01,1.211278767057970551e+00,0.000000000000000000e+00
9.500000000000000000e+01,3.161623172925907888e+00,0.000000000000000000e+00
9.600000000000000000e+01,-1.777143378574777555e-01,1.000000000000000000e+00
9.700000000000000000e+01,1.297175776772851119e+00,0.000000000000000000e+00
9.800000000000000000e+01,1.960476217674331778e+00,0.000000000000000000e+00
9.900000000000000000e+01,7.439301878999111661e-01,0.000000000000000000e+00
1.000000000000000000e+02,6.830160382786206741e-01,0.000000000000000000e+00
1.010000000000000000e+02,4.819589057408902311e-01,0.000000000000000000e+00
1.020000000000000000e+02,6.328353523731274598e-03,0.000000000000000000e+00
1.030000000000000000e+02,1.382330701111191551e-01,0.000000000000000000e+00
1.040000000000000000e+02,-2.104641201771406400e-01,0.000000000000000000e+00
1.050000000000000000e+02,1.960292555187539976e-01,0.000000000000000000e+00
1.060000000000000000e+02,3.457627168109368987e-01,0.000000000000000000e+00
1.070000000000000000e+02,7.029045262130227956e-01,0.000000000000000000e+00
1.080000000000000000e+02,3.796301910270425406e-01,0.000000000000000000e+00
1.090000000000000000e+02,5.918650011298713931e-01,0.000000000000000000e+00
1.100000000000000000e+02,7.119044421757114716e-01,0.000000000000000000e+00
1.110000000000000000e+02,4.855035543661401221e-01,0.000000000000000000e+00
1.120000000000000000e+02,1.224248262907966511e+00,0.000000000000000000e+00
1.130000000000000000e+02,7.772589039501377473e-01,0.000000000000000000e+00
1.140000000000000000e+02,1.905074424894608542e+00,0.000000000000000000e+00
1.150000000000000000e+02,1.829830957175058170e+00,0.000000000000000000e+00
1.160000000000000000e+02,2.117779648335839315e+00,0.000000000000000000e+00
1.170000000000000000e+02,7.996803523044652140e-01,0.000000000000000000e+00
1.180000000000000000e+02,-7.501610078712291074e-02,0.000000000000000000e+00
1.190000000000000000e+02,-1.240732428252485420e+00,0.000000000000000000e+00
1.200000000000000000e+02,-1.283033596234965934e+00,0.000000000000000000e+00
1.210000000000000000e+02,-1.385456751558617139e+00,0.000000000000000000e+00
1.220000000000000000e+02,-1.657012187695331207e+00,0.000000000000000000e+00
1.230000000000000000e+02,-1.237566058055147300e+00,0.000000000000000000e+00
1.240000000000000000e+02,-1.372541701648498647e+00,0.000000000000000000e+00
1.250000000000000000e+02,-1.434586754778175210e+00,0.000000000000000000e+00
1.260000000000000000e+02,-1.471703947100063248e+00,0.000000000000000000e+00
1.270000000000000000e+02,-8.715122802575629990e-01,0.000000000000000000e+00
1.280000000000000000e+02,-1.169622357688012260e+00,0.000000000000000000e+00
1.290000000000000000e+02,-7.434611410799013553e-01,0.000000000000000000e+00
1.300000000000000000e+02,-6.065750866038331912e-01,0.000000000000000000e+00
1.310000000000000000e+02,-6.006585773351326152e-01,0.000000000000000000e+00
1.320000000000000000e+02,-4.611531740206837870e-01,0.000000000000000000e+00
1.330000000000000000e+02,-6.487013167339961139e-01,0.000000000000000000e+00
1.340000000000000000e+02,-6.318932383130400066e-01,0.000000000000000000e+00
1.350000000000000000e+02,-4.908707761614957699e-01,0.000000000000000000e+00
1.360000000000000000e+02,-8.087207960272436713e-01,0.000000000000000000e+00
1.370000000000000000e+02,-3.481152718230543508e-01,0.000000000000000000e+00
1.380000000000000000e+02,9.614077298829362683e-02,0.000000000000000000e+00
1.390000000000000000e+02,-2.125597364809293788e-01,0.000000000000000000e+00
1.400000000000000000e+02,2.564340261293633974e-02,0.000000000000000000e+00
1.410000000000000000e+02,1.983936529710780827e-01,0.000000000000000000e+00
1.420000000000000000e+02,-3.708751290516833499e-01,0.000000000000000000e+00
1.430000000000000000e+02,6.047638501601563243e-01,0.000000000000000000e+00
1.440000000000000000e+02,-4.476109763659337770e-01,0.000000000000000000e+00
1.450000000000000000e+02,4.110157929243923869e-01,0.000000000000000000e+00
1.460000000000000000e+02,-3.202629576283586021e-02,0.000000000000000000e+00
1.470000000000000000e+02,8.390806935195754823e-02,0.000000000000000000e+00
1.480000000000000000e+02,3.588885506095207401e-01,0.000000000000000000e+00
1.490000000000000000e+02,1.824075745941707571e-01,0.000000000000000000e+00
1.500000000000000000e+02,5.258425091030181076e-01,0.000000000000000000e+00
1.510000000000000000e+02,3.033601313142827438e-01,0.000000000000000000e+00
1.520000000000000000e+02,4.705602449353237793e-01,0.000000000000000000e+00
1.530000000000000000e+02,6.573044095404277920e-01,0.000000000000000000e+00
1.540000000000000000e+02,-1.237057458993326836e-01,0.000000000000000000e+00
1.550000000000000000e+02,2.349883650544606351e-01,0.000000000000000000e+00
1.560000000000000000e+02,2.341760207696014229e-01,0.000000000000000000e+00
1.570000000000000000e+02,5.120051710147072166e-02,0.000000000000000000e+00
1.580000000000000000e+02,-9.096755892843816360e-02,0.000000000000000000e+00
1.590000000000000000e+02,5.852339917030957572e-01,0.000000000000000000e+00
1.600000000000000000e+02,9.115529663384157599e-01,0.000000000000000000e+00
1.610000000000000000e+02,6.866526958140894976e-01,0.000000000000000000e+00
1.620000000000000000e+02,4.337571820843716397e-01,0.000000000000000000e+00
1.630000000000000000e+02,3.355329619735202829e-01,0.000000000000000000e+00
1.640000000000000000e+02,8.074818331779153313e-01,0.000000000000000000e+00
1.650000000000000000e+02,-6.753828633893554922e-02,0.000000000000000000e+00
1.660000000000000000e+02,-1.473929986311629803e-02,0.000000000000000000e+00
1.670000000000000000e+02,-2.988230747419081124e-01,0.000000000000000000e+00
1.680000000000000000e+02,-1.035566252813661520e-01,0.000000000000000000e+00
1.690000000000000000e+02,3.160143660845903812e-01,0.000000000000000000e+00
1.700000000000000000e+02,2.295978404594272437e-01,0.000000000000000000e+00
1.710000000000000000e+02,3.700599902021406429e-01,0.000000000000000000e+00
1.720000000000000000e+02,-3.370607601150619193e-01,0.000000000000000000e+00
1.730000000000000000e+02,-6.230132825104709449e-01,0.000000000000000000e+00
1.740000000000000000e+02,-2.251564014519123191e-01,0.000000000000000000e+00
1.750000000000000000e+02,-2.433775084659139665e-01,0.000000000000000000e+00
1.760000000000000000e+02,-5.806075377714197128e-01,0.000000000000000000e+00
1.770000000000000000e+02,-5.203625999937341318e-01,0.000000000000000000e+00
1.780000000000000000e+02,-4.390453930622736367e-01,0.000000000000000000e+00
1.790000000000000000e+02,2.323447079338997190e-02,0.000000000000000000e+00
1.800000000000000000e+02,2.199749324403658668e-01,0.000000000000000000e+00
1.810000000000000000e+02,3.921166805978227865e-01,0.000000000000000000e+00
1.820000000000000000e+02,-3.359309389599683393e-01,0.000000000000000000e+00
1.830000000000000000e+02,-8.933959834207866324e-02,0.000000000000000000e+00
1.840000000000000000e+02,-2.490127647900643171e-01,0.000000000000000000e+00
1.850000000000000000e+02,-1.152852849293248549e-01,0.000000000000000000e+00
1.860000000000000000e+02,-2.976872337137460023e-01,0.000000000000000000e+00
1.870000000000000000e+02,1.484463662581741117e+00,0.000000000000000000e+00
1.880000000000000000e+02,2.243020948882795018e+00,0.000000000000000000e+00
1.890000000000000000e+02,-1.733504108824873935e+00,0.000000000000000000e+00
1.900000000000000000e+02,1.674676378999772730e+00,0.000000000000000000e+00
1.910000000000000000e+02,7.940698169979560905e-01,0.000000000000000000e+00
1.920000000000000000e+02,-1.714134910201984718e+00,1.000000000000000000e+00
1.930000000000000000e+02,-1.341984932875812220e+00,0.000000000000000000e+00
1.940000000000000000e+02,-3.978067785608867535e-01,0.000000000000000000e+00
1.950000000000000000e+02,-1.160525770323895672e-01,0.000000000000000000e+00
1.960000000000000000e+02,1.586369664410669511e-02,0.000000000000000000e+00
1.970000000000000000e+02,1.680207719595010196e-01,0.000000000000000000e+00
1.980000000000000000e+02,3.075661412728644684e-01,0.000000000000000000e+00
1.990000000000000000e+02,-5.056365483060704102e-02,0.000000000000000000e+00
2.000000000000000000e+02,-1.447171768823229121e-01,0.000000000000000000e+00
2.010000000000000000e+02,-8.682082433009590261e-01,0.000000000000000000e+00
2.020000000000000000e+02,-6.727076827629838163e-02,0.000000000000000000e+00
2.030000000000000000e+02,5.363700859482768424e-01,0.000000000000000000e+00
2.040000000000000000e+02,5.862473325684132153e-01,0.000000000000000000e+00
2.050000000000000000e+02,9.531099916047497400e-01,0.000000000000000000e+00
2.060000000000000000e+02,1.268053917910928918e+00,0.000000000000000000e+00
2.070000000000000000e+02,1.750277523877613817e+00,0.000000000000000000e+00
2.080000000000000000e+02,1.558858327507705921e+00,0.000000000000000000e+00
2.090000000000000000e+02,1.711911251945862134e+00,0.000000000000000000e+00
2.100000000000000000e+02,1.114539468222365715e+00,0.000000000000000000e+00
2.110000000000000000e+02,4.354632833952853943e-02,0.000000000000000000e+00
2.120000000000000000e+02,-6.297536942693717776e-01,0.000000000000000000e+00
2.130000000000000000e+02,-1.188589134205243703e+00,0.000000000000000000e+00
2.140000000000000000e+02,-1.736285183960041056e+00,0.000000000000000000e+00
2.150000000000000000e+02,-1.451716806389139913e+00,0.000000000000000000e+00
2.160000000000000000e+02,-1.624308229345736043e+00,0.000000000000000000e+00
2.170000000000000000e+02,-1.411720910109948379e+00,0.000000000000000000e+00
2.180000000000000000e+02,-1.183408767190452293e+00,0.000000000000000000e+00
2.190000000000000000e+02,-1.255067746582049448e+00,0.000000000000000000e+00
2.200000000000000000e+02,-1.210754149192813989e+00,0.000000000000000000e+00
2.210000000000000000e+02,-9.158571085622734254e-01,0.000000000000000000e+00
2.220000000000000000e+02,-9.108513626246179662e-01,0.000000000000000000e+00
2.230000000000000000e+02,-1.072192046525996423e+00,0.000000000000000000e+00
2.240000000000000000e+02,-1.035025405550063615e+00,0.000000000000000000e+00
2.250000000000000000e+02,-9.673407807756616572e-01,0.000000000000000000e+00
2.260000000000000000e+02,-4.636012354977555594e-01,0.000000000000000000e+00
2.270000000000000000e+02,-7.374963349045675631e-01,0.000000000000000000e+00
2.280000000000000000e+02,-5.378464628299849393e-01,0.000000000000000000e+00
2.290000000000000000e+02,-8.164464757043077281e-01,0.000000000000000000e+00
2.300000000000000000e+02,-3.746962282679890122e-02,0.000000000000000000e+00
2.310000000000000000e+02,-4.223177587069867345e-01,0.000000000000000000e+00
2.320000000000000000e+02,-3.335350719185785628e-01,0.000000000000000000e+00
2.330000000000000000e+02,-3.757677558997404854e-01,0.000000000000000000e+00
2.340000000000000000e+02,-1.963078416098180123e-01,0.000000000000000000e+00
2.350000000000000000e+02,3.266513587222823894e-02,0.000000000000000000e+00
2.360000000000000000e+02,4.373967293769370768e-01,0.000000000000000000e+00
2.370000000000000000e+02,-1.321990891232135146e-01,0.000000000000000000e+00
2.380000000000000000e+02,1.314507278933092251e-02,0.000000000000000000e+00
2.390000000000000000e+02,3.250697300610639329e-01,0.000000000000000000e+00
2.400000000000000000e+02,-1.704677555365198896e-02,0.000000000000000000e+00
2.410000000000000000e+02,-8.938960226845767132e-02,0.000000000000000000e+00
2.420000000000000000e+02,4.448150107767463030e-02,0.000000000000000000e+00
2.430000000000000000e+02,1.959591731505875012e-01,0.000000000000000000e+00
2.440000000000000000e+02,1.974669752740175130e-02,0.000000000000000000e+00
2.450000000000000000e+02,3.979911986997681783e-01,0.000000000000000000e+00
2.460000000000000000e+02,6.865919243671110284e-01,0.000000000000000000e+00
2.470000000000000000e+02,5.006459501653519606e-01,0.000000000000000000e+00
2.480000000000000000e+02,6.302957214569475664e-01,0.000000000000000000e+00
2.490000000000000000e+02,5.417029643618967993e-01,0.000000000000000000e+00
2.500000000000000000e+02,2.856268429869014414e-01,0.000000000000000000e+00
2.510000000000000000e+02,3.837789801898385811e-01,0.000000000000000000e+00
2.520000000000000000e+02,3.850723314524799878e-01,0.000000000000000000e+00
2.530000000000000000e+02,2.052960015181289066e-01,0.000000000000000000e+00
2.540000000000000000e+02,5.377736308331056980e-01,0.000000000000000000e+00
2.550000000000000000e+02,3.509709932351500195e-01,0.000000000000000000e+00
2.560000000000000000e+02,6.789225859868101010e-01,0.000000000000000000e+00
2.570000000000000000e+02,5.457966168531943607e-01,0.000000000000000000e+00
2.580000000000000000e+02,3.483148651296977816e-01,0.000000000000000000e+00
2.590000000000000000e+02,2.225998213783652313e-01,0.000000000000000000e+00
2.600000000000000000e+02,4.869317374575221624e-01,0.000000000000000000e+00
2.610000000000000000e+02,5.336889368372716991e-01,0.000000000000000000e+00
2.620000000000000000e+02,6.345053923129037043e-01,0.000000000000000000e+00
2.630000000000000000e+02,5.902586721780683776e-01,0.000000000000000000e+00
2.640000000000000000e+02,4.149861444228825080e-01,0.000000000000000000e+00
2.650000000000000000e+02,9.131752018642719237e-01,0.000000000000000000e+00
2.660000000000000000e+02,9.662876440720049587e-01,0.000000000000000000e+00
2.670000000000000000e+02,7.797253877043547332e-01,0.000000000000000000e+00
2.680000000000000000e+02,3.911973145186150025e-01,0.000000000000000000e+00
2.690000000000000000e+02,3.732289650678136672e-01,0.000000000000000000e+00
2.700000000000000000e+02,2.812404757594213489e-01,0.000000000000000000e+00
2.710000000000000000e+02,2.209296450632249886e-01,0.000000000000000000e+00
2.720000000000000000e+02,2.514936893236831561e-01,0.000000000000000000e+00
2.730000000000000000e+02,4.886002419658766471e-01,0.000000000000000000e+00
2.740000000000000000e+02,2.536513060061234559e-01,0.000000000000000000e+00
2.750000000000000000e+02,4.605531814925554746e-01,0.000000000000000000e+00
2.760000000000000000e+02,3.548701738687318197e-01,0.000000000000000000e+00
2.770000000000000000e+02,-2.778267065746400921e-02,0.000000000000000000e+00
2.780000000000000000e+02,5.465179211221513761e-02,0.000000000000000000e+00
2.790000000000000000e+02,-3.274996633561764736e-01,0.000000000000000000e+00
2.800000000000000000e+02,-3.784347146130364048e-01,0.000000000000000000e+00
2.810000000000000000e+02,1.156134643031941467e+00,0.000000000000000000e+00
2.820000000000000000e+02,2.445408742662781076e+00,0.000000000000000000e+00
2.830000000000000000e+02,-1.247608465340825923e+00,0.000000000000000000e+00
2.840000000000000000e+02,1.698733292035008891e+00,0.000000000000000000e+00
2.850000000000000000e+02,1.794180674019160593e+00,0.000000000000000000e+00
2.860000000000000000e+02,-1.448401224817801314e+00,1.000000000000000000e+00
2.870000000000000000e+02,-1.700819657846720290e+00,0.000000000000000000e+00
2.880000000000000000e+02,-9.896653688034169338e-01,0.000000000000000000e+00
2.890000000000000000e+02,-5.856096049621044575e-01,0.000000000000000000e+00
2.900000000000000000e+02,-5.561180772390984517e-01,0.000000000000000000e+00
2.910000000000000000e+02,-5.172831668523631965e-01,0.000000000000000000e+00
2.920000000000000000e+02,-5.831232273833271140e-01,0.000000000000000000e+00
2.930000000000000000e+02,-3.780711826711172230e-01,0.000000000000000000e+00
2.940000000000000000e+02,-1.276961728068915780e-01,0.000000000000000000e+00
2.950000000000000000e+02,-3.945052861390249133e-01,0.000000000000000000e+00
2.960000000000000000e+02,1.851603069125265788e-01,0.000000000000000000e+00
2.970000000000000000e+02,2.973453395905594210e-01,0.000000000000000000e+00
2.980000000000000000e+02,4.749354464136938403e-01,0.000000000000000000e+00
2.990000000000000000e+02,7.983667915581311725e-01,0.000000000000000000e+00
3.000000000000000000e+02,7.982759098392685493e-01,0.000000000000000000e+00
3.010000000000000000e+02,1.073287313851618352e+00,0.000000000000000000e+00
3.020000000000000000e+02,1.632677893797772395e+00,0.000000000000000000e+00
3.030000000000000000e+02,1.922118108588356300e+00,0.000000000000000000e+00
3.040000000000000000e+02,1.277203185168360511e+00,0.000000000000000000e+00
3.050000000000000000e+02,-1.934817105424895545e-01,0.000000000000000000e+00
3.060000000000000000e+02,-6.917364052846618483e-01,0.000000000000000000e+00
3.070000000000000000e+02,-1.338842147109693625e+00,0.000000000000000000e+00
3.080000000000000000e+02,-1.904098698828015968e+00,0.000000000000000000e+00
3.090000000000000000e+02,-2.084843372700276642e+00,0.000000000000000000e+00
3.100000000000000000e+02,-2.640937044749121831e+00,0.000000000000000000e+00
3.110000000000000000e+02,-2.029056238379534527e+00,0.000000000000000000e+00
3.120000000000000000e+02,-1.756114875573168810e+00,0.000000000000000000e+00
3.130000000000000000e+02,-1.819852958198199033e+00,0.000000000000000000e+00
3.140000000000000000e+02,-1.685646234915941344e+00,0.000000000000000000e+00
3.150000000000000000e+02,-5.256124583748679191e-01,0.000000000000000000e+00
3.160000000000000000e+02,-8.985215110303734765e-01,0.000000000000000000e+00
3.170000000000000000e+02,-7.543687734818438351e-01,0.000000000000000000e+00
3.180000000000000000e+02,-8.279625459153687750e-01,0.000000000000000000e+00
3.190000000000000000e+02,-8.814308008352109702e-01,0.000000000000000000e+00
3.200000000000000000e+02,-6.065081002888519368e-01,0.000000000000000000e+00
3.210000000000000000e+02,-5.776216299330874104e-01,0.000000000000000000e+00
3.220000000000000000e+02,-4.594922331105991131e-01,0.000000000000000000e+00
3.230000000000000000e+02,-6.321895988661542232e-01,0.000000000000000000e+00
3.240000000000000000e+02,-1.038639638157428172e-02,0.000000000000000000e+00
3.250000000000000000e+02,-2.411669318222903480e-01,0.000000000000000000e+00
3.260000000000000000e+02,-3.241523294381350451e-01,0.000000000000000000e+00
3.270000000000000000e+02,-5.153145632373389295e-01,0.000000000000000000e+00
3.280000000000000000e+02,-2.666522063230297723e-01,0.000000000000000000e+00
3.290000000000000000e+02,-1.081042130466556284e-01,0.000000000000000000e+00
3.300000000000000000e+02,2.906976608899097259e-01,0.000000000000000000e+00
3.310000000000000000e+02,4.144211158736368916e-01,0.000000000000000000e+00
3.320000000000000000e+02,4.609303942257232944e-01,0.000000000000000000e+00
3.330000000000000000e+02,8.089155672457434276e-01,0.000000000000000000e+00
3.340000000000000000e+02,6.789026843932358668e-01,0.000000000000000000e+00
3.350000000000000000e+02,5.654534654367756596e-01,0.000000000000000000e+00
3.360000000000000000e+02,2.252348669501899048e-01,0.000000000000000000e+00
3.370000000000000000e+02,3.146074727991335918e-01,0.000000000000000000e+00
3.380000000000000000e+02,6.045735218392537247e-01,0.000000000000000000e+00
3.390000000000000000e+02,6.514213702671812767e-01,0.000000000000000000e+00
3.400000000000000000e+02,9.110760163541944401e-01,0.000000000000000000e+00
3.410000000000000000e+02,3.454140322429058996e-01,0.000000000000000000e+00
3.420000000000000000e+02,9.638965250272186758e-01,0.000000000000000000e+00
3.430000000000000000e+02,5.143775145641091839e-01,0.000000000000000000e+00
3.440000000000000000e+02,4.009214920037345031e-01,0.000000000000000000e+00
3.450000000000000000e+02,7.613948066819180571e-01,0.000000000000000000e+00
3.460000000000000000e+02,4.117058725332328195e-01,0.000000000000000000e+00
3.470000000000000000e+02,9.118504220063813337e-01,0.000000000000000000e+00
3.480000000000000000e+02,4.170121722236661554e-01,0.000000000000000000e+00
3.490000000000000000e+02,1.982637641179484100e-01,0.000000000000000000e+00
3.500000000000000000e+02,5.902815833713596916e-02,0.000000000000000000e+00
3.510000000000000000e+02,1.279956209695632674e-01,0.000000000000000000e+00
3.520000000000000000e+02,3.229233014580486505e-01,0.000000000000000000e+00
3.530000000000000000e+02,8.765619074349745299e-01,0.000000000000000000e+00
3.540000000000000000e+02,7.404349278801272138e-01,0.000000000000000000e+00
3.550000000000000000e+02,4.064277516510645949e-01,0.000000000000000000e+00
3.560000000000000000e+02,4.877595872404494881e-01,0.000000000000000000e+00
3.570000000000000000e+02,4.970517828346548983e-01,0.000000000000000000e+00
3.580000000000000000e+02,2.286307132020849175e-01,0.000000000000000000e+00
3.590000000000000000e+02,4.104661152068961871e-01,0.000000000000000000e+00
3.600000000000000000e+02,2.493072488004147713e-01,0.000000000000000000e+00
3.610000000000000000e+02,1.174209464488868565e-01,0.000000000000000000e+00
3.620000000000000000e+02,2.002843573248466041e-02,0.000000000000000000e+00
3.630000000000000000e+02,4.339552479862458512e-01,0.000000000000000000e+00
3.640000000000000000e+02,-5.453955888485657183e-02,0.000000000000000000e+00
3.650000000000000000e+02,3.124714609383167918e-01,0.000000000000000000e+00
3.660000000000000000e+02,-2.768369992591039608e-02,0.000000000000000000e+00
3.670000000000000000e+02,7.946726260296306521e-02,0.000000000000000000e+00
3.680000000000000000e+02,1.068372842475986684e-01,0.000000000000000000e+00
3.690000000000000000e+02,1.569845564290567597e-01,0.000000000000000000e+00
3.700000000000000000e+02,4.600054399747230405e-01,0.000000000000000000e+00
3.710000000000000000e+02,1.083355964786143211e-01,0.000000000000000000e+00
3.720000000000000000e+02,5.107645006703903645e-01,0.000000000000000000e+00
3.730000000000000000e+02,2.298640310828845013e-01,0.000000000000000000e+00
3.740000000000000000e+02,9.988399592702938978e-01,0.000000000000000000e+00
3.750000000000000000e+02,2.993299448054695944e+00,0.000000000000000000e+00
3.760000000000000000e+02,-9.663700936710853950e-01,0.000000000000000000e+00
3.770000000000000000e+02,1.668702068334014132e+00,0.000000000000000000e+00
3.780000000000000000e+02,1.835011335105895425e+00,0.000000000000000000e+00
3.790000000000000000e+02,-1.424575039266194443e+00,1.000000000000000000e+00
3.800000000000000000e+02,-1.525972031326703116e+00,0.000000000000000000e+00
3.810000000000000000e+02,-4.435116588487976186e-01,0.000000000000000000e+00
3.820000000000000000e+02,-4.829416088848384470e-01,0.000000000000000000e+00
3.830000000000000000e+02,-4.740001924217119300e-01,0.000000000000000000e+00
3.840000000000000000e+02,-7.891469919685218937e-01,0.000000000000000000e+00
3.850000000000000000e+02,-8.034370597391641278e-01,0.000000000000000000e+00
3.860000000000000000e+02,-8.648005567049699138e-01,0.000000000000000000e+00
3.870000000000000000e+02,-4.177025724698297804e-01,0.000000000000000000e+00
3.880000000000000000e+02,-3.469613664046660162e-01,0.000000000000000000e+00
3.890000000000000000e+02,-2.819446874439738848e-01,0.000000000000000000e+00
3.900000000000000000e+02,3.750681427554078406e-01,0.000000000000000000e+00
3.910000000000000000e+02,4.097855684042331359e-01,0.000000000000000000e+00
3.920000000000000000e+02,5.927077470303337980e-01,0.000000000000000000e+00
3.930000000000000000e+02,9.241126402547606977e-01,0.000000000000000000e+00
3.940000000000000000e+02,7.583285956928140781e-01,0.000000000000000000e+00
3.950000000000000000e+02,1.337004177791770720e+00,0.000000000000000000e+00
3.960000000000000000e+02,1.826834279417185236e+00,0.000000000000000000e+00
3.970000000000000000e+02,1.509455956381328345e+00,0.000000000000000000e+00
3.980000000000000000e+02,1.449759575368044229e-01,0.000000000000000000e+00
3.990000000000000000e+02,-9.620772838444747732e-01,0.000000000000000000e+00
4.000000000000000000e+02,-1.762752983379121563e+00,0.000000000000000000e+00
4.010000000000000000e+02,-1.838605046899776774e+00,0.000000000000000000e+00
4.020000000000000000e+02,-2.343680782178361621e+00,0.000000000000000000e+00
4.030000000000000000e+02,-2.204763365722226087e+00,0.000000000000000000e+00
4.040000000000000000e+02,-2.100426834383751995e+00,0.000000000000000000e+00
4.050000000000000000e+02,-1.816146559040221709e+00,0.000000000000000000e+00
4.060000000000000000e+02,5.436226736774548707e-01,0.000000000000000000e+00
4.070000000000000000e+02,2.802048048005617353e+00,0.000000000000000000e+00
4.080000000000000000e+02,4.358293341605727456e+00,0.000000000000000000e+00
4.090000000000000000e+02,2.044418628139585969e+00,0.000000000000000000e+00
4.100000000000000000e+02,-2.161597007277167304e+00,0.000000000000000000e+00
4.110000000000000000e+02,-2.506578613691552437e+00,1.000000000000000000e+00
4.120000000000000000e+02,-7.189424267701124194e+00,0.000000000000000000e+00
4.130000000000000000e+02,-4.582801332849959941e+00,0.000000000000000000e+00
4.140000000000000000e+02,-1.915983269950894741e+00,0.000000000000000000e+00
4.150000000000000000e+02,-2.005096811239704735e+00,0.000000000000000000e+00
4.160000000000000000e+02,-1.078538603429782139e+00,0.000000000000000000e+00
4.170000000000000000e+02,-1.112082095411106142e+00,0.000000000000000000e+00
4.180000000000000000e+02,-6.749407276081321738e-01,0.000000000000000000e+00
4.190000000000000000e+02,-8.284090756525205324e-01,0.000000000000000000e+00
4.200000000000000000e+02,-5.663704163773052302e-01,0.000000000000000000e+00
4.210000000000000000e+02,-7.500171656259254638e-01,0.000000000000000000e+00
4.220000000000000000e+02,-3.557173056469927763e-01,0.000000000000000000e+00
4.230000000000000000e+02,3.618277158976319630e-01,0.000000000000000000e+00
4.240000000000000000e+02,8.132395748687942794e-01,0.000000000000000000e+00
4.250000000000000000e+02,1.130313445304614417e+00,0.000000000000000000e+00
4.260000000000000000e+02,1.775632371836221468e+00,0.000000000000000000e+00
4.270000000000000000e+02,1.585653709810345813e+00,0.000000000000000000e+00
4.280000000000000000e+02,9.222794717053839353e-01,0.000000000000000000e+00
4.290000000000000000e+02,1.415201523345761825e-01,0.000000000000000000e+00
4.300000000000000000e+02,-2.290743859664634563e-01,0.000000000000000000e+00
4.310000000000000000e+02,-6.335709680745478245e-01,0.000000000000000000e+00
4.320000000000000000e+02,-9.804145230218564988e-01,0.000000000000000000e+00
4.330000000000000000e+02,-8.070185450459653742e-01,0.000000000000000000e+00
4.340000000000000000e+02,-1.228372295478273174e-01,0.000000000000000000e+00
4.350000000000000000e+02,-2.483601304403710852e-01,0.000000000000000000e+00
4.360000000000000000e+02,1.477927043537669016e-01,0.000000000000000000e+00
4.370000000000000000e+02,1.179735103779844807e-01,0.000000000000000000e+00
4.380000000000000000e+02,4.571775918694916396e-01,0.000000000000000000e+00
4.390000000000000000e+02,4.354449430360246009e-01,0.000000000000000000e+00
4.400000000000000000e+02,2.764653245097652978e-01,0.000000000000000000e+00
4.410000000000000000e+02,5.275279806591973708e-01,0.000000000000000000e+00
4.420000000000000000e+02,2.921848254833189218e-01,0.000000000000000000e+00
4.430000000000000000e+02,4.043282835331838965e-01,0.000000000000000000e+00
4.440000000000000000e+02,4.745618468876053875e-01,0.000000000000000000e+00
4.450000000000000000e+02,4.039562988350591244e-01,0.000000000000000000e+00
4.460000000000000000e+02,1.010773776478286756e-01,0.000000000000000000e+00
4.470000000000000000e+02,4.210082358179806361e-01,0.000000000000000000e+00
4.480000000000000000e+02,8.967665985543621376e-02,0.000000000000000000e+00
4.490000000000000000e+02,6.669759689083374354e-01,0.000000000000000000e+00
4.500000000000000000e+02,3.432910729974689157e-01,0.000000000000000000e+00
4.510000000000000000e+02,8.309126447205515964e-01,0.000000000000000000e+00
4.520000000000000000e+02,1.124529694771726485e+00,0.000000000000000000e+00
4.530000000000000000e+02,1.255979775836742363e+00,0.000000000000000000e+00
4.540000000000000000e+02,9.220742423629709750e-01,0.000000000000000000e+00
4.550000000000000000e+02,8.721324076939502845e-01,0.000000000000000000e+00
4.560000000000000000e+02,1.066518160181535890e+00,0.000000000000000000e+00
4.570000000000000000e+02,1.190053120099128225e+00,0.000000000000000000e+00
4.580000000000000000e+02,8.474157988158356192e-01,0.000000000000000000e+00
4.590000000000000000e+02,1.352355128351892199e+00,0.000000000000000000e+00
4.600000000000000000e+02,9.570486676221849898e-01,0.000000000000000000e+00
4.610000000000000000e+02,1.587663242381706752e+00,0.000000000000000000e+00
4.620000000000000000e+02,1.412880143708726610e+00,0.000000000000000000e+00
4.630000000000000000e+02,1.213775466683132853e+00,0.000000000000000000e+00
4.640000000000000000e+02,5.773013780184201860e-01,0.000000000000000000e+00
4.650000000000000000e+02,6.669096256090363273e-01,0.000000000000000000e+00
4.660000000000000000e+02,6.175104977708737453e-01,0.000000000000000000e+00
4.670000000000000000e+02,5.840626240185572415e-01,0.000000000000000000e+00
4.680000000000000000e+02,2.979879773159008760e-01,0.000000000000000000e+00
4.690000000000000000e+02,6.521602753021843446e-01,0.000000000000000000e+00
4.700000000000000000e+02,-1.063588386116079421e-01,0.000000000000000000e+00
4.710000000000000000e+02,2.725981700984385636e+00,0.000000000000000000e+00
4.720000000000000000e+02,2.969688158777834985e+00,0.000000000000000000e+00
4.730000000000000000e+02,2.081624177880531779e+00,0.000000000000000000e+00
4.740000000000000000e+02,3.600092992568648675e+00,0.000000000000000000e+00
4.750000000000000000e+02,-6.895049867082250206e-01,0.000000000000000000e+00
4.760000000000000000e+02,-1.806223887800172401e+00,1.000000000000000000e+00
4.770000000000000000e+02,-1.568311113177053295e+00,0.000000000000000000e+00
4.780000000000000000e+02,-1.366370960167123894e+00,0.000000000000000000e+00
4.790000000000000000e+02,-1.277906320243665128e+00,0.000000000000000000e+00
4.800000000000000000e+02,-9.330641521006027839e-01,0.000000000000000000e+00
4.810000000000000000e+02,-9.800228885926330902e-01,0.000000000000000000e+00
4.820000000000000000e+02,-5.282239613252011079e-01,0.000000000000000000e+00
4.830000000000000000e+02,-7.769162855313862526e-01,0.000000000000000000e+00
4.840000000000000000e+02,-2.354815120243996529e-01,0.000000000000000000e+00
4.850000000000000000e+02,-7.818227044262721082e-01,0.000000000000000000e+00
4.860000000000000000e+02,-4.570744739919334054e-01,0.000000000000000000e+00
4.870000000000000000e+02,-4.105399452625282941e-01,0.000000000000000000e+00
4.880000000000000000e+02,-3.436706864195107625e-01,0.000000000000000000e+00
4.890000000000000000e+02,3.842853981049304535e-01,0.000000000000000000e+00
4.900000000000000000e+02,9.511023496390371701e-01,0.000000000000000000e+00
4.910000000000000000e+02,1.114516730324534022e+00,0.000000000000000000e+00
4.920000000000000000e+02,1.284427706777327982e+00,0.000000000000000000e+00
4.930000000000000000e+02,6.412861335097467252e-01,0.000000000000000000e+00
4.940000000000000000e+02,-8.251833870642210078e-01,0.000000000000000000e+00
4.950000000000000000e+02,-1.292826659336416162e+00,0.000000000000000000e+00
4.960000000000000000e+02,-1.618689232895732744e+00,0.000000000000000000e+00
4.970000000000000000e+02,-1.786160710668485807e+00,0.000000000000000000e+00
4.980000000000000000e+02,-1.515232424055079186e+00,0.000000000000000000e+00
4.990000000000000000e+02,-2.015121623915983040e+00,0.000000000000000000e+00
5.000000000000000000e+02,-1.739708846707694656e+00,0.000000000000000000e+00
5.010000000000000000e+02,-1.930367540414558380e+00,0.000000000000000000e+00
5.020000000000000000e+02,-2.202281378121611066e+00,0.000000000000000000e+00
5.030000000000000000e+02,-1.417810909802428965e+00,0.000000000000000000e+00
5.040000000000000000e+02,-1.628431061660519319e+00,0.000000000000000000e+00
5.050000000000000000e+02,-1.276720343958528403e+00,0.000000000000000000e+00
5.060000000000000000e+02,-7.862553340826704540e-01,0.000000000000000000e+00
5.070000000000000000e+02,-9.430369548323904727e-01,0.000000000000000000e+00
5.080000000000000000e+02,-1.005184097897020123e+00,0.000000000000000000e+00
5.090000000000000000e+02,-1.328709245251252558e+00,0.000000000000000000e+00
5.100000000000000000e+02,-1.468750913053370910e+00,0.000000000000000000e+00
5.110000000000000000e+02,-8.590998967184845236e-01,0.000000000000000000e+00
5.120000000000000000e+02,-2.871382790205938007e-01,0.000000000000000000e+00
5.130000000000000000e+02,-4.287364771330773316e-01,0.000000000000000000e+00
5.140000000000000000e+02,1.791153633898912578e-01,0.000000000000000000e+00
5.150000000000000000e+02,2.084866747364251538e-02,0.000000000000000000e+00
5.160000000000000000e+02,2.090436555955330900e-01,0.000000000000000000e+00
5.170000000000000000e+02,-5.934450558328798961e-03,0.000000000000000000e+00
5.180000000000000000e+02,-4.969104982711853857e-01,0.000000000000000000e+00
5.190000000000000000e+02,-4.029784010648660986e-01,0.000000000000000000e+00
5.200000000000000000e+02,2.529269299202950919e-02,0.000000000000000000e+00
5.210000000000000000e+02,2.749207061526190432e-01,0.000000000000000000e+00
5.220000000000000000e+02,7.237537674731184811e-01,0.000000000000000000e+00
5.230000000000000000e+02,4.304720383542319229e-01,0.000000000000000000e+00
5.240000000000000000e+02,4.344121539815736788e-01,0.000000000000000000e+00
5.250000000000000000e+02,2.879410004667288248e-01,0.000000000000000000e+00
5.260000000000000000e+02,5.978591761150636730e-01,0.000000000000000000e+00
5.270000000000000000e+02,4.181504620083338897e-01,0.000000000000000000e+00
5.280000000000000000e+02,4.619150680325713187e-01,0.000000000000000000e+00
5.290000000000000000e+02,5.027538081086612154e-01,0.000000000000000000e+00
5.300000000000000000e+02,6.409969272634937765e-01,0.000000000000000000e+00
5.310000000000000000e+02,3.076988420160330362e-01,0.000000000000000000e+00
5.320000000000000000e+02,5.990382865263812473e-01,0.000000000000000000e+00
5.330000000000000000e+02,4.730023729173673530e-01,0.000000000000000000e+00
5.340000000000000000e+02,5.119220011634929568e-01,0.000000000000000000e+00
5.350000000000000000e+02,4.209526062720274076e-01,0.000000000000000000e+00
5.360000000000000000e+02,6.464007491366486891e-01,0.000000000000000000e+00
5.370000000000000000e+02,7.576395885733153701e-01,0.000000000000000000e+00
5.380000000000000000e+02,3.709836551618709843e-01,0.000000000000000000e+00
5.390000000000000000e+02,5.346274491196283396e-01,0.000000000000000000e+00
5.400000000000000000e+02,4.417738764640504745e-01,0.000000000000000000e+00
5.410000000000000000e+02,2.795882911476983423e-01,0.000000000000000000e+00
5.420000000000000000e+02,1.403999231617460985e-01,0.000000000000000000e+00
5.430000000000000000e+02,1.279964914307989643e+00,0.000000000000000000e+00
5.440000000000000000e+02,9.137542193459082807e-01,0.000000000000000000e+00
5.450000000000000000e+02,8.312026753141645852e-01,0.000000000000000000e+00
5.460000000000000000e+02,6.872774051535314177e-01,0.000000000000000000e+00
5.470000000000000000e+02,3.668459155779987269e-01,0.000000000000000000e+00
5.480000000000000000e+02,1.949794597889390746e-01,0.000000000000000000e+00
5.490000000000000000e+02,3.658274764922401223e-01,0.000000000000000000e+00
5.500000000000000000e+02,2.006276161604897967e-01,0.000000000000000000e+00
5.510000000000000000e+02,9.652445870744422729e-01,0.000000000000000000e+00
5.520000000000000000e+02,5.049510446910738803e-01,0.000000000000000000e+00
5.530000000000000000e+02,1.214170619440264165e+00,0.000000000000000000e+00
5.540000000000000000e+02,4.988679017563937834e-01,0.000000000000000000e+00
5.550000000000000000e+02,3.246460439422335309e+00,0.000000000000000000e+00
5.560000000000000000e+02,1.685039009371958052e+00,0.000000000000000000e+00
5.570000000000000000e+02,2.702995464768063183e+00,0.000000000000000000e+00
5.580000000000000000e+02,2.178643203645036497e+00,0.000000000000000000e+00
5.590000000000000000e+02,-1.795680028387091287e+00,0.000000000000000000e+00
5.600000000000000000e+02,-1.274537616864554801e+00,1.000000000000000000e+00
5.610000000000000000e+02,-1.104888055544901881e+00,0.000000000000000000e+00
5.620000000000000000e+02,-9.567607467798356913e-01,0.000000000000000000e+00
5.630000000000000000e+02,-7.275267258670433668e-01,0.000000000000000000e+00
5.640000000000000000e+02,-9.365870043844509718e-01,0.000000000000000000e+00
5.650000000000000000e+02,-1.002692228986030498e+00,0.000000000000000000e+00
5.660000000000000000e+02,-1.125149657493315303e+00,0.000000000000000000e+00
5.670000000000000000e+02,-7.439294408767355149e-01,0.000000000000000000e+00
5.680000000000000000e+02,-7.155186544516526359e-01,0.000000000000000000e+00
5.690000000000000000e+02,-7.118003163096305874e-01,0.000000000000000000e+00
5.700000000000000000e+02,-3.763604162468714986e-01,0.000000000000000000e+00
5.710000000000000000e+02,1.309310633674542479e-01,0.000000000000000000e+00
5.720000000000000000e+02,4.355444517426437789e-01,0.000000000000000000e+00
5.730000000000000000e+02,7.654078464259769232e-01,0.000000000000000000e+00
5.740000000000000000e+02,9.899388697172063489e-01,0.000000000000000000e+00
5.750000000000000000e+02,1.487029122596685626e+00,0.000000000000000000e+00
5.760000000000000000e+02,1.621967119276616298e+00,0.000000000000000000e+00
5.770000000000000000e+02,8.040348137811652585e-01,0.000000000000000000e+00
5.780000000000000000e+02,-1.144289914979486344e-01,0.000000000000000000e+00
5.790000000000000000e+02,-1.032567202504525383e+00,0.000000000000000000e+00
5.800000000000000000e+02,-1.753846472131992629e+00,0.000000000000000000e+00
5.810000000000000000e+02,-1.997153779197242240e+00,0.000000000000000000e+00
5.820000000000000000e+02,-1.630207601542200901e+00,0.000000000000000000e+00
5.830000000000000000e+02,-2.224039108484445748e+00,0.000000000000000000e+00
5.840000000000000000e+02,-1.320150078217100065e+00,0.000000000000000000e+00
5.850000000000000000e+02,-1.471133529949434138e+00,0.000000000000000000e+00
5.860000000000000000e+02,-6.781985197745764582e-01,0.000000000000000000e+00
5.870000000000000000e+02,-8.528666205899441133e-01,0.000000000000000000e+00
5.880000000000000000e+02,-9.525405561504091123e-01,0.000000000000000000e+00
5.890000000000000000e+02,-8.120969982974449719e-01,0.000000000000000000e+00
5.900000000000000000e+02,-7.542597847545559064e-01,0.000000000000000000e+00
5.910000000000000000e+02,-5.332291273481788441e-01,0.000000000000000000e+00
5.920000000000000000e+02,-4.081143469390854928e-01,0.000000000000000000e+00
5.930000000000000000e+02,-2.343743908982076352e-01,0.000000000000000000e+00
5.940000000000000000e+02,-2.603162195073681073e-01,0.000000000000000000e+00
5.950000000000000000e+02,-3.513410688234923085e-01,0.000000000000000000e+00
5.960000000000000000e+02,-2.625432944469909269e-01,0.000000000000000000e+00
5.970000000000000000e+02,-3.855760189457492215e-01,0.000000000000000000e+00
5.980000000000000000e+02,-4.796694188523265012e-02,0.000000000000000000e+00
5.990000000000000000e+02,-8.150861025337889643e-02,0.000000000000000000e+00
6.000000000000000000e+02,4.637897332757632829e-01,0.000000000000000000e+00
6.010000000000000000e+02,1.700348226619841363e-01,0.000000000000000000e+00
6.020000000000000000e+02,6.275282548002389937e-01,0.000000000000000000e+00
6.030000000000000000e+02,2.749978691875729075e-01,0.000000000000000000e+00
6.040000000000000000e+02,1.234836418815798698e-01,0.000000000000000000e+00
6.050000000000000000e+02,2.481715085995474940e-02,0.000000000000000000e+00
6.060000000000000000e+02,-1.574714961584940398e-01,0.000000000000000000e+00
6.070000000000000000e+02,2.744909114302856445e-01,0.000000000000000000e+00
6.080000000000000000e+02,4.368816006753586945e-01,0.000000000000000000e+00
6.090000000000000000e+02,5.255081138284559694e-01,0.000000000000000000e+00
6.100000000000000000e+02,2.058458961539479104e-01,0.000000000000000000e+00
6.110000000000000000e+02,-1.827265508673729943e-01,0.000000000000000000e+00
6.120000000000000000e+02,-2.613678745003515935e-01,0.000000000000000000e+00
6.130000000000000000e+02,1.823382254932024438e-01,0.000000000000000000e+00
6.140000000000000000e+02,9.026555400042070298e-02,0.000000000000000000e+00
6.150000000000000000e+02,2.107890707356925575e-01,0.000000000000000000e+00
6.160000000000000000e+02,2.267402051344180047e-01,0.000000000000000000e+00
6.170000000000000000e+02,9.057177382609354899e-01,0.000000000000000000e+00
6.180000000000000000e+02,4.520584186392327675e-02,0.000000000000000000e+00
6.190000000000000000e+02,1.832742541465847141e+00,0.000000000000000000e+00
6.200000000000000000e+02,2.615650079520452032e+00,0.000000000000000000e+00
6.210000000000000000e+02,4.700631646198913383e-01,0.000000000000000000e+00
6.220000000000000000e+02,3.650569462158252509e+00,0.000000000000000000e+00
6.230000000000000000e+02,1.481836267631836623e+00,0.000000000000000000e+00
6.240000000000000000e+02,3.792510308563492027e-01,1.000000000000000000e+00
6.250000000000000000e+02,-1.025334973832572993e+00,0.000000000000000000e+00
6.260000000000000000e+02,-3.573537113073784188e-01,0.000000000000000000e+00
6.270000000000000000e+02,-4.114174430862690413e-01,0.000000000000000000e+00
6.280000000000000000e+02,-9.861089468139271341e-01,0.000000000000000000e+00
6.290000000000000000e+02,-8.391388479454527927e-01,0.000000000000000000e+00
6.300000000000000000e+02,-1.008207630099999585e+00,0.000000000000000000e+00
6.310000000000000000e+02,-6.337203812745351161e-01,0.000000000000000000e+00
6.320000000000000000e+02,1.694848586978089933e-01,0.000000000000000000e+00
6.330000000000000000e+02,4.200041939475146480e-02,0.000000000000000000e+00
6.340000000000000000e+02,2.586114213547090479e-01,0.000000000000000000e+00
6.350000000000000000e+02,-7.133475696863332549e-02,0.000000000000000000e+00
6.360000000000000000e+02,4.625254992128581266e-01,0.000000000000000000e+00
6.370000000000000000e+02,6.978252375515976436e-01,0.000000000000000000e+00
6.380000000000000000e+02,1.770409096120927339e+00,0.000000000000000000e+00
6.390000000000000000e+02,1.841289230982547487e+00,0.000000000000000000e+00
6.400000000000000000e+02,1.929967164678732860e+00,0.000000000000000000e+00
6.410000000000000000e+02,1.668121512358212266e+00,0.000000000000000000e+00
6.420000000000000000e+02,3.392674294633034049e-01,0.000000000000000000e+00
6.430000000000000000e+02,-6.777955918424299897e-01,0.000000000000000000e+00
6.440000000000000000e+02,-1.469151286815652657e+00,0.000000000000000000e+00
6.450000000000000000e+02,-2.116455866507046313e+00,0.000000000000000000e+00
6.460000000000000000e+02,-1.391483751740809405e+00,0.000000000000000000e+00
6.470000000000000000e+02,-1.268352762217550556e+00,0.000000000000000000e+00
6.480000000000000000e+02,-1.159184873116350767e+00,0.000000000000000000e+00
6.490000000000000000e+02,-1.014633465266378876e+00,0.000000000000000000e+00
6.500000000000000000e+02,-1.144647044777941769e+00,0.000000000000000000e+00
6.510000000000000000e+02,-1.039626661432976773e+00,0.000000000000000000e+00
6.520000000000000000e+02,-9.600571972291043199e-01,0.000000000000000000e+00
6.530000000000000000e+02,-1.139307127406000930e+00,0.000000000000000000e+00
6.540000000000000000e+02,-4.670942352678501552e-01,0.000000000000000000e+00
6.550000000000000000e+02,-1.191193822543344050e+00,0.000000000000000000e+00
6.560000000000000000e+02,-3.195717491127514909e-01,0.000000000000000000e+00
6.570000000000000000e+02,-3.730458178835521221e-01,0.000000000000000000e+00
6.580000000000000000e+02,-6.597929098704862216e-01,0.000000000000000000e+00
6.590000000000000000e+02,-2.668772355816281250e-01,0.000000000000000000e+00
6.600000000000000000e+02,-3.548929478427688688e-01,0.000000000000000000e+00
6.610000000000000000e+02,-2.753762012356660363e-02,0.000000000000000000e+00
6.620000000000000000e+02,-1.028041244370163504e-01,0.000000000000000000e+00
6.630000000000000000e+02,4.442188263579163049e-02,0.000000000000000000e+00
6.640000000000000000e+02,-8.630364219484515376e-02,0.000000000000000000e+00
6.650000000000000000e+02,6.511472504500334657e-02,0.000000000000000000e+00
6.660000000000000000e+02,3.001386098882455888e-01,0.000000000000000000e+00
6.670000000000000000e+02,2.378853454260583533e-01,0.000000000000000000e+00
6.680000000000000000e+02,1.926094039651755629e-01,0.000000000000000000e+00
6.690000000000000000e+02,1.812261725725590744e-01,0.000000000000000000e+00
6.700000000000000000e+02,3.427400249298542811e-01,0.000000000000000000e+00
6.710000000000000000e+02,3.627739155382195824e-01,0.000000000000000000e+00
6.720000000000000000e+02,4.764485797550537249e-01,0.000000000000000000e+00
6.730000000000000000e+02,5.614545402145928454e-01,0.000000000000000000e+00
6.740000000000000000e+02,1.694192755793326177e-01,0.000000000000000000e+00
6.750000000000000000e+02,4.206503050936690191e-01,0.000000000000000000e+00
6.760000000000000000e+02,8.698996890008390270e-01,0.000000000000000000e+00
6.770000000000000000e+02,8.544308464224377175e-01,0.000000000000000000e+00
6.780000000000000000e+02,6.050470842578533626e-01,0.000000000000000000e+00
6.790000000000000000e+02,3.658706853946523396e-01,0.000000000000000000e+00
6.800000000000000000e+02,5.261075946455053831e-01,0.000000000000000000e+00
6.810000000000000000e+02,9.337471272301117731e-02,0.000000000000000000e+00
6.820000000000000000e+02,3.460857686316636261e-01,0.000000000000000000e+00
6.830000000000000000e+02,1.742082620392001735e-01,0.000000000000000000e+00
6.840000000000000000e+02,-1.925024232250120981e-01,0.000000000000000000e+00
6.850000000000000000e+02,1.208882527193722300e-01,0.000000000000000000e+00
6.860000000000000000e+02,2.986470870079295237e-01,0.000000000000000000e+00
6.870000000000000000e+02,5.470023255833247333e-01,0.000000000000000000e+00
6.880000000000000000e+02,2.771634954531520534e-01,0.000000000000000000e+00
6.890000000000000000e+02,1.701865806364477818e+00,0.000000000000000000e+00
6.900000000000000000e+02,3.735363266169521079e+00,0.000000000000000000e+00
6.910000000000000000e+02,1.886929329713940229e+00,0.000000000000000000e+00
6.920000000000000000e+02,4.070140423083166148e+00,0.000000000000000000e+00
6.930000000000000000e+02,8.048644491288219072e-02,0.000000000000000000e+00
6.940000000000000000e+02,-1.608343632555218283e+00,1.000000000000000000e+00
6.950000000000000000e+02,-1.803181898170863606e+00,0.000000000000000000e+00
6.960000000000000000e+02,-9.155472784535846342e-01,0.000000000000000000e+00
6.970000000000000000e+02,-1.041776822332146413e+00,0.000000000000000000e+00
6.980000000000000000e+02,-6.674494973653940511e-01,0.000000000000000000e+00
6.990000000000000000e+02,-7.626861993970629472e-01,0.000000000000000000e+00
7.000000000000000000e+02,-8.333406841826692668e-01,0.000000000000000000e+00
7.010000000000000000e+02,-5.775017107473257028e-01,0.000000000000000000e+00
7.020000000000000000e+02,-1.215547858346991417e+00,0.000000000000000000e+00
7.030000000000000000e+02,-4.910746372651429992e-01,0.000000000000000000e+00
7.040000000000000000e+02,-3.942968364045537633e-01,0.000000000000000000e+00
7.050000000000000000e+02,-4.332770601630633323e-01,0.000000000000000000e+00
7.060000000000000000e+02,6.636413983831441765e-01,0.000000000000000000e+00
7.070000000000000000e+02,5.069800437905483959e-01,0.000000000000000000e+00
7.080000000000000000e+02,1.245410724829480120e+00,0.000000000000000000e+00
7.090000000000000000e+02,2.112721287224710309e+00,0.000000000000000000e+00
7.100000000000000000e+02,1.855673632871858381e+00,0.000000000000000000e+00
7.110000000000000000e+02,9.995890647530814022e-01,0.000000000000000000e+00
7.120000000000000000e+02,-3.286849277416794002e-01,0.000000000000000000e+00
7.130000000000000000e+02,-7.793685142216991713e-01,0.000000000000000000e+00
7.140000000000000000e+02,-1.391465150004359330e+00,0.000000000000000000e+00
7.150000000000000000e+02,-1.724988316573475844e+00,0.000000000000000000e+00
7.160000000000000000e+02,-1.410468813583448666e+00,0.000000000000000000e+00
7.170000000000000000e+02,-1.463711145508451494e+00,0.000000000000000000e+00
7.180000000000000000e+02,-1.011177520600059943e+00,0.000000000000000000e+00
7.190000000000000000e+02,-1.392212926858247490e+00,0.000000000000000000e+00
7.200000000000000000e+02,-1.097787141220869289e+00,0.000000000000000000e+00
7.210000000000000000e+02,-1.490188587798356057e+00,0.000000000000000000e+00
7.220000000000000000e+02,-1.860064883682862602e+00,0.000000000000000000e+00
7.230000000000000000e+02,-9.498158851279254744e-01,0.000000000000000000e+00
7.240000000000000000e+02,-1.067600847200451231e+00,0.000000000000000000e+00
7.250000000000000000e+02,-5.731276013635536737e-01,0.000000000000000000e+00
7.260000000000000000e+02,-1.110734402235808160e-01,0.000000000000000000e+00
7.270000000000000000e+02,-4.304004621626482119e-01,0.000000000000000000e+00
7.280000000000000000e+02,2.409602288697993977e-01,0.000000000000000000e+00
7.290000000000000000e+02,-6.444667806578326941e-01,0.000000000000000000e+00
7.300000000000000000e+02,-4.865650982267447633e-01,0.000000000000000000e+00
7.310000000000000000e+02,-5.496240179948997939e-01,0.000000000000000000e+00
7.320000000000000000e+02,-1.859194742838407854e-01,0.000000000000000000e+00
7.330000000000000000e+02,2.971545957036670904e-01,0.000000000000000000e+00
7.340000000000000000e+02,-6.265944213648394837e-03,0.000000000000000000e+00
7.350000000000000000e+02,1.830609210321643143e-01,0.000000000000000000e+00
7.360000000000000000e+02,3.309256633842576623e-01,0.000000000000000000e+00
7.370000000000000000e+02,3.349463185275702859e-01,0.000000000000000000e+00
7.380000000000000000e+02,2.175821019998502581e-01,0.000000000000000000e+00
7.390000000000000000e+02,4.061098329893255698e-01,0.000000000000000000e+00
7.400000000000000000e+02,4.746825719576933666e-01,0.000000000000000000e+00
7.410000000000000000e+02,7.569370893971018033e-01,0.000000000000000000e+00
7.420000000000000000e+02,7.827634344080366402e-01,0.000000000000000000e+00
7.430000000000000000e+02,8.016367244883060295e-01,0.000000000000000000e+00
7.440000000000000000e+02,7.105132218538214861e-01,0.000000000000000000e+00
7.450000000000000000e+02,3.368416669853663281e-01,0.000000000000000000e+00
7.460000000000000000e+02,6.430273140784613650e-01,0.000000000000000000e+00
7.470000000000000000e+02,2.782781252197139010e-01,0.000000000000000000e+00
7.480000000000000000e+02,8.503949289896796104e-01,0.000000000000000000e+00
7.490000000000000000e+02,4.489469463466236321e-01,0.000000000000000000e+00
7.500000000000000000e+02,9.018972458862326569e-01,0.000000000000000000e+00
7.510000000000000000e+02,5.620814508515177277e-01,0.000000000000000000e+00
7.520000000000000000e+02,6.755635017293301842e-04,0.000000000000000000e+00
7.530000000000000000e+02,6.312319964824502083e-01,0.000000000000000000e+00
7.540000000000000000e+02,3.622089759977707435e-01,0.000000000000000000e+00
7.550000000000000000e+02,2.257704133567743077e-01,0.000000000000000000e+00
7.560000000000000000e+02,4.889146898390949736e-01,0.000000000000000000e+00
7.570000000000000000e+02,-1.693000220889520901e-01,0.000000000000000000e+00
7.580000000000000000e+02,2.508548515910097088e+00,0.000000000000000000e+00
7.590000000000000000e+02,2.735693140956436231e+00,0.000000000000000000e+00
7.600000000000000000e+02,1.611437183546839291e+00,0.000000000000000000e+00
7.610000000000000000e+02,3.366528574583776745e+00,0.000000000000000000e+00
7.620000000000000000e+02,-5.866908015137377586e-01,1.000000000000000000e+00
7.630000000000000000e+02,-1.158648099099238493e+00,0.000000000000000000e+00
7.640000000000000000e+02,-6.558107240714523556e-01,0.000000000000000000e+00
7.650000000000000000e+02,-5.895513122262434624e-01,0.000000000000000000e+00
7.660000000000000000e+02,-4.112683085053386867e-01,0.000000000000000000e+00
7.670000000000000000e+02,-5.789170147065556549e-01,0.000000000000000000e+00
7.680000000000000000e+02,-7.487498763334500262e-01,0.000000000000000000e+00
7.690000000000000000e+02,-1.297282539436771520e+00,0.000000000000000000e+00
7.700000000000000000e+02,-5.498927707390105502e-01,0.000000000000000000e+00
7.710000000000000000e+02,-8.094175378387128417e-01,0.000000000000000000e+00
7.720000000000000000e+02,-5.502072209582759693e-02,0.000000000000000000e+00
7.730000000000000000e+02,-2.421464321955138776e-01,0.000000000000000000e+00
7.740000000000000000e+02,7.723100119743833702e-02,0.000000000000000000e+00
7.750000000000000000e+02,6.585263253483437662e-01,0.000000000000000000e+00
7.760000000000000000e+02,9.978413843019771079e-01,0.000000000000000000e+00
7.770000000000000000e+02,1.177676342558487521e+00,0.000000000000000000e+00
7.780000000000000000e+02,9.642058407138066611e-01,0.000000000000000000e+00
7.790000000000000000e+02,1.747880361137425398e+00,0.000000000000000000e+00
7.800000000000000000e+02,7.708782961675455514e-01,0.000000000000000000e+00
7.810000000000000000e+02,1.218705203531069703e-01,0.000000000000000000e+00
7.820000000000000000e+02,-1.201970603159201234e+00,0.000000000000000000e+00
7.830000000000000000e+02,-1.667692647325753841e+00,0.000000000000000000e+00
7.840000000000000000e+02,-1.343963746907667511e+00,0.000000000000000000e+00
7.850000000000000000e+02,-1.631720271124929011e+00,0.000000000000000000e+00
7.860000000000000000e+02,-1.595762925168230373e+00,0.000000000000000000e+00
7.870000000000000000e+02,-1.827982572704693220e+00,0.000000000000000000e+00
7.880000000000000000e+02,-1.030644082369908787e+00,0.000000000000000000e+00
7.890000000000000000e+02,-1.308326692537896907e+00,0.000000000000000000e+00
7.900000000000000000e+02,-7.804565891072191564e-01,0.000000000000000000e+00
7.910000000000000000e+02,-1.013833599421246623e+00,0.000000000000000000e+00
7.920000000000000000e+02,-9.282806872298720036e-01,0.000000000000000000e+00
7.930000000000000000e+02,-4.095424159915744822e-01,0.000000000000000000e+00
7.940000000000000000e+02,-6.624173141819011956e-01,0.000000000000000000e+00
7.950000000000000000e+02,-3.686492280599792948e-01,0.000000000000000000e+00
7.960000000000000000e+02,-8.466172651182853892e-01,0.000000000000000000e+00
7.970000000000000000e+02,-5.761627146655400322e-01,0.000000000000000000e+00
7.980000000000000000e+02,-9.128471817815549949e-01,0.000000000000000000e+00
7.990000000000000000e+02,-6.296387774419029970e-01,0.000000000000000000e+00
8.000000000000000000e+02,-3.527205384578729341e-01,0.000000000000000000e+00
8.010000000000000000e+02,-3.335116346401234555e-01,0.000000000000000000e+00
8.020000000000000000e+02,-1.099838357790629551e-01,0.000000000000000000e+00
8.030000000000000000e+02,2.786596711694591111e-01,0.000000000000000000e+00
8.040000000000000000e+02,2.792683138872309456e-01,0.000000000000000000e+00
8.050000000000000000e+02,2.409184698602105101e-01,0.000000000000000000e+00
8.060000000000000000e+02,3.867565418588695403e-01,0.000000000000000000e+00
8.070000000000000000e+02,1.068556215368638845e-01,0.000000000000000000e+00
8.080000000000000000e+02,1.417714716415770793e-01,0.000000000000000000e+00
8.090000000000000000e+02,2.800737207385792238e-01,0.000000000000000000e+00
8.100000000000000000e+02,3.161941033130893364e-01,0.000000000000000000e+00
8.110000000000000000e+02,3.925855214253772263e-01,0.000000000000000000e+00
8.120000000000000000e+02,3.092456861081653297e-01,0.000000000000000000e+00
8.130000000000000000e+02,2.858190515074943150e-01,0.000000000000000000e+00
8.140000000000000000e+02,8.379322893879971590e-02,0.000000000000000000e+00
8.150000000000000000e+02,4.625821937469867251e-01,0.000000000000000000e+00
8.160000000000000000e+02,1.305564555726128617e-01,0.000000000000000000e+00
8.170000000000000000e+02,8.477552337308289498e-01,0.000000000000000000e+00
8.180000000000000000e+02,4.563820733677889097e-01,0.000000000000000000e+00
8.190000000000000000e+02,1.784214587031546895e+00,0.000000000000000000e+00
8.200000000000000000e+02,3.118040345564860871e+00,0.000000000000000000e+00
8.210000000000000000e+02,-4.576919939195672193e-01,0.000000000000000000e+00
8.220000000000000000e+02,2.040154032107220683e+00,0.000000000000000000e+00
8.230000000000000000e+02,1.584090277246979150e+00,0.000000000000000000e+00
8.240000000000000000e+02,-2.952629706828994172e-01,1.000000000000000000e+00
8.250000000000000000e+02,-7.321941819872220814e-01,0.000000000000000000e+00
8.260000000000000000e+02,-4.314493680895286065e-01,0.000000000000000000e+00
8.270000000000000000e+02,-4.053210670695211459e-01,0.000000000000000000e+00
8.280000000000000000e+02,-2.527371681935500769e-01,0.000000000000000000e+00
8.290000000000000000e+02,-3.268250255324306464e-02,0.000000000000000000e+00
8.300000000000000000e+02,-1.876892661900789738e-01,0.000000000000000000e+00
8.310000000000000000e+02,-2.951755323298442257e-01,0.000000000000000000e+00
8.320000000000000000e+02,-6.920134642320796559e-02,0.000000000000000000e+00
8.330000000000000000e+02,3.699703693215115607e-01,0.000000000000000000e+00
8.340000000000000000e+02,2.295020886063846577e-01,0.000000000000000000e+00
8.350000000000000000e+02,8.359582659469106947e-01,0.000000000000000000e+00
8.360000000000000000e+02,3.445890850555186069e-01,0.000000000000000000e+00
8.370000000000000000e+02,7.602328045905017984e-01,0.000000000000000000e+00
8.380000000000000000e+02,1.174996817629928803e+00,0.000000000000000000e+00
8.390000000000000000e+02,1.263818880980849046e+00,0.000000000000000000e+00
8.400000000000000000e+02,1.780352266096030256e+00,0.000000000000000000e+00
8.410000000000000000e+02,1.446633566334615706e+00,0.000000000000000000e+00
8.420000000000000000e+02,4.784239568374836771e-01,0.000000000000000000e+00
8.430000000000000000e+02,-6.270928861577332869e-01,0.000000000000000000e+00
8.440000000000000000e+02,-1.109824980677894590e+00,0.000000000000000000e+00
8.450000000000000000e+02,-1.217267510576886203e+00,0.000000000000000000e+00
8.460000000000000000e+02,-1.474653002643493860e+00,0.000000000000000000e+00
8.470000000000000000e+02,-1.430578409652897509e+00,0.000000000000000000e+00
8.480000000000000000e+02,-1.119347290930324146e+00,0.000000000000000000e+00
8.490000000000000000e+02,-9.298890471336763719e-01,0.000000000000000000e+00
8.500000000000000000e+02,-1.581145945719788060e+00,0.000000000000000000e+00
8.510000000000000000e+02,-1.081942925687694679e+00,0.000000000000000000e+00
8.520000000000000000e+02,-1.007861254883107627e+00,0.000000000000000000e+00
8.530000000000000000e+02,-7.055714078692313374e-01,0.000000000000000000e+00
8.540000000000000000e+02,-8.803798715691113497e-01,0.000000000000000000e+00
8.550000000000000000e+02,-6.538363054611292524e-01,0.000000000000000000e+00
8.560000000000000000e+02,-5.757365141621223481e-01,0.000000000000000000e+00
8.570000000000000000e+02,-8.949003606523915355e-01,0.000000000000000000e+00
8.580000000000000000e+02,-6.358542180308164316e-01,0.000000000000000000e+00
8.590000000000000000e+02,-6.350585103857580016e-01,0.000000000000000000e+00
8.600000000000000000e+02,-5.839096819003619654e-01,0.000000000000000000e+00
8.610000000000000000e+02,-4.927770002532127491e-01,0.000000000000000000e+00
8.620000000000000000e+02,8.307877829953785875e-02,0.000000000000000000e+00
8.630000000000000000e+02,-1.281729965060697807e-01,0.000000000000000000e+00
8.640000000000000000e+02,3.415071990931754509e-01,0.000000000000000000e+00
8.650000000000000000e+02,-1.929293563837066253e-02,0.000000000000000000e+00
8.660000000000000000e+02,-5.046857427125966272e-02,0.000000000000000000e+00
8.670000000000000000e+02,1.777385631482130968e-01,0.000000000000000000e+00
8.680000000000000000e+02,3.586184707496061219e-01,0.000000000000000000e+00
8.690000000000000000e+02,5.994378730592584414e-01,0.000000000000000000e+00
8.700000000000000000e+02,8.379213817974481282e-01,0.000000000000000000e+00
8.710000000000000000e+02,5.764365841514408340e-01,0.000000000000000000e+00
8.720000000000000000e+02,4.446703827977057100e-01,0.000000000000000000e+00
8.730000000000000000e+02,2.897195371293747046e-01,0.000000000000000000e+00
8.740000000000000000e+02,2.723755387082941182e-01,0.000000000000000000e+00
8.750000000000000000e+02,1.517687794274068802e-01,0.000000000000000000e+00
8.760000000000000000e+02,1.806009413608039016e-01,0.000000000000000000e+00
8.770000000000000000e+02,3.202897452308020032e-01,0.000000000000000000e+00
8.780000000000000000e+02,2.968472675703628938e-01,0.000000000000000000e+00
8.790000000000000000e+02,4.026439516472578029e-01,0.000000000000000000e+00
8.800000000000000000e+02,4.890865715504765232e-01,0.000000000000000000e+00
8.810000000000000000e+02,4.913156820717228812e-01,0.000000000000000000e+00
8.820000000000000000e+02,3.215199562710768233e-01,0.000000000000000000e+00
8.830000000000000000e+02,4.520150703680281823e-01,0.000000000000000000e+00
8.840000000000000000e+02,3.625966894334966550e-01,0.000000000000000000e+00
8.850000000000000000e+02,4.422284858485413250e-02,0.000000000000000000e+00
8.860000000000000000e+02,5.215647163082305360e-01,0.000000000000000000e+00
8.870000000000000000e+02,3.708483933019029455e-01,0.000000000000000000e+00
8.880000000000000000e+02,9.555154813895599952e-01,0.000000000000000000e+00
8.890000000000000000e+02,4.413957644295881111e-01,0.000000000000000000e+00
8.900000000000000000e+02,5.654530284275264274e-01,0.000000000000000000e+00
8.910000000000000000e+02,2.600007198671738795e-01,0.000000000000000000e+00
8.920000000000000000e+02,6.917128280615074398e-02,0.000000000000000000e+00
8.930000000000000000e+02,4.847211407871481192e-01,0.000000000000000000e+00
8.940000000000000000e+02,1.740487581693105079e-01,0.000000000000000000e+00
8.950000000000000000e+02,3.347913145440727933e-01,0.000000000000000000e+00
8.960000000000000000e+02,4.720802576220849978e-01,0.000000000000000000e+00
8.970000000000000000e+02,2.720612883139634230e-01,0.000000000000000000e+00
8.980000000000000000e+02,-6.108839945729641063e-02,0.000000000000000000e+00
8.990000000000000000e+02,1.137097011900880805e-01,0.000000000000000000e+00
9.000000000000000000e+02,-3.977127093565837046e-01,0.000000000000000000e+00
9.010000000000000000e+02,2.756149437877585262e-01,0.000000000000000000e+00
9.020000000000000000e+02,5.554243679456439403e-03,0.000000000000000000e+00
9.030000000000000000e+02,3.381902119062369927e-01,0.000000000000000000e+00
9.040000000000000000e+02,4.905325452693600624e-02,0.000000000000000000e+00
9.050000000000000000e+02,2.543732029958180263e+00,0.000000000000000000e+00
9.060000000000000000e+02,1.389729432553507893e+00,0.000000000000000000e+00
9.070000000000000000e+02,1.280642822324557839e+00,0.000000000000000000e+00
9.080000000000000000e+02,2.054090657178305523e+00,0.000000000000000000e+00
9.090000000000000000e+02,-1.461646964340581167e+00,1.000000000000000000e+00
9.100000000000000000e+02,-1.620531420440934234e+00,0.000000000000000000e+00
9.110000000000000000e+02,-1.079538865891359611e+00,0.000000000000000000e+00
9.120000000000000000e+02,-8.569388785795740704e-01,0.000000000000000000e+00
9.130000000000000000e+02,-9.740083836970512277e-01,0.000000000000000000e+00
9.140000000000000000e+02,-7.977503373425901545e-01,0.000000000000000000e+00
9.150000000000000000e+02,-9.668032402718839124e-01,0.000000000000000000e+00
9.160000000000000000e+02,-5.607087358106219721e-01,0.000000000000000000e+00
9.170000000000000000e+02,-8.159905661450771452e-01,0.000000000000000000e+00
9.180000000000000000e+02,-9.718547136264381603e-01,0.000000000000000000e+00
9.190000000000000000e+02,-8.658330593036881462e-01,0.000000000000000000e+00
9.200000000000000000e+02,-5.923479757875900198e-01,0.000000000000000000e+00
9.210000000000000000e+02,1.026601103506782908e-01,0.000000000000000000e+00
9.220000000000000000e+02,7.295939483915596657e-01,0.000000000000000000e+00
9.230000000000000000e+02,6.127548248464271818e-01,0.000000000000000000e+00
9.240000000000000000e+02,1.109235791980897057e+00,0.000000000000000000e+00
9.250000000000000000e+02,1.229989573896743682e+00,0.000000000000000000e+00
9.260000000000000000e+02,1.483125937488931401e+00,0.000000000000000000e+00
9.270000000000000000e+02,5.056345796210973687e-01,0.000000000000000000e+00
9.280000000000000000e+02,-6.052320662966461651e-01,0.000000000000000000e+00
9.290000000000000000e+02,-1.437205606469849073e+00,0.000000000000000000e+00
9.300000000000000000e+02,-1.810274156437289284e+00,0.000000000000000000e+00
9.310000000000000000e+02,-1.518729315478310804e+00,0.000000000000000000e+00
9.320000000000000000e+02,-1.201864447252952939e+00,0.000000000000000000e+00
9.330000000000000000e+02,-1.638811004060869436e+00,0.000000000000000000e+00
9.340000000000000000e+02,-9.023508919781304538e-01,0.000000000000000000e+00
9.350000000000000000e+02,-1.308138404455629011e+00,0.000000000000000000e+00
9.360000000000000000e+02,-1.274450224718261637e+00,0.000000000000000000e+00
9.370000000000000000e+02,-1.162859581493685290e+00,0.000000000000000000e+00
9.380000000000000000e+02,-1.083190118263525292e+00,0.000000000000000000e+00
9.390000000000000000e+02,-9.108029331698350717e-01,0.000000000000000000e+00
9.400000000000000000e+02,-8.393045368429337127e-01,0.000000000000000000e+00
9.410000000000000000e+02,6.109047589197443701e-02,0.000000000000000000e+00
9.420000000000000000e+02,-9.361254366560405049e-02,0.000000000000000000e+00
9.430000000000000000e+02,5.355766986278145264e-02,0.000000000000000000e+00
9.440000000000000000e+02,-3.268679662979903644e-01,0.000000000000000000e+00
9.450000000000000000e+02,-5.519627524788583983e-01,0.000000000000000000e+00
9.460000000000000000e+02,-5.759768005943176339e-02,0.000000000000000000e+00
9.470000000000000000e+02,-1.855834729116619675e-01,0.000000000000000000e+00
9.480000000000000000e+02,-2.767707667108343927e-01,0.000000000000000000e+00
9.490000000000000000e+02,4.150488258078356973e-01,0.000000000000000000e+00
9.500000000000000000e+02,3.378746817772499411e-01,0.000000000000000000e+00
9.510000000000000000e+02,7.651558746820483758e-01,0.000000000000000000e+00
9.520000000000000000e+02,1.570089908261407818e-01,0.000000000000000000e+00
9.530000000000000000e+02,1.311134463283046281e-01,0.000000000000000000e+00
9.540000000000000000e+02,3.547373234282771935e-03,0.000000000000000000e+00
9.550000000000000000e+02,5.376612295831671995e-01,0.000000000000000000e+00
9.560000000000000000e+02,5.544598952831177874e-01,0.000000000000000000e+00
9.570000000000000000e+02,3.274750710536504239e-01,0.000000000000000000e+00
9.580000000000000000e+02,6.224926873597914634e-01,0.000000000000000000e+00
9.590000000000000000e+02,8.024206376920799411e-01,0.000000000000000000e+00
9.600000000000000000e+02,8.272849125361235734e-01,0.000000000000000000e+00
9.610000000000000000e+02,3.387660466276970483e-01,0.000000000000000000e+00
9.620000000000000000e+02,3.883991212939728599e-01,0.000000000000000000e+00
9.630000000000000000e+02,4.162488092264335915e-01,0.000000000000000000e+00
9.640000000000000000e+02,5.740929311580555972e-01,0.000000000000000000e+00
9.650000000000000000e+02,5.769240862185025520e-01,0.000000000000000000e+00
9.660000000000000000e+02,5.987683018434039051e-01,0.000000000000000000e+00
9.670000000000000000e+02,4.251251372758900748e-01,0.000000000000000000e+00
9.680000000000000000e+02,7.398353720583201731e-01,0.000000000000000000e+00
9.690000000000000000e+02,1.056022672963915943e+00,0.000000000000000000e+00
9.700000000000000000e+02,1.424868321667285276e+00,0.000000000000000000e+00
9.710000000000000000e+02,3.486299420242566227e-01,0.000000000000000000e+00
9.720000000000000000e+02,4.863615976079596059e-01,0.000000000000000000e+00
9.730000000000000000e+02,5.639538552086922202e-02,0.000000000000000000e+00
9.740000000000000000e+02,4.722454010655877665e-01,0.000000000000000000e+00
9.750000000000000000e+02,-2.579227723118744930e-01,0.000000000000000000e+00
9.760000000000000000e+02,2.864809490944509873e-01,0.000000000000000000e+00
9.770000000000000000e+02,5.376210206454162810e-01,0.000000000000000000e+00
9.780000000000000000e+02,2.305856510748620913e-01,0.000000000000000000e+00
9.790000000000000000e+02,8.308537287657601356e-01,0.000000000000000000e+00
9.800000000000000000e+02,5.311013026707035456e-01,0.000000000000000000e+00
9.810000000000000000e+02,6.147947489300109591e-01,0.000000000000000000e+00
9.820000000000000000e+02,-8.269582555479498831e-02,0.000000000000000000e+00
9.830000000000000000e+02,-8.279741715858335294e-02,0.000000000000000000e+00
9.840000000000000000e+02,-2.670163772369486543e-01,0.000000000000000000e+00
9.850000000000000000e+02,4.705466100930406625e-01,0.000000000000000000e+00
9.860000000000000000e+02,-9.181754785200071933e-02,0.000000000000000000e+00
9.870000000000000000e+02,-3.352563664249290643e-01,0.000000000000000000e+00
9.880000000000000000e+02,-4.080737629277020329e-01,0.000000000000000000e+00
9.890000000000000000e+02,-6.791355066265951368e-02,0.000000000000000000e+00
9.900000000000000000e+02,1.775996738675764408e-01,0.000000000000000000e+00
9.910000000000000000e+02,-1.514055269179782337e-01,0.000000000000000000e+00
9.920000000000000000e+02,1.086311658784149814e-01,0.000000000000000000e+00
9.930000000000000000e+02,2.860557380397303895e-01,0.000000000000000000e+00
9.940000000000000000e+02,-1.534882180731082617e-02,0.000000000000000000e+00
9.950000000000000000e+02,-1.182694536510670719e-01,0.000000000000000000e+00
9.960000000000000000e+02,-5.712742485250686952e-01,0.000000000000000000e+00
9.970000000000000000e+02,-6.647745809959192398e-01,0.000000000000000000e+00
9.980000000000000000e+02,2.527387953228995565e-01,0.000000000000000000e+00
9.990000000000000000e+02,-3.103954728161413268e-01,0.000000000000000000e+00
1.000000000000000000e+03,2.657585227823061835e+00,0.000000000000000000e+00
1.001000000000000000e+03,5.131924076221421743e-02,0.000000000000000000e+00
1.002000000000000000e+03,-4.436740847729405135e-01,0.000000000000000000e+00
1.003000000000000000e+03,2.762490466293703317e+00,0.000000000000000000e+00
1.004000000000000000e+03,-1.017417636077620147e+00,1.000000000000000000e+00
1.005000000000000000e+03,-2.074343634322534324e+00,0.000000000000000000e+00
1.006000000000000000e+03,-1.323244375564098130e+00,0.000000000000000000e+00
1.007000000000000000e+03,-5.667167575988454331e-01,0.000000000000000000e+00
1.008000000000000000e+03,-8.268866912643192402e-01,0.000000000000000000e+00
1.009000000000000000e+03,-9.439287546182876243e-01,0.000000000000000000e+00
1.010000000000000000e+03,-8.068083642661244559e-01,0.000000000000000000e+00
1.011000000000000000e+03,-6.063219856815273978e-01,0.000000000000000000e+00
1.012000000000000000e+03,-5.482696972671230462e-01,0.000000000000000000e+00
1.013000000000000000e+03,-4.885508696794317873e-01,0.000000000000000000e+00
1.014000000000000000e+03,2.400014455901057844e-02,0.000000000000000000e+00
1.015000000000000000e+03,5.639897885163875912e-01,0.000000000000000000e+00
1.016000000000000000e+03,6.360317114597356936e-01,0.000000000000000000e+00
1.017000000000000000e+03,3.994376201314616126e-01,0.000000000000000000e+00
1.018000000000000000e+03,4.484980820223354314e-01,0.000000000000000000e+00
1.019000000000000000e+03,1.138011871117314833e+00,0.000000000000000000e+00
1.020000000000000000e+03,1.819785360980519462e+00,0.000000000000000000e+00
1.021000000000000000e+03,1.944265827973492122e+00,0.000000000000000000e+00
1.022000000000000000e+03,1.811981809065173810e+00,0.000000000000000000e+00
1.023000000000000000e+03,9.327142557514199739e-01,0.000000000000000000e+00
1.024000000000000000e+03,-1.117984387892908410e-01,0.000000000000000000e+00
1.025000000000000000e+03,-1.008374363147153119e+00,0.000000000000000000e+00
1.026000000000000000e+03,-1.888213712013542489e+00,0.000000000000000000e+00
1.027000000000000000e+03,-1.705740134235992356e+00,0.000000000000000000e+00
1.028000000000000000e+03,-2.326775690429427446e+00,0.000000000000000000e+00
1.029000000000000000e+03,-1.756337878945598119e+00,0.000000000000000000e+00
1.030000000000000000e+03,-1.981864352661570683e+00,0.000000000000000000e+00
1.031000000000000000e+03,-1.641520289841681413e+00,0.000000000000000000e+00
1.032000000000000000e+03,-1.058846057777884875e+00,0.000000000000000000e+00
1.033000000000000000e+03,-1.485966023476245290e+00,0.000000000000000000e+00
1.034000000000000000e+03,-1.197498641222896287e+00,0.000000000000000000e+00
1.035000000000000000e+03,-8.409497201163305125e-01,0.000000000000000000e+00
1.036000000000000000e+03,-1.913511121419305960e-01,0.000000000000000000e+00
1.037000000000000000e+03,-5.541974271230495352e-01,0.000000000000000000e+00
1.038000000000000000e+03,-2.813690405129478656e-01,0.000000000000000000e+00
1.039000000000000000e+03,-8.125791254985073042e-01,0.000000000000000000e+00
1.040000000000000000e+03,-4.672856028535914419e-01,0.000000000000000000e+00
1.041000000000000000e+03,-2.298804853343989762e-01,0.000000000000000000e+00
1.042000000000000000e+03,-2.187254720868209712e-01,0.000000000000000000e+00
1.043000000000000000e+03,-2.707125135449922060e-01,0.000000000000000000e+00
1.044000000000000000e+03,-2.892534398369187576e-01,0.000000000000000000e+00
1.045000000000000000e+03,7.243782082523087147e-03,0.000000000000000000e+00
1.046000000000000000e+03,-5.180936364255328552e-02,0.000000000000000000e+00
1.047000000000000000e+03,5.118604236577249944e-01,0.000000000000000000e+00
1.048000000000000000e+03,1.763737401048583731e-01,0.000000000000000000e+00
1.049000000000000000e+03,2.151044170725635862e-01,0.000000000000000000e+00
1.050000000000000000e+03,1.017469739812514762e+00,0.000000000000000000e+00
1.051000000000000000e+03,6.557390760591548240e-01,0.000000000000000000e+00
1.052000000000000000e+03,1.643720285550933358e-01,0.000000000000000000e+00
1.053000000000000000e+03,7.407344746121018453e-01,0.000000000000000000e+00
1.054000000000000000e+03,1.816635894418473784e-01,0.000000000000000000e+00
1.055000000000000000e+03,3.516431913206929383e-01,0.000000000000000000e+00
1.056000000000000000e+03,6.379395180078151206e-02,0.000000000000000000e+00
1.057000000000000000e+03,3.999484489246939445e-01,0.000000000000000000e+00
1.058000000000000000e+03,9.242685987474823506e-01,0.000000000000000000e+00
1.059000000000000000e+03,1.130216171655339163e+00,0.000000000000000000e+00
1.060000000000000000e+03,1.297714500165753293e+00,0.000000000000000000e+00
1.061000000000000000e+03,1.104604084273945519e+00,0.000000000000000000e+00
1.062000000000000000e+03,8.871365189237134796e-01,0.000000000000000000e+00
1.063000000000000000e+03,4.814328702937133997e-01,0.000000000000000000e+00
1.064000000000000000e+03,5.639723846332683754e-01,0.000000000000000000e+00
1.065000000000000000e+03,3.290777768783056390e-01,0.000000000000000000e+00
1.066000000000000000e+03,3.489890069172290610e-01,0.000000000000000000e+00
1.067000000000000000e+03,7.340904967902910361e-01,0.000000000000000000e+00
1.068000000000000000e+03,7.411035760966535602e-01,0.000000000000000000e+00
1.069000000000000000e+03,9.968166480150572051e-01,0.000000000000000000e+00
1.070000000000000000e+03,7.109575982916690462e-01,0.000000000000000000e+00
1.071000000000000000e+03,6.172157071750660196e-01,0.000000000000000000e+00
1.072000000000000000e+03,4.356131608498624574e-01,0.000000000000000000e+00
1.073000000000000000e+03,1.024474775432084733e-01,0.000000000000000000e+00
1.074000000000000000e+03,4.009447302927771073e-02,0.000000000000000000e+00
1.075000000000000000e+03,1.847336144974764394e-01,0.000000000000000000e+00
1.076000000000000000e+03,-1.560909691003295246e-03,0.000000000000000000e+00
1.077000000000000000e+03,6.242045181416577826e-01,0.000000000000000000e+00
1.078000000000000000e+03,2.676892904629190606e-01,0.000000000000000000e+00
1.079000000000000000e+03,4.178455192036707455e-01,0.000000000000000000e+00
1.080000000000000000e+03,-6.692529311843450901e-02,0.000000000000000000e+00
1.081000000000000000e+03,3.127520807452399600e-03,0.000000000000000000e+00
1.082000000000000000e+03,-1.534766841591869990e-01,0.000000000000000000e+00
1.083000000000000000e+03,-1.176217215373660668e-01,0.000000000000000000e+00
1.084000000000000000e+03,1.914833306180830363e-01,0.000000000000000000e+00
1.085000000000000000e+03,3.090519682579309299e-02,0.000000000000000000e+00
1.086000000000000000e+03,1.813897534138780299e-01,0.000000000000000000e+00
1.087000000000000000e+03,-8.220860932198311571e-03,0.000000000000000000e+00
1.088000000000000000e+03,-2.319838613912267658e-02,0.000000000000000000e+00
1.089000000000000000e+03,-4.077770467854212044e-01,0.000000000000000000e+00
1.090000000000000000e+03,1.364631361476644211e-01,0.000000000000000000e+00
1.091000000000000000e+03,-4.735027742499636205e-01,0.000000000000000000e+00
1.092000000000000000e+03,-3.913423253384136491e-02,0.000000000000000000e+00
1.093000000000000000e+03,-4.028658055817445072e-01,0.000000000000000000e+00
1.094000000000000000e+03,2.710979718262298555e+00,0.000000000000000000e+00
1.095000000000000000e+03,-3.759558570557213208e-01,0.000000000000000000e+00
1.096000000000000000e+03,1.859963503028596310e-01,0.000000000000000000e+00
1.097000000000000000e+03,2.948176502124217002e+00,0.000000000000000000e+00
1.098000000000000000e+03,-2.219362622013854036e-01,1.000000000000000000e+00
1.099000000000000000e+03,-1.798520275982647743e+00,0.000000000000000000e+00
1.100000000000000000e+03,-1.250366928577912429e+00,0.000000000000000000e+00
1.101000000000000000e+03,-1.151682307734528621e+00,0.000000000000000000e+00
1.102000000000000000e+03,-9.493132625358613463e-01,0.000000000000000000e+00
1.103000000000000000e+03,-9.321897449927341039e-01,0.000000000000000000e+00
1.104000000000000000e+03,-1.099845629188348939e+00,0.000000000000000000e+00
1.105000000000000000e+03,1.715691873857114799e-03,0.000000000000000000e+00
1.106000000000000000e+03,1.421784710220580783e-01,0.000000000000000000e+00
1.107000000000000000e+03,-1.616402918027610991e-01,0.000000000000000000e+00
1.108000000000000000e+03,3.926123713698163042e-01,0.000000000000000000e+00
1.109000000000000000e+03,3.945146673842703233e-01,0.000000000000000000e+00
1.110000000000000000e+03,-4.176787025053272512e-02,0.000000000000000000e+00
1.111000000000000000e+03,-2.820927757496853872e-01,0.000000000000000000e+00
1.112000000000000000e+03,-1.695287158207599842e-01,0.000000000000000000e+00
1.113000000000000000e+03,9.843543317567101658e-01,0.000000000000000000e+00
1.114000000000000000e+03,1.367027838712664423e+00,0.000000000000000000e+00
1.115000000000000000e+03,2.028020716743605512e+00,0.000000000000000000e+00
1.116000000000000000e+03,1.563516748942182844e+00,0.000000000000000000e+00
1.117000000000000000e+03,8.434985449610175046e-01,0.000000000000000000e+00
1.118000000000000000e+03,-6.011239746103572701e-01,0.000000000000000000e+00
1.119000000000000000e+03,-1.850215203708687639e+00,0.000000000000000000e+00
1.120000000000000000e+03,-2.330876723144911011e+00,0.000000000000000000e+00
1.121000000000000000e+03,-2.458724954409648777e+00,0.000000000000000000e+00
1.122000000000000000e+03,-2.329592147581089900e+00,0.000000000000000000e+00
1.123000000000000000e+03,-1.773262737665402211e+00,0.000000000000000000e+00
1.124000000000000000e+03,-1.675452469072324924e+00,0.000000000000000000e+00
1.125000000000000000e+03,-1.052143265463095112e+00,0.000000000000000000e+00
1.126000000000000000e+03,-1.480512327065940825e+00,0.000000000000000000e+00
1.127000000000000000e+03,-9.270106464611512775e-01,0.000000000000000000e+00
1.128000000000000000e+03,-1.109984642887668294e+00,0.000000000000000000e+00
1.129000000000000000e+03,-9.444181353628109399e-01,0.000000000000000000e+00
1.130000000000000000e+03,-1.301364744335092194e+00,0.000000000000000000e+00
1.131000000000000000e+03,-1.118362542764884227e+00,0.000000000000000000e+00
1.132000000000000000e+03,-1.232627250140978292e+00,0.000000000000000000e+00
1.133000000000000000e+03,-9.682947052883507100e-01,0.000000000000000000e+00
1.134000000000000000e+03,-6.169080525799433001e-01,0.000000000000000000e+00
1.135000000000000000e+03,1.542460158846496454e-01,0.000000000000000000e+00
1.136000000000000000e+03,4.935354412917543343e-02,0.000000000000000000e+00
1.137000000000000000e+03,2.895515356752715319e-01,0.000000000000000000e+00
1.138000000000000000e+03,8.486481313135810223e-02,0.000000000000000000e+00
1.139000000000000000e+03,-4.774659586126812211e-02,0.000000000000000000e+00
1.140000000000000000e+03,-5.595530960674768295e-01,0.000000000000000000e+00
1.141000000000000000e+03,-3.978625010711260290e-01,0.000000000000000000e+00
1.142000000000000000e+03,-6.964831461173351945e-01,0.000000000000000000e+00
1.143000000000000000e+03,2.709858815891373340e-01,0.000000000000000000e+00
1.144000000000000000e+03,6.343513236094956431e-01,0.000000000000000000e+00
1.145000000000000000e+03,9.528722255859345402e-01,0.000000000000000000e+00
1.146000000000000000e+03,7.532840072914331886e-01,0.000000000000000000e+00
1.147000000000000000e+03,6.471386545329798068e-01,0.000000000000000000e+00
1.148000000000000000e+03,5.673354973855903038e-01,0.000000000000000000e+00
1.149000000000000000e+03,2.158594300677742495e-01,0.000000000000000000e+00
1.150000000000000000e+03,3.668315469521315486e-01,0.000000000000000000e+00
1.151000000000000000e+03,6.791974098775028779e-01,0.000000000000000000e+00
1.152000000000000000e+03,1.095088298554281803e+00,0.000000000000000000e+00
1.153000000000000000e+03,1.195694005581646735e+00,0.000000000000000000e+00
1.154000000000000000e+03,1.370566615564684509e+00,0.000000000000000000e+00
1.155000000000000000e+03,9.717470057034737208e-01,0.000000000000000000e+00
1.156000000000000000e+03,7.135176165604323328e-01,0.000000000000000000e+00
1.157000000000000000e+03,3.083551009054811831e-01,0.000000000000000000e+00
1.158000000000000000e+03,2.884825660478879672e-01,0.000000000000000000e+00
1.159000000000000000e+03,5.399950756924245532e-01,0.000000000000000000e+00
1.160000000000000000e+03,9.922380316767628328e-01,0.000000000000000000e+00
1.161000000000000000e+03,9.035965304054028868e-01,0.000000000000000000e+00
1.162000000000000000e+03,1.366577936679059579e+00,0.000000000000000000e+00
1.163000000000000000e+03,4.059901277070879999e+00,0.000000000000000000e+00
1.164000000000000000e+03,9.169647817492826425e-01,0.000000000000000000e+00
1.165000000000000000e+03,2.744382328897773338e+00,0.000000000000000000e+00
1.166000000000000000e+03,1.880040194234507300e+00,0.000000000000000000e+00
1.167000000000000000e+03,-2.266026989180019990e-01,1.000000000000000000e+00
1.168000000000000000e+03,-4.806163704751587606e-01,0.000000000000000000e+00
1.169000000000000000e+03,-1.804673763344080140e-01,0.000000000000000000e+00
1.170000000000000000e+03,-1.041866418579070752e-01,0.000000000000000000e+00
1.171000000000000000e+03,-2.064154855685921275e-01,0.000000000000000000e+00
1.172000000000000000e+03,-4.084300330261309009e-01,0.000000000000000000e+00
1.173000000000000000e+03,-7.319126265216161498e-01,0.000000000000000000e+00
1.174000000000000000e+03,-7.245042720854482088e-01,0.000000000000000000e+00
1.175000000000000000e+03,-8.437625781526120194e-01,0.000000000000000000e+00
1.176000000000000000e+03,-2.112782101773365562e-01,0.000000000000000000e+00
1.177000000000000000e+03,-6.969872314772179722e-02,0.000000000000000000e+00
1.178000000000000000e+03,2.631892074945680338e-01,0.000000000000000000e+00
1.179000000000000000e+03,4.603478326668067333e-01,0.000000000000000000e+00
1.180000000000000000e+03,4.667993574441778315e-01,0.000000000000000000e+00
1.181000000000000000e+03,8.595977085566594011e-01,0.000000000000000000e+00
1.182000000000000000e+03,1.356500604488677375e+00,0.000000000000000000e+00
1.183000000000000000e+03,1.723258591016831431e+00,0.000000000000000000e+00
1.184000000000000000e+03,1.609943871799082604e+00,0.000000000000000000e+00
1.185000000000000000e+03,7.359836749055232996e-01,0.000000000000000000e+00
1.186000000000000000e+03,1.868376564113909122e-01,0.000000000000000000e+00
1.187000000000000000e+03,-1.088766033438467007e+00,0.000000000000000000e+00
1.188000000000000000e+03,-1.642293312730677135e+00,0.000000000000000000e+00
1.189000000000000000e+03,-2.258106936745987614e+00,0.000000000000000000e+00
1.190000000000000000e+03,-2.365069432292433937e+00,0.000000000000000000e+00
1.191000000000000000e+03,-1.951272233869470574e+00,0.000000000000000000e+00
1.192000000000000000e+03,-1.668593848078292918e+00,0.000000000000000000e+00
1.193000000000000000e+03,-1.209322537712947065e+00,0.000000000000000000e+00
1.194000000000000000e+03,-1.088660392993405113e+00,0.000000000000000000e+00
1.195000000000000000e+03,-6.756214664133847192e-01,0.000000000000000000e+00
1.196000000000000000e+03,-7.636326884880225707e-01,0.000000000000000000e+00
1.197000000000000000e+03,-9.203476542795022697e-01,0.000000000000000000e+00
1.198000000000000000e+03,-7.118737246514759143e-01,0.000000000000000000e+00
1.199000000000000000e+03,-1.291616286756198217e+00,0.000000000000000000e+00
1.200000000000000000e+03,-7.680908246584629007e-01,0.000000000000000000e+00
1.201000000000000000e+03,-4.044254030902588171e-01,0.000000000000000000e+00
1.202000000000000000e+03,-4.021352714833693054e-01,0.000000000000000000e+00
1.203000000000000000e+03,-1.191952654289179514e-01,0.000000000000000000e+00
1.204000000000000000e+03,1.121808830924578143e-01,0.000000000000000000e+00
1.205000000000000000e+03,-5.937524502130160642e-02,0.000000000000000000e+00
1.206000000000000000e+03,-1.548541429755106724e-01,0.000000000000000000e+00
1.207000000000000000e+03,9.708031129121708069e-02,0.000000000000000000e+00
1.208000000000000000e+03,-2.557172329529517896e-01,0.000000000000000000e+00
1.209000000000000000e+03,-2.596289827103017145e-01,0.000000000000000000e+00
1.210000000000000000e+03,6.527040105923370694e-02,0.000000000000000000e+00
1.211000000000000000e+03,6.129368305261400085e-01,0.000000000000000000e+00
1.212000000000000000e+03,3.425282546083917024e-01,0.000000000000000000e+00
1.213000000000000000e+03,6.014313864397998755e-01,0.000000000000000000e+00
1.214000000000000000e+03,-6.149221422653852742e-02,0.000000000000000000e+00
1.215000000000000000e+03,1.631544236239157730e-01,0.000000000000000000e+00
1.216000000000000000e+03,4.886862123095490895e-02,0.000000000000000000e+00
1.217000000000000000e+03,1.809336527186183041e-01,0.000000000000000000e+00
1.218000000000000000e+03,3.624982415306840511e-01,0.000000000000000000e+00
1.219000000000000000e+03,6.459433212496821231e-01,0.000000000000000000e+00
1.220000000000000000e+03,7.910318394050183111e-01,0.000000000000000000e+00
1.221000000000000000e+03,6.344714599738251470e-01,0.000000000000000000e+00
1.222000000000000000e+03,4.200277029812520269e-01,0.000000000000000000e+00
1.223000000000000000e+03,5.344359463964905022e-01,0.000000000000000000e+00
1.224000000000000000e+03,2.946923400512715396e-01,0.000000000000000000e+00
1.225000000000000000e+03,5.313887865284896428e-01,0.000000000000000000e+00
1.226000000000000000e+03,3.825183862003714297e-01,0.000000000000000000e+00
1.227000000000000000e+03,7.935281903806380432e-01,0.000000000000000000e+00
1.228000000000000000e+03,3.915841241532029282e-01,0.000000000000000000e+00
1.229000000000000000e+03,5.798140223323492437e-01,0.000000000000000000e+00
1.230000000000000000e+03,4.914193754040647177e-01,0.000000000000000000e+00
1.231000000000000000e+03,-1.407127496336774419e-01,0.000000000000000000e+00
1.232000000000000000e+03,1.890215252053189798e-01,0.000000000000000000e+00
1.233000000000000000e+03,1.935241634646722997e-01,0.000000000000000000e+00
1.234000000000000000e+03,1.292603637732266282e-02,0.000000000000000000e+00
1.235000000000000000e+03,7.010115329783473959e-01,0.000000000000000000e+00
1.236000000000000000e+03,-2.034050018650401526e-01,0.000000000000000000e+00
1.237000000000000000e+03,2.697409905344503867e-01,0.000000000000000000e+00
1.238000000000000000e+03,1.761836332321561616e-01,0.000000000000000000e+00
1.239000000000000000e+03,1.980150348339526079e-01,0.000000000000000000e+00
1.240000000000000000e+03,-3.848571173703153048e-01,0.000000000000000000e+00
1.241000000000000000e+03,7.411440321446809143e-02,0.000000000000000000e+00
1.242000000000000000e+03,-1.745778607268848870e-01,0.000000000000000000e+00
1.243000000000000000e+03,3.961221354263990690e-01,0.000000000000000000e+00
1.244000000000000000e+03,2.232949080100582462e-01,0.000000000000000000e+00
1.245000000000000000e+03,7.881799772855502262e-01,0.000000000000000000e+00
1.246000000000000000e+03,-1.963572856953003098e-01,0.000000000000000000e+00
1.247000000000000000e+03,-2.273915148705933087e-01,0.000000000000000000e+00
1.248000000000000000e+03,-6.073586276839566533e-01,0.000000000000000000e+00
1.249000000000000000e+03,-5.124535706952275671e-01,0.000000000000000000e+00
1.250000000000000000e+03,-5.963020279049808803e-01,0.000000000000000000e+00
1.251000000000000000e+03,-4.634045429403901295e-01,0.000000000000000000e+00
1.252000000000000000e+03,-1.698385649356544125e-01,0.000000000000000000e+00
1.253000000000000000e+03,8.476648776643859462e-02,0.000000000000000000e+00
1.254000000000000000e+03,2.766840856440945795e-01,0.000000000000000000e+00
1.255000000000000000e+03,2.245001874937695430e+00,0.000000000000000000e+00
1.256000000000000000e+03,-1.272723895955381046e-01,0.000000000000000000e+00
1.257000000000000000e+03,-2.157317397191990782e+00,0.000000000000000000e+00
1.258000000000000000e+03,2.147832636233072634e+00,1.000000000000000000e+00
1.259000000000000000e+03,7.780591608888785815e-02,0.000000000000000000e+00
1.260000000000000000e+03,-1.047954685735515534e+00,0.000000000000000000e+00
1.261000000000000000e+03,-3.413902309081353614e-01,0.000000000000000000e+00
1.262000000000000000e+03,-2.128622974917183108e-01,0.000000000000000000e+00
1.263000000000000000e+03,-2.118250497543833488e-01,0.000000000000000000e+00
1.264000000000000000e+03,-3.405653353641561187e-01,0.000000000000000000e+00
1.265000000000000000e+03,-5.092331495920464635e-01,0.000000000000000000e+00
1.266000000000000000e+03,1.309974888583365776e-02,0.000000000000000000e+00
1.267000000000000000e+03,-3.265863281389166928e-01,0.000000000000000000e+00
1.268000000000000000e+03,4.590671660316960612e-01,0.000000000000000000e+00
1.269000000000000000e+03,2.490131748566946079e-01,0.000000000000000000e+00
1.270000000000000000e+03,3.953427074135316688e-01,0.000000000000000000e+00
1.271000000000000000e+03,3.720555845483562996e-01,0.000000000000000000e+00
1.272000000000000000e+03,7.943433527604490951e-01,0.000000000000000000e+00
1.273000000000000000e+03,7.577242338196226168e-01,0.000000000000000000e+00
1.274000000000000000e+03,1.433643586710087181e+00,0.000000000000000000e+00
1.275000000000000000e+03,1.526529830128901200e+00,0.000000000000000000e+00
1.276000000000000000e+03,1.927956928061798081e+00,0.000000000000000000e+00
1.277000000000000000e+03,1.795991780556339457e+00,0.000000000000000000e+00
1.278000000000000000e+03,6.451226611959585133e-01,0.000000000000000000e+00
1.279000000000000000e+03,-9.485438035232910403e-01,0.000000000000000000e+00
1.280000000000000000e+03,-1.448448553108045767e+00,0.000000000000000000e+00
1.281000000000000000e+03,-1.950115640671217232e+00,0.000000000000000000e+00
1.282000000000000000e+03,-2.219059694127059501e+00,0.000000000000000000e+00
1.283000000000000000e+03,-2.378067935955847645e+00,0.000000000000000000e+00
1.284000000000000000e+03,-1.771715590061607726e+00,0.000000000000000000e+00
1.285000000000000000e+03,-1.813201363646551378e+00,0.000000000000000000e+00
1.286000000000000000e+03,-1.390324197090007319e+00,0.000000000000000000e+00
1.287000000000000000e+03,-1.484742382981765196e+00,0.000000000000000000e+00
1.288000000000000000e+03,-1.206575294552834743e+00,0.000000000000000000e+00
1.289000000000000000e+03,-1.058890522407525348e+00,0.000000000000000000e+00
1.290000000000000000e+03,-7.881062675813528262e-01,0.000000000000000000e+00
1.291000000000000000e+03,-1.367327923525083255e+00,0.000000000000000000e+00
1.292000000000000000e+03,-8.803278049094632740e-01,0.000000000000000000e+00
1.293000000000000000e+03,-9.036897099267917621e-01,0.000000000000000000e+00
1.294000000000000000e+03,-8.643316296315830538e-01,0.000000000000000000e+00
1.295000000000000000e+03,-4.672007873133168232e-01,0.000000000000000000e+00
1.296000000000000000e+03,-4.201641422586251950e-01,0.000000000000000000e+00
1.297000000000000000e+03,-2.766181070875322057e-01,0.000000000000000000e+00
1.298000000000000000e+03,-4.179904820163332091e-01,0.000000000000000000e+00
1.299000000000000000e+03,-3.090696057597542429e-02,0.000000000000000000e+00
1.300000000000000000e+03,-5.404095114681068540e-02,0.000000000000000000e+00
1.301000000000000000e+03,-2.976466755122764846e-02,0.000000000000000000e+00
1.302000000000000000e+03,4.999771802481851185e-02,0.000000000000000000e+00
1.303000000000000000e+03,2.375447304661617437e-02,0.000000000000000000e+00
1.304000000000000000e+03,-1.967757965770523532e-01,0.000000000000000000e+00
1.305000000000000000e+03,4.675628787361783001e-01,0.000000000000000000e+00
1.306000000000000000e+03,7.354777206851790261e-01,0.000000000000000000e+00
1.307000000000000000e+03,3.297204117365443721e-01,0.000000000000000000e+00
1.308000000000000000e+03,3.611022936969096597e-01,0.000000000000000000e+00
1.309000000000000000e+03,1.225008975965287572e+00,0.000000000000000000e+00
1.310000000000000000e+03,4.636615139984124889e-01,0.000000000000000000e+00
1.311000000000000000e+03,1.703492282550629622e-01,0.000000000000000000e+00
1.312000000000000000e+03,9.492261374328461176e-01,0.000000000000000000e+00
1.313000000000000000e+03,1.871156286554722659e-01,0.000000000000000000e+00
1.314000000000000000e+03,3.371197781211797695e-01,0.000000000000000000e+00
1.315000000000000000e+03,5.776309949524431886e-01,0.000000000000000000e+00
1.316000000000000000e+03,3.738640331963170582e-01,0.000000000000000000e+00
1.317000000000000000e+03,9.501647735518236049e-01,0.000000000000000000e+00
1.318000000000000000e+03,-1.100978892507111472e-02,0.000000000000000000e+00
1.319000000000000000e+03,4.261147174312233110e-01,0.000000000000000000e+00
1.320000000000000000e+03,7.606388166654228788e-01,0.000000000000000000e+00
1.321000000000000000e+03,4.854083378332623711e-01,0.000000000000000000e+00
1.322000000000000000e+03,2.471510464853988176e-01,0.000000000000000000e+00
1.323000000000000000e+03,1.192401272544104218e+00,0.000000000000000000e+00
1.324000000000000000e+03,1.000458564053027244e+00,0.000000000000000000e+00
1.325000000000000000e+03,3.429258115486784053e-01,0.000000000000000000e+00
1.326000000000000000e+03,1.088176954578000455e+00,0.000000000000000000e+00
1.327000000000000000e+03,3.070944233513713817e-01,0.000000000000000000e+00
1.328000000000000000e+03,3.261122677112585633e-01,0.000000000000000000e+00
1.329000000000000000e+03,4.021082901143883670e-01,0.000000000000000000e+00
1.330000000000000000e+03,4.904395068503298871e-01,0.000000000000000000e+00
1.331000000000000000e+03,1.422347275689673340e+00,0.000000000000000000e+00
1.332000000000000000e+03,3.826523740534409357e-01,0.000000000000000000e+00
1.333000000000000000e+03,7.693939984660896902e-01,0.000000000000000000e+00
1.334000000000000000e+03,5.100764816594827167e-01,0.000000000000000000e+00
1.335000000000000000e+03,2.372951340675570342e-01,0.000000000000000000e+00
1.336000000000000000e+03,-6.388223966821575395e-02,0.000000000000000000e+00
1.337000000000000000e+03,2.949322379912731051e-01,0.000000000000000000e+00
1.338000000000000000e+03,-9.049265888988186624e-02,0.000000000000000000e+00
1.339000000000000000e+03,7.970920524500285653e-01,0.000000000000000000e+00
1.340000000000000000e+03,5.858393744077156073e-01,0.000000000000000000e+00
1.341000000000000000e+03,6.883651543637645531e-01,0.000000000000000000e+00
1.342000000000000000e+03,8.138273015849696312e-01,0.000000000000000000e+00
1.343000000000000000e+03,6.359728147887805383e-02,0.000000000000000000e+00
1.344000000000000000e+03,2.261415843201749765e-01,0.000000000000000000e+00
1.345000000000000000e+03,-2.375048628163580478e-01,0.000000000000000000e+00
1.346000000000000000e+03,-1.512214525446210767e-01,0.000000000000000000e+00
1.347000000000000000e+03,1.412506060001438024e-02,0.000000000000000000e+00
1.348000000000000000e+03,5.125685986469399325e-01,0.000000000000000000e+00
1.349000000000000000e+03,2.994309959932884624e+00,0.000000000000000000e+00
1.350000000000000000e+03,-2.261630985183141984e+00,0.000000000000000000e+00
1.351000000000000000e+03,1.128593964742684808e+00,0.000000000000000000e+00
1.352000000000000000e+03,1.424641218326730296e+00,0.000000000000000000e+00
1.353000000000000000e+03,-1.875692501006176016e+00,1.000000000000000000e+00
1.354000000000000000e+03,-1.371134419103291036e+00,0.000000000000000000e+00
1.355000000000000000e+03,-8.805731994242532723e-01,0.000000000000000000e+00
1.356000000000000000e+03,-2.578274747894672703e-01,0.000000000000000000e+00
1.357000000000000000e+03,-6.758253147575075115e-01,0.000000000000000000e+00
1.358000000000000000e+03,-7.908372857909869158e-02,0.000000000000000000e+00
1.359000000000000000e+03,8.530361247458234653e-02,0.000000000000000000e+00
1.360000000000000000e+03,-4.559551450280692753e-01,0.000000000000000000e+00
1.361000000000000000e+03,-8.112758636830379178e-02,0.000000000000000000e+00
1.362000000000000000e+03,1.527783760364532228e-01,0.000000000000000000e+00
1.363000000000000000e+03,3.034912745492618358e-02,0.000000000000000000e+00
1.364000000000000000e+03,-1.904700459963176162e-01,0.000000000000000000e+00
1.365000000000000000e+03,-2.639058688242171824e-01,0.000000000000000000e+00
1.366000000000000000e+03,-8.440964176549969541e-03,0.000000000000000000e+00
1.367000000000000000e+03,6.287662545368392086e-01,0.000000000000000000e+00
1.368000000000000000e+03,1.331106343935178460e+00,0.000000000000000000e+00
1.369000000000000000e+03,1.504060451779750673e+00,0.000000000000000000e+00
1.370000000000000000e+03,2.132105762925112558e+00,0.000000000000000000e+00
1.371000000000000000e+03,1.241524230678491492e+00,0.000000000000000000e+00
1.372000000000000000e+03,2.995461364794148040e-01,0.000000000000000000e+00
1.373000000000000000e+03,-1.038399137436655018e+00,0.000000000000000000e+00
1.374000000000000000e+03,-1.797132176482830079e+00,0.000000000000000000e+00
1.375000000000000000e+03,-1.968345646105522428e+00,0.000000000000000000e+00
1.376000000000000000e+03,-1.756818395123677767e+00,0.000000000000000000e+00
1.377000000000000000e+03,-2.159242045136453569e+00,0.000000000000000000e+00
1.378000000000000000e+03,-1.488727847294644580e+00,0.000000000000000000e+00
1.379000000000000000e+03,-1.507849917254628913e+00,0.000000000000000000e+00
1.380000000000000000e+03,3.965471491298221962e-01,0.000000000000000000e+00
1.381000000000000000e+03,2.402809738390981220e+00,0.000000000000000000e+00
1.382000000000000000e+03,3.784166606497080920e+00,0.000000000000000000e+00
1.383000000000000000e+03,1.755500630578363142e+00,0.000000000000000000e+00
1.384000000000000000e+03,-2.428974792062422061e+00,0.000000000000000000e+00
1.385000000000000000e+03,-2.592489797126643403e+00,1.000000000000000000e+00
1.386000000000000000e+03,-6.530936985273037010e+00,0.000000000000000000e+00
1.387000000000000000e+03,-4.298049307684782327e+00,0.000000000000000000e+00
1.388000000000000000e+03,-1.681578933512240193e+00,0.000000000000000000e+00
1.389000000000000000e+03,-1.896007096060839059e+00,0.000000000000000000e+00
1.390000000000000000e+03,-1.195346485137421144e+00,0.000000000000000000e+00
1.391000000000000000e+03,-1.085559964982566017e+00,0.000000000000000000e+00
1.392000000000000000e+03,-8.207150058433032580e-01,0.000000000000000000e+00
1.393000000000000000e+03,-6.391932085311909928e-01,0.000000000000000000e+00
1.394000000000000000e+03,-5.902239786249663389e-01,0.000000000000000000e+00
1.395000000000000000e+03,-3.168205387867055745e-01,0.000000000000000000e+00
1.396000000000000000e+03,3.401019609679358791e-01,0.000000000000000000e+00
1.397000000000000000e+03,4.526185175487184020e-01,0.000000000000000000e+00
1.398000000000000000e+03,5.248821864178844221e-01,0.000000000000000000e+00
1.399000000000000000e+03,1.059930547231105136e+00,0.000000000000000000e+00
1.400000000000000000e+03,1.204072816813482438e+00,0.000000000000000000e+00
1.401000000000000000e+03,9.527747750653545733e-01,0.000000000000000000e+00
1.402000000000000000e+03,9.476392527194651416e-01,0.000000000000000000e+00
1.403000000000000000e+03,8.577620095045941362e-01,0.000000000000000000e+00
1.404000000000000000e+03,-9.144550357655545358e-02,0.000000000000000000e+00
1.405000000000000000e+03,-1.377355929147134339e-01,0.000000000000000000e+00
1.406000000000000000e+03,-4.311805058569506133e-01,0.000000000000000000e+00
1.407000000000000000e+03,-2.880967354768518285e-01,0.000000000000000000e+00
1.408000000000000000e+03,-6.110606916672329803e-01,0.000000000000000000e+00
1.409000000000000000e+03,-4.693484488026390400e-01,0.000000000000000000e+00
1.410000000000000000e+03,-2.898913936073172493e-01,0.000000000000000000e+00
1.411000000000000000e+03,-3.749231902597825461e-01,0.000000000000000000e+00
1.412000000000000000e+03,2.219987468926880869e-01,0.000000000000000000e+00
1.413000000000000000e+03,5.053074927527985254e-03,0.000000000000000000e+00
1.414000000000000000e+03,3.209884685164526852e-01,0.000000000000000000e+00
1.415000000000000000e+03,1.467703162692177432e-01,0.000000000000000000e+00
1.416000000000000000e+03,-1.505955351361357164e-01,0.000000000000000000e+00
1.417000000000000000e+03,1.038476117763155460e-01,0.000000000000000000e+00
1.418000000000000000e+03,2.369542489611136671e-01,0.000000000000000000e+00
1.419000000000000000e+03,5.518612054930410737e-02,0.000000000000000000e+00
1.420000000000000000e+03,3.713677251907992471e-01,0.000000000000000000e+00
1.421000000000000000e+03,4.223450395658941425e-01,0.000000000000000000e+00
1.422000000000000000e+03,6.011838555279179763e-01,0.000000000000000000e+00
1.423000000000000000e+03,7.581562697510809690e-01,0.000000000000000000e+00
1.424000000000000000e+03,7.407331476140686100e-01,0.000000000000000000e+00
1.425000000000000000e+03,7.737872068953265403e-01,0.000000000000000000e+00
1.426000000000000000e+03,6.597738120204952317e-01,0.000000000000000000e+00
1.427000000000000000e+03,6.614529183575014182e-01,0.000000000000000000e+00
1.428000000000000000e+03,9.354796769697769632e-01,0.000000000000000000e+00
1.429000000000000000e+03,8.106240120236943847e-01,0.000000000000000000e+00
1.430000000000000000e+03,9.494683771185110643e-01,0.000000000000000000e+00
1.431000000000000000e+03,2.660289384810777258e-01,0.000000000000000000e+00
1.432000000000000000e+03,6.475926470611877983e-01,0.000000000000000000e+00
1.433000000000000000e+03,5.227119091955069186e-01,0.000000000000000000e+00
1.434000000000000000e+03,7.005465876020359195e-01,0.000000000000000000e+00
1.435000000000000000e+03,3.124837364808016882e-01,0.000000000000000000e+00
1.436000000000000000e+03,7.961236369960663639e-01,0.000000000000000000e+00
1.437000000000000000e+03,3.377025123166906839e-01,0.000000000000000000e+00
1.438000000000000000e+03,7.624411087640843299e-01,0.000000000000000000e+00
1.439000000000000000e+03,1.906133458255767910e-01,0.000000000000000000e+00
1.440000000000000000e+03,1.981251031925874984e-01,0.000000000000000000e+00
1.441000000000000000e+03,4.816843828760820068e-01,0.000000000000000000e+00
1.442000000000000000e+03,9.655688797120297595e-01,0.000000000000000000e+00
1.443000000000000000e+03,4.826355737386580635e-01,0.000000000000000000e+00
1.444000000000000000e+03,5.885461408247268933e-01,0.000000000000000000e+00
1.445000000000000000e+03,4.514037860150206805e-01,0.000000000000000000e+00
1.446000000000000000e+03,8.459148434295009622e-01,0.000000000000000000e+00
1.447000000000000000e+03,-5.517548979570973539e-02,0.000000000000000000e+00
1.448000000000000000e+03,6.416326056287486868e-01,0.000000000000000000e+00
1.449000000000000000e+03,3.534461352437950898e-01,0.000000000000000000e+00
1.450000000000000000e+03,6.036382577961971752e-01,0.000000000000000000e+00
1.451000000000000000e+03,4.888567233324939698e-01,0.000000000000000000e+00
1.452000000000000000e+03,1.509843433493692988e+00,0.000000000000000000e+00
1.453000000000000000e+03,3.081892909711880790e+00,0.000000000000000000e+00
1.454000000000000000e+03,1.032089460380826829e+00,0.000000000000000000e+00
1.455000000000000000e+03,3.259712079088495695e+00,0.000000000000000000e+00
1.456000000000000000e+03,-7.171438002666993272e-01,1.000000000000000000e+00
1.457000000000000000e+03,-1.710182034468453960e+00,0.000000000000000000e+00
1.458000000000000000e+03,-8.595231801498852686e-01,0.000000000000000000e+00
1.459000000000000000e+03,-8.213660646090499284e-01,0.000000000000000000e+00
1.460000000000000000e+03,-9.408393749909739201e-01,0.000000000000000000e+00
1.461000000000000000e+03,-6.903716714930940856e-01,0.000000000000000000e+00
1.462000000000000000e+03,-7.879243931176370674e-01,0.000000000000000000e+00
1.463000000000000000e+03,-5.518419505566499739e-01,0.000000000000000000e+00
1.464000000000000000e+03,-5.903273104957017514e-01,0.000000000000000000e+00
1.465000000000000000e+03,-9.237447304895726186e-01,0.000000000000000000e+00
1.466000000000000000e+03,1.926753066054669450e-01,0.000000000000000000e+00
1.467000000000000000e+03,-2.542693920630557103e-01,0.000000000000000000e+00
1.468000000000000000e+03,-1.748042693142543014e-01,0.000000000000000000e+00
1.469000000000000000e+03,-2.258519927084996215e-01,0.000000000000000000e+00
1.470000000000000000e+03,2.459239228011246559e-01,0.000000000000000000e+00
1.471000000000000000e+03,9.098881884537525222e-01,0.000000000000000000e+00
1.472000000000000000e+03,1.308000504150645504e+00,0.000000000000000000e+00
1.473000000000000000e+03,1.817818123501542704e+00,0.000000000000000000e+00
1.474000000000000000e+03,1.295037275300863655e+00,0.000000000000000000e+00
1.475000000000000000e+03,3.068463373610466616e-01,0.000000000000000000e+00
1.476000000000000000e+03,-8.191403418487994692e-01,0.000000000000000000e+00
1.477000000000000000e+03,-1.830098167336098758e+00,0.000000000000000000e+00
1.478000000000000000e+03,-2.045143642709144061e+00,0.000000000000000000e+00
1.479000000000000000e+03,-1.975106993954050871e+00,0.000000000000000000e+00
1.480000000000000000e+03,-1.719877032654475446e+00,0.000000000000000000e+00
1.481000000000000000e+03,-1.675601211262619294e+00,0.000000000000000000e+00
1.482000000000000000e+03,-1.420749239221697158e+00,0.000000000000000000e+00
1.483000000000000000e+03,-1.489200496252361505e+00,0.000000000000000000e+00
1.484000000000000000e+03,-1.812937098174476347e+00,0.000000000000000000e+00
1.485000000000000000e+03,-1.656356269877506504e+00,0.000000000000000000e+00
1.486000000000000000e+03,-1.803873168290968110e+00,0.000000000000000000e+00
1.487000000000000000e+03,-1.369510000742621969e+00,0.000000000000000000e+00
1.488000000000000000e+03,-1.301710763821547490e+00,0.000000000000000000e+00
1.489000000000000000e+03,-6.938996205813221518e-01,0.000000000000000000e+00
1.490000000000000000e+03,-9.313882411429976749e-01,0.000000000000000000e+00
1.491000000000000000e+03,-5.987988404714238433e-01,0.000000000000000000e+00
1.492000000000000000e+03,-8.968897115800732456e-01,0.000000000000000000e+00
1.493000000000000000e+03,-6.701466511310351093e-01,0.000000000000000000e+00
1.494000000000000000e+03,-2.729295321313415790e-01,0.000000000000000000e+00
1.495000000000000000e+03,-7.049828621387603800e-01,0.000000000000000000e+00
1.496000000000000000e+03,-5.284305841482066501e-01,0.000000000000000000e+00
1.497000000000000000e+03,-1.902799397789858293e-01,0.000000000000000000e+00
1.498000000000000000e+03,1.624544962853036179e-01,0.000000000000000000e+00
1.499000000000000000e+03,1.146386546149002622e-01,0.000000000000000000e+00
1.500000000000000000e+03,1.201412420350059795e-01,0.000000000000000000e+00
1.501000000000000000e+03,-9.113396595094999664e-02,0.000000000000000000e+00
1.502000000000000000e+03,5.026413796478161888e-01,0.000000000000000000e+00
1.503000000000000000e+03,1.599411070304181115e-01,0.000000000000000000e+00
1.504000000000000000e+03,1.681512676631279346e-01,0.000000000000000000e+00
1.505000000000000000e+03,1.968170862150577516e-01,0.000000000000000000e+00
1.506000000000000000e+03,-6.036988482564220604e-02,0.000000000000000000e+00
1.507000000000000000e+03,4.248500687918336238e-01,0.000000000000000000e+00
1.508000000000000000e+03,7.724236188417973326e-01,0.000000000000000000e+00
1.509000000000000000e+03,6.996748393264335952e-01,0.000000000000000000e+00
1.510000000000000000e+03,1.075911173332213755e+00,0.000000000000000000e+00
1.511000000000000000e+03,5.306012097441810127e-01,0.000000000000000000e+00
1.512000000000000000e+03,3.092008576109177564e-01,0.000000000000000000e+00
1.513000000000000000e+03,3.922050187580666814e-01,0.000000000000000000e+00
1.514000000000000000e+03,5.076341756743774081e-01,0.000000000000000000e+00
1.515000000000000000e+03,5.962611633220318286e-01,0.000000000000000000e+00
1.516000000000000000e+03,6.588261133172043094e-01,0.000000000000000000e+00
1.517000000000000000e+03,1.117528923308168443e+00,0.000000000000000000e+00
1.518000000000000000e+03,1.051843854139658641e+00,0.000000000000000000e+00
1.519000000000000000e+03,1.463441573327615153e+00,0.000000000000000000e+00
1.520000000000000000e+03,4.145935843297336554e+00,0.000000000000000000e+00
1.521000000000000000e+03,7.332065559884611838e-01,0.000000000000000000e+00
1.522000000000000000e+03,2.497878234818101895e+00,0.000000000000000000e+00
1.523000000000000000e+03,2.075494947455003736e+00,0.000000000000000000e+00
1.524000000000000000e+03,-3.464056732567296487e-02,1.000000000000000000e+00
1.525000000000000000e+03,-9.093001138208908207e-01,0.000000000000000000e+00
1.526000000000000000e+03,-2.372854882977231405e-01,0.000000000000000000e+00
1.527000000000000000e+03,-1.402890497479995502e-01,0.000000000000000000e+00
1.528000000000000000e+03,-4.721533925737518844e-01,0.000000000000000000e+00
1.529000000000000000e+03,-9.834857874193685401e-01,0.000000000000000000e+00
1.530000000000000000e+03,-1.212713652530930775e+00,0.000000000000000000e+00
1.531000000000000000e+03,-6.092079030280322938e-01,0.000000000000000000e+00
1.532000000000000000e+03,-5.169852416117790561e-01,0.000000000000000000e+00
1.533000000000000000e+03,-1.541197542216064809e-01,0.000000000000000000e+00
1.534000000000000000e+03,1.755229964331951886e-01,0.000000000000000000e+00
1.535000000000000000e+03,5.799821108486123977e-01,0.000000000000000000e+00
1.536000000000000000e+03,6.036902492713174251e-01,0.000000000000000000e+00
1.537000000000000000e+03,6.782224333219321055e-01,0.000000000000000000e+00
1.538000000000000000e+03,8.576955595221618101e-01,0.000000000000000000e+00
1.539000000000000000e+03,1.179504339956823467e+00,0.000000000000000000e+00
1.540000000000000000e+03,1.039407513448700637e+00,0.000000000000000000e+00
1.541000000000000000e+03,1.795494097114853638e+00,0.000000000000000000e+00
1.542000000000000000e+03,4.827798004582086189e-01,0.000000000000000000e+00
1.543000000000000000e+03,-1.437751840404945525e-01,0.000000000000000000e+00
1.544000000000000000e+03,-1.008826981982342330e+00,0.000000000000000000e+00
1.545000000000000000e+03,-1.769374250473921384e+00,0.000000000000000000e+00
1.546000000000000000e+03,-1.880799310026846971e+00,0.000000000000000000e+00
1.547000000000000000e+03,-1.738344747193349971e+00,0.000000000000000000e+00
1.548000000000000000e+03,-1.407769852476039141e+00,0.000000000000000000e+00
1.549000000000000000e+03,-1.396357920688162668e+00,0.000000000000000000e+00
1.550000000000000000e+03,-1.495546350320056561e+00,0.000000000000000000e+00
1.551000000000000000e+03,-8.502713183038721478e-01,0.000000000000000000e+00
1.552000000000000000e+03,-1.184783787023250268e+00,0.000000000000000000e+00
1.553000000000000000e+03,-1.010039293739944499e+00,0.000000000000000000e+00
1.554000000000000000e+03,-9.061865591595640312e-01,0.000000000000000000e+00
1.555000000000000000e+03,-7.720925237023500420e-01,0.000000000000000000e+00
1.556000000000000000e+03,-6.708814653492367608e-01,0.000000000000000000e+00
1.557000000000000000e+03,-5.967648884684110255e-01,0.000000000000000000e+00
1.558000000000000000e+03,-2.044280736431029755e-01,0.000000000000000000e+00
1.559000000000000000e+03,-4.581721906309413894e-01,0.000000000000000000e+00
1.560000000000000000e+03,-4.381696228974837903e-01,0.000000000000000000e+00
1.561000000000000000e+03,-3.585545635518067598e-01,0.000000000000000000e+00
1.562000000000000000e+03,7.706490209293226368e-02,0.000000000000000000e+00
1.563000000000000000e+03,-2.375588619319471684e-01,0.000000000000000000e+00
1.564000000000000000e+03,-3.767032862449054553e-01,0.000000000000000000e+00
1.565000000000000000e+03,-2.684627994043065624e-01,0.000000000000000000e+00
1.566000000000000000e+03,1.522057243868329447e-02,0.000000000000000000e+00
1.567000000000000000e+03,3.386385601097771647e-01,0.000000000000000000e+00
1.568000000000000000e+03,2.875996255715458361e-01,0.000000000000000000e+00
1.569000000000000000e+03,4.489058553410077979e-01,0.000000000000000000e+00
1.570000000000000000e+03,5.305748699736425600e-01,0.000000000000000000e+00
1.571000000000000000e+03,4.978228166883692518e-01,0.000000000000000000e+00
1.572000000000000000e+03,2.082130922014182872e-01,0.000000000000000000e+00
1.573000000000000000e+03,9.595102159714072321e-02,0.000000000000000000e+00
1.574000000000000000e+03,3.118068669276242710e-01,0.000000000000000000e+00
1.575000000000000000e+03,4.912666193034894713e-01,0.000000000000000000e+00
1.576000000000000000e+03,7.566941586665086872e-01,0.000000000000000000e+00
1.577000000000000000e+03,7.971248529921280968e-01,0.000000000000000000e+00
1.578000000000000000e+03,6.937960040963024877e-01,0.000000000000000000e+00
1.579000000000000000e+03,8.172232939334632684e-01,0.000000000000000000e+00
1.580000000000000000e+03,-9.984138738668603755e-03,0.000000000000000000e+00
1.581000000000000000e+03,2.504565949593142715e-01,0.000000000000000000e+00
1.582000000000000000e+03,5.311510911692652881e-01,0.000000000000000000e+00
1.583000000000000000e+03,6.926771816240342439e-01,0.000000000000000000e+00
1.584000000000000000e+03,6.327929244780230444e-01,0.000000000000000000e+00
1.585000000000000000e+03,7.051544139504972719e-01,0.000000000000000000e+00
1.586000000000000000e+03,5.129903664746633396e-01,0.000000000000000000e+00
1.587000000000000000e+03,2.808871465736886841e-01,0.000000000000000000e+00
1.588000000000000000e+03,6.322768600916366388e-01,0.000000000000000000e+00
