timestamp,ecg_measurement,qrs_detected
0.000000000000000000e+00,1.206979962342031309e-01,0.000000000000000000e+00
1.000000000000000000e+00,-8.090489965991087828e-02,0.000000000000000000e+00
2.000000000000000000e+00,-2.759814225813559951e-01,0.000000000000000000e+00
3.000000000000000000e+00,1.000924480197514510e-01,0.000000000000000000e+00
4.000000000000000000e+00,8.436680563533860422e-01,0.000000000000000000e+00
5.000000000000000000e+00,7.267057686952324014e-01,0.000000000000000000e+00
6.000000000000000000e+00,4.503948304662879210e-01,0.000000000000000000e+00
7.000000000000000000e+00,-2.634580772175783639e-02,0.000000000000000000e+00
8.000000000000000000e+00,-1.048647699901667923e-01,0.000000000000000000e+00
9.000000000000000000e+00,-6.307863456106094224e-03,0.000000000000000000e+00
1.000000000000000000e+01,-3.207843828128400521e-01,0.000000000000000000e+00
1.100000000000000000e+01,2.688902098262241913e-01,0.000000000000000000e+00
1.200000000000000000e+01,2.795867541596527839e-01,0.000000000000000000e+00
1.300000000000000000e+01,5.363481000690887290e-01,0.000000000000000000e+00
1.400000000000000000e+01,3.529454902480667622e-01,0.000000000000000000e+00
1.500000000000000000e+01,1.847702549980479170e-01,0.000000000000000000e+00
1.600000000000000000e+01,3.007055770056029642e-01,0.000000000000000000e+00
1.700000000000000000e+01,-2.279770256400948103e-01,0.000000000000000000e+00
1.800000000000000000e+01,1.988579105176474862e-02,0.000000000000000000e+00
1.900000000000000000e+01,-2.551516562877976790e-01,0.000000000000000000e+00
2.000000000000000000e+01,5.536992172414484381e-01,0.000000000000000000e+00
2.100000000000000000e+01,3.531113430752583215e-01,0.000000000000000000e+00
2.200000000000000000e+01,4.457254029380499638e-01,0.000000000000000000e+00
2.300000000000000000e+01,7.134397129525950065e-01,0.000000000000000000e+00
2.400000000000000000e+01,2.613667973845108516e+00,0.000000000000000000e+00
2.500000000000000000e+01,-2.008520833643822723e+00,0.000000000000000000e+00
2.600000000000000000e+01,-2.001439666956711660e-01,1.000000000000000000e+00
2.700000000000000000e+01,1.573152305469647017e+00,0.000000000000000000e+00
2.800000000000000000e+01,-1.382972221675570657e+00,0.000000000000000000e+00
2.900000000000000000e+01,-7.212040654876566981e-01,0.000000000000000000e+00
3.000000000000000000e+01,4.246544431288432585e-03,0.000000000000000000e+00
3.100000000000000000e+01,-2.419670660674851925e-01,0.000000000000000000e+00
3.200000000000000000e+01,-4.528538129403236745e-01,0.000000000000000000e+00
3.300000000000000000e+01,-1.857883490312343400e-01,0.000000000000000000e+00
3.400000000000000000e+01,-7.771579379739631532e-01,0.000000000000000000e+00
3.500000000000000000e+01,-1.727610943810546362e-01,0.000000000000000000e+00
3.600000000000000000e+01,9.938077896416068480e-02,0.000000000000000000e+00
3.700000000000000000e+01,1.722226673721108658e-01,0.000000000000000000e+00
3.800000000000000000e+01,-1.644042882129699845e-01,0.000000000000000000e+00
3.900000000000000000e+01,-2.352004647429995279e-02,0.000000000000000000e+00
4.000000000000000000e+01,-1.699425491359581875e-01,0.000000000000000000e+00
4.100000000000000000e+01,5.954616408220315682e-01,0.000000000000000000e+00
4.200000000000000000e+01,5.413615142885336295e-01,0.000000000000000000e+00
4.300000000000000000e+01,1.051427996221899752e+00,0.000000000000000000e+00
4.400000000000000000e+01,1.485850350400448106e+00,0.000000000000000000e+00
4.500000000000000000e+01,1.858631861160889853e+00,0.000000000000000000e+00
4.600000000000000000e+01,1.511777320129339186e+00,0.000000000000000000e+00
4.700000000000000000e+01,1.438789286394888955e-01,0.000000000000000000e+00
4.800000000000000000e+01,-8.966180998711893446e-01,0.000000000000000000e+00
4.900000000000000000e+01,-1.734659671015374771e+00,0.000000000000000000e+00
5.000000000000000000e+01,-2.854057522705415018e+00,0.000000000000000000e+00
5.100000000000000000e+01,-2.538295962457821187e+00,0.000000000000000000e+00
5.200000000000000000e+01,-2.889014822444492925e+00,0.000000000000000000e+00
5.300000000000000000e+01,-2.413410315539095574e+00,0.000000000000000000e+00
5.400000000000000000e+01,-2.498123460194420442e+00,0.000000000000000000e+00
5.500000000000000000e+01,-2.224163818161263961e+00,0.000000000000000000e+00
5.600000000000000000e+01,-1.206777605414101506e+00,0.000000000000000000e+00
5.700000000000000000e+01,-1.321026183683029931e+00,0.000000000000000000e+00
5.800000000000000000e+01,-1.069853076109564149e+00,0.000000000000000000e+00
5.900000000000000000e+01,-1.200499543381743806e+00,0.000000000000000000e+00
6.000000000000000000e+01,-1.443243949195665898e+00,0.000000000000000000e+00
6.100000000000000000e+01,-4.802800290330194732e-01,0.000000000000000000e+00
6.200000000000000000e+01,-1.083494457358198826e+00,0.000000000000000000e+00
6.300000000000000000e+01,-3.658635625421954307e-01,0.000000000000000000e+00
6.400000000000000000e+01,-4.727024451888622858e-01,0.000000000000000000e+00
6.500000000000000000e+01,2.978959954962858148e-01,0.000000000000000000e+00
6.600000000000000000e+01,-1.816924381228149088e-01,0.000000000000000000e+00
6.700000000000000000e+01,5.466011045175347277e-02,0.000000000000000000e+00
6.800000000000000000e+01,-2.535778275955967789e-02,0.000000000000000000e+00
6.900000000000000000e+01,1.936234003544275162e-01,0.000000000000000000e+00
7.000000000000000000e+01,1.071289650056134746e-01,0.000000000000000000e+00
7.100000000000000000e+01,5.798698464090870086e-01,0.000000000000000000e+00
7.200000000000000000e+01,5.304811900517455436e-01,0.000000000000000000e+00
7.300000000000000000e+01,9.674069343858554548e-01,0.000000000000000000e+00
7.400000000000000000e+01,8.479064390758281888e-01,0.000000000000000000e+00
7.500000000000000000e+01,1.084475871413588921e+00,0.000000000000000000e+00
7.600000000000000000e+01,3.485267862988382093e-01,0.000000000000000000e+00
7.700000000000000000e+01,6.943479457705729052e-01,0.000000000000000000e+00
7.800000000000000000e+01,7.850044661986318451e-01,0.000000000000000000e+00
7.900000000000000000e+01,6.980692764417042451e-01,0.000000000000000000e+00
8.000000000000000000e+01,9.798557648907912920e-01,0.000000000000000000e+00
8.100000000000000000e+01,4.869697137365046058e-01,0.000000000000000000e+00
8.200000000000000000e+01,6.865743203836643938e-01,0.000000000000000000e+00
8.300000000000000000e+01,1.124232441607861288e+00,0.000000000000000000e+00
8.400000000000000000e+01,8.812538274166621388e-01,0.000000000000000000e+00
8.500000000000000000e+01,6.950495894401469421e-01,0.000000000000000000e+00
8.600000000000000000e+01,4.930495991273113332e-01,0.000000000000000000e+00
8.700000000000000000e+01,4.050735496054777007e-01,0.000000000000000000e+00
8.800000000000000000e+01,4.618374617975334884e-01,0.000000000000000000e+00
8.900000000000000000e+01,6.730466772425572897e-01,0.000000000000000000e+00
9.000000000000000000e+01,8.859852117905234747e-01,0.000000000000000000e+00
9.100000000000000000e+01,8.296507923065992163e-01,0.000000000000000000e+00
9.200000000000000000e+01,1.134753247425184686e+00,0.000000000000000000e+00
9.300000000000000000e+01,1.152747612814201794e+00,0.000000000000000000e+00
9.400000000000000000e+01,1.078794531366273901e+00,0.000000000000000000e+00
9.500000000000000000e+01,9.233422464453618916e-01,0.000000000000000000e+00
9.600000000000000000e+01,5.706760705385064414e-01,0.000000000000000000e+00
9.700000000000000000e+01,9.364141617439721843e-01,0.000000000000000000e+00
9.800000000000000000e+01,6.416562185348436698e-01,0.000000000000000000e+00
9.900000000000000000e+01,1.064735999002591083e+00,0.000000000000000000e+00
1.000000000000000000e+02,3.750711341835878398e-01,0.000000000000000000e+00
1.010000000000000000e+02,8.290771399184508894e-01,0.000000000000000000e+00
1.020000000000000000e+02,4.381753241663676190e-01,0.000000000000000000e+00
1.030000000000000000e+02,5.079041726253213929e-01,0.000000000000000000e+00
1.040000000000000000e+02,7.967132523246477360e-01,0.000000000000000000e+00
1.050000000000000000e+02,2.077766095492716292e-01,0.000000000000000000e+00
1.060000000000000000e+02,-2.473710719539791991e-01,0.000000000000000000e+00
1.070000000000000000e+02,4.524514399488643313e-01,0.000000000000000000e+00
1.080000000000000000e+02,2.482567709448549875e-01,0.000000000000000000e+00
1.090000000000000000e+02,2.136592423229496662e-01,0.000000000000000000e+00
1.100000000000000000e+02,-8.210225646434932134e-02,0.000000000000000000e+00
1.110000000000000000e+02,3.859714808494701943e-01,0.000000000000000000e+00
1.120000000000000000e+02,-4.168003151721217520e-02,0.000000000000000000e+00
1.130000000000000000e+02,1.885287672592617647e-01,0.000000000000000000e+00
1.140000000000000000e+02,-2.613886044902214989e-01,0.000000000000000000e+00
1.150000000000000000e+02,1.000460333741489821e-01,0.000000000000000000e+00
1.160000000000000000e+02,3.370034265282855768e-01,0.000000000000000000e+00
1.170000000000000000e+02,2.660510466193177770e+00,0.000000000000000000e+00
1.180000000000000000e+02,-2.264439191224464132e+00,0.000000000000000000e+00
1.190000000000000000e+02,-1.038370895523224480e+00,1.000000000000000000e+00
1.200000000000000000e+02,1.520916628684373828e+00,0.000000000000000000e+00
1.210000000000000000e+02,-1.628693472235375861e+00,0.000000000000000000e+00
1.220000000000000000e+02,-1.061145968951124008e+00,0.000000000000000000e+00
1.230000000000000000e+02,-1.396838481549829425e-01,0.000000000000000000e+00
1.240000000000000000e+02,1.204469549271311168e-01,0.000000000000000000e+00
1.250000000000000000e+02,-3.115757341766294264e-01,0.000000000000000000e+00
1.260000000000000000e+02,-5.301373946835268303e-01,0.000000000000000000e+00
1.270000000000000000e+02,-6.153796115533392008e-01,0.000000000000000000e+00
1.280000000000000000e+02,-2.883803992292094387e-01,0.000000000000000000e+00
1.290000000000000000e+02,-1.988931708384474584e-01,0.000000000000000000e+00
1.300000000000000000e+02,5.438894612487624874e-02,0.000000000000000000e+00
1.310000000000000000e+02,-2.890029750073670467e-01,0.000000000000000000e+00
1.320000000000000000e+02,-2.423600715825977026e-01,0.000000000000000000e+00
1.330000000000000000e+02,-2.541867630484257595e-02,0.000000000000000000e+00
1.340000000000000000e+02,-4.342048073874759662e-01,0.000000000000000000e+00
1.350000000000000000e+02,-1.462782480214773195e-01,0.000000000000000000e+00
1.360000000000000000e+02,3.451241558625454675e-01,0.000000000000000000e+00
1.370000000000000000e+02,6.090556932712399840e-01,0.000000000000000000e+00
1.380000000000000000e+02,1.800977395192148167e+00,0.000000000000000000e+00
1.390000000000000000e+02,1.772535412209531591e+00,0.000000000000000000e+00
1.400000000000000000e+02,6.379369769803342471e-01,0.000000000000000000e+00
1.410000000000000000e+02,-7.459504485548429376e-01,0.000000000000000000e+00
1.420000000000000000e+02,-1.545406608949670080e+00,0.000000000000000000e+00
1.430000000000000000e+02,-2.708789778427467709e+00,0.000000000000000000e+00
1.440000000000000000e+02,-2.321623957843232944e+00,0.000000000000000000e+00
1.450000000000000000e+02,-2.501466440930904422e+00,0.000000000000000000e+00
1.460000000000000000e+02,-1.907899964750417565e+00,0.000000000000000000e+00
1.470000000000000000e+02,-2.154847379985120437e+00,0.000000000000000000e+00
1.480000000000000000e+02,-1.907505499618541434e+00,0.000000000000000000e+00
1.490000000000000000e+02,-1.433348531480144405e+00,0.000000000000000000e+00
1.500000000000000000e+02,-1.488779181156789866e+00,0.000000000000000000e+00
1.510000000000000000e+02,-1.413289653322705286e+00,0.000000000000000000e+00
1.520000000000000000e+02,-9.420691508133528513e-01,0.000000000000000000e+00
1.530000000000000000e+02,-1.278680349610068268e+00,0.000000000000000000e+00
1.540000000000000000e+02,-1.442337001175024502e+00,0.000000000000000000e+00
1.550000000000000000e+02,-6.809225989701906956e-01,0.000000000000000000e+00
1.560000000000000000e+02,-1.223803888513089522e+00,0.000000000000000000e+00
1.570000000000000000e+02,-6.825961317447589716e-01,0.000000000000000000e+00
1.580000000000000000e+02,-7.075958978223636509e-01,0.000000000000000000e+00
1.590000000000000000e+02,-9.145073017687449513e-01,0.000000000000000000e+00
1.600000000000000000e+02,-4.112731980150453881e-02,0.000000000000000000e+00
1.610000000000000000e+02,-6.785627417122642724e-01,0.000000000000000000e+00
1.620000000000000000e+02,-2.637158350721436340e-01,0.000000000000000000e+00
1.630000000000000000e+02,-8.072348306105436855e-01,0.000000000000000000e+00
1.640000000000000000e+02,-5.938096107770006737e-01,0.000000000000000000e+00
1.650000000000000000e+02,-1.585908061626370436e-01,0.000000000000000000e+00
1.660000000000000000e+02,5.722092982861493385e-03,0.000000000000000000e+00
1.670000000000000000e+02,7.278881125413466657e-01,0.000000000000000000e+00
1.680000000000000000e+02,6.069796253461191560e-01,0.000000000000000000e+00
1.690000000000000000e+02,4.958564326576762049e-01,0.000000000000000000e+00
1.700000000000000000e+02,2.883342386362223175e-01,0.000000000000000000e+00
1.710000000000000000e+02,4.162934307603358142e-01,0.000000000000000000e+00
1.720000000000000000e+02,5.284016871034964424e-01,0.000000000000000000e+00
1.730000000000000000e+02,5.063013801043692030e-01,0.000000000000000000e+00
1.740000000000000000e+02,6.553353096271601341e-01,0.000000000000000000e+00
1.750000000000000000e+02,7.194148974641537686e-01,0.000000000000000000e+00
1.760000000000000000e+02,1.008339777101165735e+00,0.000000000000000000e+00
1.770000000000000000e+02,9.496476958837084537e-01,0.000000000000000000e+00
1.780000000000000000e+02,8.998268586212300191e-01,0.000000000000000000e+00
1.790000000000000000e+02,1.102754186196101660e+00,0.000000000000000000e+00
1.800000000000000000e+02,5.595990525231914203e-01,0.000000000000000000e+00
1.810000000000000000e+02,5.310296749644760617e-01,0.000000000000000000e+00
1.820000000000000000e+02,1.032938670704238060e+00,0.000000000000000000e+00
1.830000000000000000e+02,1.441789738644150720e+00,0.000000000000000000e+00
1.840000000000000000e+02,1.593468995894617324e+00,0.000000000000000000e+00
1.850000000000000000e+02,1.179715557191602704e+00,0.000000000000000000e+00
1.860000000000000000e+02,1.370260052175938048e+00,0.000000000000000000e+00
1.870000000000000000e+02,1.171368651105291425e+00,0.000000000000000000e+00
1.880000000000000000e+02,5.450682694749453550e-01,0.000000000000000000e+00
1.890000000000000000e+02,5.682712802326231882e-01,0.000000000000000000e+00
1.900000000000000000e+02,9.125935235155708813e-01,0.000000000000000000e+00
1.910000000000000000e+02,1.170300756058676228e+00,0.000000000000000000e+00
1.920000000000000000e+02,6.877582609795955815e-01,0.000000000000000000e+00
1.930000000000000000e+02,1.407578443960462611e+00,0.000000000000000000e+00
1.940000000000000000e+02,4.422884450960224978e-01,0.000000000000000000e+00
1.950000000000000000e+02,4.731202008491461330e-01,0.000000000000000000e+00
1.960000000000000000e+02,5.906725293229604379e-01,0.000000000000000000e+00
1.970000000000000000e+02,2.438597724396258104e-01,0.000000000000000000e+00
1.980000000000000000e+02,2.808426258067078796e-01,0.000000000000000000e+00
1.990000000000000000e+02,3.064114695599216009e-01,0.000000000000000000e+00
2.000000000000000000e+02,-2.337912858163642416e-01,0.000000000000000000e+00
2.010000000000000000e+02,5.651946290565819098e-01,0.000000000000000000e+00
2.020000000000000000e+02,-8.328697676868669630e-02,0.000000000000000000e+00
2.030000000000000000e+02,3.963484092402273090e-02,0.000000000000000000e+00
2.040000000000000000e+02,1.711822051668657474e-01,0.000000000000000000e+00
2.050000000000000000e+02,-1.914772955541561017e-01,0.000000000000000000e+00
2.060000000000000000e+02,-4.113682687847245445e-01,0.000000000000000000e+00
2.070000000000000000e+02,-1.497969463924227473e-01,0.000000000000000000e+00
2.080000000000000000e+02,-3.389072652793932022e-02,0.000000000000000000e+00
2.090000000000000000e+02,2.207366452137348833e+00,0.000000000000000000e+00
2.100000000000000000e+02,-4.195225598192461880e-01,0.000000000000000000e+00
2.110000000000000000e+02,-1.393909977911902409e+00,0.000000000000000000e+00
2.120000000000000000e+02,2.533269926316140008e+00,0.000000000000000000e+00
2.130000000000000000e+02,-8.589556875753714404e-01,1.000000000000000000e+00
2.140000000000000000e+02,-1.552774569115979997e+00,0.000000000000000000e+00
2.150000000000000000e+02,-1.078957014140364601e+00,0.000000000000000000e+00
2.160000000000000000e+02,-3.629752095075733376e-01,0.000000000000000000e+00
2.170000000000000000e+02,-6.651591932363972726e-01,0.000000000000000000e+00
2.180000000000000000e+02,-4.005793838770488891e-01,0.000000000000000000e+00
2.190000000000000000e+02,-1.884203231652641364e-01,0.000000000000000000e+00
2.200000000000000000e+02,-1.555404903352158585e-01,0.000000000000000000e+00
2.210000000000000000e+02,1.474505722831718768e-01,0.000000000000000000e+00
2.220000000000000000e+02,3.452206198365802559e-01,0.000000000000000000e+00
2.230000000000000000e+02,-1.304380555881127319e-03,0.000000000000000000e+00
2.240000000000000000e+02,2.957548575717196537e-01,0.000000000000000000e+00
2.250000000000000000e+02,2.117384882110121547e-01,0.000000000000000000e+00
2.260000000000000000e+02,2.879457918546723394e-01,0.000000000000000000e+00
2.270000000000000000e+02,6.288074178868541253e-01,0.000000000000000000e+00
2.280000000000000000e+02,1.482211191394959382e+00,0.000000000000000000e+00
2.290000000000000000e+02,2.074020296258916929e+00,0.000000000000000000e+00
2.300000000000000000e+02,2.538474666707857708e+00,0.000000000000000000e+00
2.310000000000000000e+02,2.600019075685600090e+00,0.000000000000000000e+00
2.320000000000000000e+02,1.745709917474304484e+00,0.000000000000000000e+00
2.330000000000000000e+02,1.718684346601605240e-01,0.000000000000000000e+00
2.340000000000000000e+02,-6.663045083262557622e-01,0.000000000000000000e+00
2.350000000000000000e+02,-1.291210517281204728e+00,0.000000000000000000e+00
2.360000000000000000e+02,-1.679538744312049303e+00,0.000000000000000000e+00
2.370000000000000000e+02,-1.678127858632307179e+00,0.000000000000000000e+00
2.380000000000000000e+02,-1.434118388674447520e+00,0.000000000000000000e+00
2.390000000000000000e+02,-1.102545978631588985e+00,0.000000000000000000e+00
2.400000000000000000e+02,-1.139598062596873129e+00,0.000000000000000000e+00
2.410000000000000000e+02,-1.456018799148386389e+00,0.000000000000000000e+00
2.420000000000000000e+02,-1.056894820564791004e+00,0.000000000000000000e+00
2.430000000000000000e+02,-9.727659626771714141e-01,0.000000000000000000e+00
2.440000000000000000e+02,-1.052794171111849586e+00,0.000000000000000000e+00
2.450000000000000000e+02,-1.151250513351704363e+00,0.000000000000000000e+00
2.460000000000000000e+02,-1.407235180617112835e+00,0.000000000000000000e+00
2.470000000000000000e+02,-9.490751552944730607e-01,0.000000000000000000e+00
2.480000000000000000e+02,-9.504802540272261346e-01,0.000000000000000000e+00
2.490000000000000000e+02,-3.245609155199738471e-01,0.000000000000000000e+00
2.500000000000000000e+02,-7.206130143693342260e-01,0.000000000000000000e+00
2.510000000000000000e+02,-7.452213239505811604e-01,0.000000000000000000e+00
2.520000000000000000e+02,-2.350645188329592850e-01,0.000000000000000000e+00
2.530000000000000000e+02,-9.203787853367813021e-01,0.000000000000000000e+00
2.540000000000000000e+02,-7.726610147143309071e-01,0.000000000000000000e+00
2.550000000000000000e+02,-7.398566083858737485e-01,0.000000000000000000e+00
2.560000000000000000e+02,-8.488665982188102754e-01,0.000000000000000000e+00
2.570000000000000000e+02,-3.473531505389034213e-01,0.000000000000000000e+00
2.580000000000000000e+02,-3.711910355707019882e-01,0.000000000000000000e+00
2.590000000000000000e+02,-4.279750138641424395e-01,0.000000000000000000e+00
2.600000000000000000e+02,-1.481124053160988441e-01,0.000000000000000000e+00
2.610000000000000000e+02,-3.280340498087184198e-01,0.000000000000000000e+00
2.620000000000000000e+02,-2.181008565666687493e-01,0.000000000000000000e+00
2.630000000000000000e+02,4.390124430273598111e-01,0.000000000000000000e+00
2.640000000000000000e+02,3.316752961092722884e+00,0.000000000000000000e+00
2.650000000000000000e+02,-1.298747769899276649e-01,0.000000000000000000e+00
2.660000000000000000e+02,2.366679519467861148e+00,0.000000000000000000e+00
2.670000000000000000e+02,1.913393062973248293e+00,0.000000000000000000e+00
2.680000000000000000e+02,1.281731144318894178e-01,1.000000000000000000e+00
2.690000000000000000e+02,-9.334474107785586394e-01,0.000000000000000000e+00
2.700000000000000000e+02,-9.517050348549118688e-01,0.000000000000000000e+00
2.710000000000000000e+02,-3.886748744631438601e-01,0.000000000000000000e+00
2.720000000000000000e+02,-5.815683008165076773e-01,0.000000000000000000e+00
2.730000000000000000e+02,-1.385229547808471962e-01,0.000000000000000000e+00
2.740000000000000000e+02,-1.392079401992386001e-01,0.000000000000000000e+00
2.750000000000000000e+02,-2.703470121608926302e-01,0.000000000000000000e+00
2.760000000000000000e+02,3.261275495189105283e-02,0.000000000000000000e+00
2.770000000000000000e+02,1.044663380765098737e-01,0.000000000000000000e+00
2.780000000000000000e+02,1.769333056283734773e-01,0.000000000000000000e+00
2.790000000000000000e+02,5.802726194538879723e-01,0.000000000000000000e+00
2.800000000000000000e+02,6.830434708916967024e-01,0.000000000000000000e+00
2.810000000000000000e+02,6.605245985614272008e-01,0.000000000000000000e+00
2.820000000000000000e+02,1.069274232851119777e+00,0.000000000000000000e+00
2.830000000000000000e+02,2.026022353087261862e+00,0.000000000000000000e+00
2.840000000000000000e+02,1.951028934803787029e+00,0.000000000000000000e+00
2.850000000000000000e+02,1.600779595487680451e+00,0.000000000000000000e+00
2.860000000000000000e+02,9.740723234018308085e-01,0.000000000000000000e+00
2.870000000000000000e+02,4.725427123249485196e-03,0.000000000000000000e+00
2.880000000000000000e+02,-7.116778914092116715e-01,0.000000000000000000e+00
2.890000000000000000e+02,-1.183266827140706523e+00,0.000000000000000000e+00
2.900000000000000000e+02,-1.494529893530291753e+00,0.000000000000000000e+00
2.910000000000000000e+02,-1.715174192244761864e+00,0.000000000000000000e+00
2.920000000000000000e+02,-1.810089027418906982e+00,0.000000000000000000e+00
2.930000000000000000e+02,-1.773731724082520556e+00,0.000000000000000000e+00
2.940000000000000000e+02,-1.224542237919207688e+00,0.000000000000000000e+00
2.950000000000000000e+02,-1.210814220535089580e+00,0.000000000000000000e+00
2.960000000000000000e+02,-8.985593009329300163e-01,0.000000000000000000e+00
2.970000000000000000e+02,-5.726316924059413616e-01,0.000000000000000000e+00
2.980000000000000000e+02,-6.076293066973923462e-01,0.000000000000000000e+00
2.990000000000000000e+02,-6.259977842125363789e-01,0.000000000000000000e+00
3.000000000000000000e+02,-8.213706316188903456e-01,0.000000000000000000e+00
3.010000000000000000e+02,-8.545293311212510678e-01,0.000000000000000000e+00
3.020000000000000000e+02,-7.119980766548791307e-01,0.000000000000000000e+00
3.030000000000000000e+02,-6.869527085597766369e-01,0.000000000000000000e+00
3.040000000000000000e+02,-3.046429651835322883e-01,0.000000000000000000e+00
3.050000000000000000e+02,2.123335043787685505e-01,0.000000000000000000e+00
3.060000000000000000e+02,6.333685414381080847e-02,0.000000000000000000e+00
3.070000000000000000e+02,6.734023464020012784e-02,0.000000000000000000e+00
3.080000000000000000e+02,-2.842895271763013487e-01,0.000000000000000000e+00
3.090000000000000000e+02,-4.035459404288015139e-02,0.000000000000000000e+00
3.100000000000000000e+02,-3.145969070934785394e-01,0.000000000000000000e+00
3.110000000000000000e+02,4.357614655085792488e-02,0.000000000000000000e+00
3.120000000000000000e+02,3.437767027837933531e-01,0.000000000000000000e+00
3.130000000000000000e+02,9.200359831706541591e-01,0.000000000000000000e+00
3.140000000000000000e+02,9.865576065531221905e-01,0.000000000000000000e+00
3.150000000000000000e+02,1.451786653385922943e+00,0.000000000000000000e+00
3.160000000000000000e+02,6.686515640471645261e-01,0.000000000000000000e+00
3.170000000000000000e+02,1.060172029603136667e-01,0.000000000000000000e+00
3.180000000000000000e+02,8.957784243937029489e-02,0.000000000000000000e+00
3.190000000000000000e+02,1.550885536731692049e-01,0.000000000000000000e+00
3.200000000000000000e+02,4.037183483022414032e-01,0.000000000000000000e+00
3.210000000000000000e+02,5.366202899381262714e-01,0.000000000000000000e+00
3.220000000000000000e+02,1.203540331992093648e+00,0.000000000000000000e+00
3.230000000000000000e+02,1.670302895970080748e+00,0.000000000000000000e+00
3.240000000000000000e+02,1.129321643065914094e+00,0.000000000000000000e+00
3.250000000000000000e+02,1.499566487776311963e+00,0.000000000000000000e+00
3.260000000000000000e+02,3.416983760076368615e-01,0.000000000000000000e+00
3.270000000000000000e+02,4.413966712318058705e-01,0.000000000000000000e+00
3.280000000000000000e+02,-1.749976985717094646e-01,0.000000000000000000e+00
3.290000000000000000e+02,6.999748769815031801e-01,0.000000000000000000e+00
3.300000000000000000e+02,5.295655301777277835e-01,0.000000000000000000e+00
3.310000000000000000e+02,3.671409441380723226e+00,0.000000000000000000e+00
3.320000000000000000e+02,1.892714166251653340e+00,0.000000000000000000e+00
3.330000000000000000e+02,3.295785239224932273e+00,0.000000000000000000e+00
3.340000000000000000e+02,2.567993689305332339e+00,0.000000000000000000e+00
3.350000000000000000e+02,-1.025600064200414163e+00,1.000000000000000000e+00
3.360000000000000000e+02,-1.109211889863024547e+00,0.000000000000000000e+00
3.370000000000000000e+02,-7.639441014673926666e-01,0.000000000000000000e+00
3.380000000000000000e+02,-8.376668688143089625e-01,0.000000000000000000e+00
3.390000000000000000e+02,-6.361093440902531038e-01,0.000000000000000000e+00
3.400000000000000000e+02,1.123533398963853652e-01,0.000000000000000000e+00
3.410000000000000000e+02,-2.246667928736003905e-01,0.000000000000000000e+00
3.420000000000000000e+02,-3.616811204173967509e-01,0.000000000000000000e+00
3.430000000000000000e+02,-3.947244037938745231e-01,0.000000000000000000e+00
3.440000000000000000e+02,-1.635264108910015057e-01,0.000000000000000000e+00
3.450000000000000000e+02,-2.122649380457073132e-01,0.000000000000000000e+00
3.460000000000000000e+02,-1.717532966632698624e-02,0.000000000000000000e+00
3.470000000000000000e+02,3.179631338165795351e-01,0.000000000000000000e+00
3.480000000000000000e+02,7.414871833962083381e-01,0.000000000000000000e+00
3.490000000000000000e+02,8.135299798075760203e-01,0.000000000000000000e+00
3.500000000000000000e+02,2.057381396850248123e+00,0.000000000000000000e+00
3.510000000000000000e+02,1.274444126724910031e+00,0.000000000000000000e+00
3.520000000000000000e+02,2.137734895386774525e+00,0.000000000000000000e+00
3.530000000000000000e+02,2.379767836987942975e-01,0.000000000000000000e+00
3.540000000000000000e+02,-5.312648944911825266e-01,0.000000000000000000e+00
3.550000000000000000e+02,-9.913683299671608440e-01,0.000000000000000000e+00
3.560000000000000000e+02,-1.590760000690415010e+00,0.000000000000000000e+00
3.570000000000000000e+02,-1.311572751100872791e+00,0.000000000000000000e+00
3.580000000000000000e+02,-1.470593109354221495e+00,0.000000000000000000e+00
3.590000000000000000e+02,-2.103289626140323332e+00,0.000000000000000000e+00
3.600000000000000000e+02,-1.357906072013862930e+00,0.000000000000000000e+00
3.610000000000000000e+02,-1.751989356363830241e+00,0.000000000000000000e+00
3.620000000000000000e+02,-2.024619160639619775e+00,0.000000000000000000e+00
3.630000000000000000e+02,-1.457763457285708775e+00,0.000000000000000000e+00
3.640000000000000000e+02,-1.326069951381868117e+00,0.000000000000000000e+00
3.650000000000000000e+02,-9.066143316049590783e-01,0.000000000000000000e+00
3.660000000000000000e+02,-6.546395122496336816e-01,0.000000000000000000e+00
3.670000000000000000e+02,-5.776072733847363860e-01,0.000000000000000000e+00
3.680000000000000000e+02,-3.960984804259967129e-01,0.000000000000000000e+00
3.690000000000000000e+02,-4.346342189658719546e-01,0.000000000000000000e+00
3.700000000000000000e+02,-6.427032247558323030e-01,0.000000000000000000e+00
3.710000000000000000e+02,-4.413660675143689649e-01,0.000000000000000000e+00
3.720000000000000000e+02,-7.198501300324645635e-01,0.000000000000000000e+00
3.730000000000000000e+02,-5.852707096356838390e-01,0.000000000000000000e+00
3.740000000000000000e+02,-8.705398702043375403e-01,0.000000000000000000e+00
3.750000000000000000e+02,-4.187585150336770590e-01,0.000000000000000000e+00
3.760000000000000000e+02,-2.313037236454272005e-01,0.000000000000000000e+00
3.770000000000000000e+02,3.610648170754284653e-02,0.000000000000000000e+00
3.780000000000000000e+02,-2.773641775872768833e-01,0.000000000000000000e+00
3.790000000000000000e+02,2.423113072543945090e-01,0.000000000000000000e+00
3.800000000000000000e+02,-3.662252285307771027e-01,0.000000000000000000e+00
3.810000000000000000e+02,-8.348887863174529744e-02,0.000000000000000000e+00
3.820000000000000000e+02,-2.944887147476321076e-01,0.000000000000000000e+00
3.830000000000000000e+02,-1.277923737409505101e-01,0.000000000000000000e+00
3.840000000000000000e+02,5.800474476006475255e-01,0.000000000000000000e+00
3.850000000000000000e+02,4.552844501003502353e-01,0.000000000000000000e+00
3.860000000000000000e+02,8.023375933455725306e-01,0.000000000000000000e+00
3.870000000000000000e+02,9.153003985642741425e-01,0.000000000000000000e+00
3.880000000000000000e+02,8.733293756817850362e-01,0.000000000000000000e+00
3.890000000000000000e+02,2.810708660408700044e-01,0.000000000000000000e+00
3.900000000000000000e+02,3.358863377797781657e-01,0.000000000000000000e+00
3.910000000000000000e+02,1.190903648415064381e-01,0.000000000000000000e+00
3.920000000000000000e+02,6.137838599126796968e-01,0.000000000000000000e+00
3.930000000000000000e+02,2.996609845287447893e-01,0.000000000000000000e+00
3.940000000000000000e+02,6.053100968946969473e-01,0.000000000000000000e+00
3.950000000000000000e+02,4.960357486893653411e-01,0.000000000000000000e+00
3.960000000000000000e+02,9.297545483231656194e-01,0.000000000000000000e+00
3.970000000000000000e+02,1.000669216960679009e+00,0.000000000000000000e+00
3.980000000000000000e+02,1.564325681288978309e-01,0.000000000000000000e+00
3.990000000000000000e+02,6.700095710031964691e-01,0.000000000000000000e+00
4.000000000000000000e+02,-1.220285817236439890e-01,0.000000000000000000e+00
4.010000000000000000e+02,3.691309246828127777e-01,0.000000000000000000e+00
4.020000000000000000e+02,4.231506155352235954e-01,0.000000000000000000e+00
4.030000000000000000e+02,4.634512846343883941e-01,0.000000000000000000e+00
4.040000000000000000e+02,6.567146059084149057e-01,0.000000000000000000e+00
4.050000000000000000e+02,6.656012250233315219e-01,0.000000000000000000e+00
4.060000000000000000e+02,5.608135606799735662e-01,0.000000000000000000e+00
4.070000000000000000e+02,3.040032974608658511e-01,0.000000000000000000e+00
4.080000000000000000e+02,1.030248744966398983e-01,0.000000000000000000e+00
4.090000000000000000e+02,2.260843876377303385e-01,0.000000000000000000e+00
4.100000000000000000e+02,4.044102877547348651e-01,0.000000000000000000e+00
4.110000000000000000e+02,-4.294703459768986487e-01,0.000000000000000000e+00
4.120000000000000000e+02,2.705730133420447547e-01,0.000000000000000000e+00
4.130000000000000000e+02,4.992154519528680008e-03,0.000000000000000000e+00
4.140000000000000000e+02,8.526524313377163988e-01,0.000000000000000000e+00
4.150000000000000000e+02,-1.688206205721143049e-01,0.000000000000000000e+00
4.160000000000000000e+02,1.818683356657610772e-01,0.000000000000000000e+00
4.170000000000000000e+02,1.735238470414200707e-01,0.000000000000000000e+00
4.180000000000000000e+02,-3.138455303106888472e-01,0.000000000000000000e+00
4.190000000000000000e+02,1.043358160129762707e-01,0.000000000000000000e+00
4.200000000000000000e+02,-1.467230998315356139e-01,0.000000000000000000e+00
4.210000000000000000e+02,2.046855943146506929e-01,0.000000000000000000e+00
4.220000000000000000e+02,1.854537448188789961e-01,0.000000000000000000e+00
4.230000000000000000e+02,5.204778329494199607e-01,0.000000000000000000e+00
4.240000000000000000e+02,2.883584401684300857e+00,0.000000000000000000e+00
4.250000000000000000e+02,-1.707101935800352077e+00,0.000000000000000000e+00
4.260000000000000000e+02,8.741109179071416824e-01,0.000000000000000000e+00
4.270000000000000000e+02,2.283597845784059110e+00,0.000000000000000000e+00
4.280000000000000000e+02,-1.405993547871288607e+00,1.000000000000000000e+00
4.290000000000000000e+02,-1.627076175522184975e+00,0.000000000000000000e+00
4.300000000000000000e+02,-1.136360575113606552e+00,0.000000000000000000e+00
4.310000000000000000e+02,-1.996122165813358773e-01,0.000000000000000000e+00
4.320000000000000000e+02,-1.278407116665588816e+00,0.000000000000000000e+00
4.330000000000000000e+02,-2.525262343830582124e-01,0.000000000000000000e+00
4.340000000000000000e+02,-5.082610538681260337e-01,0.000000000000000000e+00
4.350000000000000000e+02,-2.560408199876092472e-01,0.000000000000000000e+00
4.360000000000000000e+02,-1.647340117914354238e-02,0.000000000000000000e+00
4.370000000000000000e+02,-1.105192377162903666e-01,0.000000000000000000e+00
4.380000000000000000e+02,2.086243328715564893e-01,0.000000000000000000e+00
4.390000000000000000e+02,4.878165918002858592e-01,0.000000000000000000e+00
4.400000000000000000e+02,1.710570007364451695e-01,0.000000000000000000e+00
4.410000000000000000e+02,1.474119855680529768e-03,0.000000000000000000e+00
4.420000000000000000e+02,4.412001143279281612e-01,0.000000000000000000e+00
4.430000000000000000e+02,9.290005678716959370e-01,0.000000000000000000e+00
4.440000000000000000e+02,1.538265564507460326e+00,0.000000000000000000e+00
4.450000000000000000e+02,1.890672335901264267e+00,0.000000000000000000e+00
4.460000000000000000e+02,1.866506052316076358e+00,0.000000000000000000e+00
4.470000000000000000e+02,3.675800118416515105e-01,0.000000000000000000e+00
4.480000000000000000e+02,-9.894448830102561265e-01,0.000000000000000000e+00
4.490000000000000000e+02,-2.074771398721443560e+00,0.000000000000000000e+00
4.500000000000000000e+02,-2.681317642140306656e+00,0.000000000000000000e+00
4.510000000000000000e+02,-2.047917787571529313e+00,0.000000000000000000e+00
4.520000000000000000e+02,-2.090578772940713481e+00,0.000000000000000000e+00
4.530000000000000000e+02,-1.532960195143576509e+00,0.000000000000000000e+00
4.540000000000000000e+02,-1.530840844670514178e+00,0.000000000000000000e+00
4.550000000000000000e+02,-1.545588246463242887e+00,0.000000000000000000e+00
4.560000000000000000e+02,-1.603295917425852979e+00,0.000000000000000000e+00
4.570000000000000000e+02,-1.225170888723411622e+00,0.000000000000000000e+00
4.580000000000000000e+02,-1.792817480104320182e+00,0.000000000000000000e+00
4.590000000000000000e+02,-9.544030711182174276e-01,0.000000000000000000e+00
4.600000000000000000e+02,-6.018348151176108329e-01,0.000000000000000000e+00
4.610000000000000000e+02,-7.044685780089208205e-01,0.000000000000000000e+00
4.620000000000000000e+02,-5.033296693185285164e-01,0.000000000000000000e+00
4.630000000000000000e+02,-8.904762912354923232e-01,0.000000000000000000e+00
4.640000000000000000e+02,-3.882965141569805767e-01,0.000000000000000000e+00
4.650000000000000000e+02,-3.707809673789973504e-01,0.000000000000000000e+00
4.660000000000000000e+02,-4.733848088927729569e-01,0.000000000000000000e+00
4.670000000000000000e+02,-1.540278032812287812e-01,0.000000000000000000e+00
4.680000000000000000e+02,-2.589727960430101006e-01,0.000000000000000000e+00
4.690000000000000000e+02,5.285203774642520669e-01,0.000000000000000000e+00
4.700000000000000000e+02,3.799505836232415501e-02,0.000000000000000000e+00
4.710000000000000000e+02,4.147725588084348325e-01,0.000000000000000000e+00
4.720000000000000000e+02,4.568914700629246872e-01,0.000000000000000000e+00
4.730000000000000000e+02,9.575583576289184440e-02,0.000000000000000000e+00
4.740000000000000000e+02,2.112342992477133918e-01,0.000000000000000000e+00
4.750000000000000000e+02,4.773100649440626397e-01,0.000000000000000000e+00
4.760000000000000000e+02,3.534382586271477833e-01,0.000000000000000000e+00
4.770000000000000000e+02,5.492797691866313503e-01,0.000000000000000000e+00
4.780000000000000000e+02,7.728557102876456586e-01,0.000000000000000000e+00
4.790000000000000000e+02,6.599954570665224063e-01,0.000000000000000000e+00
4.800000000000000000e+02,6.843716756932028966e-01,0.000000000000000000e+00
4.810000000000000000e+02,4.317859227172382020e-01,0.000000000000000000e+00
4.820000000000000000e+02,5.759197956225061699e-01,0.000000000000000000e+00
4.830000000000000000e+02,7.731545091372735712e-01,0.000000000000000000e+00
4.840000000000000000e+02,3.064140041431636097e-01,0.000000000000000000e+00
4.850000000000000000e+02,1.054936524842031709e+00,0.000000000000000000e+00
4.860000000000000000e+02,8.334502760579027836e-01,0.000000000000000000e+00
4.870000000000000000e+02,8.114855756029201173e-01,0.000000000000000000e+00
4.880000000000000000e+02,8.344976105416762602e-01,0.000000000000000000e+00
4.890000000000000000e+02,5.787252778824778510e-01,0.000000000000000000e+00
4.900000000000000000e+02,7.190322968762566935e-01,0.000000000000000000e+00
4.910000000000000000e+02,4.238727326807392171e-01,0.000000000000000000e+00
4.920000000000000000e+02,8.539615431585283467e-01,0.000000000000000000e+00
4.930000000000000000e+02,6.327880878734850612e-01,0.000000000000000000e+00
4.940000000000000000e+02,3.688406072913413269e-01,0.000000000000000000e+00
4.950000000000000000e+02,1.550721086712386898e-01,0.000000000000000000e+00
4.960000000000000000e+02,5.879476689588976068e-01,0.000000000000000000e+00
4.970000000000000000e+02,8.881705982325003301e-01,0.000000000000000000e+00
4.980000000000000000e+02,6.133422529554013458e-01,0.000000000000000000e+00
4.990000000000000000e+02,7.861327043095250877e-01,0.000000000000000000e+00
5.000000000000000000e+02,3.589571926853096229e-01,0.000000000000000000e+00
5.010000000000000000e+02,1.051668952224031006e+00,0.000000000000000000e+00
5.020000000000000000e+02,2.272912412671845295e-01,0.000000000000000000e+00
5.030000000000000000e+02,-3.351939452159911625e-01,0.000000000000000000e+00
5.040000000000000000e+02,1.260847935216987126e-01,0.000000000000000000e+00
5.050000000000000000e+02,3.836793878120497991e-01,0.000000000000000000e+00
5.060000000000000000e+02,-4.632480721708329835e-02,0.000000000000000000e+00
5.070000000000000000e+02,6.423849543282466046e-01,0.000000000000000000e+00
5.080000000000000000e+02,-1.463686911252120026e-01,0.000000000000000000e+00
5.090000000000000000e+02,4.280967125984194710e-01,0.000000000000000000e+00
5.100000000000000000e+02,-1.405096521705727630e-01,0.000000000000000000e+00
5.110000000000000000e+02,-2.721931932128134890e-01,0.000000000000000000e+00
5.120000000000000000e+02,-5.220109023513793689e-01,0.000000000000000000e+00
5.130000000000000000e+02,-7.847199224174507270e-02,0.000000000000000000e+00
5.140000000000000000e+02,-4.485769579329336176e-01,0.000000000000000000e+00
5.150000000000000000e+02,3.451549678131195509e-01,0.000000000000000000e+00
5.160000000000000000e+02,1.567989630425589420e-01,0.000000000000000000e+00
5.170000000000000000e+02,2.003679951155668881e+00,0.000000000000000000e+00
5.180000000000000000e+02,7.768987511065587048e-01,0.000000000000000000e+00
5.190000000000000000e+02,-2.053099714772146811e+00,0.000000000000000000e+00
5.200000000000000000e+02,1.667081670481550759e+00,1.000000000000000000e+00
5.210000000000000000e+02,3.275838322262435431e-01,0.000000000000000000e+00
5.220000000000000000e+02,-1.387120561253575746e+00,0.000000000000000000e+00
5.230000000000000000e+02,-8.339981571563893636e-01,0.000000000000000000e+00
5.240000000000000000e+02,-2.608024526125888864e-01,0.000000000000000000e+00
5.250000000000000000e+02,-6.912353109250889138e-02,0.000000000000000000e+00
5.260000000000000000e+02,-4.957555893409149594e-01,0.000000000000000000e+00
5.270000000000000000e+02,-5.341138134730405440e-01,0.000000000000000000e+00
5.280000000000000000e+02,-8.494493506112903436e-01,0.000000000000000000e+00
5.290000000000000000e+02,-5.712691985236020287e-01,0.000000000000000000e+00
5.300000000000000000e+02,-1.263287471679431020e-02,0.000000000000000000e+00
5.310000000000000000e+02,1.001540046823552327e-01,0.000000000000000000e+00
5.320000000000000000e+02,4.872126402208515339e-01,0.000000000000000000e+00
5.330000000000000000e+02,7.330852439757176153e-01,0.000000000000000000e+00
5.340000000000000000e+02,7.463614386429213710e-01,0.000000000000000000e+00
5.350000000000000000e+02,-7.035914680813376565e-02,0.000000000000000000e+00
5.360000000000000000e+02,2.641943265076764913e-01,0.000000000000000000e+00
5.370000000000000000e+02,1.137366371884773297e+00,0.000000000000000000e+00
5.380000000000000000e+02,1.271521322535491327e+00,0.000000000000000000e+00
5.390000000000000000e+02,2.007929439691491957e+00,0.000000000000000000e+00
5.400000000000000000e+02,1.751325325756902362e+00,0.000000000000000000e+00
5.410000000000000000e+02,1.928667151181129302e-01,0.000000000000000000e+00
5.420000000000000000e+02,-9.146011693041189439e-01,0.000000000000000000e+00
5.430000000000000000e+02,-1.621400882917332531e+00,0.000000000000000000e+00
5.440000000000000000e+02,-2.420653258589589463e+00,0.000000000000000000e+00
5.450000000000000000e+02,-2.450408431639519602e+00,0.000000000000000000e+00
5.460000000000000000e+02,-2.115913483046142129e+00,0.000000000000000000e+00
5.470000000000000000e+02,-1.778710477271812307e+00,0.000000000000000000e+00
5.480000000000000000e+02,-1.536681570646409867e+00,0.000000000000000000e+00
5.490000000000000000e+02,-1.124889879213448296e+00,0.000000000000000000e+00
5.500000000000000000e+02,-1.131421202185235231e+00,0.000000000000000000e+00
5.510000000000000000e+02,-1.547372407646954162e+00,0.000000000000000000e+00
5.520000000000000000e+02,-1.306370435966094368e+00,0.000000000000000000e+00
5.530000000000000000e+02,-1.511824773649081077e+00,0.000000000000000000e+00
5.540000000000000000e+02,-1.065765248469591198e+00,0.000000000000000000e+00
5.550000000000000000e+02,-1.306609700960556397e+00,0.000000000000000000e+00
5.560000000000000000e+02,-6.481784791664130241e-01,0.000000000000000000e+00
5.570000000000000000e+02,-3.279046190797323956e-01,0.000000000000000000e+00
5.580000000000000000e+02,-3.845445760549190961e-01,0.000000000000000000e+00
5.590000000000000000e+02,-3.591871518983056344e-01,0.000000000000000000e+00
5.600000000000000000e+02,-6.598708817998830689e-01,0.000000000000000000e+00
5.610000000000000000e+02,-8.003818634267064747e-01,0.000000000000000000e+00
5.620000000000000000e+02,-9.276960180384129506e-01,0.000000000000000000e+00
5.630000000000000000e+02,-5.095884306155278320e-01,0.000000000000000000e+00
5.640000000000000000e+02,-2.867949056041322331e-01,0.000000000000000000e+00
5.650000000000000000e+02,1.118490701966529458e-02,0.000000000000000000e+00
5.660000000000000000e+02,4.728272545536257865e-01,0.000000000000000000e+00
5.670000000000000000e+02,9.720084861222932915e-01,0.000000000000000000e+00
5.680000000000000000e+02,4.980254149231044258e-01,0.000000000000000000e+00
5.690000000000000000e+02,6.649843592190379793e-01,0.000000000000000000e+00
5.700000000000000000e+02,3.721119132556455211e-02,0.000000000000000000e+00
5.710000000000000000e+02,6.794405033956882889e-01,0.000000000000000000e+00
5.720000000000000000e+02,2.433534175739003325e-01,0.000000000000000000e+00
5.730000000000000000e+02,5.558278054264489398e-01,0.000000000000000000e+00
5.740000000000000000e+02,6.173505124305525005e-01,0.000000000000000000e+00
5.750000000000000000e+02,8.010059696219185010e-01,0.000000000000000000e+00
5.760000000000000000e+02,6.780862788041726041e-01,0.000000000000000000e+00
5.770000000000000000e+02,9.708698543746943077e-01,0.000000000000000000e+00
5.780000000000000000e+02,9.236900413400493948e-01,0.000000000000000000e+00
5.790000000000000000e+02,8.324707937305552141e-01,0.000000000000000000e+00
5.800000000000000000e+02,4.343104453752176797e-01,0.000000000000000000e+00
5.810000000000000000e+02,1.151508201425238465e+00,0.000000000000000000e+00
5.820000000000000000e+02,5.542305487377425788e-01,0.000000000000000000e+00
5.830000000000000000e+02,1.110268691201961699e+00,0.000000000000000000e+00
5.840000000000000000e+02,4.872724935202376595e-01,0.000000000000000000e+00
5.850000000000000000e+02,3.541277687330984136e+00,0.000000000000000000e+00
5.860000000000000000e+02,1.923378103403781569e+00,1.000000000000000000e+00
5.870000000000000000e+02,1.265207054963453759e+00,0.000000000000000000e+00
5.880000000000000000e+02,3.123535918579248616e+00,0.000000000000000000e+00
5.890000000000000000e+02,7.933339980284693782e-01,0.000000000000000000e+00
5.900000000000000000e+02,2.836244031706454116e-01,0.000000000000000000e+00
5.910000000000000000e+02,-6.426102357378861152e-01,0.000000000000000000e+00
5.920000000000000000e+02,-8.367080968795952145e-02,0.000000000000000000e+00
5.930000000000000000e+02,-3.742596025715859143e-01,0.000000000000000000e+00
5.940000000000000000e+02,-1.578070768762528109e-01,0.000000000000000000e+00
5.950000000000000000e+02,-3.488218868546178464e-01,0.000000000000000000e+00
5.960000000000000000e+02,-4.876987675204938477e-02,0.000000000000000000e+00
5.970000000000000000e+02,-4.988760661723510847e-01,0.000000000000000000e+00
5.980000000000000000e+02,1.857365137479087269e-01,0.000000000000000000e+00
5.990000000000000000e+02,-2.292299617102464340e-02,0.000000000000000000e+00
6.000000000000000000e+02,9.676933334880567783e-02,0.000000000000000000e+00
6.010000000000000000e+02,3.124186528288238063e-01,0.000000000000000000e+00
6.020000000000000000e+02,3.380907556805600178e-01,0.000000000000000000e+00
6.030000000000000000e+02,1.470721405468874698e-01,0.000000000000000000e+00
6.040000000000000000e+02,7.759848761852479182e-01,0.000000000000000000e+00
6.050000000000000000e+02,1.203087015284937111e+00,0.000000000000000000e+00
6.060000000000000000e+02,1.662359855732256975e+00,0.000000000000000000e+00
6.070000000000000000e+02,1.335262641578898402e+00,0.000000000000000000e+00
6.080000000000000000e+02,3.240286739426274654e-01,0.000000000000000000e+00
6.090000000000000000e+02,-4.160253794779126268e-01,0.000000000000000000e+00
6.100000000000000000e+02,-1.155204937396919762e+00,0.000000000000000000e+00
6.110000000000000000e+02,-1.514218059276420503e+00,0.000000000000000000e+00
6.120000000000000000e+02,-1.442823043857572651e+00,0.000000000000000000e+00
6.130000000000000000e+02,-1.766418999743802232e+00,0.000000000000000000e+00
6.140000000000000000e+02,-1.485483114144640959e+00,0.000000000000000000e+00
6.150000000000000000e+02,-1.418938668674357029e+00,0.000000000000000000e+00
6.160000000000000000e+02,-1.282194166228087129e+00,0.000000000000000000e+00
6.170000000000000000e+02,-1.359832223906761062e+00,0.000000000000000000e+00
6.180000000000000000e+02,-8.807154823127142373e-01,0.000000000000000000e+00
6.190000000000000000e+02,-4.263595731327645133e-01,0.000000000000000000e+00
6.200000000000000000e+02,-6.229313131399228931e-01,0.000000000000000000e+00
6.210000000000000000e+02,-1.020992183288113697e+00,0.000000000000000000e+00
6.220000000000000000e+02,-7.360416443439831147e-01,0.000000000000000000e+00
6.230000000000000000e+02,-1.235647329987993759e+00,0.000000000000000000e+00
6.240000000000000000e+02,-3.898759685711842282e-01,0.000000000000000000e+00
6.250000000000000000e+02,-7.729305671747943585e-01,0.000000000000000000e+00
6.260000000000000000e+02,-3.993656814345089567e-01,0.000000000000000000e+00
6.270000000000000000e+02,1.796358373289489163e-01,0.000000000000000000e+00
6.280000000000000000e+02,1.784350372148450770e-02,0.000000000000000000e+00
6.290000000000000000e+02,2.925341367305153706e-01,0.000000000000000000e+00
6.300000000000000000e+02,6.068429236895240414e-02,0.000000000000000000e+00
6.310000000000000000e+02,-3.021659895705945398e-01,0.000000000000000000e+00
6.320000000000000000e+02,-2.699345083053475425e-01,0.000000000000000000e+00
6.330000000000000000e+02,-7.584618659219700687e-01,0.000000000000000000e+00
6.340000000000000000e+02,2.804861012216802729e-01,0.000000000000000000e+00
6.350000000000000000e+02,2.418374187109071163e-02,0.000000000000000000e+00
6.360000000000000000e+02,-1.089972597189670517e-01,0.000000000000000000e+00
6.370000000000000000e+02,-5.620099485654133503e-02,0.000000000000000000e+00
6.380000000000000000e+02,2.937734360944480594e-01,0.000000000000000000e+00
6.390000000000000000e+02,9.500927885873441600e-03,0.000000000000000000e+00
6.400000000000000000e+02,-8.215077736062373348e-02,0.000000000000000000e+00
6.410000000000000000e+02,6.673133044897303079e-02,0.000000000000000000e+00
6.420000000000000000e+02,3.574918247278366934e-01,0.000000000000000000e+00
6.430000000000000000e+02,4.542242938265296237e-01,0.000000000000000000e+00
6.440000000000000000e+02,-2.543757685617589748e-01,0.000000000000000000e+00
6.450000000000000000e+02,5.197311963846963367e-01,0.000000000000000000e+00
6.460000000000000000e+02,2.004005080707934039e-01,0.000000000000000000e+00
6.470000000000000000e+02,1.062994378334513323e-01,0.000000000000000000e+00
6.480000000000000000e+02,1.498963760757366093e-01,0.000000000000000000e+00
6.490000000000000000e+02,1.675567741799837806e+00,0.000000000000000000e+00
6.500000000000000000e+02,2.804963050117155632e+00,1.000000000000000000e+00
6.510000000000000000e+02,-1.164210236536794563e-01,0.000000000000000000e+00
6.520000000000000000e+02,3.035973393194735248e+00,0.000000000000000000e+00
6.530000000000000000e+02,1.013421103135699219e+00,0.000000000000000000e+00
6.540000000000000000e+02,2.775693000693127965e-01,0.000000000000000000e+00
6.550000000000000000e+02,-7.604886465705066323e-01,0.000000000000000000e+00
6.560000000000000000e+02,-6.459023846716441808e-01,0.000000000000000000e+00
6.570000000000000000e+02,-7.798132090772558200e-01,0.000000000000000000e+00
6.580000000000000000e+02,-3.627281665386260512e-01,0.000000000000000000e+00
6.590000000000000000e+02,-3.707502047991410588e-01,0.000000000000000000e+00
6.600000000000000000e+02,-2.329158406021401839e-01,0.000000000000000000e+00
6.610000000000000000e+02,-5.987137856796983515e-01,0.000000000000000000e+00
6.620000000000000000e+02,-4.548391786898130507e-01,0.000000000000000000e+00
6.630000000000000000e+02,-2.232719518718049856e-01,0.000000000000000000e+00
6.640000000000000000e+02,-3.766060050097069789e-01,0.000000000000000000e+00
6.650000000000000000e+02,-1.265329763690507536e-01,0.000000000000000000e+00
6.660000000000000000e+02,2.823149704827139228e-01,0.000000000000000000e+00
6.670000000000000000e+02,5.117375775029041618e-01,0.000000000000000000e+00
6.680000000000000000e+02,1.241067812415218574e+00,0.000000000000000000e+00
6.690000000000000000e+02,1.468998842787529346e+00,0.000000000000000000e+00
6.700000000000000000e+02,1.829706110399735630e+00,0.000000000000000000e+00
6.710000000000000000e+02,1.807160127717693188e+00,0.000000000000000000e+00
6.720000000000000000e+02,5.607834293757419930e-01,0.000000000000000000e+00
6.730000000000000000e+02,-1.162608917066487724e-01,0.000000000000000000e+00
6.740000000000000000e+02,-1.009953150537436839e+00,0.000000000000000000e+00
6.750000000000000000e+02,-1.249640842342375491e+00,0.000000000000000000e+00
6.760000000000000000e+02,-9.145740306862488733e-01,0.000000000000000000e+00
6.770000000000000000e+02,-1.339397206302461285e+00,0.000000000000000000e+00
6.780000000000000000e+02,-1.275020628392810940e+00,0.000000000000000000e+00
6.790000000000000000e+02,-1.175102542013157114e+00,0.000000000000000000e+00
6.800000000000000000e+02,-1.124211598148449065e+00,0.000000000000000000e+00
6.810000000000000000e+02,-6.590442929719453335e-01,0.000000000000000000e+00
6.820000000000000000e+02,-2.596774252046910592e-01,0.000000000000000000e+00
6.830000000000000000e+02,-3.820502326255102998e-01,0.000000000000000000e+00
6.840000000000000000e+02,1.126758254176105228e-01,0.000000000000000000e+00
6.850000000000000000e+02,-3.335115632614760739e-01,0.000000000000000000e+00
6.860000000000000000e+02,-3.125370006793191102e-01,0.000000000000000000e+00
6.870000000000000000e+02,-6.395576457748954891e-01,0.000000000000000000e+00
6.880000000000000000e+02,-3.099938866953851901e-01,0.000000000000000000e+00
6.890000000000000000e+02,3.006449049984549760e-01,0.000000000000000000e+00
6.900000000000000000e+02,3.772834539897065159e-02,0.000000000000000000e+00
6.910000000000000000e+02,1.525017939014294555e-01,0.000000000000000000e+00
6.920000000000000000e+02,-1.195615710875069654e-01,0.000000000000000000e+00
6.930000000000000000e+02,1.307534293284767779e-01,0.000000000000000000e+00
6.940000000000000000e+02,-2.917077455841124989e-01,0.000000000000000000e+00
6.950000000000000000e+02,-4.732570152033754307e-01,0.000000000000000000e+00
6.960000000000000000e+02,-4.053510431214004672e-01,0.000000000000000000e+00
6.970000000000000000e+02,-1.912731633197623793e-01,0.000000000000000000e+00
6.980000000000000000e+02,-1.657378713483741717e-01,0.000000000000000000e+00
6.990000000000000000e+02,-2.137053747130661652e-01,0.000000000000000000e+00
7.000000000000000000e+02,1.858020505479404116e-01,0.000000000000000000e+00
7.010000000000000000e+02,-1.262299238403485728e-02,0.000000000000000000e+00
7.020000000000000000e+02,5.144656167097503285e-01,0.000000000000000000e+00
7.030000000000000000e+02,-1.248066616273024315e-01,0.000000000000000000e+00
7.040000000000000000e+02,5.914268425260297279e-01,0.000000000000000000e+00
7.050000000000000000e+02,3.746205960846855088e-01,0.000000000000000000e+00
7.060000000000000000e+02,1.407613529726211843e-01,0.000000000000000000e+00
7.070000000000000000e+02,-8.687147466668623808e-02,0.000000000000000000e+00
7.080000000000000000e+02,-1.509601518185490210e-01,0.000000000000000000e+00
7.090000000000000000e+02,-2.041556154061357486e-01,0.000000000000000000e+00
7.100000000000000000e+02,5.372445544973324383e-01,0.000000000000000000e+00
7.110000000000000000e+02,7.772453206640589363e-01,0.000000000000000000e+00
7.120000000000000000e+02,9.589967504963426981e-01,0.000000000000000000e+00
7.130000000000000000e+02,6.961450464036578190e-01,0.000000000000000000e+00
7.140000000000000000e+02,4.301301051249911134e-01,0.000000000000000000e+00
7.150000000000000000e+02,3.992426081589922071e-01,0.000000000000000000e+00
7.160000000000000000e+02,1.755911223299839730e-01,0.000000000000000000e+00
7.170000000000000000e+02,3.722993750453013062e-01,0.000000000000000000e+00
7.180000000000000000e+02,9.635258411965927361e-02,0.000000000000000000e+00
7.190000000000000000e+02,5.720885189544279159e-01,0.000000000000000000e+00
7.200000000000000000e+02,6.818823585109494712e-01,0.000000000000000000e+00
7.210000000000000000e+02,8.088889374369355734e-01,0.000000000000000000e+00
7.220000000000000000e+02,5.569185838248594811e-01,0.000000000000000000e+00
7.230000000000000000e+02,3.375386156089522638e-01,0.000000000000000000e+00
7.240000000000000000e+02,4.930382510383402583e-01,0.000000000000000000e+00
7.250000000000000000e+02,3.072400842517496455e-01,0.000000000000000000e+00
7.260000000000000000e+02,2.935976881688380780e-01,0.000000000000000000e+00
7.270000000000000000e+02,3.380951972200341160e-01,0.000000000000000000e+00
7.280000000000000000e+02,4.163223668711383274e-01,0.000000000000000000e+00
7.290000000000000000e+02,7.164391421259240778e-01,0.000000000000000000e+00
7.300000000000000000e+02,3.552581945946593489e-01,0.000000000000000000e+00
7.310000000000000000e+02,1.770399683725972645e-02,0.000000000000000000e+00
7.320000000000000000e+02,1.296139614128937467e-01,0.000000000000000000e+00
7.330000000000000000e+02,-2.603887054329772077e-01,0.000000000000000000e+00
7.340000000000000000e+02,9.968149202691636845e-02,0.000000000000000000e+00
7.350000000000000000e+02,2.369565990224396512e-01,0.000000000000000000e+00
7.360000000000000000e+02,1.069514397241979747e-01,0.000000000000000000e+00
7.370000000000000000e+02,5.641265803407009560e-01,0.000000000000000000e+00
7.380000000000000000e+02,5.194992276800939335e-01,0.000000000000000000e+00
7.390000000000000000e+02,-1.040860394619443074e-01,0.000000000000000000e+00
7.400000000000000000e+02,-4.317229595165525402e-01,0.000000000000000000e+00
7.410000000000000000e+02,1.815439511963582442e-01,0.000000000000000000e+00
7.420000000000000000e+02,2.142411639968841985e+00,0.000000000000000000e+00
7.430000000000000000e+02,-2.717933054258427905e+00,0.000000000000000000e+00
7.440000000000000000e+02,-6.933925029860161793e-01,1.000000000000000000e+00
7.450000000000000000e+02,1.634358203019785627e+00,0.000000000000000000e+00
7.460000000000000000e+02,-1.592790727519104443e+00,0.000000000000000000e+00
7.470000000000000000e+02,-1.033652973441347767e+00,0.000000000000000000e+00
7.480000000000000000e+02,-1.037626462325915266e+00,0.000000000000000000e+00
7.490000000000000000e+02,-6.068876131476572677e-01,0.000000000000000000e+00
7.500000000000000000e+02,-4.831524664679981984e-01,0.000000000000000000e+00
7.510000000000000000e+02,-6.568064663718412577e-01,0.000000000000000000e+00
7.520000000000000000e+02,-5.948824820878673147e-01,0.000000000000000000e+00
7.530000000000000000e+02,-2.000915963010791929e-02,0.000000000000000000e+00
7.540000000000000000e+02,-3.018809261353971318e-01,0.000000000000000000e+00
7.550000000000000000e+02,-2.249797123712689861e-01,0.000000000000000000e+00
7.560000000000000000e+02,-2.757002929025205717e-01,0.000000000000000000e+00
7.570000000000000000e+02,-1.351399374852495783e-01,0.000000000000000000e+00
7.580000000000000000e+02,-1.016123614563324284e-01,0.000000000000000000e+00
7.590000000000000000e+02,-1.187282108596288133e-01,0.000000000000000000e+00
7.600000000000000000e+02,9.148788350192446073e-01,0.000000000000000000e+00
7.610000000000000000e+02,1.148974920244474784e+00,0.000000000000000000e+00
7.620000000000000000e+02,1.851069961438469802e+00,0.000000000000000000e+00
7.630000000000000000e+02,1.886049214846886590e+00,0.000000000000000000e+00
7.640000000000000000e+02,1.528786103785629846e+00,0.000000000000000000e+00
7.650000000000000000e+02,5.862217460881934128e-02,0.000000000000000000e+00
7.660000000000000000e+02,-1.012369927765325972e+00,0.000000000000000000e+00
7.670000000000000000e+02,-1.715471968593089258e+00,0.000000000000000000e+00
7.680000000000000000e+02,-2.093687504286346535e+00,0.000000000000000000e+00
7.690000000000000000e+02,-1.832605633360891106e+00,0.000000000000000000e+00
7.700000000000000000e+02,-1.144229814609799112e+00,0.000000000000000000e+00
7.710000000000000000e+02,-1.086426370380856987e+00,0.000000000000000000e+00
7.720000000000000000e+02,-1.391769078335768128e+00,0.000000000000000000e+00
7.730000000000000000e+02,-1.651900903751686300e+00,0.000000000000000000e+00
7.740000000000000000e+02,-1.400941350519758766e+00,0.000000000000000000e+00
7.750000000000000000e+02,-1.248260234274309433e+00,0.000000000000000000e+00
7.760000000000000000e+02,-9.666913907807291872e-01,0.000000000000000000e+00
7.770000000000000000e+02,-9.444591528547066073e-01,0.000000000000000000e+00
7.780000000000000000e+02,-4.598547372597188154e-01,0.000000000000000000e+00
7.790000000000000000e+02,-3.891891579619499164e-01,0.000000000000000000e+00
7.800000000000000000e+02,-7.972429503973362808e-01,0.000000000000000000e+00
7.810000000000000000e+02,-9.180258001920602595e-01,0.000000000000000000e+00
7.820000000000000000e+02,-8.027420679241393797e-01,0.000000000000000000e+00
7.830000000000000000e+02,-1.619221064247542419e+00,0.000000000000000000e+00
7.840000000000000000e+02,-1.166228162606434804e+00,0.000000000000000000e+00
7.850000000000000000e+02,-1.479848955680512779e-01,0.000000000000000000e+00
7.860000000000000000e+02,-1.298932503935545102e-01,0.000000000000000000e+00
7.870000000000000000e+02,-1.138403612075849086e-01,0.000000000000000000e+00
7.880000000000000000e+02,3.087385018909270459e-02,0.000000000000000000e+00
7.890000000000000000e+02,-4.801254187545126589e-02,0.000000000000000000e+00
7.900000000000000000e+02,-4.052825294881431256e-02,0.000000000000000000e+00
7.910000000000000000e+02,4.399988078776363998e-01,0.000000000000000000e+00
7.920000000000000000e+02,2.256807606132469612e-01,0.000000000000000000e+00
7.930000000000000000e+02,4.233474224543244957e-01,0.000000000000000000e+00
7.940000000000000000e+02,4.332667318838712700e-01,0.000000000000000000e+00
7.950000000000000000e+02,4.044533705674635549e-01,0.000000000000000000e+00
7.960000000000000000e+02,8.293966158602388283e-01,0.000000000000000000e+00
7.970000000000000000e+02,7.111900931634778100e-01,0.000000000000000000e+00
7.980000000000000000e+02,6.284534028053984089e-01,0.000000000000000000e+00
7.990000000000000000e+02,1.042124199421452957e+00,0.000000000000000000e+00
8.000000000000000000e+02,5.704718150687596578e-01,0.000000000000000000e+00
8.010000000000000000e+02,1.115460329469396106e+00,0.000000000000000000e+00
8.020000000000000000e+02,7.460691072085855469e-01,0.000000000000000000e+00
8.030000000000000000e+02,8.731440225899929075e-01,0.000000000000000000e+00
8.040000000000000000e+02,4.999824753500578534e-01,0.000000000000000000e+00
8.050000000000000000e+02,7.624496956186339602e-01,0.000000000000000000e+00
8.060000000000000000e+02,8.398293954128708272e-01,0.000000000000000000e+00
8.070000000000000000e+02,8.946707893606784534e-01,0.000000000000000000e+00
8.080000000000000000e+02,5.412831103051966020e-01,0.000000000000000000e+00
8.090000000000000000e+02,1.132326887629195644e+00,0.000000000000000000e+00
8.100000000000000000e+02,9.118186364832037150e-01,0.000000000000000000e+00
8.110000000000000000e+02,8.685289968549888551e-01,0.000000000000000000e+00
8.120000000000000000e+02,7.475594473810907026e-01,0.000000000000000000e+00
8.130000000000000000e+02,6.572989791157756168e-01,0.000000000000000000e+00
8.140000000000000000e+02,7.443016208218891094e-01,0.000000000000000000e+00
8.150000000000000000e+02,6.844125048558328261e-01,0.000000000000000000e+00
8.160000000000000000e+02,3.963200947691967735e-01,0.000000000000000000e+00
8.170000000000000000e+02,3.808961397060335319e-01,0.000000000000000000e+00
8.180000000000000000e+02,5.490354736310454342e-01,0.000000000000000000e+00
8.190000000000000000e+02,7.368290880443795210e-01,0.000000000000000000e+00
8.200000000000000000e+02,3.366426256452163535e-01,0.000000000000000000e+00
8.210000000000000000e+02,5.732256501572490226e-01,0.000000000000000000e+00
8.220000000000000000e+02,2.360109694662671648e-02,0.000000000000000000e+00
8.230000000000000000e+02,2.544772365767050681e-01,0.000000000000000000e+00
8.240000000000000000e+02,1.122819720073405941e-01,0.000000000000000000e+00
8.250000000000000000e+02,3.250703097183228696e+00,0.000000000000000000e+00
8.260000000000000000e+02,1.095217138543519875e+00,0.000000000000000000e+00
8.270000000000000000e+02,2.113881688373904666e+00,0.000000000000000000e+00
8.280000000000000000e+02,2.242822048457893569e+00,0.000000000000000000e+00
8.290000000000000000e+02,-1.759302880827845250e+00,1.000000000000000000e+00
8.300000000000000000e+02,-1.081374615911723014e+00,0.000000000000000000e+00
8.310000000000000000e+02,-6.439167464043618061e-01,0.000000000000000000e+00
8.320000000000000000e+02,-1.037287841032284552e+00,0.000000000000000000e+00
8.330000000000000000e+02,-6.573744774292561432e-01,0.000000000000000000e+00
8.340000000000000000e+02,-4.477133070803380743e-01,0.000000000000000000e+00
8.350000000000000000e+02,-6.803601454768680723e-01,0.000000000000000000e+00
8.360000000000000000e+02,-5.985053226953761518e-01,0.000000000000000000e+00
8.370000000000000000e+02,-2.756260661625019037e-01,0.000000000000000000e+00
8.380000000000000000e+02,-3.756101121990469416e-01,0.000000000000000000e+00
8.390000000000000000e+02,-5.499556167128006462e-02,0.000000000000000000e+00
8.400000000000000000e+02,-3.925707735959390043e-01,0.000000000000000000e+00
8.410000000000000000e+02,-3.314327728116713279e-01,0.000000000000000000e+00
8.420000000000000000e+02,1.026509446125410951e-01,0.000000000000000000e+00
8.430000000000000000e+02,1.083680645194988745e-01,0.000000000000000000e+00
8.440000000000000000e+02,4.654291443435249476e-01,0.000000000000000000e+00
8.450000000000000000e+02,9.774955234956744787e-01,0.000000000000000000e+00
8.460000000000000000e+02,1.161773241056025530e+00,0.000000000000000000e+00
8.470000000000000000e+02,7.353986684852531486e-01,0.000000000000000000e+00
8.480000000000000000e+02,4.159765100393888332e-02,0.000000000000000000e+00
8.490000000000000000e+02,-9.975857338414463316e-01,0.000000000000000000e+00
8.500000000000000000e+02,-1.492337098574394449e+00,0.000000000000000000e+00
8.510000000000000000e+02,-1.781686118171751598e+00,0.000000000000000000e+00
8.520000000000000000e+02,-1.440289503577254271e+00,0.000000000000000000e+00
8.530000000000000000e+02,-9.402934887166978228e-01,0.000000000000000000e+00
8.540000000000000000e+02,-1.382763399418594163e+00,0.000000000000000000e+00
8.550000000000000000e+02,-1.349008772539856293e+00,0.000000000000000000e+00
8.560000000000000000e+02,-7.036230317354127406e-01,0.000000000000000000e+00
8.570000000000000000e+02,-8.650852891726249494e-01,0.000000000000000000e+00
8.580000000000000000e+02,-9.511713329675535178e-01,0.000000000000000000e+00
8.590000000000000000e+02,-6.173073224897765998e-01,0.000000000000000000e+00
8.600000000000000000e+02,-6.510083399544885907e-01,0.000000000000000000e+00
8.610000000000000000e+02,-7.810426128593404016e-01,0.000000000000000000e+00
8.620000000000000000e+02,-1.250209948160789120e+00,0.000000000000000000e+00
8.630000000000000000e+02,-8.188655449827018096e-01,0.000000000000000000e+00
8.640000000000000000e+02,-1.311193207200252786e+00,0.000000000000000000e+00
8.650000000000000000e+02,-3.574754133024461988e-01,0.000000000000000000e+00
8.660000000000000000e+02,-5.682625716562190732e-01,0.000000000000000000e+00
8.670000000000000000e+02,-3.028670403370677944e-01,0.000000000000000000e+00
8.680000000000000000e+02,-7.795220709175612606e-02,0.000000000000000000e+00
8.690000000000000000e+02,-9.343703979179508734e-02,0.000000000000000000e+00
8.700000000000000000e+02,-4.264747702730001810e-01,0.000000000000000000e+00
8.710000000000000000e+02,-5.446843437518169954e-03,0.000000000000000000e+00
8.720000000000000000e+02,-1.903294328830374693e-01,0.000000000000000000e+00
8.730000000000000000e+02,3.297468879823610144e-01,0.000000000000000000e+00
8.740000000000000000e+02,1.083128380901368093e-01,0.000000000000000000e+00
8.750000000000000000e+02,4.803285367907235148e-01,0.000000000000000000e+00
8.760000000000000000e+02,5.888343563148581428e-01,0.000000000000000000e+00
8.770000000000000000e+02,5.249280546352340648e-01,0.000000000000000000e+00
8.780000000000000000e+02,1.714679789173204350e-01,0.000000000000000000e+00
8.790000000000000000e+02,8.029745241209012424e-03,0.000000000000000000e+00
8.800000000000000000e+02,-2.237744511128897384e-01,0.000000000000000000e+00
8.810000000000000000e+02,4.416830098582970598e-01,0.000000000000000000e+00
8.820000000000000000e+02,4.247064158197842443e-01,0.000000000000000000e+00
8.830000000000000000e+02,3.120790478525085065e-01,0.000000000000000000e+00
8.840000000000000000e+02,1.790856059091240071e-01,0.000000000000000000e+00
8.850000000000000000e+02,4.126884252494864014e-01,0.000000000000000000e+00
8.860000000000000000e+02,7.146788477575161114e-01,0.000000000000000000e+00
8.870000000000000000e+02,5.231117601758813462e-01,0.000000000000000000e+00
8.880000000000000000e+02,1.449102583359599128e-01,0.000000000000000000e+00
8.890000000000000000e+02,2.756743599809921563e-01,0.000000000000000000e+00
8.900000000000000000e+02,5.446639049408057431e-01,0.000000000000000000e+00
8.910000000000000000e+02,7.745271735647032418e-01,0.000000000000000000e+00
8.920000000000000000e+02,6.806897029008678324e-01,0.000000000000000000e+00
8.930000000000000000e+02,7.262895344932360775e-01,0.000000000000000000e+00
8.940000000000000000e+02,4.306054592810664161e-01,0.000000000000000000e+00
8.950000000000000000e+02,8.247796143408206992e-01,0.000000000000000000e+00
8.960000000000000000e+02,6.135488646609742885e-02,0.000000000000000000e+00
8.970000000000000000e+02,4.933791097006464121e-01,0.000000000000000000e+00
8.980000000000000000e+02,5.482081138189187630e-01,0.000000000000000000e+00
8.990000000000000000e+02,7.090971560786254457e-01,0.000000000000000000e+00
9.000000000000000000e+02,5.461055771642253642e-01,0.000000000000000000e+00
9.010000000000000000e+02,3.231181858498030302e+00,0.000000000000000000e+00
9.020000000000000000e+02,2.480761930939551885e+00,0.000000000000000000e+00
9.030000000000000000e+02,1.776708408340072820e+00,0.000000000000000000e+00
9.040000000000000000e+02,2.887610438791776701e+00,0.000000000000000000e+00
9.050000000000000000e+02,-1.980212790289376024e+00,0.000000000000000000e+00
9.060000000000000000e+02,-1.785267431401966531e+00,1.000000000000000000e+00
9.070000000000000000e+02,-9.423814965457639747e-01,0.000000000000000000e+00
9.080000000000000000e+02,-7.270038452801310669e-01,0.000000000000000000e+00
9.090000000000000000e+02,-5.518583122605452695e-01,0.000000000000000000e+00
9.100000000000000000e+02,-3.910312449851304217e-01,0.000000000000000000e+00
9.110000000000000000e+02,1.342935770251264538e-01,0.000000000000000000e+00
9.120000000000000000e+02,-4.641314322981779927e-01,0.000000000000000000e+00
9.130000000000000000e+02,-6.863320056698469784e-01,0.000000000000000000e+00
9.140000000000000000e+02,-1.783179295120388697e-01,0.000000000000000000e+00
9.150000000000000000e+02,-4.507839487038417525e-01,0.000000000000000000e+00
9.160000000000000000e+02,-7.653954455214073693e-02,0.000000000000000000e+00
9.170000000000000000e+02,-1.964347798627418817e-01,0.000000000000000000e+00
9.180000000000000000e+02,1.660202886652540066e-01,0.000000000000000000e+00
9.190000000000000000e+02,5.661756631235489445e-01,0.000000000000000000e+00
9.200000000000000000e+02,1.246414443706952202e+00,0.000000000000000000e+00
9.210000000000000000e+02,1.806823592681835899e+00,0.000000000000000000e+00
9.220000000000000000e+02,1.664454771475862627e+00,0.000000000000000000e+00
9.230000000000000000e+02,1.216804947368210765e+00,0.000000000000000000e+00
9.240000000000000000e+02,6.685752633097723496e-01,0.000000000000000000e+00
9.250000000000000000e+02,-4.988900727850912875e-01,0.000000000000000000e+00
9.260000000000000000e+02,-1.638757800456785541e+00,0.000000000000000000e+00
9.270000000000000000e+02,-2.082777486331996997e+00,0.000000000000000000e+00
9.280000000000000000e+02,-1.486023330780452900e+00,0.000000000000000000e+00
9.290000000000000000e+02,-2.271179702127968270e+00,0.000000000000000000e+00
9.300000000000000000e+02,-1.378688434023086273e+00,0.000000000000000000e+00
9.310000000000000000e+02,-1.526471578326080714e+00,0.000000000000000000e+00
9.320000000000000000e+02,-1.095294315070474145e+00,0.000000000000000000e+00
9.330000000000000000e+02,-8.258722704793263203e-01,0.000000000000000000e+00
9.340000000000000000e+02,-9.810476087967763270e-01,0.000000000000000000e+00
9.350000000000000000e+02,-1.204570948759133620e+00,0.000000000000000000e+00
9.360000000000000000e+02,-8.700114411527162250e-01,0.000000000000000000e+00
9.370000000000000000e+02,-1.179505626940651419e+00,0.000000000000000000e+00
9.380000000000000000e+02,-4.430108856354758040e-01,0.000000000000000000e+00
9.390000000000000000e+02,-1.230549240549960288e+00,0.000000000000000000e+00
9.400000000000000000e+02,-5.574506653148273427e-01,0.000000000000000000e+00
9.410000000000000000e+02,9.963764248433965021e-02,0.000000000000000000e+00
9.420000000000000000e+02,-2.553370494993791318e-01,0.000000000000000000e+00
9.430000000000000000e+02,-4.960869022141737306e-01,0.000000000000000000e+00
9.440000000000000000e+02,-4.030999279843045513e-01,0.000000000000000000e+00
9.450000000000000000e+02,-6.893775297496105292e-01,0.000000000000000000e+00
9.460000000000000000e+02,-4.388201244877260043e-01,0.000000000000000000e+00
9.470000000000000000e+02,2.296583748351538334e-01,0.000000000000000000e+00
9.480000000000000000e+02,-2.270511675749502523e-01,0.000000000000000000e+00
9.490000000000000000e+02,3.342320247111621456e-01,0.000000000000000000e+00
9.500000000000000000e+02,1.447961712528284262e-01,0.000000000000000000e+00
9.510000000000000000e+02,1.800631338416993354e-01,0.000000000000000000e+00
9.520000000000000000e+02,3.727583247932376997e-02,0.000000000000000000e+00
9.530000000000000000e+02,-3.706022806131360481e-01,0.000000000000000000e+00
9.540000000000000000e+02,2.394300449037685755e-02,0.000000000000000000e+00
9.550000000000000000e+02,7.395348232564964708e-02,0.000000000000000000e+00
9.560000000000000000e+02,3.972172604568767196e-01,0.000000000000000000e+00
9.570000000000000000e+02,6.297901842566016040e-01,0.000000000000000000e+00
9.580000000000000000e+02,6.182487129155743721e-01,0.000000000000000000e+00
9.590000000000000000e+02,6.814768299280110631e-01,0.000000000000000000e+00
9.600000000000000000e+02,2.242062585261554442e-01,0.000000000000000000e+00
9.610000000000000000e+02,1.233881729234460739e-01,0.000000000000000000e+00
9.620000000000000000e+02,1.476594293342100780e-02,0.000000000000000000e+00
9.630000000000000000e+02,4.347390281026725645e-01,0.000000000000000000e+00
9.640000000000000000e+02,4.437163820126593383e-01,0.000000000000000000e+00
9.650000000000000000e+02,5.338530434966755056e-01,0.000000000000000000e+00
9.660000000000000000e+02,1.028736139925414683e+00,0.000000000000000000e+00
9.670000000000000000e+02,4.619111033137518474e-01,0.000000000000000000e+00
9.680000000000000000e+02,7.532013856608096303e-01,0.000000000000000000e+00
9.690000000000000000e+02,4.024253858297416331e-01,0.000000000000000000e+00
9.700000000000000000e+02,5.433554301976493139e-01,0.000000000000000000e+00
9.710000000000000000e+02,4.407886446523539559e-01,0.000000000000000000e+00
9.720000000000000000e+02,4.412571612181235836e-01,0.000000000000000000e+00
9.730000000000000000e+02,1.014031816332269464e+00,0.000000000000000000e+00
9.740000000000000000e+02,5.588991849904076936e-01,0.000000000000000000e+00
9.750000000000000000e+02,8.811214981595791862e-01,0.000000000000000000e+00
9.760000000000000000e+02,7.879362491013446324e-01,0.000000000000000000e+00
9.770000000000000000e+02,6.757299780062101524e-01,0.000000000000000000e+00
9.780000000000000000e+02,6.258524412928400116e-01,0.000000000000000000e+00
9.790000000000000000e+02,7.625439127641839843e-01,0.000000000000000000e+00
9.800000000000000000e+02,4.955433946895034802e-01,0.000000000000000000e+00
9.810000000000000000e+02,6.248714939186119643e-01,0.000000000000000000e+00
9.820000000000000000e+02,2.351868584262213902e-01,0.000000000000000000e+00
9.830000000000000000e+02,2.318679901209201241e-02,0.000000000000000000e+00
9.840000000000000000e+02,2.202546997897899816e-01,0.000000000000000000e+00
9.850000000000000000e+02,7.831907711286278939e-02,0.000000000000000000e+00
9.860000000000000000e+02,3.961047787780819229e-01,0.000000000000000000e+00
9.870000000000000000e+02,2.686254966092645802e+00,0.000000000000000000e+00
9.880000000000000000e+02,4.805222487862603753e-01,0.000000000000000000e+00
9.890000000000000000e+02,2.660811078697927545e+00,0.000000000000000000e+00
9.900000000000000000e+02,1.583200895149540655e+00,0.000000000000000000e+00
9.910000000000000000e+02,-1.666841860248668317e+00,1.000000000000000000e+00
9.920000000000000000e+02,-7.016724231187515537e-01,0.000000000000000000e+00
9.930000000000000000e+02,-1.216355213599732421e+00,0.000000000000000000e+00
9.940000000000000000e+02,-1.284526248724730646e+00,0.000000000000000000e+00
9.950000000000000000e+02,-1.304565463198965602e+00,0.000000000000000000e+00
9.960000000000000000e+02,-7.518870924218713503e-01,0.000000000000000000e+00
9.970000000000000000e+02,-5.439872671836587514e-01,0.000000000000000000e+00
9.980000000000000000e+02,-7.605717909123340670e-01,0.000000000000000000e+00
9.990000000000000000e+02,-3.582965006642223615e-01,0.000000000000000000e+00
1.000000000000000000e+03,-2.905876212929767166e-01,0.000000000000000000e+00
1.001000000000000000e+03,-4.951835020493800532e-01,0.000000000000000000e+00
1.002000000000000000e+03,-1.243134249096184557e-01,0.000000000000000000e+00
1.003000000000000000e+03,-7.874712731913240393e-01,0.000000000000000000e+00
1.004000000000000000e+03,3.188614691435490839e-02,0.000000000000000000e+00
1.005000000000000000e+03,4.315022718497240062e-01,0.000000000000000000e+00
1.006000000000000000e+03,1.113977613719834059e+00,0.000000000000000000e+00
1.007000000000000000e+03,1.457542643688309880e+00,0.000000000000000000e+00
1.008000000000000000e+03,1.272232184308356162e+00,0.000000000000000000e+00
1.009000000000000000e+03,7.226989452605656616e-01,0.000000000000000000e+00
1.010000000000000000e+03,-2.722243599335679720e-01,0.000000000000000000e+00
1.011000000000000000e+03,-1.398770758228942368e+00,0.000000000000000000e+00
1.012000000000000000e+03,-1.578253716158905862e+00,0.000000000000000000e+00
1.013000000000000000e+03,-2.095520859398467994e+00,0.000000000000000000e+00
1.014000000000000000e+03,-1.533188051374550609e+00,0.000000000000000000e+00
1.015000000000000000e+03,-1.501552358645066532e+00,0.000000000000000000e+00
1.016000000000000000e+03,-1.191922612069079568e+00,0.000000000000000000e+00
1.017000000000000000e+03,-1.036043277244264482e+00,0.000000000000000000e+00
1.018000000000000000e+03,-1.220545992346343978e+00,0.000000000000000000e+00
1.019000000000000000e+03,-8.002813481594599487e-01,0.000000000000000000e+00
1.020000000000000000e+03,-1.012069292869734127e+00,0.000000000000000000e+00
1.021000000000000000e+03,-9.057835136434062573e-01,0.000000000000000000e+00
1.022000000000000000e+03,-5.385990879921085384e-01,0.000000000000000000e+00
1.023000000000000000e+03,-5.385592655605270229e-01,0.000000000000000000e+00
1.024000000000000000e+03,-7.558065736173369409e-01,0.000000000000000000e+00
1.025000000000000000e+03,-6.157191612008729997e-01,0.000000000000000000e+00
1.026000000000000000e+03,-5.790103811465080463e-01,0.000000000000000000e+00
1.027000000000000000e+03,-5.076812525967169254e-01,0.000000000000000000e+00
1.028000000000000000e+03,-2.713582738867791333e-01,0.000000000000000000e+00
1.029000000000000000e+03,-2.953464582899282265e-01,0.000000000000000000e+00
1.030000000000000000e+03,-5.522094204587535415e-01,0.000000000000000000e+00
1.031000000000000000e+03,-2.744234193887717943e-01,0.000000000000000000e+00
1.032000000000000000e+03,-3.821331917072313122e-01,0.000000000000000000e+00
1.033000000000000000e+03,2.809864754767057993e-01,0.000000000000000000e+00
1.034000000000000000e+03,4.826581148376759556e-01,0.000000000000000000e+00
1.035000000000000000e+03,3.788345877202322631e-01,0.000000000000000000e+00
1.036000000000000000e+03,5.196517657538112234e-01,0.000000000000000000e+00
1.037000000000000000e+03,7.533049343347756333e-01,0.000000000000000000e+00
1.038000000000000000e+03,1.324239943429826941e-02,0.000000000000000000e+00
1.039000000000000000e+03,1.907415026219685950e-01,0.000000000000000000e+00
1.040000000000000000e+03,3.806719747580391555e-01,0.000000000000000000e+00
1.041000000000000000e+03,5.119027054079213768e-01,0.000000000000000000e+00
1.042000000000000000e+03,7.056279672322736118e-01,0.000000000000000000e+00
1.043000000000000000e+03,9.157243111357533660e-01,0.000000000000000000e+00
1.044000000000000000e+03,7.032506620890767168e-01,0.000000000000000000e+00
1.045000000000000000e+03,1.639875491763742865e-01,0.000000000000000000e+00
1.046000000000000000e+03,8.204101880081431375e-01,0.000000000000000000e+00
1.047000000000000000e+03,-5.059072102117758568e-02,0.000000000000000000e+00
1.048000000000000000e+03,4.931378260657068302e-01,0.000000000000000000e+00
1.049000000000000000e+03,6.928595911805619512e-01,0.000000000000000000e+00
1.050000000000000000e+03,4.957786775374597998e-01,0.000000000000000000e+00
1.051000000000000000e+03,6.267209657065434536e-01,0.000000000000000000e+00
1.052000000000000000e+03,6.110588833941661413e-01,0.000000000000000000e+00
1.053000000000000000e+03,6.340387949742107843e-01,0.000000000000000000e+00
1.054000000000000000e+03,4.761912808780400241e-01,0.000000000000000000e+00
1.055000000000000000e+03,4.493198252452071939e-01,0.000000000000000000e+00
1.056000000000000000e+03,5.538159177453231274e-01,0.000000000000000000e+00
1.057000000000000000e+03,6.226415104053646399e-01,0.000000000000000000e+00
1.058000000000000000e+03,6.307244308259399856e-01,0.000000000000000000e+00
1.059000000000000000e+03,7.255052488833332314e-01,0.000000000000000000e+00
1.060000000000000000e+03,1.783875392264420712e-01,0.000000000000000000e+00
1.061000000000000000e+03,2.838791418441771741e-01,0.000000000000000000e+00
1.062000000000000000e+03,4.019222992565039121e-01,0.000000000000000000e+00
1.063000000000000000e+03,4.550669937798060283e-01,0.000000000000000000e+00
1.064000000000000000e+03,5.335969026947466887e-01,0.000000000000000000e+00
1.065000000000000000e+03,6.000068865889500724e-01,0.000000000000000000e+00
1.066000000000000000e+03,5.207946145290099915e-01,0.000000000000000000e+00
1.067000000000000000e+03,5.064549102934419178e-01,0.000000000000000000e+00
1.068000000000000000e+03,1.567924309115151793e-01,0.000000000000000000e+00
1.069000000000000000e+03,3.924156154759665394e-01,0.000000000000000000e+00
1.070000000000000000e+03,3.778430850205850788e+00,0.000000000000000000e+00
1.071000000000000000e+03,8.174360957978450415e-01,0.000000000000000000e+00
1.072000000000000000e+03,3.307361798291531763e+00,0.000000000000000000e+00
1.073000000000000000e+03,1.370506242474933467e+00,0.000000000000000000e+00
1.074000000000000000e+03,-1.612049434737522713e+00,1.000000000000000000e+00
1.075000000000000000e+03,-9.010185839326793067e-01,0.000000000000000000e+00
1.076000000000000000e+03,-1.085035368609973183e+00,0.000000000000000000e+00
1.077000000000000000e+03,-5.259705292819135680e-01,0.000000000000000000e+00
1.078000000000000000e+03,-1.083939196499519531e+00,0.000000000000000000e+00
1.079000000000000000e+03,-7.435081797637361767e-01,0.000000000000000000e+00
1.080000000000000000e+03,-8.625182039810710410e-01,0.000000000000000000e+00
1.081000000000000000e+03,-8.049208121913438152e-01,0.000000000000000000e+00
1.082000000000000000e+03,-1.628430275275907779e-01,0.000000000000000000e+00
1.083000000000000000e+03,-1.913365615854711599e-01,0.000000000000000000e+00
1.084000000000000000e+03,-3.817178196495004672e-01,0.000000000000000000e+00
1.085000000000000000e+03,-9.327534804239150101e-02,0.000000000000000000e+00
1.086000000000000000e+03,-3.011842129727899109e-01,0.000000000000000000e+00
1.087000000000000000e+03,6.034563892418288306e-03,0.000000000000000000e+00
1.088000000000000000e+03,3.441312474297475443e-01,0.000000000000000000e+00
1.089000000000000000e+03,6.894332819247595001e-01,0.000000000000000000e+00
1.090000000000000000e+03,1.202578588081604893e+00,0.000000000000000000e+00
1.091000000000000000e+03,1.424232950718546498e+00,0.000000000000000000e+00
1.092000000000000000e+03,5.209800681381657750e-01,0.000000000000000000e+00
1.093000000000000000e+03,-3.224804634863916442e-01,0.000000000000000000e+00
1.094000000000000000e+03,-1.426316995885642314e+00,0.000000000000000000e+00
1.095000000000000000e+03,-2.071862957633483937e+00,0.000000000000000000e+00
1.096000000000000000e+03,-1.846416763995639032e+00,0.000000000000000000e+00
1.097000000000000000e+03,-1.897291536858493055e+00,0.000000000000000000e+00
1.098000000000000000e+03,-1.944749324380884214e+00,0.000000000000000000e+00
1.099000000000000000e+03,-1.861922286643341140e+00,0.000000000000000000e+00
1.100000000000000000e+03,-1.590356800423879280e+00,0.000000000000000000e+00
1.101000000000000000e+03,-1.439690468146610502e+00,0.000000000000000000e+00
1.102000000000000000e+03,-1.147268336515315124e+00,0.000000000000000000e+00
1.103000000000000000e+03,-1.200518888094059822e+00,0.000000000000000000e+00
1.104000000000000000e+03,-1.186652966356836147e+00,0.000000000000000000e+00
1.105000000000000000e+03,-4.534926715601221847e-01,0.000000000000000000e+00
1.106000000000000000e+03,-5.813084059070666720e-01,0.000000000000000000e+00
1.107000000000000000e+03,-3.927266341429161423e-02,0.000000000000000000e+00
1.108000000000000000e+03,-6.799962404612250877e-01,0.000000000000000000e+00
1.109000000000000000e+03,-3.541013837217668603e-01,0.000000000000000000e+00
1.110000000000000000e+03,-4.861089568244786885e-01,0.000000000000000000e+00
1.111000000000000000e+03,5.924044110679191344e-02,0.000000000000000000e+00
1.112000000000000000e+03,-4.140832311531396082e-01,0.000000000000000000e+00
1.113000000000000000e+03,-3.440189512693523910e-01,0.000000000000000000e+00
1.114000000000000000e+03,1.512709123217721441e-01,0.000000000000000000e+00
1.115000000000000000e+03,5.983311389319037055e-01,0.000000000000000000e+00
1.116000000000000000e+03,1.151119158310845575e-01,0.000000000000000000e+00
1.117000000000000000e+03,1.465901176608591927e-01,0.000000000000000000e+00
1.118000000000000000e+03,-1.370304104077309064e-02,0.000000000000000000e+00
1.119000000000000000e+03,1.461916716842486808e-01,0.000000000000000000e+00
1.120000000000000000e+03,1.758356342174451636e-01,0.000000000000000000e+00
1.121000000000000000e+03,4.817698770358767035e-01,0.000000000000000000e+00
1.122000000000000000e+03,2.265405460400102544e-01,0.000000000000000000e+00
1.123000000000000000e+03,2.414931262302357773e-01,0.000000000000000000e+00
1.124000000000000000e+03,5.007625470420061786e-01,0.000000000000000000e+00
1.125000000000000000e+03,3.682871208543505581e-01,0.000000000000000000e+00
1.126000000000000000e+03,1.525815368027626517e-01,0.000000000000000000e+00
1.127000000000000000e+03,1.252037127419999285e-01,0.000000000000000000e+00
1.128000000000000000e+03,4.895320452935243982e-01,0.000000000000000000e+00
1.129000000000000000e+03,5.299161590699190683e-01,0.000000000000000000e+00
1.130000000000000000e+03,5.797657173008646803e-01,0.000000000000000000e+00
1.131000000000000000e+03,7.185089209727676396e-01,0.000000000000000000e+00
1.132000000000000000e+03,1.009464276293018159e+00,0.000000000000000000e+00
1.133000000000000000e+03,4.588235916885947674e-01,0.000000000000000000e+00
1.134000000000000000e+03,3.176930807930743450e-01,0.000000000000000000e+00
1.135000000000000000e+03,1.219753341231853278e-01,0.000000000000000000e+00
1.136000000000000000e+03,-5.862287618518441379e-02,0.000000000000000000e+00
1.137000000000000000e+03,-8.610317303494358088e-02,0.000000000000000000e+00
1.138000000000000000e+03,2.603888106222013166e-01,0.000000000000000000e+00
1.139000000000000000e+03,5.165338658517473203e-01,0.000000000000000000e+00
1.140000000000000000e+03,4.856750278636592366e-01,0.000000000000000000e+00
1.141000000000000000e+03,7.507875867660123159e-01,0.000000000000000000e+00
1.142000000000000000e+03,3.095830995265131391e-01,0.000000000000000000e+00
1.143000000000000000e+03,4.119105053691492491e-01,0.000000000000000000e+00
1.144000000000000000e+03,6.367674359056247901e-01,0.000000000000000000e+00
1.145000000000000000e+03,6.191608844581685256e-01,0.000000000000000000e+00
1.146000000000000000e+03,6.328063973754972649e-01,0.000000000000000000e+00
1.147000000000000000e+03,1.447634859507855309e-01,0.000000000000000000e+00
1.148000000000000000e+03,5.284408759408735362e-02,0.000000000000000000e+00
1.149000000000000000e+03,4.239129101067528604e-01,0.000000000000000000e+00
1.150000000000000000e+03,4.950900111365490464e-01,0.000000000000000000e+00
1.151000000000000000e+03,1.308296742619711461e-01,0.000000000000000000e+00
1.152000000000000000e+03,-5.590047640982091087e-02,0.000000000000000000e+00
1.153000000000000000e+03,-3.311153994481176588e-02,0.000000000000000000e+00
1.154000000000000000e+03,7.209491507924513593e-04,0.000000000000000000e+00
1.155000000000000000e+03,2.654225521850504532e-01,0.000000000000000000e+00
1.156000000000000000e+03,3.924953464065503161e-01,0.000000000000000000e+00
1.157000000000000000e+03,6.837853025194459144e-01,0.000000000000000000e+00
1.158000000000000000e+03,3.307237053644293545e-01,0.000000000000000000e+00
1.159000000000000000e+03,-3.082168057216951862e-01,0.000000000000000000e+00
1.160000000000000000e+03,2.502730083305857445e-01,0.000000000000000000e+00
1.161000000000000000e+03,-3.220968446742270563e-01,0.000000000000000000e+00
1.162000000000000000e+03,1.779808526153540793e+00,0.000000000000000000e+00
1.163000000000000000e+03,1.640719026956187987e+00,0.000000000000000000e+00
1.164000000000000000e+03,-2.058805754559350554e+00,0.000000000000000000e+00
1.165000000000000000e+03,2.054226526419085985e+00,0.000000000000000000e+00
1.166000000000000000e+03,1.013241329853655337e+00,0.000000000000000000e+00
1.167000000000000000e+03,-1.818143009020639411e+00,1.000000000000000000e+00
1.168000000000000000e+03,-1.549062969355355479e+00,0.000000000000000000e+00
1.169000000000000000e+03,-5.786471049848417314e-01,0.000000000000000000e+00
1.170000000000000000e+03,-5.782112408124524539e-01,0.000000000000000000e+00
1.171000000000000000e+03,-5.372880491676393921e-01,0.000000000000000000e+00
1.172000000000000000e+03,-7.477993564381415492e-01,0.000000000000000000e+00
1.173000000000000000e+03,-3.959898145207807474e-01,0.000000000000000000e+00
1.174000000000000000e+03,-2.824627321419371229e-01,0.000000000000000000e+00
1.175000000000000000e+03,-1.386941528200117679e-01,0.000000000000000000e+00
1.176000000000000000e+03,-1.748594595811954694e-03,0.000000000000000000e+00
1.177000000000000000e+03,-2.010759417764959936e-02,0.000000000000000000e+00
1.178000000000000000e+03,5.039822256808237921e-02,0.000000000000000000e+00
1.179000000000000000e+03,-1.045839857663247024e-01,0.000000000000000000e+00
1.180000000000000000e+03,-1.466041104762116631e-01,0.000000000000000000e+00
1.181000000000000000e+03,1.007614201273386634e+00,0.000000000000000000e+00
1.182000000000000000e+03,1.247863980032549724e+00,0.000000000000000000e+00
1.183000000000000000e+03,1.796625546652415473e+00,0.000000000000000000e+00
1.184000000000000000e+03,2.142054447906268422e+00,0.000000000000000000e+00
1.185000000000000000e+03,1.776242695684620010e+00,0.000000000000000000e+00
1.186000000000000000e+03,3.183013549562856981e-01,0.000000000000000000e+00
1.187000000000000000e+03,-1.259487865941810503e+00,0.000000000000000000e+00
1.188000000000000000e+03,-1.809677159504509136e+00,0.000000000000000000e+00
1.189000000000000000e+03,-2.386843840441857267e+00,0.000000000000000000e+00
1.190000000000000000e+03,-2.059087465991737087e+00,0.000000000000000000e+00
1.191000000000000000e+03,-1.943169901401707200e+00,0.000000000000000000e+00
1.192000000000000000e+03,-2.063920332237020538e+00,0.000000000000000000e+00
1.193000000000000000e+03,-1.862718693938663295e+00,0.000000000000000000e+00
1.194000000000000000e+03,-1.769429516164567229e+00,0.000000000000000000e+00
1.195000000000000000e+03,-1.718195100793617591e+00,0.000000000000000000e+00
1.196000000000000000e+03,-1.384415817300918450e+00,0.000000000000000000e+00
1.197000000000000000e+03,-1.247197123372892458e+00,0.000000000000000000e+00
1.198000000000000000e+03,-9.270336321066569019e-01,0.000000000000000000e+00
1.199000000000000000e+03,-6.540522430139735777e-01,0.000000000000000000e+00
1.200000000000000000e+03,-5.244582384826188548e-01,0.000000000000000000e+00
1.201000000000000000e+03,-8.840911070250567771e-01,0.000000000000000000e+00
1.202000000000000000e+03,1.823795790020338314e-02,0.000000000000000000e+00
1.203000000000000000e+03,-2.904276774238518932e-01,0.000000000000000000e+00
1.204000000000000000e+03,-5.231169542020375207e-01,0.000000000000000000e+00
1.205000000000000000e+03,-6.677033864796468876e-01,0.000000000000000000e+00
1.206000000000000000e+03,-4.451138237007174481e-01,0.000000000000000000e+00
1.207000000000000000e+03,5.133557754221481639e-01,0.000000000000000000e+00
1.208000000000000000e+03,2.776951620978475033e-01,0.000000000000000000e+00
1.209000000000000000e+03,4.661956507099608848e-01,0.000000000000000000e+00
1.210000000000000000e+03,1.162817638320099850e-01,0.000000000000000000e+00
1.211000000000000000e+03,2.858849532615785893e-01,0.000000000000000000e+00
1.212000000000000000e+03,5.796954197018997501e-01,0.000000000000000000e+00
1.213000000000000000e+03,-3.934394003818627583e-01,0.000000000000000000e+00
1.214000000000000000e+03,1.881488269646112710e-01,0.000000000000000000e+00
1.215000000000000000e+03,8.121390101780185944e-01,0.000000000000000000e+00
1.216000000000000000e+03,4.275788219360984743e-01,0.000000000000000000e+00
1.217000000000000000e+03,1.409284856822349941e+00,0.000000000000000000e+00
1.218000000000000000e+03,7.786007482129567725e-01,0.000000000000000000e+00
1.219000000000000000e+03,1.031694610758057351e+00,0.000000000000000000e+00
1.220000000000000000e+03,1.233214198520434124e+00,0.000000000000000000e+00
1.221000000000000000e+03,9.509316323779960500e-01,0.000000000000000000e+00
1.222000000000000000e+03,6.363900913261218983e-01,0.000000000000000000e+00
1.223000000000000000e+03,1.387039171227434808e+00,0.000000000000000000e+00
1.224000000000000000e+03,1.209859947336936470e+00,0.000000000000000000e+00
1.225000000000000000e+03,1.177937359415109020e+00,0.000000000000000000e+00
1.226000000000000000e+03,1.117178333866991391e+00,0.000000000000000000e+00
1.227000000000000000e+03,5.696059294541889750e-01,0.000000000000000000e+00
1.228000000000000000e+03,2.461513217554680832e-01,0.000000000000000000e+00
1.229000000000000000e+03,8.281845337900268778e-01,0.000000000000000000e+00
1.230000000000000000e+03,4.898892191224222259e-01,0.000000000000000000e+00
1.231000000000000000e+03,9.107152733855975457e-01,0.000000000000000000e+00
1.232000000000000000e+03,5.972107568957790713e-01,0.000000000000000000e+00
1.233000000000000000e+03,1.177804015225583756e+00,0.000000000000000000e+00
1.234000000000000000e+03,8.368486760851753248e-01,0.000000000000000000e+00
1.235000000000000000e+03,6.109005258675450634e-01,0.000000000000000000e+00
1.236000000000000000e+03,5.028188472535893849e-01,0.000000000000000000e+00
1.237000000000000000e+03,1.396549124221584393e-01,0.000000000000000000e+00
1.238000000000000000e+03,1.017656176258376899e-01,0.000000000000000000e+00
1.239000000000000000e+03,5.435195631158912244e-01,0.000000000000000000e+00
1.240000000000000000e+03,4.003738114728641606e-01,0.000000000000000000e+00
1.241000000000000000e+03,6.594958493948215317e-01,0.000000000000000000e+00
1.242000000000000000e+03,7.715009580173118886e-01,0.000000000000000000e+00
1.243000000000000000e+03,6.457080780306305445e-02,0.000000000000000000e+00
1.244000000000000000e+03,-1.204620198972546491e-01,0.000000000000000000e+00
1.245000000000000000e+03,-4.702060944757792127e-01,0.000000000000000000e+00
1.246000000000000000e+03,-2.412108016428445856e-01,0.000000000000000000e+00
1.247000000000000000e+03,3.271060700717983161e-01,0.000000000000000000e+00
1.248000000000000000e+03,-2.781773051321050350e-01,0.000000000000000000e+00
1.249000000000000000e+03,-1.250627849957031135e-01,0.000000000000000000e+00
1.250000000000000000e+03,1.509257977808742268e-01,0.000000000000000000e+00
1.251000000000000000e+03,-9.979673755030761539e-03,0.000000000000000000e+00
1.252000000000000000e+03,-2.833098804543937588e-01,0.000000000000000000e+00
1.253000000000000000e+03,-1.743010127684439248e-01,0.000000000000000000e+00
1.254000000000000000e+03,-3.644243962265849013e-01,0.000000000000000000e+00
1.255000000000000000e+03,1.696487832626995651e+00,0.000000000000000000e+00
1.256000000000000000e+03,3.593062511039931128e-01,0.000000000000000000e+00
1.257000000000000000e+03,-1.282513724688971513e+00,0.000000000000000000e+00
1.258000000000000000e+03,3.183874987198414885e+00,0.000000000000000000e+00
1.259000000000000000e+03,-1.875874434013798664e-01,1.000000000000000000e+00
1.260000000000000000e+03,-1.788212231048269096e+00,0.000000000000000000e+00
1.261000000000000000e+03,-1.514790705009279481e+00,0.000000000000000000e+00
1.262000000000000000e+03,-7.896758126296107294e-01,0.000000000000000000e+00
1.263000000000000000e+03,-7.351749519002741540e-01,0.000000000000000000e+00
1.264000000000000000e+03,-2.004932733654935795e-01,0.000000000000000000e+00
1.265000000000000000e+03,-4.360050810048170522e-01,0.000000000000000000e+00
1.266000000000000000e+03,-8.539854002341523698e-02,0.000000000000000000e+00
1.267000000000000000e+03,-4.038711810664731838e-01,0.000000000000000000e+00
1.268000000000000000e+03,-3.246425992471825284e-01,0.000000000000000000e+00
1.269000000000000000e+03,-6.178911146378608665e-02,0.000000000000000000e+00
1.270000000000000000e+03,2.923081189901179378e-01,0.000000000000000000e+00
1.271000000000000000e+03,-9.893119598759625433e-02,0.000000000000000000e+00
1.272000000000000000e+03,-3.459866066187786832e-02,0.000000000000000000e+00
1.273000000000000000e+03,5.043235018431356798e-01,0.000000000000000000e+00
1.274000000000000000e+03,8.073522635403775904e-01,0.000000000000000000e+00
1.275000000000000000e+03,1.213114812910033979e+00,0.000000000000000000e+00
1.276000000000000000e+03,2.042522759375792418e+00,0.000000000000000000e+00
1.277000000000000000e+03,1.750375975702315845e+00,0.000000000000000000e+00
1.278000000000000000e+03,7.332650334477222032e-01,0.000000000000000000e+00
1.279000000000000000e+03,-1.602499591779681376e-01,0.000000000000000000e+00
1.280000000000000000e+03,-1.457969611136844534e+00,0.000000000000000000e+00
1.281000000000000000e+03,-1.806114838727750138e+00,0.000000000000000000e+00
1.282000000000000000e+03,-2.251061625712621694e+00,0.000000000000000000e+00
1.283000000000000000e+03,-2.705698525479935945e+00,0.000000000000000000e+00
1.284000000000000000e+03,-2.668520419409409872e+00,0.000000000000000000e+00
1.285000000000000000e+03,-2.461454023361482335e+00,0.000000000000000000e+00
1.286000000000000000e+03,-1.919309388527874249e+00,0.000000000000000000e+00
1.287000000000000000e+03,-1.606895492249981405e+00,0.000000000000000000e+00
1.288000000000000000e+03,-1.411399128358432398e+00,0.000000000000000000e+00
1.289000000000000000e+03,-1.048316779843905033e+00,0.000000000000000000e+00
1.290000000000000000e+03,-1.318117288235495232e+00,0.000000000000000000e+00
1.291000000000000000e+03,-1.414736138156784229e+00,0.000000000000000000e+00
1.292000000000000000e+03,-1.263384530935774963e+00,0.000000000000000000e+00
1.293000000000000000e+03,-9.512739384812645138e-01,0.000000000000000000e+00
1.294000000000000000e+03,-7.109447451486926584e-01,0.000000000000000000e+00
1.295000000000000000e+03,-1.301438895670958551e-01,0.000000000000000000e+00
1.296000000000000000e+03,1.850084798650006579e-01,0.000000000000000000e+00
1.297000000000000000e+03,-1.927683920441692345e-01,0.000000000000000000e+00
1.298000000000000000e+03,1.236529771900319180e-01,0.000000000000000000e+00
1.299000000000000000e+03,-5.798219875994370387e-01,0.000000000000000000e+00
1.300000000000000000e+03,-1.353356546806605831e-01,0.000000000000000000e+00
1.301000000000000000e+03,-4.435494653107076024e-01,0.000000000000000000e+00
1.302000000000000000e+03,-1.248580495097830617e-02,0.000000000000000000e+00
1.303000000000000000e+03,5.405160832762473389e-01,0.000000000000000000e+00
1.304000000000000000e+03,5.852152623698135825e-01,0.000000000000000000e+00
1.305000000000000000e+03,7.940885967169528104e-02,0.000000000000000000e+00
1.306000000000000000e+03,4.650076155486855267e-01,0.000000000000000000e+00
1.307000000000000000e+03,3.595447340293061456e-01,0.000000000000000000e+00
1.308000000000000000e+03,2.424055051352859980e-01,0.000000000000000000e+00
1.309000000000000000e+03,-2.811533000048741307e-02,0.000000000000000000e+00
1.310000000000000000e+03,4.513640970710281475e-01,0.000000000000000000e+00
1.311000000000000000e+03,7.742795907245088038e-01,0.000000000000000000e+00
1.312000000000000000e+03,8.020158240816228634e-01,0.000000000000000000e+00
1.313000000000000000e+03,7.715697427717573831e-01,0.000000000000000000e+00
1.314000000000000000e+03,7.197383722611911949e-01,0.000000000000000000e+00
1.315000000000000000e+03,2.600100082158353088e-01,0.000000000000000000e+00
1.316000000000000000e+03,9.145363775663024608e-01,0.000000000000000000e+00
1.317000000000000000e+03,4.417118799322168887e-01,0.000000000000000000e+00
1.318000000000000000e+03,8.133530472372262343e-01,0.000000000000000000e+00
1.319000000000000000e+03,6.786341584697852536e-01,0.000000000000000000e+00
1.320000000000000000e+03,1.056226731902647265e+00,0.000000000000000000e+00
1.321000000000000000e+03,5.607684632318170603e-01,0.000000000000000000e+00
1.322000000000000000e+03,9.052686465409897076e-01,0.000000000000000000e+00
1.323000000000000000e+03,6.797733846027428362e-01,0.000000000000000000e+00
1.324000000000000000e+03,3.603436604966723245e-01,0.000000000000000000e+00
1.325000000000000000e+03,2.358584851859520382e-01,0.000000000000000000e+00
1.326000000000000000e+03,6.551060126061362121e-01,0.000000000000000000e+00
1.327000000000000000e+03,1.867471677693852694e-01,0.000000000000000000e+00
1.328000000000000000e+03,2.249237192392704032e-01,0.000000000000000000e+00
1.329000000000000000e+03,-2.406136784042661389e-02,0.000000000000000000e+00
1.330000000000000000e+03,6.913481455638603723e-01,0.000000000000000000e+00
1.331000000000000000e+03,4.188509451769550918e-01,0.000000000000000000e+00
1.332000000000000000e+03,7.527036953498857930e-01,0.000000000000000000e+00
1.333000000000000000e+03,7.047166396124318055e-01,0.000000000000000000e+00
1.334000000000000000e+03,6.920891831895846780e-01,0.000000000000000000e+00
1.335000000000000000e+03,-1.557881718476553379e-01,0.000000000000000000e+00
1.336000000000000000e+03,2.412729778802427116e+00,0.000000000000000000e+00
1.337000000000000000e+03,1.796550421616984750e+00,1.000000000000000000e+00
1.338000000000000000e+03,4.931369403221068093e-01,0.000000000000000000e+00
1.339000000000000000e+03,2.223784925965559545e+00,0.000000000000000000e+00
1.340000000000000000e+03,-5.732712842762437422e-01,0.000000000000000000e+00
1.341000000000000000e+03,-5.460218151341946768e-01,0.000000000000000000e+00
1.342000000000000000e+03,-3.075108972454160261e-01,0.000000000000000000e+00
1.343000000000000000e+03,-1.565456549668108321e-01,0.000000000000000000e+00
1.344000000000000000e+03,-6.421432585332995657e-01,0.000000000000000000e+00
1.345000000000000000e+03,-2.748766593660157409e-01,0.000000000000000000e+00
1.346000000000000000e+03,-5.360092716207788266e-01,0.000000000000000000e+00
1.347000000000000000e+03,5.701785367744390820e-01,0.000000000000000000e+00
1.348000000000000000e+03,-2.373096450577078798e-01,0.000000000000000000e+00
1.349000000000000000e+03,2.900488699822172944e-01,0.000000000000000000e+00
1.350000000000000000e+03,1.008338906696214926e-01,0.000000000000000000e+00
1.351000000000000000e+03,6.840210866645991539e-01,0.000000000000000000e+00
1.352000000000000000e+03,2.678952242049445487e-01,0.000000000000000000e+00
1.353000000000000000e+03,3.222256155063778493e-01,0.000000000000000000e+00
1.354000000000000000e+03,6.714033905547698300e-01,0.000000000000000000e+00
1.355000000000000000e+03,6.437291873043342605e-01,0.000000000000000000e+00
1.356000000000000000e+03,1.692180184427938494e+00,0.000000000000000000e+00
1.357000000000000000e+03,1.808121415244415386e+00,0.000000000000000000e+00
1.358000000000000000e+03,1.580392210565640054e+00,0.000000000000000000e+00
1.359000000000000000e+03,8.409033228682201155e-01,0.000000000000000000e+00
1.360000000000000000e+03,-1.025147993160956394e+00,0.000000000000000000e+00
1.361000000000000000e+03,-1.169617539637173742e+00,0.000000000000000000e+00
1.362000000000000000e+03,-2.284187689327500603e+00,0.000000000000000000e+00
1.363000000000000000e+03,-2.203778506590412078e+00,0.000000000000000000e+00
1.364000000000000000e+03,-1.866136365966267308e+00,0.000000000000000000e+00
1.365000000000000000e+03,-2.013958508907971456e+00,0.000000000000000000e+00
1.366000000000000000e+03,-1.547637904051105018e+00,0.000000000000000000e+00
1.367000000000000000e+03,-1.445617626473646222e+00,0.000000000000000000e+00
1.368000000000000000e+03,-1.360897636534897703e+00,0.000000000000000000e+00
1.369000000000000000e+03,-1.288996782180697576e+00,0.000000000000000000e+00
1.370000000000000000e+03,-1.232994004201205085e+00,0.000000000000000000e+00
1.371000000000000000e+03,-1.116407094248650589e+00,0.000000000000000000e+00
1.372000000000000000e+03,-8.931214014556444480e-01,0.000000000000000000e+00
1.373000000000000000e+03,-1.059415989165012784e+00,0.000000000000000000e+00
1.374000000000000000e+03,-9.246023078972851472e-01,0.000000000000000000e+00
1.375000000000000000e+03,-1.016319453363192293e+00,0.000000000000000000e+00
1.376000000000000000e+03,-1.073360419331353288e+00,0.000000000000000000e+00
1.377000000000000000e+03,-7.019001383166503238e-01,0.000000000000000000e+00
1.378000000000000000e+03,-1.074173049180572770e+00,0.000000000000000000e+00
1.379000000000000000e+03,-1.017633277417569149e+00,0.000000000000000000e+00
1.380000000000000000e+03,-7.367184645092896833e-01,0.000000000000000000e+00
1.381000000000000000e+03,-3.653218463128181659e-01,0.000000000000000000e+00
1.382000000000000000e+03,-5.286659490708749132e-02,0.000000000000000000e+00
1.383000000000000000e+03,2.753655573493125619e-01,0.000000000000000000e+00
1.384000000000000000e+03,-3.062759550496730876e-01,0.000000000000000000e+00
1.385000000000000000e+03,3.299951917302584858e-01,0.000000000000000000e+00
1.386000000000000000e+03,-1.529418934894348492e-01,0.000000000000000000e+00
1.387000000000000000e+03,3.334404297578270060e-01,0.000000000000000000e+00
1.388000000000000000e+03,-1.840013630870402095e-01,0.000000000000000000e+00
1.389000000000000000e+03,3.533962034718999945e+00,0.000000000000000000e+00
1.390000000000000000e+03,-3.861297230842472006e-01,1.000000000000000000e+00
1.391000000000000000e+03,7.125792724166558900e-02,0.000000000000000000e+00
1.392000000000000000e+03,1.796840231546377842e+00,0.000000000000000000e+00
1.393000000000000000e+03,4.126248578823042412e-01,0.000000000000000000e+00
1.394000000000000000e+03,5.373695240196910694e-01,0.000000000000000000e+00
1.395000000000000000e+03,-2.003476753472956395e-01,0.000000000000000000e+00
1.396000000000000000e+03,-1.344859246036230749e-01,0.000000000000000000e+00
1.397000000000000000e+03,-1.382652095089129118e-01,0.000000000000000000e+00
1.398000000000000000e+03,2.170188408294222437e-01,0.000000000000000000e+00
1.399000000000000000e+03,-4.995507553535603190e-02,0.000000000000000000e+00
1.400000000000000000e+03,4.854735316244768173e-01,0.000000000000000000e+00
1.401000000000000000e+03,4.765379362840693744e-01,0.000000000000000000e+00
1.402000000000000000e+03,6.898389825925870245e-01,0.000000000000000000e+00
1.403000000000000000e+03,5.992443807320468885e-01,0.000000000000000000e+00
1.404000000000000000e+03,7.923823756812994334e-01,0.000000000000000000e+00
1.405000000000000000e+03,9.434665924266757431e-01,0.000000000000000000e+00
1.406000000000000000e+03,1.321065775702279010e+00,0.000000000000000000e+00
1.407000000000000000e+03,1.932337927588645865e+00,0.000000000000000000e+00
1.408000000000000000e+03,1.793779407932856174e+00,0.000000000000000000e+00
1.409000000000000000e+03,2.350124711567946889e+00,0.000000000000000000e+00
1.410000000000000000e+03,2.578211549938112412e+00,0.000000000000000000e+00
1.411000000000000000e+03,1.019279517591622719e+00,0.000000000000000000e+00
1.412000000000000000e+03,1.136144205227345855e-01,0.000000000000000000e+00
1.413000000000000000e+03,-7.953745533647004207e-01,0.000000000000000000e+00
1.414000000000000000e+03,-1.175781354569477077e+00,0.000000000000000000e+00
1.415000000000000000e+03,-1.349805179677059819e+00,0.000000000000000000e+00
1.416000000000000000e+03,-1.086849218179929188e+00,0.000000000000000000e+00
1.417000000000000000e+03,-1.110185880875713238e+00,0.000000000000000000e+00
1.418000000000000000e+03,-7.489305122343005161e-01,0.000000000000000000e+00
1.419000000000000000e+03,-8.186358016198987952e-01,0.000000000000000000e+00
1.420000000000000000e+03,-9.267788111826977815e-01,0.000000000000000000e+00
1.421000000000000000e+03,-5.962362160876296668e-01,0.000000000000000000e+00
1.422000000000000000e+03,-7.987500109987760721e-01,0.000000000000000000e+00
1.423000000000000000e+03,-4.328907308273721166e-01,0.000000000000000000e+00
1.424000000000000000e+03,-1.812132390077204336e-01,0.000000000000000000e+00
1.425000000000000000e+03,-2.597947298700163943e-01,0.000000000000000000e+00
1.426000000000000000e+03,-1.636276968439595580e-01,0.000000000000000000e+00
1.427000000000000000e+03,-1.262960958613186524e-01,0.000000000000000000e+00
1.428000000000000000e+03,1.434609347529833268e-01,0.000000000000000000e+00
1.429000000000000000e+03,6.984376050046560425e-02,0.000000000000000000e+00
1.430000000000000000e+03,-1.157404165150467817e-01,0.000000000000000000e+00
1.431000000000000000e+03,-3.316235149787325476e-01,0.000000000000000000e+00
1.432000000000000000e+03,5.178283514271457832e-01,0.000000000000000000e+00
1.433000000000000000e+03,-2.285188196891771162e-01,0.000000000000000000e+00
1.434000000000000000e+03,-9.065036988219958569e-02,0.000000000000000000e+00
1.435000000000000000e+03,-6.636290613830916341e-01,0.000000000000000000e+00
1.436000000000000000e+03,-3.981100541730494546e-01,0.000000000000000000e+00
1.437000000000000000e+03,4.749097879964995772e-01,0.000000000000000000e+00
1.438000000000000000e+03,-3.119066658187724661e-01,0.000000000000000000e+00
1.439000000000000000e+03,9.216543460555839951e-02,0.000000000000000000e+00
1.440000000000000000e+03,-1.821208623611873245e-01,0.000000000000000000e+00
1.441000000000000000e+03,-2.346884551653776740e-01,0.000000000000000000e+00
1.442000000000000000e+03,3.938887074725705428e-01,0.000000000000000000e+00
1.443000000000000000e+03,-4.688272723032384515e-01,0.000000000000000000e+00
1.444000000000000000e+03,2.788859907918140868e-01,0.000000000000000000e+00
1.445000000000000000e+03,7.845846312146417256e-01,0.000000000000000000e+00
1.446000000000000000e+03,3.592193235567289200e-01,0.000000000000000000e+00
1.447000000000000000e+03,4.554887243659495599e-01,0.000000000000000000e+00
1.448000000000000000e+03,7.690779817985509137e-01,0.000000000000000000e+00
1.449000000000000000e+03,3.321724165930474704e-01,0.000000000000000000e+00
1.450000000000000000e+03,8.381657810709625123e-01,0.000000000000000000e+00
1.451000000000000000e+03,6.130751364729255526e-01,0.000000000000000000e+00
1.452000000000000000e+03,3.407171574732745234e-01,0.000000000000000000e+00
1.453000000000000000e+03,1.660658427001295845e-01,0.000000000000000000e+00
1.454000000000000000e+03,4.351535749951761511e-01,0.000000000000000000e+00
1.455000000000000000e+03,4.950689511469575921e-01,0.000000000000000000e+00
1.456000000000000000e+03,-5.628937869783683101e-02,0.000000000000000000e+00
1.457000000000000000e+03,-8.130140629887457060e-02,0.000000000000000000e+00
1.458000000000000000e+03,-8.572965271321750236e-02,0.000000000000000000e+00
1.459000000000000000e+03,2.052940042207446192e-01,0.000000000000000000e+00
1.460000000000000000e+03,4.621013439454538241e-02,0.000000000000000000e+00
1.461000000000000000e+03,3.547512153763127674e-01,0.000000000000000000e+00
1.462000000000000000e+03,3.930378109303136469e-01,0.000000000000000000e+00
1.463000000000000000e+03,3.275682321159737453e-01,0.000000000000000000e+00
1.464000000000000000e+03,6.171068145681083417e-01,0.000000000000000000e+00
1.465000000000000000e+03,-3.121913621942336015e-01,0.000000000000000000e+00
1.466000000000000000e+03,-8.814627205318547112e-03,0.000000000000000000e+00
1.467000000000000000e+03,-2.265305783621706925e-01,0.000000000000000000e+00
1.468000000000000000e+03,-7.585039087285945503e-02,0.000000000000000000e+00
1.469000000000000000e+03,1.965535893618982621e-01,0.000000000000000000e+00
1.470000000000000000e+03,-2.958104939935869704e-02,0.000000000000000000e+00
1.471000000000000000e+03,7.651869068308216060e-02,0.000000000000000000e+00
1.472000000000000000e+03,2.503198582127141303e-01,0.000000000000000000e+00
1.473000000000000000e+03,-4.249254319683350434e-01,0.000000000000000000e+00
1.474000000000000000e+03,-1.348184621749703993e-01,0.000000000000000000e+00
1.475000000000000000e+03,-5.135755003781736772e-01,0.000000000000000000e+00
1.476000000000000000e+03,-3.390939623568747785e-01,0.000000000000000000e+00
1.477000000000000000e+03,-3.621945602462411928e-01,0.000000000000000000e+00
1.478000000000000000e+03,-4.291439399377799391e-01,0.000000000000000000e+00
1.479000000000000000e+03,4.119572047889676347e-01,0.000000000000000000e+00
1.480000000000000000e+03,2.468656039566918370e+00,0.000000000000000000e+00
1.481000000000000000e+03,-2.167968531326354142e+00,0.000000000000000000e+00
1.482000000000000000e+03,-4.107183850429336203e-01,1.000000000000000000e+00
1.483000000000000000e+03,1.146108739413910671e+00,0.000000000000000000e+00
1.484000000000000000e+03,-2.329370455973276854e+00,0.000000000000000000e+00
1.485000000000000000e+03,-1.533650245095903530e+00,0.000000000000000000e+00
1.486000000000000000e+03,-7.112073242615007951e-01,0.000000000000000000e+00
1.487000000000000000e+03,2.236289133165399456e-01,0.000000000000000000e+00
1.488000000000000000e+03,-3.258315347870561762e-01,0.000000000000000000e+00
1.489000000000000000e+03,-1.522842843953330361e-01,0.000000000000000000e+00
1.490000000000000000e+03,-3.954767261975345449e-01,0.000000000000000000e+00
1.491000000000000000e+03,-4.482344363941159204e-01,0.000000000000000000e+00
1.492000000000000000e+03,-5.634561926410036614e-01,0.000000000000000000e+00
1.493000000000000000e+03,-2.321565550791328536e-01,0.000000000000000000e+00
1.494000000000000000e+03,-1.229985312295234570e-02,0.000000000000000000e+00
1.495000000000000000e+03,1.037051397777138118e-01,0.000000000000000000e+00
1.496000000000000000e+03,1.294174312566270357e+00,0.000000000000000000e+00
1.497000000000000000e+03,8.852068513384354631e-01,0.000000000000000000e+00
1.498000000000000000e+03,1.182244925362013532e+00,0.000000000000000000e+00
1.499000000000000000e+03,1.052210114617373016e+00,0.000000000000000000e+00
1.500000000000000000e+03,1.451136168228980505e+00,0.000000000000000000e+00
1.501000000000000000e+03,2.088840461963327400e+00,0.000000000000000000e+00
1.502000000000000000e+03,1.844746821021263194e+00,0.000000000000000000e+00
1.503000000000000000e+03,7.722894223582381645e-01,0.000000000000000000e+00
1.504000000000000000e+03,-4.379320240252045915e-01,0.000000000000000000e+00
1.505000000000000000e+03,-1.161398993896771703e+00,0.000000000000000000e+00
1.506000000000000000e+03,-1.859373257806497204e+00,0.000000000000000000e+00
1.507000000000000000e+03,-1.953985579919144788e+00,0.000000000000000000e+00
1.508000000000000000e+03,-1.872773120327714036e+00,0.000000000000000000e+00
1.509000000000000000e+03,-1.520785146340436489e+00,0.000000000000000000e+00
1.510000000000000000e+03,-1.197135722084138543e+00,0.000000000000000000e+00
1.511000000000000000e+03,-1.128504675098164656e+00,0.000000000000000000e+00
1.512000000000000000e+03,-8.562410417276942187e-01,0.000000000000000000e+00
1.513000000000000000e+03,-5.935848951139599539e-01,0.000000000000000000e+00
1.514000000000000000e+03,-4.609650639621223900e-01,0.000000000000000000e+00
1.515000000000000000e+03,-8.498839180296728912e-01,0.000000000000000000e+00
1.516000000000000000e+03,-1.051423848640081982e+00,0.000000000000000000e+00
1.517000000000000000e+03,-1.023827728891600897e+00,0.000000000000000000e+00
1.518000000000000000e+03,-6.842888097397042957e-01,0.000000000000000000e+00
1.519000000000000000e+03,-7.099485653000167096e-01,0.000000000000000000e+00
1.520000000000000000e+03,-2.475086756591813320e-01,0.000000000000000000e+00
1.521000000000000000e+03,-6.325329329912536824e-01,0.000000000000000000e+00
1.522000000000000000e+03,-1.375281880984034755e-01,0.000000000000000000e+00
1.523000000000000000e+03,-6.467859195717493570e-01,0.000000000000000000e+00
1.524000000000000000e+03,3.596895412289616983e-02,0.000000000000000000e+00
1.525000000000000000e+03,7.798397588676188319e-02,0.000000000000000000e+00
1.526000000000000000e+03,-1.195793707566381175e-01,0.000000000000000000e+00
1.527000000000000000e+03,4.562639960772414405e-01,0.000000000000000000e+00
1.528000000000000000e+03,2.552328818199758875e-01,0.000000000000000000e+00
1.529000000000000000e+03,2.911924401380603170e-02,0.000000000000000000e+00
1.530000000000000000e+03,2.729135523139577524e-01,0.000000000000000000e+00
1.531000000000000000e+03,1.407743607790241935e-01,0.000000000000000000e+00
1.532000000000000000e+03,1.398432569029856298e-01,0.000000000000000000e+00
1.533000000000000000e+03,-1.097848101866189946e-01,0.000000000000000000e+00
1.534000000000000000e+03,2.396060228466729281e-01,0.000000000000000000e+00
1.535000000000000000e+03,8.053982112433861751e-01,0.000000000000000000e+00
1.536000000000000000e+03,5.606519111491423679e-01,0.000000000000000000e+00
1.537000000000000000e+03,5.405648060992002124e-01,0.000000000000000000e+00
1.538000000000000000e+03,4.351903055205991189e-01,0.000000000000000000e+00
1.539000000000000000e+03,2.900968499924084232e-01,0.000000000000000000e+00
1.540000000000000000e+03,5.010880511861279807e-01,0.000000000000000000e+00
1.541000000000000000e+03,7.570439070439366480e-01,0.000000000000000000e+00
1.542000000000000000e+03,3.475424348887845571e-01,0.000000000000000000e+00
1.543000000000000000e+03,7.982125850662443733e-01,0.000000000000000000e+00
1.544000000000000000e+03,1.008239378406032838e+00,0.000000000000000000e+00
1.545000000000000000e+03,8.443136119083297642e-01,0.000000000000000000e+00
1.546000000000000000e+03,1.033532703757461979e+00,0.000000000000000000e+00
1.547000000000000000e+03,2.488141449166930419e-01,0.000000000000000000e+00
1.548000000000000000e+03,6.513414167007376410e-01,0.000000000000000000e+00
1.549000000000000000e+03,6.394403288217321846e-01,0.000000000000000000e+00
1.550000000000000000e+03,7.533996246611059933e-01,0.000000000000000000e+00
1.551000000000000000e+03,5.048468769594816052e-01,0.000000000000000000e+00
1.552000000000000000e+03,1.305303259525760096e+00,0.000000000000000000e+00
1.553000000000000000e+03,1.053848656960439056e+00,0.000000000000000000e+00
1.554000000000000000e+03,7.431261458749979232e-01,0.000000000000000000e+00
1.555000000000000000e+03,2.136847529002087465e-01,0.000000000000000000e+00
1.556000000000000000e+03,2.958709852854112254e-01,0.000000000000000000e+00
1.557000000000000000e+03,-1.063030847698445275e-01,0.000000000000000000e+00
1.558000000000000000e+03,2.728360501417377917e-02,0.000000000000000000e+00
1.559000000000000000e+03,2.034719308584601039e-01,0.000000000000000000e+00
1.560000000000000000e+03,6.916031757290316273e-01,0.000000000000000000e+00
1.561000000000000000e+03,6.147389536520937448e-01,0.000000000000000000e+00
1.562000000000000000e+03,6.033093784178913399e-01,0.000000000000000000e+00
1.563000000000000000e+03,5.677229986520991867e-01,0.000000000000000000e+00
1.564000000000000000e+03,5.331477269635112592e-02,0.000000000000000000e+00
1.565000000000000000e+03,-5.568441490002028899e-02,0.000000000000000000e+00
1.566000000000000000e+03,-1.741208824735751212e-02,0.000000000000000000e+00
1.567000000000000000e+03,-6.923873415250999530e-01,0.000000000000000000e+00
1.568000000000000000e+03,2.804582026480887169e+00,0.000000000000000000e+00
1.569000000000000000e+03,2.144323550867556438e+00,0.000000000000000000e+00
1.570000000000000000e+03,1.995285161070202262e+00,0.000000000000000000e+00
1.571000000000000000e+03,2.671514982528151450e+00,0.000000000000000000e+00
1.572000000000000000e+03,-1.641445538397004578e+00,1.000000000000000000e+00
1.573000000000000000e+03,-1.605099007266581612e+00,0.000000000000000000e+00
1.574000000000000000e+03,-1.704236778645122463e+00,0.000000000000000000e+00
1.575000000000000000e+03,-1.356984747165598471e+00,0.000000000000000000e+00
1.576000000000000000e+03,-1.632209460667451317e+00,0.000000000000000000e+00
1.577000000000000000e+03,-6.453179288355384013e-01,0.000000000000000000e+00
1.578000000000000000e+03,-1.300703911352159681e+00,0.000000000000000000e+00
1.579000000000000000e+03,-5.871140923460737016e-01,0.000000000000000000e+00
1.580000000000000000e+03,-9.920178848892126089e-01,0.000000000000000000e+00
1.581000000000000000e+03,-5.907480372891027454e-01,0.000000000000000000e+00
1.582000000000000000e+03,-9.674039053064593663e-01,0.000000000000000000e+00
1.583000000000000000e+03,-5.884261679011627555e-01,0.000000000000000000e+00
1.584000000000000000e+03,-8.691758937480625891e-01,0.000000000000000000e+00
1.585000000000000000e+03,-4.857416112451722057e-02,0.000000000000000000e+00
1.586000000000000000e+03,6.646905645552130260e-01,0.000000000000000000e+00
1.587000000000000000e+03,1.277728264634386157e+00,0.000000000000000000e+00
1.588000000000000000e+03,1.449101736453175748e+00,0.000000000000000000e+00
