timestamp,ecg_measurement,qrs_detected
0.000000000000000000e+00,-1.067826886266075581e+00,0.000000000000000000e+00
1.000000000000000000e+00,-1.236182466301559701e+00,0.000000000000000000e+00
2.000000000000000000e+00,-9.252424765953504160e-01,0.000000000000000000e+00
3.000000000000000000e+00,-8.923696273170734772e-01,0.000000000000000000e+00
4.000000000000000000e+00,-1.736346149646999237e-01,0.000000000000000000e+00
5.000000000000000000e+00,-2.540099780410234320e-01,0.000000000000000000e+00
6.000000000000000000e+00,3.025015937925223386e-01,0.000000000000000000e+00
7.000000000000000000e+00,4.978614570385886950e-01,0.000000000000000000e+00
8.000000000000000000e+00,1.154223659378343259e+00,0.000000000000000000e+00
9.000000000000000000e+00,1.221786833930651683e+00,0.000000000000000000e+00
1.000000000000000000e+01,1.802538685640873828e+00,0.000000000000000000e+00
1.100000000000000000e+01,2.315043024635954794e+00,0.000000000000000000e+00
1.200000000000000000e+01,2.521456764059806233e+00,0.000000000000000000e+00
1.300000000000000000e+01,2.489811046985130893e+00,0.000000000000000000e+00
1.400000000000000000e+01,2.308898495296017650e+00,0.000000000000000000e+00
1.500000000000000000e+01,1.478801969259942339e+00,0.000000000000000000e+00
1.600000000000000000e+01,9.387182324089549113e-01,1.000000000000000000e+00
1.700000000000000000e+01,8.333597992464011339e-01,0.000000000000000000e+00
1.800000000000000000e+01,6.525113298565187181e-01,0.000000000000000000e+00
1.900000000000000000e+01,4.841499173886763541e-01,0.000000000000000000e+00
2.000000000000000000e+01,7.102596526264720600e-01,0.000000000000000000e+00
2.100000000000000000e+01,4.836201563592392727e-01,0.000000000000000000e+00
2.200000000000000000e+01,9.284715207877994869e-01,0.000000000000000000e+00
2.300000000000000000e+01,5.667601025773761902e-01,0.000000000000000000e+00
2.400000000000000000e+01,9.882751216527517757e-01,0.000000000000000000e+00
2.500000000000000000e+01,5.909385645049165525e-01,0.000000000000000000e+00
2.600000000000000000e+01,7.342587307008950903e-01,0.000000000000000000e+00
2.700000000000000000e+01,3.166444440073394873e-01,0.000000000000000000e+00
2.800000000000000000e+01,4.489340381441691563e-01,0.000000000000000000e+00
2.900000000000000000e+01,2.777925319551574068e-01,0.000000000000000000e+00
3.000000000000000000e+01,3.981720347552357153e-01,0.000000000000000000e+00
3.100000000000000000e+01,2.606375249411082562e-01,0.000000000000000000e+00
3.200000000000000000e+01,2.014446450073467676e-01,0.000000000000000000e+00
3.300000000000000000e+01,3.069014742475959512e-01,0.000000000000000000e+00
3.400000000000000000e+01,2.232308212069706310e-01,0.000000000000000000e+00
3.500000000000000000e+01,1.104154627106107706e-01,0.000000000000000000e+00
3.600000000000000000e+01,4.616083457885804958e-02,0.000000000000000000e+00
3.700000000000000000e+01,-1.398741969009651386e-02,0.000000000000000000e+00
3.800000000000000000e+01,-1.517733513442262594e-01,0.000000000000000000e+00
3.900000000000000000e+01,-2.360957261727547329e-01,0.000000000000000000e+00
4.000000000000000000e+01,-2.412630392853358507e-01,0.000000000000000000e+00
4.100000000000000000e+01,-4.204772458571052196e-01,0.000000000000000000e+00
4.200000000000000000e+01,-3.777148935092740079e-01,0.000000000000000000e+00
4.300000000000000000e+01,-5.113975988102176240e-01,0.000000000000000000e+00
4.400000000000000000e+01,-2.793848145768391134e-01,0.000000000000000000e+00
4.500000000000000000e+01,-4.147377288447539612e-01,0.000000000000000000e+00
4.600000000000000000e+01,-1.917913837607744809e-01,0.000000000000000000e+00
4.700000000000000000e+01,3.982306760212257074e-02,0.000000000000000000e+00
4.800000000000000000e+01,-5.184732276483180469e-01,0.000000000000000000e+00
4.900000000000000000e+01,-9.469939745578359602e-01,0.000000000000000000e+00
5.000000000000000000e+01,-7.138408109498439735e-01,0.000000000000000000e+00
5.100000000000000000e+01,-9.472935738056884603e-01,0.000000000000000000e+00
5.200000000000000000e+01,-5.121265206732862341e-01,0.000000000000000000e+00
5.300000000000000000e+01,-2.401032107240731184e-01,0.000000000000000000e+00
5.400000000000000000e+01,4.384777967483069361e+00,0.000000000000000000e+00
5.500000000000000000e+01,1.889376308108022817e+00,1.000000000000000000e+00
5.600000000000000000e+01,-1.989210189684118335e+00,0.000000000000000000e+00
5.700000000000000000e+01,-1.764919190035231011e+00,0.000000000000000000e+00
5.800000000000000000e+01,-2.275569650828806800e+00,0.000000000000000000e+00
5.900000000000000000e+01,-1.759130959803015148e+00,0.000000000000000000e+00
6.000000000000000000e+01,-1.880960276209650450e+00,0.000000000000000000e+00
6.100000000000000000e+01,-1.481632179167952090e+00,0.000000000000000000e+00
6.200000000000000000e+01,-1.589468316484843990e+00,0.000000000000000000e+00
6.300000000000000000e+01,-1.395297198409101602e+00,0.000000000000000000e+00
6.400000000000000000e+01,-1.161765745541636141e+00,0.000000000000000000e+00
6.500000000000000000e+01,-7.113499432358839636e-01,0.000000000000000000e+00
6.600000000000000000e+01,-5.048760615253693462e-01,0.000000000000000000e+00
6.700000000000000000e+01,-1.457044351106550999e-02,0.000000000000000000e+00
6.800000000000000000e+01,4.535831500767513180e-01,0.000000000000000000e+00
6.900000000000000000e+01,5.146662622905071593e-01,0.000000000000000000e+00
7.000000000000000000e+01,2.851729353293158131e-01,0.000000000000000000e+00
7.100000000000000000e+01,-2.560481890205452971e-02,0.000000000000000000e+00
7.200000000000000000e+01,-4.661693974806636609e-01,0.000000000000000000e+00
7.300000000000000000e+01,-1.175280596306740977e+00,0.000000000000000000e+00
7.400000000000000000e+01,-1.351332038604195374e+00,0.000000000000000000e+00
7.500000000000000000e+01,-1.672550540421385623e+00,0.000000000000000000e+00
7.600000000000000000e+01,-1.293739103899479215e+00,0.000000000000000000e+00
7.700000000000000000e+01,-1.253965912565404572e+00,0.000000000000000000e+00
7.800000000000000000e+01,-1.333043530860503090e+00,0.000000000000000000e+00
7.900000000000000000e+01,-1.058306258863210392e+00,0.000000000000000000e+00
8.000000000000000000e+01,-9.203149787330485720e-01,0.000000000000000000e+00
8.100000000000000000e+01,-7.914344789004897907e-01,0.000000000000000000e+00
8.200000000000000000e+01,-8.944576909695813871e-01,0.000000000000000000e+00
8.300000000000000000e+01,-7.875198099665965401e-01,0.000000000000000000e+00
8.400000000000000000e+01,-8.491342532597015991e-01,0.000000000000000000e+00
8.500000000000000000e+01,-6.230187076971821503e-01,0.000000000000000000e+00
8.600000000000000000e+01,-5.762439369564139602e-01,0.000000000000000000e+00
8.700000000000000000e+01,-7.915637247453114478e-01,0.000000000000000000e+00
8.800000000000000000e+01,-6.425646496805226260e-01,0.000000000000000000e+00
8.900000000000000000e+01,-7.217945212730322302e-01,0.000000000000000000e+00
9.000000000000000000e+01,-6.331173121115530877e-01,0.000000000000000000e+00
9.100000000000000000e+01,-4.629825918023173226e-01,0.000000000000000000e+00
9.200000000000000000e+01,-4.811159526963807997e-01,0.000000000000000000e+00
9.300000000000000000e+01,-2.580841927694537130e-01,0.000000000000000000e+00
9.400000000000000000e+01,-4.236810893340008932e-01,0.000000000000000000e+00
9.500000000000000000e+01,-2.066624091939112950e-01,0.000000000000000000e+00
9.600000000000000000e+01,-3.132554702675158786e-01,0.000000000000000000e+00
9.700000000000000000e+01,1.186892548208858835e-04,0.000000000000000000e+00
9.800000000000000000e+01,-8.357176329646004431e-02,0.000000000000000000e+00
9.900000000000000000e+01,-1.952178732812830109e-02,0.000000000000000000e+00
1.000000000000000000e+02,-1.016372474332316068e-02,0.000000000000000000e+00
1.010000000000000000e+02,4.081781297201603209e-02,0.000000000000000000e+00
1.020000000000000000e+02,1.536333347196280896e-01,0.000000000000000000e+00
1.030000000000000000e+02,5.770521194367496109e-01,0.000000000000000000e+00
1.040000000000000000e+02,9.445314314277888368e-01,0.000000000000000000e+00
1.050000000000000000e+02,3.035087773320014337e-01,0.000000000000000000e+00
1.060000000000000000e+02,-1.570122307090558444e-01,0.000000000000000000e+00
1.070000000000000000e+02,-6.314050184445622708e-03,0.000000000000000000e+00
1.080000000000000000e+02,3.923565554565799918e-02,0.000000000000000000e+00
1.090000000000000000e+02,2.043541417438317909e-01,0.000000000000000000e+00
1.100000000000000000e+02,1.235954061122894521e+00,0.000000000000000000e+00
1.110000000000000000e+02,5.495718391314161622e+00,0.000000000000000000e+00
1.120000000000000000e+02,1.867375061302866568e+00,1.000000000000000000e+00
1.130000000000000000e+02,-8.933921118614913670e-01,0.000000000000000000e+00
1.140000000000000000e+02,-3.476579432004017756e-01,0.000000000000000000e+00
1.150000000000000000e+02,-7.868033527657871673e-01,0.000000000000000000e+00
1.160000000000000000e+02,-2.224657920331946370e-01,0.000000000000000000e+00
1.170000000000000000e+02,-1.932183649589322982e-01,0.000000000000000000e+00
1.180000000000000000e+02,1.031809167157756758e-02,0.000000000000000000e+00
1.190000000000000000e+02,-1.164388961392318934e-02,0.000000000000000000e+00
1.200000000000000000e+02,3.351977714541592990e-01,0.000000000000000000e+00
1.210000000000000000e+02,3.874829764447155767e-01,0.000000000000000000e+00
1.220000000000000000e+02,7.812656936289174014e-01,0.000000000000000000e+00
1.230000000000000000e+02,1.138657142519825305e+00,0.000000000000000000e+00
1.240000000000000000e+02,3.988640883134143333e+00,0.000000000000000000e+00
1.250000000000000000e+02,4.785494087077768910e+00,0.000000000000000000e+00
1.260000000000000000e+02,5.240880363557964827e+00,0.000000000000000000e+00
1.270000000000000000e+02,5.007450601032165771e+00,0.000000000000000000e+00
1.280000000000000000e+02,4.351826802721832088e+00,0.000000000000000000e+00
1.290000000000000000e+02,3.231010263458723220e+00,0.000000000000000000e+00
1.300000000000000000e+02,2.383657756255954663e+00,0.000000000000000000e+00
1.310000000000000000e+02,1.541179459111336358e+00,0.000000000000000000e+00
1.320000000000000000e+02,1.257484164048305431e+00,0.000000000000000000e+00
1.330000000000000000e+02,7.976163767438563257e-01,0.000000000000000000e+00
1.340000000000000000e+02,5.695522777323676067e-01,0.000000000000000000e+00
1.350000000000000000e+02,2.255161885986293469e-01,0.000000000000000000e+00
1.360000000000000000e+02,8.542791104601163421e-02,0.000000000000000000e+00
1.370000000000000000e+02,-4.851004822423906626e-01,0.000000000000000000e+00
1.380000000000000000e+02,-5.126288076385151493e-01,0.000000000000000000e+00
1.390000000000000000e+02,-9.255547468022801150e-01,0.000000000000000000e+00
1.400000000000000000e+02,-1.165728008346834432e+00,0.000000000000000000e+00
1.410000000000000000e+02,-1.525095560328521893e+00,0.000000000000000000e+00
1.420000000000000000e+02,-1.734506899623242226e+00,0.000000000000000000e+00
1.430000000000000000e+02,-1.814718686360205169e+00,0.000000000000000000e+00
1.440000000000000000e+02,-1.939922595708050368e+00,0.000000000000000000e+00
1.450000000000000000e+02,-2.048883232229964158e+00,0.000000000000000000e+00
1.460000000000000000e+02,-2.026802246277795927e+00,0.000000000000000000e+00
1.470000000000000000e+02,-2.272151179628688844e+00,0.000000000000000000e+00
1.480000000000000000e+02,-2.065993619631992573e+00,0.000000000000000000e+00
1.490000000000000000e+02,-2.384695310236674359e+00,0.000000000000000000e+00
1.500000000000000000e+02,-2.227217240432923351e+00,0.000000000000000000e+00
1.510000000000000000e+02,-2.292973910729564135e+00,0.000000000000000000e+00
1.520000000000000000e+02,-2.224193299951198188e+00,0.000000000000000000e+00
1.530000000000000000e+02,-2.131135426990323989e+00,0.000000000000000000e+00
1.540000000000000000e+02,-2.115893585824694334e+00,0.000000000000000000e+00
1.550000000000000000e+02,-2.186489009307476472e+00,0.000000000000000000e+00
1.560000000000000000e+02,-1.810122875752697702e+00,0.000000000000000000e+00
1.570000000000000000e+02,-1.835712422682913569e+00,0.000000000000000000e+00
1.580000000000000000e+02,-1.517898646993981693e+00,0.000000000000000000e+00
1.590000000000000000e+02,-1.225993678898884776e+00,0.000000000000000000e+00
1.600000000000000000e+02,-1.213657734353417617e+00,0.000000000000000000e+00
1.610000000000000000e+02,-1.845777312585530794e+00,0.000000000000000000e+00
1.620000000000000000e+02,-1.404961464486236933e+00,0.000000000000000000e+00
1.630000000000000000e+02,-1.712394783133474485e+00,0.000000000000000000e+00
1.640000000000000000e+02,-1.197641354954060100e+00,0.000000000000000000e+00
1.650000000000000000e+02,-1.398851422873725658e+00,0.000000000000000000e+00
1.660000000000000000e+02,1.459564133844061473e+00,0.000000000000000000e+00
1.670000000000000000e+02,2.677215339261421079e+00,0.000000000000000000e+00
1.680000000000000000e+02,-1.901302482605141453e+00,1.000000000000000000e+00
1.690000000000000000e+02,-1.502870562590438608e+00,0.000000000000000000e+00
1.700000000000000000e+02,-1.452651262177843350e+00,0.000000000000000000e+00
1.710000000000000000e+02,-1.070228737401866415e+00,0.000000000000000000e+00
1.720000000000000000e+02,-1.293191247834374558e+00,0.000000000000000000e+00
1.730000000000000000e+02,-5.967009531484923635e-01,0.000000000000000000e+00
1.740000000000000000e+02,-4.555713190198737994e-01,0.000000000000000000e+00
1.750000000000000000e+02,-1.978872158881515575e-01,0.000000000000000000e+00
1.760000000000000000e+02,6.431948883708835107e-02,0.000000000000000000e+00
1.770000000000000000e+02,3.038898959150511669e-01,0.000000000000000000e+00
1.780000000000000000e+02,5.707798761011040334e-01,0.000000000000000000e+00
1.790000000000000000e+02,1.192651664116558763e+00,0.000000000000000000e+00
1.800000000000000000e+02,1.498454749956492194e+00,0.000000000000000000e+00
1.810000000000000000e+02,1.823588677574577765e+00,0.000000000000000000e+00
1.820000000000000000e+02,1.679311838809642854e+00,0.000000000000000000e+00
1.830000000000000000e+02,1.525911793542543915e+00,0.000000000000000000e+00
1.840000000000000000e+02,1.026924947109094877e+00,0.000000000000000000e+00
1.850000000000000000e+02,4.466328057619703418e-01,0.000000000000000000e+00
1.860000000000000000e+02,-1.160398956985895375e-01,0.000000000000000000e+00
1.870000000000000000e+02,-1.452345734645927311e-01,0.000000000000000000e+00
1.880000000000000000e+02,-7.235424036268615910e-02,0.000000000000000000e+00
1.890000000000000000e+02,-5.626213434988783235e-02,0.000000000000000000e+00
1.900000000000000000e+02,1.865817830530783761e-01,0.000000000000000000e+00
1.910000000000000000e+02,3.039417596990311998e-01,0.000000000000000000e+00
1.920000000000000000e+02,4.755475575880248607e-01,0.000000000000000000e+00
1.930000000000000000e+02,4.456329170774164239e-01,0.000000000000000000e+00
1.940000000000000000e+02,6.573420541480481383e-01,0.000000000000000000e+00
1.950000000000000000e+02,7.196141652510529285e-01,0.000000000000000000e+00
1.960000000000000000e+02,4.292314292044077662e-01,0.000000000000000000e+00
1.970000000000000000e+02,5.004731601965264343e-01,0.000000000000000000e+00
1.980000000000000000e+02,6.978279266715309292e-01,0.000000000000000000e+00
1.990000000000000000e+02,5.654291069602870312e-01,0.000000000000000000e+00
2.000000000000000000e+02,8.126608372583145057e-01,0.000000000000000000e+00
2.010000000000000000e+02,8.064494162570936542e-01,0.000000000000000000e+00
2.020000000000000000e+02,8.918209644047329077e-01,0.000000000000000000e+00
2.030000000000000000e+02,9.044167097865213334e-01,0.000000000000000000e+00
2.040000000000000000e+02,9.878659428798918229e-01,0.000000000000000000e+00
2.050000000000000000e+02,9.211673971770264480e-01,0.000000000000000000e+00
2.060000000000000000e+02,1.204451373078657239e+00,0.000000000000000000e+00
2.070000000000000000e+02,1.067119713378516188e+00,0.000000000000000000e+00
2.080000000000000000e+02,9.811068369269508871e-01,0.000000000000000000e+00
2.090000000000000000e+02,1.038255693924886147e+00,0.000000000000000000e+00
2.100000000000000000e+02,1.250946916618100868e+00,0.000000000000000000e+00
2.110000000000000000e+02,1.069033556262741769e+00,0.000000000000000000e+00
2.120000000000000000e+02,1.217323139883047523e+00,0.000000000000000000e+00
2.130000000000000000e+02,1.216125707470083306e+00,0.000000000000000000e+00
2.140000000000000000e+02,1.485486889809318312e+00,0.000000000000000000e+00
2.150000000000000000e+02,1.573056780898588469e+00,0.000000000000000000e+00
2.160000000000000000e+02,1.162615237050214301e+00,0.000000000000000000e+00
2.170000000000000000e+02,3.751257744175062192e-01,0.000000000000000000e+00
2.180000000000000000e+02,8.245393174464762387e-01,0.000000000000000000e+00
2.190000000000000000e+02,4.768406277810481320e-01,0.000000000000000000e+00
2.200000000000000000e+02,8.800041125039980150e-01,0.000000000000000000e+00
2.210000000000000000e+02,1.300473841076071446e+00,0.000000000000000000e+00
2.220000000000000000e+02,6.044809878586015373e+00,0.000000000000000000e+00
2.230000000000000000e+02,2.515924490182842810e+00,1.000000000000000000e+00
2.240000000000000000e+02,-7.905167764195031310e-01,0.000000000000000000e+00
2.250000000000000000e+02,-5.225523757326566709e-01,0.000000000000000000e+00
2.260000000000000000e+02,-6.925702981967474248e-01,0.000000000000000000e+00
2.270000000000000000e+02,-3.041808229620916459e-01,0.000000000000000000e+00
2.280000000000000000e+02,-5.759402588123512245e-01,0.000000000000000000e+00
2.290000000000000000e+02,-3.716362817792846496e-01,0.000000000000000000e+00
2.300000000000000000e+02,-2.039975323493810055e-01,0.000000000000000000e+00
2.310000000000000000e+02,-2.389204030864483241e-01,0.000000000000000000e+00
2.320000000000000000e+02,-9.285333726026167786e-03,0.000000000000000000e+00
2.330000000000000000e+02,-2.679997721344372710e-02,0.000000000000000000e+00
2.340000000000000000e+02,5.078452667017191446e-01,0.000000000000000000e+00
2.350000000000000000e+02,8.410182534401871024e-01,0.000000000000000000e+00
2.360000000000000000e+02,1.115816189304597916e+00,0.000000000000000000e+00
2.370000000000000000e+02,1.073433096895181738e+00,0.000000000000000000e+00
2.380000000000000000e+02,1.082158124675353550e+00,0.000000000000000000e+00
2.390000000000000000e+02,3.644514876271330306e-01,0.000000000000000000e+00
2.400000000000000000e+02,-3.011888618297957065e-01,0.000000000000000000e+00
2.410000000000000000e+02,-8.727401512294912234e-01,0.000000000000000000e+00
2.420000000000000000e+02,-9.653306042876061976e-01,0.000000000000000000e+00
2.430000000000000000e+02,-1.122167280957463875e+00,0.000000000000000000e+00
2.440000000000000000e+02,-1.089995021665780550e+00,0.000000000000000000e+00
2.450000000000000000e+02,-8.526441675981636381e-01,0.000000000000000000e+00
2.460000000000000000e+02,-9.762918041005994585e-01,0.000000000000000000e+00
2.470000000000000000e+02,-6.718148790322470143e-01,0.000000000000000000e+00
2.480000000000000000e+02,-7.465022662064575432e-01,0.000000000000000000e+00
2.490000000000000000e+02,-4.204252502454852713e-01,0.000000000000000000e+00
2.500000000000000000e+02,-6.107008335870559579e-01,0.000000000000000000e+00
2.510000000000000000e+02,-6.612433141314251195e-01,0.000000000000000000e+00
2.520000000000000000e+02,-7.866782121982952569e-01,0.000000000000000000e+00
2.530000000000000000e+02,-8.101480698899979904e-01,0.000000000000000000e+00
2.540000000000000000e+02,-6.947805949997787334e-01,0.000000000000000000e+00
2.550000000000000000e+02,-7.019209746898804614e-01,0.000000000000000000e+00
2.560000000000000000e+02,-8.200524649035153546e-01,0.000000000000000000e+00
2.570000000000000000e+02,-8.034016307530305046e-01,0.000000000000000000e+00
2.580000000000000000e+02,-6.528794873125681741e-01,0.000000000000000000e+00
2.590000000000000000e+02,-4.925040962062265937e-01,0.000000000000000000e+00
2.600000000000000000e+02,-7.565347062695993996e-01,0.000000000000000000e+00
2.610000000000000000e+02,-3.627732119413750178e-01,0.000000000000000000e+00
2.620000000000000000e+02,-5.001490522048859244e-01,0.000000000000000000e+00
2.630000000000000000e+02,-4.622625559621700297e-01,0.000000000000000000e+00
2.640000000000000000e+02,-4.428444398266993542e-01,0.000000000000000000e+00
2.650000000000000000e+02,-3.102022151988367837e-01,0.000000000000000000e+00
2.660000000000000000e+02,-4.296286571610140603e-01,0.000000000000000000e+00
2.670000000000000000e+02,-4.946846635609347120e-01,0.000000000000000000e+00
2.680000000000000000e+02,-3.795727455249566784e-01,0.000000000000000000e+00
2.690000000000000000e+02,-3.594622274855430732e-01,0.000000000000000000e+00
2.700000000000000000e+02,-3.669542084182518538e-02,0.000000000000000000e+00
2.710000000000000000e+02,3.563770755488118724e-01,0.000000000000000000e+00
2.720000000000000000e+02,-1.562697021751913900e-03,0.000000000000000000e+00
2.730000000000000000e+02,-8.710330459335184905e-01,0.000000000000000000e+00
2.740000000000000000e+02,-6.905266761346037230e-01,0.000000000000000000e+00
2.750000000000000000e+02,-8.037253386629528151e-01,0.000000000000000000e+00
2.760000000000000000e+02,-2.236271447043358951e-01,0.000000000000000000e+00
2.770000000000000000e+02,-2.427809898969500793e-02,0.000000000000000000e+00
2.780000000000000000e+02,4.130638617990880945e+00,0.000000000000000000e+00
2.790000000000000000e+02,3.547682120811180173e+00,0.000000000000000000e+00
2.800000000000000000e+02,-1.539570455185747200e+00,1.000000000000000000e+00
2.810000000000000000e+02,-9.595405312845503021e-01,0.000000000000000000e+00
2.820000000000000000e+02,-1.301552078816236913e+00,0.000000000000000000e+00
2.830000000000000000e+02,-7.573048262427705124e-01,0.000000000000000000e+00
2.840000000000000000e+02,-1.213673971037539490e+00,0.000000000000000000e+00
2.850000000000000000e+02,-6.268096033517926990e-01,0.000000000000000000e+00
2.860000000000000000e+02,-4.872102553389862090e-01,0.000000000000000000e+00
2.870000000000000000e+02,-3.700761030459510659e-01,0.000000000000000000e+00
2.880000000000000000e+02,-5.686657293779774358e-01,0.000000000000000000e+00
2.890000000000000000e+02,-1.691606907366165757e-01,0.000000000000000000e+00
2.900000000000000000e+02,1.929347484460155193e-01,0.000000000000000000e+00
2.910000000000000000e+02,5.907630766617877338e-01,0.000000000000000000e+00
2.920000000000000000e+02,1.009519641558907832e+00,0.000000000000000000e+00
2.930000000000000000e+02,1.101815395252772056e+00,0.000000000000000000e+00
2.940000000000000000e+02,9.729937241485249189e-01,0.000000000000000000e+00
2.950000000000000000e+02,7.344326663181776071e-01,0.000000000000000000e+00
2.960000000000000000e+02,-2.562723386576771234e-01,0.000000000000000000e+00
2.970000000000000000e+02,-9.347841978390299955e-01,0.000000000000000000e+00
2.980000000000000000e+02,-1.284348975716606223e+00,0.000000000000000000e+00
2.990000000000000000e+02,-1.037332458990955830e+00,0.000000000000000000e+00
3.000000000000000000e+02,-1.263855923408782944e+00,0.000000000000000000e+00
3.010000000000000000e+02,-1.009021106372850474e+00,0.000000000000000000e+00
3.020000000000000000e+02,-9.450583022252853072e-01,0.000000000000000000e+00
3.030000000000000000e+02,-7.013009039507207554e-01,0.000000000000000000e+00
3.040000000000000000e+02,-5.870404000243992781e-01,0.000000000000000000e+00
3.050000000000000000e+02,-4.094730372026284537e-01,0.000000000000000000e+00
3.060000000000000000e+02,-5.406482384104704941e-01,0.000000000000000000e+00
3.070000000000000000e+02,-1.839608240610298429e-01,0.000000000000000000e+00
3.080000000000000000e+02,-4.384257935674134576e-01,0.000000000000000000e+00
3.090000000000000000e+02,-4.823500461057972921e-01,0.000000000000000000e+00
3.100000000000000000e+02,-5.289770366243776722e-01,0.000000000000000000e+00
3.110000000000000000e+02,-3.158904945315458290e-01,0.000000000000000000e+00
3.120000000000000000e+02,-4.116757240676494067e-01,0.000000000000000000e+00
3.130000000000000000e+02,-1.434363978959107555e-01,0.000000000000000000e+00
3.140000000000000000e+02,-3.116092455118721904e-01,0.000000000000000000e+00
3.150000000000000000e+02,-1.785188109762580744e-01,0.000000000000000000e+00
3.160000000000000000e+02,-1.453873326956428014e-01,0.000000000000000000e+00
3.170000000000000000e+02,-7.249504070022443070e-02,0.000000000000000000e+00
3.180000000000000000e+02,-1.561586060631388884e-01,0.000000000000000000e+00
3.190000000000000000e+02,1.203015703276614778e-01,0.000000000000000000e+00
3.200000000000000000e+02,1.323683166902772379e-01,0.000000000000000000e+00
3.210000000000000000e+02,3.007957151811051499e-01,0.000000000000000000e+00
3.220000000000000000e+02,2.625279547333547736e-02,0.000000000000000000e+00
3.230000000000000000e+02,2.461682203461613705e-01,0.000000000000000000e+00
3.240000000000000000e+02,2.625281376789586063e-01,0.000000000000000000e+00
3.250000000000000000e+02,6.237853957011122441e-01,0.000000000000000000e+00
3.260000000000000000e+02,8.601940335758923029e-01,0.000000000000000000e+00
3.270000000000000000e+02,1.033446470216196067e+00,0.000000000000000000e+00
3.280000000000000000e+02,4.032041216280818005e-03,0.000000000000000000e+00
3.290000000000000000e+02,2.542692938275578074e-01,0.000000000000000000e+00
3.300000000000000000e+02,-9.385016542513251181e-02,0.000000000000000000e+00
3.310000000000000000e+02,3.605571119764965360e-01,0.000000000000000000e+00
3.320000000000000000e+02,1.549876513768744524e-01,0.000000000000000000e+00
3.330000000000000000e+02,2.251730590288228750e+00,0.000000000000000000e+00
3.340000000000000000e+02,4.744936207398707140e+00,0.000000000000000000e+00
3.350000000000000000e+02,-2.127538504705583922e-01,1.000000000000000000e+00
3.360000000000000000e+02,-5.655210465979001455e-01,0.000000000000000000e+00
3.370000000000000000e+02,-3.911367622905637664e-01,0.000000000000000000e+00
3.380000000000000000e+02,-8.166218973262528991e-01,0.000000000000000000e+00
3.390000000000000000e+02,-4.206650888374509067e-01,0.000000000000000000e+00
3.400000000000000000e+02,-3.273141197882346032e-01,0.000000000000000000e+00
3.410000000000000000e+02,-1.963436124467868304e-01,0.000000000000000000e+00
3.420000000000000000e+02,-7.146473413872779512e-02,0.000000000000000000e+00
3.430000000000000000e+02,2.324302908939788748e-01,0.000000000000000000e+00
3.440000000000000000e+02,2.776958501642113886e-01,0.000000000000000000e+00
3.450000000000000000e+02,4.869397570361786443e-01,0.000000000000000000e+00
3.460000000000000000e+02,7.550732591586926112e-01,0.000000000000000000e+00
3.470000000000000000e+02,1.165178182877579349e+00,0.000000000000000000e+00
3.480000000000000000e+02,1.298097892440082779e+00,0.000000000000000000e+00
3.490000000000000000e+02,1.394356763824109446e+00,0.000000000000000000e+00
3.500000000000000000e+02,8.522744128638890526e-01,0.000000000000000000e+00
3.510000000000000000e+02,2.716505930023149218e-01,0.000000000000000000e+00
3.520000000000000000e+02,-4.297570232119690692e-01,0.000000000000000000e+00
3.530000000000000000e+02,-1.092548188031537082e+00,0.000000000000000000e+00
3.540000000000000000e+02,-1.209682586043631547e+00,0.000000000000000000e+00
3.550000000000000000e+02,-1.221792951089081036e+00,0.000000000000000000e+00
3.560000000000000000e+02,-1.032499998874023772e+00,0.000000000000000000e+00
3.570000000000000000e+02,-7.433341781478756127e-01,0.000000000000000000e+00
3.580000000000000000e+02,-7.529961286568307433e-01,0.000000000000000000e+00
3.590000000000000000e+02,-5.262849543776498829e-01,0.000000000000000000e+00
3.600000000000000000e+02,-2.415086187632874137e-01,0.000000000000000000e+00
3.610000000000000000e+02,-3.385586244499448338e-01,0.000000000000000000e+00
3.620000000000000000e+02,-3.874093969324268749e-01,0.000000000000000000e+00
3.630000000000000000e+02,-3.489755405335308591e-01,0.000000000000000000e+00
3.640000000000000000e+02,-2.402197997889906900e-01,0.000000000000000000e+00
3.650000000000000000e+02,-1.662938135099326920e-01,0.000000000000000000e+00
3.660000000000000000e+02,-1.831803812916103225e-01,0.000000000000000000e+00
3.670000000000000000e+02,-2.018495673479462071e-01,0.000000000000000000e+00
3.680000000000000000e+02,-1.629929600725296412e-01,0.000000000000000000e+00
3.690000000000000000e+02,-3.166728232782641816e-01,0.000000000000000000e+00
3.700000000000000000e+02,-3.585559117548533514e-01,0.000000000000000000e+00
3.710000000000000000e+02,-1.755257730592058030e-01,0.000000000000000000e+00
3.720000000000000000e+02,-1.468502676675470520e-01,0.000000000000000000e+00
3.730000000000000000e+02,-5.397029582122619962e-02,0.000000000000000000e+00
3.740000000000000000e+02,-1.122632345902446899e-01,0.000000000000000000e+00
3.750000000000000000e+02,-8.682681416485865666e-02,0.000000000000000000e+00
3.760000000000000000e+02,-4.262387873350847317e-02,0.000000000000000000e+00
3.770000000000000000e+02,-1.084753706133289447e-01,0.000000000000000000e+00
3.780000000000000000e+02,-1.728177483263706737e-01,0.000000000000000000e+00
3.790000000000000000e+02,1.732000281058543312e-02,0.000000000000000000e+00
3.800000000000000000e+02,-2.773137494266303751e-02,0.000000000000000000e+00
3.810000000000000000e+02,3.689393507661087312e-01,0.000000000000000000e+00
3.820000000000000000e+02,2.616455700531146455e-02,0.000000000000000000e+00
3.830000000000000000e+02,-8.174904591884917249e-01,0.000000000000000000e+00
3.840000000000000000e+02,-1.087057907036780957e+00,0.000000000000000000e+00
3.850000000000000000e+02,-1.082513219873044941e+00,0.000000000000000000e+00
3.860000000000000000e+02,-1.217357299676343318e+00,0.000000000000000000e+00
3.870000000000000000e+02,-7.858448982857360043e-01,0.000000000000000000e+00
3.880000000000000000e+02,8.908774961988493724e-01,0.000000000000000000e+00
3.890000000000000000e+02,4.734185788747497625e+00,0.000000000000000000e+00
3.900000000000000000e+02,1.842805391536969928e-01,1.000000000000000000e+00
3.910000000000000000e+02,-1.893983323582601574e+00,0.000000000000000000e+00
3.920000000000000000e+02,-1.896143659840187512e+00,0.000000000000000000e+00
3.930000000000000000e+02,-1.689097857948752779e+00,0.000000000000000000e+00
3.940000000000000000e+02,-1.521222659268894439e+00,0.000000000000000000e+00
3.950000000000000000e+02,-1.158938133866991516e+00,0.000000000000000000e+00
3.960000000000000000e+02,-7.079562553586560281e-01,0.000000000000000000e+00
3.970000000000000000e+02,-5.317076255457229284e-01,0.000000000000000000e+00
3.980000000000000000e+02,-1.617772636973858480e-01,0.000000000000000000e+00
3.990000000000000000e+02,3.391194028412222727e-01,0.000000000000000000e+00
4.000000000000000000e+02,4.122694246076664681e-01,0.000000000000000000e+00
4.010000000000000000e+02,1.174862446869615384e+00,0.000000000000000000e+00
4.020000000000000000e+02,1.422857687144640781e+00,0.000000000000000000e+00
4.030000000000000000e+02,2.023870139784992528e+00,0.000000000000000000e+00
4.040000000000000000e+02,2.208164239244764460e+00,0.000000000000000000e+00
4.050000000000000000e+02,2.024018150689425255e+00,0.000000000000000000e+00
4.060000000000000000e+02,1.567962570446151949e+00,0.000000000000000000e+00
4.070000000000000000e+02,1.124743179303863361e+00,0.000000000000000000e+00
4.080000000000000000e+02,5.948821616898190001e-01,0.000000000000000000e+00
4.090000000000000000e+02,5.439317548672130131e-01,0.000000000000000000e+00
4.100000000000000000e+02,4.376642047132592306e-01,0.000000000000000000e+00
4.110000000000000000e+02,5.258462373114179966e-01,0.000000000000000000e+00
4.120000000000000000e+02,8.071300501367714153e-01,0.000000000000000000e+00
4.130000000000000000e+02,8.998070886705011873e-01,0.000000000000000000e+00
4.140000000000000000e+02,9.604798488738588436e-01,0.000000000000000000e+00
4.150000000000000000e+02,1.285953835134200141e+00,0.000000000000000000e+00
4.160000000000000000e+02,1.261629210297654291e+00,0.000000000000000000e+00
4.170000000000000000e+02,1.407098937887543144e+00,0.000000000000000000e+00
4.180000000000000000e+02,1.197113328047216374e+00,0.000000000000000000e+00
4.190000000000000000e+02,9.873437745141954158e-01,0.000000000000000000e+00
4.200000000000000000e+02,1.104499979863768688e+00,0.000000000000000000e+00
4.210000000000000000e+02,7.517309868865666989e-01,0.000000000000000000e+00
4.220000000000000000e+02,5.866432500742250200e-01,0.000000000000000000e+00
4.230000000000000000e+02,4.595998825892650963e-01,0.000000000000000000e+00
4.240000000000000000e+02,3.086748661202642352e-01,0.000000000000000000e+00
4.250000000000000000e+02,5.648429471225820953e-01,0.000000000000000000e+00
4.260000000000000000e+02,4.384000354106264985e-01,0.000000000000000000e+00
4.270000000000000000e+02,3.484949286076598485e-01,0.000000000000000000e+00
4.280000000000000000e+02,3.974157944168842382e-01,0.000000000000000000e+00
4.290000000000000000e+02,3.320222651308176176e-01,0.000000000000000000e+00
4.300000000000000000e+02,4.300245381078474649e-01,0.000000000000000000e+00
4.310000000000000000e+02,4.591807071553007380e-01,0.000000000000000000e+00
4.320000000000000000e+02,2.998214446877173756e-01,0.000000000000000000e+00
4.330000000000000000e+02,4.518133194463097024e-01,0.000000000000000000e+00
4.340000000000000000e+02,1.893775192041594890e-01,0.000000000000000000e+00
4.350000000000000000e+02,4.035944503919040582e-01,0.000000000000000000e+00
4.360000000000000000e+02,2.498773164226365529e-01,0.000000000000000000e+00
4.370000000000000000e+02,6.809927962954874792e-01,0.000000000000000000e+00
4.380000000000000000e+02,8.866750238517753235e-01,0.000000000000000000e+00
4.390000000000000000e+02,1.358702917094817449e-02,0.000000000000000000e+00
4.400000000000000000e+02,-3.212233239952392294e-01,0.000000000000000000e+00
4.410000000000000000e+02,-2.549944021975781849e-01,0.000000000000000000e+00
4.420000000000000000e+02,-4.481024692744851046e-01,0.000000000000000000e+00
4.430000000000000000e+02,-2.661835209444808892e-01,0.000000000000000000e+00
4.440000000000000000e+02,4.272163853767718678e-01,0.000000000000000000e+00
4.450000000000000000e+02,5.031199532535573837e+00,0.000000000000000000e+00
4.460000000000000000e+02,1.376290689140149404e+00,1.000000000000000000e+00
4.470000000000000000e+02,-1.690444182757030678e+00,0.000000000000000000e+00
4.480000000000000000e+02,-1.521493211354936426e+00,0.000000000000000000e+00
4.490000000000000000e+02,-1.799658863859877389e+00,0.000000000000000000e+00
4.500000000000000000e+02,-1.518828687770773955e+00,0.000000000000000000e+00
4.510000000000000000e+02,-1.543101702521171736e+00,0.000000000000000000e+00
4.520000000000000000e+02,-1.319625473240435110e+00,0.000000000000000000e+00
4.530000000000000000e+02,-1.382072621600520357e+00,0.000000000000000000e+00
4.540000000000000000e+02,-1.117211030342110778e+00,0.000000000000000000e+00
4.550000000000000000e+02,-1.079950944728471640e+00,0.000000000000000000e+00
4.560000000000000000e+02,-1.009756757456740983e+00,0.000000000000000000e+00
4.570000000000000000e+02,-6.128106353590494493e-01,0.000000000000000000e+00
4.580000000000000000e+02,-8.419520486080292465e-02,0.000000000000000000e+00
4.590000000000000000e+02,4.100989524858530411e-01,0.000000000000000000e+00
4.600000000000000000e+02,2.785253952098002417e-01,0.000000000000000000e+00
4.610000000000000000e+02,2.409590636224712978e-01,0.000000000000000000e+00
4.620000000000000000e+02,-2.142900901072684328e-01,0.000000000000000000e+00
4.630000000000000000e+02,-1.146626404224114326e+00,0.000000000000000000e+00
4.640000000000000000e+02,-1.601480706939055310e+00,0.000000000000000000e+00
4.650000000000000000e+02,-1.975300820023064174e+00,0.000000000000000000e+00
4.660000000000000000e+02,-1.891266597807670591e+00,0.000000000000000000e+00
4.670000000000000000e+02,-1.872356944312879801e+00,0.000000000000000000e+00
4.680000000000000000e+02,-1.866020091197028830e+00,0.000000000000000000e+00
4.690000000000000000e+02,-1.627438327958370179e+00,0.000000000000000000e+00
4.700000000000000000e+02,-1.480587991831107120e+00,0.000000000000000000e+00
4.710000000000000000e+02,-1.373038294577679563e+00,0.000000000000000000e+00
4.720000000000000000e+02,-1.219024108792994943e+00,0.000000000000000000e+00
4.730000000000000000e+02,-1.065252674468705640e+00,0.000000000000000000e+00
4.740000000000000000e+02,-1.317428896873573452e+00,0.000000000000000000e+00
4.750000000000000000e+02,-1.032416283685970049e+00,0.000000000000000000e+00
4.760000000000000000e+02,-1.212158554153811352e+00,0.000000000000000000e+00
4.770000000000000000e+02,-1.215231440360794668e+00,0.000000000000000000e+00
4.780000000000000000e+02,-9.577621751565447150e-01,0.000000000000000000e+00
4.790000000000000000e+02,-1.072589968770548241e+00,0.000000000000000000e+00
4.800000000000000000e+02,-1.031813228504515623e+00,0.000000000000000000e+00
4.810000000000000000e+02,-7.394520071630604763e-01,0.000000000000000000e+00
4.820000000000000000e+02,-6.331549825304826351e-01,0.000000000000000000e+00
4.830000000000000000e+02,-5.308097908995904612e-01,0.000000000000000000e+00
4.840000000000000000e+02,-4.606538963126456387e-01,0.000000000000000000e+00
4.850000000000000000e+02,-3.394934417437986962e-01,0.000000000000000000e+00
4.860000000000000000e+02,-4.660626602590555723e-01,0.000000000000000000e+00
4.870000000000000000e+02,-2.279622701104246640e-01,0.000000000000000000e+00
4.880000000000000000e+02,-1.103640918110348201e-01,0.000000000000000000e+00
4.890000000000000000e+02,-1.493128387616884656e-01,0.000000000000000000e+00
4.900000000000000000e+02,3.249944275134875743e-02,0.000000000000000000e+00
4.910000000000000000e+02,1.825654417887839220e-01,0.000000000000000000e+00
4.920000000000000000e+02,6.378991959961742564e-02,0.000000000000000000e+00
4.930000000000000000e+02,3.722273970703147694e-01,0.000000000000000000e+00
4.940000000000000000e+02,8.080222021876420913e-01,0.000000000000000000e+00
4.950000000000000000e+02,5.495305315562042381e-01,0.000000000000000000e+00
4.960000000000000000e+02,-2.216836578273148062e-01,0.000000000000000000e+00
4.970000000000000000e+02,-2.888470658858942330e-02,0.000000000000000000e+00
4.980000000000000000e+02,-3.444156332390133635e-01,0.000000000000000000e+00
4.990000000000000000e+02,2.970056725452555058e-01,0.000000000000000000e+00
5.000000000000000000e+02,-1.707229460910335561e-01,0.000000000000000000e+00
5.010000000000000000e+02,3.321023389511357671e+00,0.000000000000000000e+00
5.020000000000000000e+02,4.556308847585654576e+00,0.000000000000000000e+00
5.030000000000000000e+02,-4.859546920026758809e-01,1.000000000000000000e+00
5.040000000000000000e+02,-4.701607014857016598e-01,0.000000000000000000e+00
5.050000000000000000e+02,-8.443449219036753828e-01,0.000000000000000000e+00
5.060000000000000000e+02,-4.984098865133594347e-01,0.000000000000000000e+00
5.070000000000000000e+02,-5.189844676119232947e-01,0.000000000000000000e+00
5.080000000000000000e+02,-8.937142279297816128e-02,0.000000000000000000e+00
5.090000000000000000e+02,-1.833217785411038747e-01,0.000000000000000000e+00
5.100000000000000000e+02,2.288115160741973908e-01,0.000000000000000000e+00
5.110000000000000000e+02,2.533783436787955812e-01,0.000000000000000000e+00
5.120000000000000000e+02,2.466081247169849278e-01,0.000000000000000000e+00
5.130000000000000000e+02,6.320303942291849442e-01,0.000000000000000000e+00
5.140000000000000000e+02,1.336686880780949993e+00,0.000000000000000000e+00
5.150000000000000000e+02,1.375013230262322583e+00,0.000000000000000000e+00
5.160000000000000000e+02,1.578170696611881141e+00,0.000000000000000000e+00
5.170000000000000000e+02,1.404705809828554752e+00,0.000000000000000000e+00
5.180000000000000000e+02,1.205019929885113639e+00,0.000000000000000000e+00
5.190000000000000000e+02,4.595227427300638823e-01,0.000000000000000000e+00
5.200000000000000000e+02,-8.073604791435379235e-02,0.000000000000000000e+00
5.210000000000000000e+02,-4.877125965323438894e-01,0.000000000000000000e+00
5.220000000000000000e+02,-6.424825357447018215e-01,0.000000000000000000e+00
5.230000000000000000e+02,-6.733975462813348578e-01,0.000000000000000000e+00
5.240000000000000000e+02,-5.460723205277803194e-01,0.000000000000000000e+00
5.250000000000000000e+02,-5.637093856957265947e-01,0.000000000000000000e+00
5.260000000000000000e+02,-2.431030888411919444e-01,0.000000000000000000e+00
5.270000000000000000e+02,-8.331248359267860726e-02,0.000000000000000000e+00
5.280000000000000000e+02,3.081795753950645755e-01,0.000000000000000000e+00
5.290000000000000000e+02,8.398044932824696995e-02,0.000000000000000000e+00
5.300000000000000000e+02,3.007880992397715114e-01,0.000000000000000000e+00
5.310000000000000000e+02,2.872592885515049543e-01,0.000000000000000000e+00
5.320000000000000000e+02,2.324139530879794635e-01,0.000000000000000000e+00
5.330000000000000000e+02,3.103357483134152051e-01,0.000000000000000000e+00
5.340000000000000000e+02,3.024427544647834698e-01,0.000000000000000000e+00
5.350000000000000000e+02,3.249284768586566674e-01,0.000000000000000000e+00
5.360000000000000000e+02,2.516714742439054020e-01,0.000000000000000000e+00
5.370000000000000000e+02,1.351710741519015213e-01,0.000000000000000000e+00
5.380000000000000000e+02,4.584811713960999513e-01,0.000000000000000000e+00
5.390000000000000000e+02,4.636114964107495573e-01,0.000000000000000000e+00
5.400000000000000000e+02,4.649322729166293078e-01,0.000000000000000000e+00
5.410000000000000000e+02,3.954861323159801767e-01,0.000000000000000000e+00
5.420000000000000000e+02,4.715372610816268573e-01,0.000000000000000000e+00
5.430000000000000000e+02,4.369601274665763646e-01,0.000000000000000000e+00
5.440000000000000000e+02,4.888556622529472429e-01,0.000000000000000000e+00
5.450000000000000000e+02,2.816454335108112828e-01,0.000000000000000000e+00
5.460000000000000000e+02,5.507696697925041907e-01,0.000000000000000000e+00
5.470000000000000000e+02,4.757939169003627677e-01,0.000000000000000000e+00
5.480000000000000000e+02,3.622279100112555938e-01,0.000000000000000000e+00
5.490000000000000000e+02,9.468980237874712325e-01,0.000000000000000000e+00
5.500000000000000000e+02,8.967610621673576254e-01,0.000000000000000000e+00
5.510000000000000000e+02,5.533021990252773997e-02,0.000000000000000000e+00
5.520000000000000000e+02,1.054909857211761698e-01,0.000000000000000000e+00
5.530000000000000000e+02,-6.418707450718404497e-03,0.000000000000000000e+00
5.540000000000000000e+02,3.150906955029360301e-02,0.000000000000000000e+00
5.550000000000000000e+02,-1.490393543302296828e-02,0.000000000000000000e+00
5.560000000000000000e+02,1.876285182449550337e+00,0.000000000000000000e+00
5.570000000000000000e+02,5.067968231314781136e+00,0.000000000000000000e+00
5.580000000000000000e+02,1.906371383586817070e-01,1.000000000000000000e+00
5.590000000000000000e+02,-8.626111263024492937e-01,0.000000000000000000e+00
5.600000000000000000e+02,-9.928480499396803438e-01,0.000000000000000000e+00
5.610000000000000000e+02,-9.760898120217381679e-01,0.000000000000000000e+00
5.620000000000000000e+02,-7.234375661860282802e-01,0.000000000000000000e+00
5.630000000000000000e+02,-7.652651294043678609e-01,0.000000000000000000e+00
5.640000000000000000e+02,-5.712833302159860960e-01,0.000000000000000000e+00
5.650000000000000000e+02,-4.300565426814236258e-01,0.000000000000000000e+00
5.660000000000000000e+02,-3.502897746952863267e-01,0.000000000000000000e+00
5.670000000000000000e+02,-1.410181304376704192e-01,0.000000000000000000e+00
5.680000000000000000e+02,8.875339536343805624e-03,0.000000000000000000e+00
5.690000000000000000e+02,3.952520547222477809e-01,0.000000000000000000e+00
5.700000000000000000e+02,8.676233924194149960e-01,0.000000000000000000e+00
5.710000000000000000e+02,1.231061286981118386e+00,0.000000000000000000e+00
5.720000000000000000e+02,1.119437931646444895e+00,0.000000000000000000e+00
5.730000000000000000e+02,9.255057398503401256e-01,0.000000000000000000e+00
5.740000000000000000e+02,1.649857702034142337e-01,0.000000000000000000e+00
5.750000000000000000e+02,-3.764335514161382679e-01,0.000000000000000000e+00
5.760000000000000000e+02,-8.600979137931021867e-01,0.000000000000000000e+00
5.770000000000000000e+02,-1.128152240097938463e+00,0.000000000000000000e+00
5.780000000000000000e+02,-9.221436862459329031e-01,0.000000000000000000e+00
5.790000000000000000e+02,-1.084121732206739575e+00,0.000000000000000000e+00
5.800000000000000000e+02,-8.940774290662863999e-01,0.000000000000000000e+00
5.810000000000000000e+02,-6.985623112133119150e-01,0.000000000000000000e+00
5.820000000000000000e+02,-8.516299125740288689e-01,0.000000000000000000e+00
5.830000000000000000e+02,-7.663074893262540321e-01,0.000000000000000000e+00
5.840000000000000000e+02,-5.526442886501589102e-01,0.000000000000000000e+00
5.850000000000000000e+02,-3.954550557569453950e-01,0.000000000000000000e+00
5.860000000000000000e+02,-5.093562239855717877e-01,0.000000000000000000e+00
5.870000000000000000e+02,-6.252945108381560146e-01,0.000000000000000000e+00
5.880000000000000000e+02,-5.101863452944280786e-01,0.000000000000000000e+00
5.890000000000000000e+02,-4.092100135420558837e-01,0.000000000000000000e+00
5.900000000000000000e+02,-5.401177448959758598e-01,0.000000000000000000e+00
5.910000000000000000e+02,-5.034382790077992498e-01,0.000000000000000000e+00
5.920000000000000000e+02,-5.123734723475344977e-01,0.000000000000000000e+00
5.930000000000000000e+02,-2.256102433585171207e-01,0.000000000000000000e+00
5.940000000000000000e+02,-3.743796615587541843e-01,0.000000000000000000e+00
5.950000000000000000e+02,-2.799641276417536018e-01,0.000000000000000000e+00
5.960000000000000000e+02,-2.190520118019430307e-01,0.000000000000000000e+00
5.970000000000000000e+02,-3.053971678605727491e-01,0.000000000000000000e+00
5.980000000000000000e+02,-1.539914415658559521e-01,0.000000000000000000e+00
5.990000000000000000e+02,-2.410341682744670255e-01,0.000000000000000000e+00
6.000000000000000000e+02,-1.957718217956661566e-01,0.000000000000000000e+00
6.010000000000000000e+02,-6.602344775495619378e-02,0.000000000000000000e+00
6.020000000000000000e+02,-1.029696391773059494e-01,0.000000000000000000e+00
6.030000000000000000e+02,-3.103920117482176361e-02,0.000000000000000000e+00
6.040000000000000000e+02,4.818364133567725610e-02,0.000000000000000000e+00
6.050000000000000000e+02,4.605045434062070564e-01,0.000000000000000000e+00
6.060000000000000000e+02,7.035144105100376022e-01,0.000000000000000000e+00
6.070000000000000000e+02,-1.103474593419693783e-01,0.000000000000000000e+00
6.080000000000000000e+02,-1.770473997560692014e-01,0.000000000000000000e+00
6.090000000000000000e+02,2.444948879882426207e-02,0.000000000000000000e+00
6.100000000000000000e+02,-2.066891996184562832e-02,0.000000000000000000e+00
6.110000000000000000e+02,7.273454247585568744e-02,0.000000000000000000e+00
6.120000000000000000e+02,2.032274682488620421e+00,0.000000000000000000e+00
6.130000000000000000e+02,5.620688968148603415e+00,0.000000000000000000e+00
6.140000000000000000e+02,2.565723607392947692e+00,1.000000000000000000e+00
6.150000000000000000e+02,2.657501757507816365e+00,0.000000000000000000e+00
6.160000000000000000e+02,2.859458106626461049e+00,0.000000000000000000e+00
6.170000000000000000e+02,3.366668206371360661e+00,0.000000000000000000e+00
6.180000000000000000e+02,3.108331796523776447e+00,0.000000000000000000e+00
6.190000000000000000e+02,2.829876544813581862e+00,0.000000000000000000e+00
6.200000000000000000e+02,2.636239560473955468e+00,0.000000000000000000e+00
6.210000000000000000e+02,2.309039137546136988e+00,0.000000000000000000e+00
6.220000000000000000e+02,1.885541080712348494e+00,0.000000000000000000e+00
6.230000000000000000e+02,1.596612159295258682e+00,0.000000000000000000e+00
6.240000000000000000e+02,1.155780555839387214e+00,0.000000000000000000e+00
6.250000000000000000e+02,1.159540622026075773e+00,0.000000000000000000e+00
6.260000000000000000e+02,1.188320451224831542e+00,0.000000000000000000e+00
6.270000000000000000e+02,8.090905170431378357e-01,0.000000000000000000e+00
6.280000000000000000e+02,6.664168030097458173e-01,0.000000000000000000e+00
6.290000000000000000e+02,-1.807953148912611052e-01,0.000000000000000000e+00
6.300000000000000000e+02,-7.721623739561617183e-01,0.000000000000000000e+00
6.310000000000000000e+02,-1.789935235061581364e+00,0.000000000000000000e+00
6.320000000000000000e+02,-2.344670854831262918e+00,0.000000000000000000e+00
6.330000000000000000e+02,-2.960444876671346037e+00,0.000000000000000000e+00
6.340000000000000000e+02,-3.119883466228116742e+00,0.000000000000000000e+00
6.350000000000000000e+02,-2.960903827349931294e+00,0.000000000000000000e+00
6.360000000000000000e+02,-3.263763713537306099e+00,0.000000000000000000e+00
6.370000000000000000e+02,-3.126440732353942487e+00,0.000000000000000000e+00
6.380000000000000000e+02,-3.146287383645345326e+00,0.000000000000000000e+00
6.390000000000000000e+02,-3.305149414423306897e+00,0.000000000000000000e+00
6.400000000000000000e+02,-3.021284539408215508e+00,0.000000000000000000e+00
6.410000000000000000e+02,-3.145005544375639506e+00,0.000000000000000000e+00
6.420000000000000000e+02,-3.130079903832309718e+00,0.000000000000000000e+00
6.430000000000000000e+02,-2.968228486357101126e+00,0.000000000000000000e+00
6.440000000000000000e+02,-2.980081122134535576e+00,0.000000000000000000e+00
6.450000000000000000e+02,-3.001678625040236970e+00,0.000000000000000000e+00
6.460000000000000000e+02,-2.898000798710762105e+00,0.000000000000000000e+00
6.470000000000000000e+02,-2.654840469002606174e+00,0.000000000000000000e+00
6.480000000000000000e+02,-2.701444117668169387e+00,0.000000000000000000e+00
6.490000000000000000e+02,-2.461636453822314774e+00,0.000000000000000000e+00
6.500000000000000000e+02,-2.385038143051335879e+00,0.000000000000000000e+00
6.510000000000000000e+02,-2.067127659476065027e+00,0.000000000000000000e+00
6.520000000000000000e+02,-1.883069529789004104e+00,0.000000000000000000e+00
6.530000000000000000e+02,-1.788085893877317201e+00,0.000000000000000000e+00
6.540000000000000000e+02,-1.620174108700876969e+00,0.000000000000000000e+00
6.550000000000000000e+02,-1.439935617411602919e+00,0.000000000000000000e+00
6.560000000000000000e+02,-1.257532291827598181e+00,0.000000000000000000e+00
6.570000000000000000e+02,-9.717948782413754483e-01,0.000000000000000000e+00
6.580000000000000000e+02,-1.008829296070917314e+00,0.000000000000000000e+00
6.590000000000000000e+02,-5.467745777469916746e-01,0.000000000000000000e+00
6.600000000000000000e+02,-5.503720529053970356e-01,0.000000000000000000e+00
6.610000000000000000e+02,-2.743148429302951219e-01,0.000000000000000000e+00
6.620000000000000000e+02,2.466138919269287855e-01,0.000000000000000000e+00
6.630000000000000000e+02,9.567928130174982448e-02,0.000000000000000000e+00
6.640000000000000000e+02,-5.556971364534690760e-01,0.000000000000000000e+00
6.650000000000000000e+02,-1.307570075870660986e-01,0.000000000000000000e+00
6.660000000000000000e+02,-3.536455824767437695e-01,0.000000000000000000e+00
6.670000000000000000e+02,5.574304905145172073e-01,0.000000000000000000e+00
6.680000000000000000e+02,1.746229831566517010e-01,0.000000000000000000e+00
6.690000000000000000e+02,4.158172745984334284e+00,0.000000000000000000e+00
6.700000000000000000e+02,5.216879537496282637e+00,0.000000000000000000e+00
6.710000000000000000e+02,3.125589367614116376e-02,1.000000000000000000e+00
6.720000000000000000e+02,-1.081234639253609020e-01,0.000000000000000000e+00
6.730000000000000000e+02,-2.012390191933479400e-01,0.000000000000000000e+00
6.740000000000000000e+02,4.417293497076698466e-02,0.000000000000000000e+00
6.750000000000000000e+02,2.968715998724738570e-01,0.000000000000000000e+00
6.760000000000000000e+02,3.395100080898191264e-01,0.000000000000000000e+00
6.770000000000000000e+02,5.997099970413664050e-01,0.000000000000000000e+00
6.780000000000000000e+02,9.497629104747610240e-01,0.000000000000000000e+00
6.790000000000000000e+02,9.627031776371502980e-01,0.000000000000000000e+00
6.800000000000000000e+02,1.284414480825270433e+00,0.000000000000000000e+00
6.810000000000000000e+02,1.443283870140801506e+00,0.000000000000000000e+00
6.820000000000000000e+02,2.098167017104949128e+00,0.000000000000000000e+00
6.830000000000000000e+02,2.547346029219796026e+00,0.000000000000000000e+00
6.840000000000000000e+02,2.775746295343074710e+00,0.000000000000000000e+00
6.850000000000000000e+02,2.688968600310966295e+00,0.000000000000000000e+00
6.860000000000000000e+02,2.458730186237485960e+00,0.000000000000000000e+00
6.870000000000000000e+02,1.538284415187252341e+00,0.000000000000000000e+00
6.880000000000000000e+02,1.064556123757948169e+00,0.000000000000000000e+00
6.890000000000000000e+02,5.869319478815853142e-01,0.000000000000000000e+00
6.900000000000000000e+02,1.640324699658087804e-01,0.000000000000000000e+00
6.910000000000000000e+02,2.968901772456710719e-01,0.000000000000000000e+00
6.920000000000000000e+02,4.580263017536841952e-01,0.000000000000000000e+00
6.930000000000000000e+02,7.843087596681966867e-01,0.000000000000000000e+00
6.940000000000000000e+02,5.482290640998562781e-01,0.000000000000000000e+00
6.950000000000000000e+02,9.044517714146013132e-01,0.000000000000000000e+00
6.960000000000000000e+02,9.413116594013873906e-01,0.000000000000000000e+00
6.970000000000000000e+02,7.538787902662699159e-01,0.000000000000000000e+00
6.980000000000000000e+02,1.017063216086560917e+00,0.000000000000000000e+00
6.990000000000000000e+02,1.139976119319535020e+00,0.000000000000000000e+00
7.000000000000000000e+02,9.132920806220290455e-01,0.000000000000000000e+00
7.010000000000000000e+02,1.045348237507392808e+00,0.000000000000000000e+00
7.020000000000000000e+02,7.739974878351598697e-01,0.000000000000000000e+00
7.030000000000000000e+02,8.075413019042575469e-01,0.000000000000000000e+00
7.040000000000000000e+02,1.021279073422894035e+00,0.000000000000000000e+00
7.050000000000000000e+02,8.246395621073472348e-01,0.000000000000000000e+00
7.060000000000000000e+02,8.285377124220548728e-01,0.000000000000000000e+00
7.070000000000000000e+02,7.484391460081927239e-01,0.000000000000000000e+00
7.080000000000000000e+02,7.255950463712433907e-01,0.000000000000000000e+00
7.090000000000000000e+02,6.575168469002827809e-01,0.000000000000000000e+00
7.100000000000000000e+02,6.213159033104240780e-01,0.000000000000000000e+00
7.110000000000000000e+02,7.605385372691252366e-01,0.000000000000000000e+00
7.120000000000000000e+02,6.485198320386854620e-01,0.000000000000000000e+00
7.130000000000000000e+02,6.317399784892743231e-01,0.000000000000000000e+00
7.140000000000000000e+02,5.006546329869596690e-01,0.000000000000000000e+00
7.150000000000000000e+02,8.238392628108662796e-01,0.000000000000000000e+00
7.160000000000000000e+02,6.277030701453097938e-01,0.000000000000000000e+00
7.170000000000000000e+02,9.387974064129789298e-01,0.000000000000000000e+00
7.180000000000000000e+02,1.092783862244097737e+00,0.000000000000000000e+00
7.190000000000000000e+02,1.084392136507742022e+00,0.000000000000000000e+00
7.200000000000000000e+02,9.279818549544934306e-03,0.000000000000000000e+00
7.210000000000000000e+02,2.353073448153794878e-01,0.000000000000000000e+00
7.220000000000000000e+02,-5.667229890355647039e-03,0.000000000000000000e+00
7.230000000000000000e+02,2.765650359478769027e-01,0.000000000000000000e+00
7.240000000000000000e+02,4.766568883241137367e-02,0.000000000000000000e+00
7.250000000000000000e+02,2.707753719035316031e+00,0.000000000000000000e+00
7.260000000000000000e+02,3.892259307007141622e+00,0.000000000000000000e+00
7.270000000000000000e+02,-7.770264858731326107e-01,1.000000000000000000e+00
7.280000000000000000e+02,-5.559201046511937916e-01,0.000000000000000000e+00
7.290000000000000000e+02,-1.126542241962238622e+00,0.000000000000000000e+00
7.300000000000000000e+02,-6.792096234811868527e-01,0.000000000000000000e+00
7.310000000000000000e+02,-7.849704027291171116e-01,0.000000000000000000e+00
7.320000000000000000e+02,-5.464982605468357013e-01,0.000000000000000000e+00
7.330000000000000000e+02,-4.696846024223412797e-01,0.000000000000000000e+00
7.340000000000000000e+02,-3.846082559008354163e-01,0.000000000000000000e+00
7.350000000000000000e+02,-2.737254411230062856e-01,0.000000000000000000e+00
7.360000000000000000e+02,-1.388864563364064775e-01,0.000000000000000000e+00
7.370000000000000000e+02,5.923523145290601061e-02,0.000000000000000000e+00
7.380000000000000000e+02,6.012071995765096988e-01,0.000000000000000000e+00
7.390000000000000000e+02,7.336030379017075553e-01,0.000000000000000000e+00
7.400000000000000000e+02,1.055817958362462505e+00,0.000000000000000000e+00
7.410000000000000000e+02,6.573465636388993172e-01,0.000000000000000000e+00
7.420000000000000000e+02,4.401969570289163136e-01,0.000000000000000000e+00
7.430000000000000000e+02,-3.293546804612544343e-01,0.000000000000000000e+00
7.440000000000000000e+02,-1.115645891131408884e+00,0.000000000000000000e+00
7.450000000000000000e+02,-1.470460612541932166e+00,0.000000000000000000e+00
7.460000000000000000e+02,-1.776802043799301734e+00,0.000000000000000000e+00
7.470000000000000000e+02,-1.631193053575383578e+00,0.000000000000000000e+00
7.480000000000000000e+02,-1.531388909834926038e+00,0.000000000000000000e+00
7.490000000000000000e+02,-1.354174133215186870e+00,0.000000000000000000e+00
7.500000000000000000e+02,-1.399582332274831753e+00,0.000000000000000000e+00
7.510000000000000000e+02,-1.215913153350867359e+00,0.000000000000000000e+00
7.520000000000000000e+02,-1.020776687764405333e+00,0.000000000000000000e+00
7.530000000000000000e+02,-1.033745911144062335e+00,0.000000000000000000e+00
7.540000000000000000e+02,-1.187388775950831921e+00,0.000000000000000000e+00
7.550000000000000000e+02,-1.106746861169782603e+00,0.000000000000000000e+00
7.560000000000000000e+02,-1.116514679244097863e+00,0.000000000000000000e+00
7.570000000000000000e+02,-1.062833779909104770e+00,0.000000000000000000e+00
7.580000000000000000e+02,-1.006058738610799308e+00,0.000000000000000000e+00
7.590000000000000000e+02,-1.080984389411534075e+00,0.000000000000000000e+00
7.600000000000000000e+02,-1.066342208836624117e+00,0.000000000000000000e+00
7.610000000000000000e+02,-6.460872222670112075e-01,0.000000000000000000e+00
7.620000000000000000e+02,-9.452649553123627646e-01,0.000000000000000000e+00
7.630000000000000000e+02,-6.963673568115333889e-01,0.000000000000000000e+00
7.640000000000000000e+02,-6.606158154218121359e-01,0.000000000000000000e+00
7.650000000000000000e+02,-4.684785686365625090e-01,0.000000000000000000e+00
7.660000000000000000e+02,-3.692495617009108333e-01,0.000000000000000000e+00
7.670000000000000000e+02,-3.561885500500123203e-01,0.000000000000000000e+00
7.680000000000000000e+02,-1.439240851394004428e-01,0.000000000000000000e+00
7.690000000000000000e+02,-3.867942459261846655e-01,0.000000000000000000e+00
7.700000000000000000e+02,-8.953941436416618105e-02,0.000000000000000000e+00
7.710000000000000000e+02,-6.529860901206642476e-02,0.000000000000000000e+00
7.720000000000000000e+02,1.338949641606943242e-01,0.000000000000000000e+00
7.730000000000000000e+02,1.695024705052760872e-01,0.000000000000000000e+00
7.740000000000000000e+02,3.779935014397443060e-01,0.000000000000000000e+00
7.750000000000000000e+02,4.185059877907551518e-01,0.000000000000000000e+00
7.760000000000000000e+02,-3.089904876102999021e-01,0.000000000000000000e+00
7.770000000000000000e+02,-5.051707913702634389e-01,0.000000000000000000e+00
7.780000000000000000e+02,-4.331119474926418134e-01,0.000000000000000000e+00
7.790000000000000000e+02,-2.364638658726295750e-01,0.000000000000000000e+00
7.800000000000000000e+02,-2.898370482242475926e-02,0.000000000000000000e+00
7.810000000000000000e+02,1.958377835473259720e+00,0.000000000000000000e+00
7.820000000000000000e+02,5.368096812729834966e+00,0.000000000000000000e+00
7.830000000000000000e+02,2.568845345318871987e-01,1.000000000000000000e+00
7.840000000000000000e+02,-1.055655600017794793e+00,0.000000000000000000e+00
7.850000000000000000e+02,-1.192693959843896812e+00,0.000000000000000000e+00
7.860000000000000000e+02,-9.566135661357243469e-01,0.000000000000000000e+00
7.870000000000000000e+02,-1.167204423408616742e+00,0.000000000000000000e+00
7.880000000000000000e+02,-8.785819143027425726e-01,0.000000000000000000e+00
7.890000000000000000e+02,-8.217189549886640965e-01,0.000000000000000000e+00
7.900000000000000000e+02,-6.495657674211068322e-01,0.000000000000000000e+00
7.910000000000000000e+02,-5.461834076143994299e-01,0.000000000000000000e+00
7.920000000000000000e+02,-2.529380233478692452e-01,0.000000000000000000e+00
7.930000000000000000e+02,-7.621040863631428630e-02,0.000000000000000000e+00
7.940000000000000000e+02,3.158743954602239445e-01,0.000000000000000000e+00
7.950000000000000000e+02,5.706650696101618347e-01,0.000000000000000000e+00
7.960000000000000000e+02,9.957695722382240433e-01,0.000000000000000000e+00
7.970000000000000000e+02,6.948312910167330214e-01,0.000000000000000000e+00
7.980000000000000000e+02,8.622295352062723239e-01,0.000000000000000000e+00
7.990000000000000000e+02,3.092601114819814589e-01,0.000000000000000000e+00
8.000000000000000000e+02,-3.797759337794766044e-01,0.000000000000000000e+00
8.010000000000000000e+02,-8.757022969301061499e-01,0.000000000000000000e+00
8.020000000000000000e+02,-8.595484013126853950e-01,0.000000000000000000e+00
8.030000000000000000e+02,-8.849658530169901560e-01,0.000000000000000000e+00
8.040000000000000000e+02,-7.509600975568803127e-01,0.000000000000000000e+00
8.050000000000000000e+02,-4.936654776270513190e-01,0.000000000000000000e+00
8.060000000000000000e+02,-3.998317621015292089e-01,0.000000000000000000e+00
8.070000000000000000e+02,-4.814831542045676649e-01,0.000000000000000000e+00
8.080000000000000000e+02,-4.929653548656715706e-02,0.000000000000000000e+00
8.090000000000000000e+02,-1.653791496882651424e-01,0.000000000000000000e+00
8.100000000000000000e+02,1.057511870945168353e-01,0.000000000000000000e+00
8.110000000000000000e+02,-3.047716322345999512e-02,0.000000000000000000e+00
8.120000000000000000e+02,-9.751818360584170453e-02,0.000000000000000000e+00
8.130000000000000000e+02,-1.951956082430504058e-01,0.000000000000000000e+00
8.140000000000000000e+02,4.739970322465605033e-03,0.000000000000000000e+00
8.150000000000000000e+02,-6.118965892201655432e-02,0.000000000000000000e+00
8.160000000000000000e+02,1.439047424243302953e-01,0.000000000000000000e+00
8.170000000000000000e+02,1.778780954285732021e-03,0.000000000000000000e+00
8.180000000000000000e+02,2.739222361646983031e-02,0.000000000000000000e+00
8.190000000000000000e+02,-3.375583131902503819e-03,0.000000000000000000e+00
8.200000000000000000e+02,2.002723324015651674e-01,0.000000000000000000e+00
8.210000000000000000e+02,2.164696660019501950e-01,0.000000000000000000e+00
8.220000000000000000e+02,2.695625990051333520e-01,0.000000000000000000e+00
8.230000000000000000e+02,2.860430239988568935e-01,0.000000000000000000e+00
8.240000000000000000e+02,3.838495563670650812e-01,0.000000000000000000e+00
8.250000000000000000e+02,1.865658956162524473e-01,0.000000000000000000e+00
8.260000000000000000e+02,2.490145933862317196e-01,0.000000000000000000e+00
8.270000000000000000e+02,3.378492464731401856e-01,0.000000000000000000e+00
8.280000000000000000e+02,3.582796870492253594e-01,0.000000000000000000e+00
8.290000000000000000e+02,2.722964599549934084e-01,0.000000000000000000e+00
8.300000000000000000e+02,6.211247217791298070e-01,0.000000000000000000e+00
8.310000000000000000e+02,8.343675115233616379e-01,0.000000000000000000e+00
8.320000000000000000e+02,3.349150795406842795e-01,0.000000000000000000e+00
8.330000000000000000e+02,-1.706256606356585104e-01,0.000000000000000000e+00
8.340000000000000000e+02,8.602714428503097088e-02,0.000000000000000000e+00
8.350000000000000000e+02,1.083041962812976433e-01,0.000000000000000000e+00
8.360000000000000000e+02,2.885118193619622962e-01,0.000000000000000000e+00
8.370000000000000000e+02,9.274057944187800162e-01,0.000000000000000000e+00
8.380000000000000000e+02,5.647624945650272288e+00,0.000000000000000000e+00
8.390000000000000000e+02,2.613806812426039183e+00,1.000000000000000000e+00
8.400000000000000000e+02,-1.013570258584689077e+00,0.000000000000000000e+00
8.410000000000000000e+02,-5.997913888098902468e-01,0.000000000000000000e+00
8.420000000000000000e+02,-9.998466559104665086e-01,0.000000000000000000e+00
8.430000000000000000e+02,-5.934663983783862173e-01,0.000000000000000000e+00
8.440000000000000000e+02,-7.416312612973027241e-01,0.000000000000000000e+00
8.450000000000000000e+02,-6.300264528394599051e-01,0.000000000000000000e+00
8.460000000000000000e+02,-4.339999460202244586e-01,0.000000000000000000e+00
8.470000000000000000e+02,-3.327378661535737026e-01,0.000000000000000000e+00
8.480000000000000000e+02,-2.263019842660040082e-01,0.000000000000000000e+00
8.490000000000000000e+02,9.630746928461493550e-02,0.000000000000000000e+00
8.500000000000000000e+02,3.471138064396962486e-01,0.000000000000000000e+00
8.510000000000000000e+02,6.996483022214490255e-01,0.000000000000000000e+00
8.520000000000000000e+02,1.103648703280123211e+00,0.000000000000000000e+00
8.530000000000000000e+02,1.207970692918596045e+00,0.000000000000000000e+00
8.540000000000000000e+02,1.003083769252971491e+00,0.000000000000000000e+00
8.550000000000000000e+02,6.450968919810915470e-01,0.000000000000000000e+00
8.560000000000000000e+02,-2.991455361240306643e-01,0.000000000000000000e+00
8.570000000000000000e+02,-5.017885059911849632e-01,0.000000000000000000e+00
8.580000000000000000e+02,-9.512986467050060790e-01,0.000000000000000000e+00
8.590000000000000000e+02,-9.885256794237349265e-01,0.000000000000000000e+00
8.600000000000000000e+02,-9.951827647916904329e-01,0.000000000000000000e+00
8.610000000000000000e+02,-9.366356952610067621e-01,0.000000000000000000e+00
8.620000000000000000e+02,-7.173483478428968052e-01,0.000000000000000000e+00
8.630000000000000000e+02,-5.389740397456315169e-01,0.000000000000000000e+00
8.640000000000000000e+02,-5.854942780435993255e-01,0.000000000000000000e+00
8.650000000000000000e+02,-3.330425283842912698e-01,0.000000000000000000e+00
8.660000000000000000e+02,-5.182478481759387190e-01,0.000000000000000000e+00
8.670000000000000000e+02,-4.728270757301720750e-01,0.000000000000000000e+00
8.680000000000000000e+02,-3.895828332769936675e-01,0.000000000000000000e+00
8.690000000000000000e+02,-5.195009072477896339e-01,0.000000000000000000e+00
8.700000000000000000e+02,-4.484740583050187968e-01,0.000000000000000000e+00
8.710000000000000000e+02,-4.883707218602338918e-01,0.000000000000000000e+00
8.720000000000000000e+02,-3.584564471002190111e-01,0.000000000000000000e+00
8.730000000000000000e+02,-3.570252750231201477e-01,0.000000000000000000e+00
8.740000000000000000e+02,-4.012516789531062056e-01,0.000000000000000000e+00
8.750000000000000000e+02,-3.016371988914406943e-01,0.000000000000000000e+00
8.760000000000000000e+02,-3.760792684626203253e-02,0.000000000000000000e+00
8.770000000000000000e+02,-3.773360345951957268e-02,0.000000000000000000e+00
8.780000000000000000e+02,-9.800384261095922145e-02,0.000000000000000000e+00
8.790000000000000000e+02,-2.444409998229641889e-01,0.000000000000000000e+00
8.800000000000000000e+02,1.403594619602715338e-02,0.000000000000000000e+00
8.810000000000000000e+02,9.492120860914929348e-02,0.000000000000000000e+00
8.820000000000000000e+02,1.207352691350573742e-01,0.000000000000000000e+00
8.830000000000000000e+02,-1.091947854802938350e-01,0.000000000000000000e+00
8.840000000000000000e+02,1.550425482477491845e-01,0.000000000000000000e+00
8.850000000000000000e+02,8.867612622020586144e-02,0.000000000000000000e+00
8.860000000000000000e+02,4.882487985613212511e-01,0.000000000000000000e+00
8.870000000000000000e+02,5.227260412518925925e-01,0.000000000000000000e+00
8.880000000000000000e+02,1.947558296787976762e-01,0.000000000000000000e+00
8.890000000000000000e+02,-3.804808522374426571e-01,0.000000000000000000e+00
8.900000000000000000e+02,-1.632341854216680377e-01,0.000000000000000000e+00
8.910000000000000000e+02,-2.003972209714479924e-01,0.000000000000000000e+00
8.920000000000000000e+02,9.655850739911828184e-02,0.000000000000000000e+00
8.930000000000000000e+02,5.900289277515301523e-01,0.000000000000000000e+00
8.940000000000000000e+02,4.585815370801671342e+00,0.000000000000000000e+00
8.950000000000000000e+02,1.727434123372580510e+00,1.000000000000000000e+00
8.960000000000000000e+02,-1.254995718798764814e+00,0.000000000000000000e+00
8.970000000000000000e+02,-5.104079664695490015e-01,0.000000000000000000e+00
8.980000000000000000e+02,-8.937589547068657270e-01,0.000000000000000000e+00
8.990000000000000000e+02,-2.748967929666302212e-01,0.000000000000000000e+00
9.000000000000000000e+02,-5.339951671822199541e-01,0.000000000000000000e+00
9.010000000000000000e+02,-3.138384822880022629e-01,0.000000000000000000e+00
9.020000000000000000e+02,-3.462311970911781667e-01,0.000000000000000000e+00
9.030000000000000000e+02,-5.245483365776824197e-02,0.000000000000000000e+00
9.040000000000000000e+02,2.111203540583855287e-01,0.000000000000000000e+00
9.050000000000000000e+02,3.795725245612300847e-01,0.000000000000000000e+00
9.060000000000000000e+02,3.658286317793096321e-01,0.000000000000000000e+00
9.070000000000000000e+02,1.174317561538647414e+00,0.000000000000000000e+00
9.080000000000000000e+02,1.221596054466149939e+00,0.000000000000000000e+00
9.090000000000000000e+02,1.441495388145391132e+00,0.000000000000000000e+00
9.100000000000000000e+02,1.133045144690852712e+00,0.000000000000000000e+00
9.110000000000000000e+02,7.357916479965529444e-01,0.000000000000000000e+00
9.120000000000000000e+02,8.436451289169538681e-02,0.000000000000000000e+00
9.130000000000000000e+02,-4.570790528760656501e-01,0.000000000000000000e+00
9.140000000000000000e+02,-9.462583071206972507e-01,0.000000000000000000e+00
9.150000000000000000e+02,-9.695250394726652177e-01,0.000000000000000000e+00
9.160000000000000000e+02,-8.025955843296470604e-01,0.000000000000000000e+00
9.170000000000000000e+02,-7.024397813991900552e-01,0.000000000000000000e+00
9.180000000000000000e+02,-5.359309337173587817e-01,0.000000000000000000e+00
9.190000000000000000e+02,-4.314011442661536688e-01,0.000000000000000000e+00
9.200000000000000000e+02,-5.699032184894314845e-01,0.000000000000000000e+00
9.210000000000000000e+02,-1.802075948634265790e-01,0.000000000000000000e+00
9.220000000000000000e+02,-2.896710358237765681e-01,0.000000000000000000e+00
9.230000000000000000e+02,-1.945596122621874868e-01,0.000000000000000000e+00
9.240000000000000000e+02,-3.991636618091740640e-01,0.000000000000000000e+00
9.250000000000000000e+02,-2.994545931320670151e-01,0.000000000000000000e+00
9.260000000000000000e+02,-2.846571983423874519e-01,0.000000000000000000e+00
9.270000000000000000e+02,-2.453242204016758965e-01,0.000000000000000000e+00
9.280000000000000000e+02,-3.351300175877704457e-01,0.000000000000000000e+00
9.290000000000000000e+02,-2.875919785781080179e-02,0.000000000000000000e+00
9.300000000000000000e+02,-2.774681725286213818e-01,0.000000000000000000e+00
9.310000000000000000e+02,-8.792851382470959209e-02,0.000000000000000000e+00
9.320000000000000000e+02,-2.583037299839786027e-01,0.000000000000000000e+00
9.330000000000000000e+02,-5.608585661613079559e-02,0.000000000000000000e+00
9.340000000000000000e+02,-9.407289388656109308e-02,0.000000000000000000e+00
9.350000000000000000e+02,2.091065885280244396e-01,0.000000000000000000e+00
9.360000000000000000e+02,-3.399839224574763286e-02,0.000000000000000000e+00
9.370000000000000000e+02,-3.242849348773401124e-03,0.000000000000000000e+00
9.380000000000000000e+02,1.615471604690378871e-01,0.000000000000000000e+00
9.390000000000000000e+02,1.089875212138481930e-01,0.000000000000000000e+00
9.400000000000000000e+02,8.608462985527617906e-02,0.000000000000000000e+00
9.410000000000000000e+02,5.159885644204120769e-01,0.000000000000000000e+00
9.420000000000000000e+02,6.295125989952097267e-01,0.000000000000000000e+00
9.430000000000000000e+02,6.841018498163130568e-01,0.000000000000000000e+00
9.440000000000000000e+02,-4.331590841884725984e-01,0.000000000000000000e+00
9.450000000000000000e+02,-1.388222193620793077e-01,0.000000000000000000e+00
9.460000000000000000e+02,-4.518489148524482135e-01,0.000000000000000000e+00
9.470000000000000000e+02,4.237785927502955158e-02,0.000000000000000000e+00
9.480000000000000000e+02,-4.712464269174923004e-01,0.000000000000000000e+00
9.490000000000000000e+02,2.745436392994528685e+00,0.000000000000000000e+00
9.500000000000000000e+02,4.843900747210999391e+00,0.000000000000000000e+00
9.510000000000000000e+02,-4.494510807060281277e-01,1.000000000000000000e+00
9.520000000000000000e+02,-9.247772443314370427e-01,0.000000000000000000e+00
9.530000000000000000e+02,-1.228695321031512133e+00,0.000000000000000000e+00
9.540000000000000000e+02,-8.628949768310784085e-01,0.000000000000000000e+00
9.550000000000000000e+02,-1.033956091699671065e+00,0.000000000000000000e+00
9.560000000000000000e+02,-7.321327969175903672e-01,0.000000000000000000e+00
9.570000000000000000e+02,-5.739884700512675186e-01,0.000000000000000000e+00
9.580000000000000000e+02,-4.852830034444615137e-01,0.000000000000000000e+00
9.590000000000000000e+02,-3.769986428625741737e-01,0.000000000000000000e+00
9.600000000000000000e+02,-2.352322264950830744e-01,0.000000000000000000e+00
9.610000000000000000e+02,1.992794864832450052e-01,0.000000000000000000e+00
9.620000000000000000e+02,2.683859035670478899e-01,0.000000000000000000e+00
9.630000000000000000e+02,9.565746950800514403e-01,0.000000000000000000e+00
9.640000000000000000e+02,1.057020341726424784e+00,0.000000000000000000e+00
9.650000000000000000e+02,1.115055815946599971e+00,0.000000000000000000e+00
9.660000000000000000e+02,7.965392341993138281e-01,0.000000000000000000e+00
9.670000000000000000e+02,4.585124141456964342e-02,0.000000000000000000e+00
9.680000000000000000e+02,-6.173404609883901273e-01,0.000000000000000000e+00
9.690000000000000000e+02,-6.643118371092300301e-01,0.000000000000000000e+00
9.700000000000000000e+02,-1.068958908228407445e+00,0.000000000000000000e+00
9.710000000000000000e+02,-8.454770968204367021e-01,0.000000000000000000e+00
9.720000000000000000e+02,-8.055520328058780599e-01,0.000000000000000000e+00
9.730000000000000000e+02,-5.943496195667579141e-01,0.000000000000000000e+00
9.740000000000000000e+02,-3.767586276844487325e-01,0.000000000000000000e+00
9.750000000000000000e+02,-4.861656103198587764e-01,0.000000000000000000e+00
9.760000000000000000e+02,-4.238805814861180687e-01,0.000000000000000000e+00
9.770000000000000000e+02,-4.251946530204912533e-01,0.000000000000000000e+00
9.780000000000000000e+02,-3.007870969096974600e-01,0.000000000000000000e+00
9.790000000000000000e+02,-1.206211516646029103e-01,0.000000000000000000e+00
9.800000000000000000e+02,-1.962493074684629746e-01,0.000000000000000000e+00
9.810000000000000000e+02,-2.869001748177453792e-01,0.000000000000000000e+00
9.820000000000000000e+02,-3.112116529695033718e-01,0.000000000000000000e+00
9.830000000000000000e+02,-1.446649832279454650e-01,0.000000000000000000e+00
9.840000000000000000e+02,-2.337616814468307380e-01,0.000000000000000000e+00
9.850000000000000000e+02,-3.408980058616854492e-01,0.000000000000000000e+00
9.860000000000000000e+02,-3.332143008303534160e-01,0.000000000000000000e+00
9.870000000000000000e+02,-1.178461300773613885e-01,0.000000000000000000e+00
9.880000000000000000e+02,-2.575158266077272051e-01,0.000000000000000000e+00
9.890000000000000000e+02,-2.227123354997726512e-01,0.000000000000000000e+00
9.900000000000000000e+02,-1.806628459718909174e-01,0.000000000000000000e+00
9.910000000000000000e+02,4.155943184419329944e-02,0.000000000000000000e+00
9.920000000000000000e+02,-1.447886443630794218e-01,0.000000000000000000e+00
9.930000000000000000e+02,2.452523667846298605e-01,0.000000000000000000e+00
9.940000000000000000e+02,-1.989168114509920204e-01,0.000000000000000000e+00
9.950000000000000000e+02,4.748267430611367024e-01,0.000000000000000000e+00
9.960000000000000000e+02,4.747786986315272878e-02,0.000000000000000000e+00
9.970000000000000000e+02,5.583286871215061842e-01,0.000000000000000000e+00
9.980000000000000000e+02,8.794252610431441131e-01,0.000000000000000000e+00
9.990000000000000000e+02,2.203351666097772346e-02,0.000000000000000000e+00
1.000000000000000000e+03,-4.191030114107659466e-01,0.000000000000000000e+00
1.001000000000000000e+03,-2.263129857432116809e-01,0.000000000000000000e+00
1.002000000000000000e+03,-2.156827935070013691e-01,0.000000000000000000e+00
1.003000000000000000e+03,2.502366167762923310e-01,0.000000000000000000e+00
1.004000000000000000e+03,6.178452710046039575e-01,0.000000000000000000e+00
1.005000000000000000e+03,5.493399457079646275e+00,0.000000000000000000e+00
1.006000000000000000e+03,2.572830840838780553e+00,1.000000000000000000e+00
1.007000000000000000e+03,-1.131403004092705666e+00,0.000000000000000000e+00
1.008000000000000000e+03,-6.861114132471207716e-01,0.000000000000000000e+00
1.009000000000000000e+03,-1.255043640369575497e+00,0.000000000000000000e+00
1.010000000000000000e+03,-8.168763457884221646e-01,0.000000000000000000e+00
1.011000000000000000e+03,-8.715479847655146495e-01,0.000000000000000000e+00
1.012000000000000000e+03,-4.208776232765451542e-01,0.000000000000000000e+00
1.013000000000000000e+03,-5.545107320961450981e-01,0.000000000000000000e+00
1.014000000000000000e+03,-1.769238777325903011e-01,0.000000000000000000e+00
1.015000000000000000e+03,-1.360155757662933063e-01,0.000000000000000000e+00
1.016000000000000000e+03,2.035087476115425287e-01,0.000000000000000000e+00
1.017000000000000000e+03,6.081537576491665709e-01,0.000000000000000000e+00
1.018000000000000000e+03,8.618538752318092300e-01,0.000000000000000000e+00
1.019000000000000000e+03,1.222373560108447332e+00,0.000000000000000000e+00
1.020000000000000000e+03,1.249397660245900710e+00,0.000000000000000000e+00
1.021000000000000000e+03,1.190336202340607219e+00,0.000000000000000000e+00
1.022000000000000000e+03,8.802407555507577586e-01,0.000000000000000000e+00
1.023000000000000000e+03,1.829640554874704672e-01,0.000000000000000000e+00
1.024000000000000000e+03,-4.765944272505673873e-01,0.000000000000000000e+00
1.025000000000000000e+03,-6.914376757156702746e-01,0.000000000000000000e+00
1.026000000000000000e+03,-6.299132620016122397e-01,0.000000000000000000e+00
1.027000000000000000e+03,-7.343377786995038958e-01,0.000000000000000000e+00
1.028000000000000000e+03,-4.453309892323618069e-01,0.000000000000000000e+00
1.029000000000000000e+03,-3.287539008938827334e-01,0.000000000000000000e+00
1.030000000000000000e+03,-2.293206644188582610e-01,0.000000000000000000e+00
1.031000000000000000e+03,-1.161996054509607246e-01,0.000000000000000000e+00
1.032000000000000000e+03,-1.043226209893513418e-01,0.000000000000000000e+00
1.033000000000000000e+03,-1.814984553935886924e-01,0.000000000000000000e+00
1.034000000000000000e+03,-4.384493138740718637e-02,0.000000000000000000e+00
1.035000000000000000e+03,-1.815496169428452433e-01,0.000000000000000000e+00
1.036000000000000000e+03,-1.187378181380265157e-01,0.000000000000000000e+00
1.037000000000000000e+03,-1.886030972507717063e-01,0.000000000000000000e+00
1.038000000000000000e+03,-1.315695071802644167e-01,0.000000000000000000e+00
1.039000000000000000e+03,-1.428983356957454487e-01,0.000000000000000000e+00
1.040000000000000000e+03,-1.436677913529234296e-01,0.000000000000000000e+00
1.041000000000000000e+03,-4.976271998506922450e-02,0.000000000000000000e+00
1.042000000000000000e+03,-7.429729038136009822e-02,0.000000000000000000e+00
1.043000000000000000e+03,-6.108896807024587206e-02,0.000000000000000000e+00
1.044000000000000000e+03,-6.430490054820985069e-02,0.000000000000000000e+00
1.045000000000000000e+03,-1.612328909939398924e-01,0.000000000000000000e+00
1.046000000000000000e+03,6.265796600907475034e-02,0.000000000000000000e+00
1.047000000000000000e+03,-7.403327239702308694e-03,0.000000000000000000e+00
1.048000000000000000e+03,1.935334048402242713e-01,0.000000000000000000e+00
1.049000000000000000e+03,-2.105517121174691614e-02,0.000000000000000000e+00
1.050000000000000000e+03,-3.153074720669447883e-02,0.000000000000000000e+00
1.051000000000000000e+03,3.530669128774727716e-01,0.000000000000000000e+00
1.052000000000000000e+03,2.295674723544483264e-01,0.000000000000000000e+00
1.053000000000000000e+03,4.928436177209330471e-01,0.000000000000000000e+00
1.054000000000000000e+03,8.195292412440079444e-01,0.000000000000000000e+00
1.055000000000000000e+03,2.278585355022619829e-01,0.000000000000000000e+00
1.056000000000000000e+03,-4.226816736526581297e-01,0.000000000000000000e+00
1.057000000000000000e+03,-1.807160173341898490e-01,0.000000000000000000e+00
1.058000000000000000e+03,-3.812430947955551819e-01,0.000000000000000000e+00
1.059000000000000000e+03,1.566250100953782143e-01,0.000000000000000000e+00
1.060000000000000000e+03,3.872785200975032982e-01,0.000000000000000000e+00
1.061000000000000000e+03,5.262407119013007950e+00,0.000000000000000000e+00
1.062000000000000000e+03,2.390237790189554179e+00,1.000000000000000000e+00
1.063000000000000000e+03,-1.259802691207276171e+00,0.000000000000000000e+00
1.064000000000000000e+03,-9.584672519498548260e-01,0.000000000000000000e+00
1.065000000000000000e+03,-1.329519666590448290e+00,0.000000000000000000e+00
1.066000000000000000e+03,-9.151475912747953911e-01,0.000000000000000000e+00
1.067000000000000000e+03,-8.131037673577306002e-01,0.000000000000000000e+00
1.068000000000000000e+03,-9.502551662219191897e-01,0.000000000000000000e+00
1.069000000000000000e+03,-9.088136385665305239e-01,0.000000000000000000e+00
1.070000000000000000e+03,-4.405805019066616479e-01,0.000000000000000000e+00
1.071000000000000000e+03,-5.045619565426761044e-01,0.000000000000000000e+00
1.072000000000000000e+03,3.565843377900092259e-02,0.000000000000000000e+00
1.073000000000000000e+03,-6.325313758621493865e-02,0.000000000000000000e+00
1.074000000000000000e+03,6.172137569553730607e-01,0.000000000000000000e+00
1.075000000000000000e+03,8.182594817598424219e-01,0.000000000000000000e+00
1.076000000000000000e+03,1.024045513931249873e+00,0.000000000000000000e+00
1.077000000000000000e+03,7.120860150428706126e-01,0.000000000000000000e+00
1.078000000000000000e+03,3.870919915669583933e-01,0.000000000000000000e+00
1.079000000000000000e+03,-3.833430354789027494e-01,0.000000000000000000e+00
1.080000000000000000e+03,-8.854308340751614326e-01,0.000000000000000000e+00
1.081000000000000000e+03,-1.231741393425872078e+00,0.000000000000000000e+00
1.082000000000000000e+03,-1.205388762179664397e+00,0.000000000000000000e+00
1.083000000000000000e+03,-1.180488915751755741e+00,0.000000000000000000e+00
1.084000000000000000e+03,-9.584112085464060460e-01,0.000000000000000000e+00
1.085000000000000000e+03,-7.333366939569164744e-01,0.000000000000000000e+00
1.086000000000000000e+03,-5.667407877847137065e-01,0.000000000000000000e+00
1.087000000000000000e+03,-3.886058738289735470e-01,0.000000000000000000e+00
1.088000000000000000e+03,-4.235935675260504296e-01,0.000000000000000000e+00
1.089000000000000000e+03,-5.339557029288319878e-01,0.000000000000000000e+00
1.090000000000000000e+03,-4.529196045667778781e-01,0.000000000000000000e+00
1.091000000000000000e+03,-5.314450137999010559e-01,0.000000000000000000e+00
1.092000000000000000e+03,-3.447604026682045131e-01,0.000000000000000000e+00
1.093000000000000000e+03,-5.028961045144447750e-01,0.000000000000000000e+00
1.094000000000000000e+03,-4.275390394429708363e-01,0.000000000000000000e+00
1.095000000000000000e+03,-3.393309830258279813e-01,0.000000000000000000e+00
1.096000000000000000e+03,-2.974103672586342340e-01,0.000000000000000000e+00
1.097000000000000000e+03,-2.642468274276614237e-01,0.000000000000000000e+00
1.098000000000000000e+03,-2.471050927156099100e-02,0.000000000000000000e+00
1.099000000000000000e+03,-1.063588525757744180e-01,0.000000000000000000e+00
1.100000000000000000e+03,-1.339548840303084742e-01,0.000000000000000000e+00
1.101000000000000000e+03,1.327817888646844746e-01,0.000000000000000000e+00
1.102000000000000000e+03,3.231761119745167610e-02,0.000000000000000000e+00
1.103000000000000000e+03,1.298205270865329664e-01,0.000000000000000000e+00
1.104000000000000000e+03,1.768490169492167585e-01,0.000000000000000000e+00
1.105000000000000000e+03,2.784626825739651701e-01,0.000000000000000000e+00
1.106000000000000000e+03,3.463975722355069897e-01,0.000000000000000000e+00
1.107000000000000000e+03,4.766393925195158698e-01,0.000000000000000000e+00
1.108000000000000000e+03,4.649191680326253406e-01,0.000000000000000000e+00
1.109000000000000000e+03,7.384973438184142536e-01,0.000000000000000000e+00
1.110000000000000000e+03,1.081771885272189371e+00,0.000000000000000000e+00
1.111000000000000000e+03,4.740009142166591860e-01,0.000000000000000000e+00
1.112000000000000000e+03,-2.545116738036879572e-02,0.000000000000000000e+00
1.113000000000000000e+03,3.240042345224108944e-01,0.000000000000000000e+00
1.114000000000000000e+03,-1.414621925710460582e-01,0.000000000000000000e+00
1.115000000000000000e+03,6.394885563879976198e-01,0.000000000000000000e+00
1.116000000000000000e+03,5.495321032453872601e-01,0.000000000000000000e+00
1.117000000000000000e+03,4.647561130484530345e+00,0.000000000000000000e+00
1.118000000000000000e+03,1.740144207089502570e+00,1.000000000000000000e+00
1.119000000000000000e+03,-9.427438224488354779e-01,0.000000000000000000e+00
1.120000000000000000e+03,-3.440460252213887182e-01,0.000000000000000000e+00
1.121000000000000000e+03,-5.874264838270246702e-01,0.000000000000000000e+00
1.122000000000000000e+03,-3.555675924659790765e-01,0.000000000000000000e+00
1.123000000000000000e+03,-3.332810197136535368e-01,0.000000000000000000e+00
1.124000000000000000e+03,-1.569271575267848495e-01,0.000000000000000000e+00
1.125000000000000000e+03,-6.937865271797290234e-02,0.000000000000000000e+00
1.126000000000000000e+03,1.968551672556964338e-01,0.000000000000000000e+00
1.127000000000000000e+03,9.775654571305125717e-02,0.000000000000000000e+00
1.128000000000000000e+03,4.445576160721604886e-01,0.000000000000000000e+00
1.129000000000000000e+03,6.225818246072817308e-01,0.000000000000000000e+00
1.130000000000000000e+03,9.320586273979988290e-01,0.000000000000000000e+00
1.131000000000000000e+03,1.274235344840472406e+00,0.000000000000000000e+00
1.132000000000000000e+03,1.276038426894614775e+00,0.000000000000000000e+00
1.133000000000000000e+03,1.097297425081594557e+00,0.000000000000000000e+00
1.134000000000000000e+03,6.631148620852085340e-01,0.000000000000000000e+00
1.135000000000000000e+03,-2.010067530413278680e-01,0.000000000000000000e+00
1.136000000000000000e+03,-6.224680136747283710e-01,0.000000000000000000e+00
1.137000000000000000e+03,-1.126861288114717086e+00,0.000000000000000000e+00
1.138000000000000000e+03,-9.979380287454313603e-01,0.000000000000000000e+00
1.139000000000000000e+03,-1.203723337096649137e+00,0.000000000000000000e+00
1.140000000000000000e+03,-8.778327716376721490e-01,0.000000000000000000e+00
1.141000000000000000e+03,-8.216625805622799206e-01,0.000000000000000000e+00
1.142000000000000000e+03,-6.964073534498638196e-01,0.000000000000000000e+00
1.143000000000000000e+03,-5.482933593055243637e-01,0.000000000000000000e+00
1.144000000000000000e+03,-3.432015686552334355e-01,0.000000000000000000e+00
1.145000000000000000e+03,-4.533039599099851769e-01,0.000000000000000000e+00
1.146000000000000000e+03,-2.504785132763927002e-01,0.000000000000000000e+00
1.147000000000000000e+03,-5.519349540862046322e-01,0.000000000000000000e+00
1.148000000000000000e+03,-4.629833309821082543e-01,0.000000000000000000e+00
1.149000000000000000e+03,-4.637594050007648461e-01,0.000000000000000000e+00
1.150000000000000000e+03,-2.629877606056699735e-01,0.000000000000000000e+00
1.151000000000000000e+03,-5.019497916957672556e-01,0.000000000000000000e+00
1.152000000000000000e+03,-3.620742299587165203e-01,0.000000000000000000e+00
1.153000000000000000e+03,-3.114063112071794315e-01,0.000000000000000000e+00
1.154000000000000000e+03,-3.419484554148251587e-01,0.000000000000000000e+00
1.155000000000000000e+03,-2.372748905096383476e-01,0.000000000000000000e+00
1.156000000000000000e+03,-8.347412203349778570e-02,0.000000000000000000e+00
1.157000000000000000e+03,-8.862498528363296768e-02,0.000000000000000000e+00
1.158000000000000000e+03,-4.963641822264518860e-02,0.000000000000000000e+00
1.159000000000000000e+03,-1.424044049179070126e-01,0.000000000000000000e+00
1.160000000000000000e+03,7.163735290608334860e-02,0.000000000000000000e+00
1.161000000000000000e+03,-1.144926754432580018e-01,0.000000000000000000e+00
1.162000000000000000e+03,1.740196499948186426e-01,0.000000000000000000e+00
1.163000000000000000e+03,4.968574391402348633e-02,0.000000000000000000e+00
1.164000000000000000e+03,1.867910796963180575e-01,0.000000000000000000e+00
1.165000000000000000e+03,7.208316622163607468e-01,0.000000000000000000e+00
1.166000000000000000e+03,5.905189681823027614e-01,0.000000000000000000e+00
1.167000000000000000e+03,-2.820631246588004570e-01,0.000000000000000000e+00
1.168000000000000000e+03,-2.929630681391826585e-01,0.000000000000000000e+00
1.169000000000000000e+03,-4.381217102650151740e-01,0.000000000000000000e+00
1.170000000000000000e+03,-1.323902311053667680e-01,0.000000000000000000e+00
1.171000000000000000e+03,-5.854698670521313320e-02,0.000000000000000000e+00
1.172000000000000000e+03,2.061521192303084948e+00,0.000000000000000000e+00
1.173000000000000000e+03,5.258801549388156360e+00,0.000000000000000000e+00
1.174000000000000000e+03,2.325758747224975498e-01,1.000000000000000000e+00
1.175000000000000000e+03,-1.125528946370307981e+00,0.000000000000000000e+00
1.176000000000000000e+03,-8.029240021453161180e-01,0.000000000000000000e+00
1.177000000000000000e+03,-1.050464966791611277e+00,0.000000000000000000e+00
1.178000000000000000e+03,-6.615256711922584687e-01,0.000000000000000000e+00
1.179000000000000000e+03,-6.152011698123438510e-01,0.000000000000000000e+00
1.180000000000000000e+03,-5.543918825406476403e-01,0.000000000000000000e+00
1.181000000000000000e+03,-5.050262349793140926e-01,0.000000000000000000e+00
1.182000000000000000e+03,-2.705357109330800980e-01,0.000000000000000000e+00
1.183000000000000000e+03,-1.967217500207155412e-01,0.000000000000000000e+00
1.184000000000000000e+03,1.686220712799388899e-01,0.000000000000000000e+00
1.185000000000000000e+03,3.719603650611598145e-01,0.000000000000000000e+00
1.186000000000000000e+03,1.050657931246655963e+00,0.000000000000000000e+00
1.187000000000000000e+03,1.136300171801892800e+00,0.000000000000000000e+00
1.188000000000000000e+03,1.114662591953968329e+00,0.000000000000000000e+00
1.189000000000000000e+03,8.548075310960099316e-01,0.000000000000000000e+00
1.190000000000000000e+03,3.293712713457251917e-01,0.000000000000000000e+00
1.191000000000000000e+03,-5.020888686210117635e-01,0.000000000000000000e+00
1.192000000000000000e+03,-7.635864232164696341e-01,0.000000000000000000e+00
1.193000000000000000e+03,-9.377348171265309507e-01,0.000000000000000000e+00
1.194000000000000000e+03,-8.970723670076489187e-01,0.000000000000000000e+00
1.195000000000000000e+03,-9.252199457566351315e-01,0.000000000000000000e+00
1.196000000000000000e+03,-8.434494673534735920e-01,0.000000000000000000e+00
1.197000000000000000e+03,-3.886387775352849183e-01,0.000000000000000000e+00
1.198000000000000000e+03,-3.121561009745328907e-01,0.000000000000000000e+00
1.199000000000000000e+03,-2.479120583975853165e-01,0.000000000000000000e+00
1.200000000000000000e+03,-1.125410834257906528e-01,0.000000000000000000e+00
1.201000000000000000e+03,4.573026155702886175e-02,0.000000000000000000e+00
1.202000000000000000e+03,-1.985016078098175360e-02,0.000000000000000000e+00
1.203000000000000000e+03,-1.257138075932004717e-01,0.000000000000000000e+00
1.204000000000000000e+03,-1.252437165205275427e-01,0.000000000000000000e+00
1.205000000000000000e+03,-1.442883178358402019e-01,0.000000000000000000e+00
1.206000000000000000e+03,-1.215704239622050348e-01,0.000000000000000000e+00
1.207000000000000000e+03,-2.940728841513743363e-01,0.000000000000000000e+00
1.208000000000000000e+03,-7.735775556302622313e-02,0.000000000000000000e+00
1.209000000000000000e+03,-1.147595976867780837e-01,0.000000000000000000e+00
1.210000000000000000e+03,-1.439613140121842327e-01,0.000000000000000000e+00
1.211000000000000000e+03,-3.156878074924179267e-01,0.000000000000000000e+00
1.212000000000000000e+03,1.410604288902920778e-01,0.000000000000000000e+00
1.213000000000000000e+03,7.582593648396394881e-02,0.000000000000000000e+00
1.214000000000000000e+03,2.880177890478058389e-01,0.000000000000000000e+00
1.215000000000000000e+03,-7.465800293346937233e-02,0.000000000000000000e+00
1.216000000000000000e+03,2.251817423551515443e-02,0.000000000000000000e+00
1.217000000000000000e+03,3.228825317497964198e-01,0.000000000000000000e+00
1.218000000000000000e+03,2.085932839423493834e-01,0.000000000000000000e+00
1.219000000000000000e+03,2.829840593104893109e-01,0.000000000000000000e+00
1.220000000000000000e+03,2.633279389848853791e-01,0.000000000000000000e+00
1.221000000000000000e+03,8.046181608227861437e-01,0.000000000000000000e+00
1.222000000000000000e+03,8.501740040917701302e-01,0.000000000000000000e+00
1.223000000000000000e+03,2.212046992205200235e-01,0.000000000000000000e+00
1.224000000000000000e+03,-2.452913652220637675e-01,0.000000000000000000e+00
1.225000000000000000e+03,-1.076342206468946378e-01,0.000000000000000000e+00
1.226000000000000000e+03,5.470766319313291604e-02,0.000000000000000000e+00
1.227000000000000000e+03,5.005032332346784395e-04,0.000000000000000000e+00
1.228000000000000000e+03,1.629749141800312939e+00,0.000000000000000000e+00
1.229000000000000000e+03,5.816312403004157083e+00,0.000000000000000000e+00
1.230000000000000000e+03,1.092626114818763261e+00,1.000000000000000000e+00
1.231000000000000000e+03,-1.250461435655798592e+00,0.000000000000000000e+00
1.232000000000000000e+03,-1.020396592929392998e+00,0.000000000000000000e+00
1.233000000000000000e+03,-1.313512949926305406e+00,0.000000000000000000e+00
1.234000000000000000e+03,-8.200219058868877253e-01,0.000000000000000000e+00
1.235000000000000000e+03,-6.193257052972304111e-01,0.000000000000000000e+00
1.236000000000000000e+03,-6.504002310739491755e-01,0.000000000000000000e+00
1.237000000000000000e+03,-5.517200121227349152e-01,0.000000000000000000e+00
1.238000000000000000e+03,-3.741125233368151615e-01,0.000000000000000000e+00
1.239000000000000000e+03,-3.169832940140548949e-01,0.000000000000000000e+00
1.240000000000000000e+03,1.726936623544248761e-01,0.000000000000000000e+00
1.241000000000000000e+03,2.215900687339592834e-01,0.000000000000000000e+00
1.242000000000000000e+03,8.325826030975318481e-01,0.000000000000000000e+00
1.243000000000000000e+03,1.002668690603751633e+00,0.000000000000000000e+00
1.244000000000000000e+03,1.067856849128159036e+00,0.000000000000000000e+00
1.245000000000000000e+03,8.169700904744926495e-01,0.000000000000000000e+00
1.246000000000000000e+03,3.179056293308628600e-01,0.000000000000000000e+00
1.247000000000000000e+03,-4.238973826690711211e-01,0.000000000000000000e+00
1.248000000000000000e+03,-7.434091299229569350e-01,0.000000000000000000e+00
1.249000000000000000e+03,-1.079604110776023695e+00,0.000000000000000000e+00
1.250000000000000000e+03,-9.024903822078564897e-01,0.000000000000000000e+00
1.251000000000000000e+03,-8.437977747050234845e-01,0.000000000000000000e+00
1.252000000000000000e+03,-6.270155590541159896e-01,0.000000000000000000e+00
1.253000000000000000e+03,-7.144819427198493278e-01,0.000000000000000000e+00
1.254000000000000000e+03,-5.050521190467036625e-01,0.000000000000000000e+00
1.255000000000000000e+03,-4.498906844595788046e-01,0.000000000000000000e+00
1.256000000000000000e+03,-2.090045183840771870e-01,0.000000000000000000e+00
1.257000000000000000e+03,-3.760938527660234176e-01,0.000000000000000000e+00
1.258000000000000000e+03,-3.446053561044494784e-01,0.000000000000000000e+00
1.259000000000000000e+03,-1.974862609320236495e-01,0.000000000000000000e+00
1.260000000000000000e+03,-2.036933622718212489e-01,0.000000000000000000e+00
1.261000000000000000e+03,-1.998552160670762357e-01,0.000000000000000000e+00
1.262000000000000000e+03,-1.158988423408616047e-01,0.000000000000000000e+00
1.263000000000000000e+03,-1.305416936824505686e-02,0.000000000000000000e+00
1.264000000000000000e+03,-1.737425951182403339e-01,0.000000000000000000e+00
1.265000000000000000e+03,-7.103130394922330115e-02,0.000000000000000000e+00
1.266000000000000000e+03,7.455341807622259398e-02,0.000000000000000000e+00
1.267000000000000000e+03,-2.965913285484783092e-03,0.000000000000000000e+00
1.268000000000000000e+03,4.604091447450994745e-02,0.000000000000000000e+00
1.269000000000000000e+03,-1.846857113532105465e-01,0.000000000000000000e+00
1.270000000000000000e+03,1.550339508090935181e-01,0.000000000000000000e+00
1.271000000000000000e+03,8.955316722468326107e-02,0.000000000000000000e+00
1.272000000000000000e+03,7.488989831438416095e-03,0.000000000000000000e+00
1.273000000000000000e+03,1.037714551795746176e-01,0.000000000000000000e+00
1.274000000000000000e+03,-6.631262457743700156e-02,0.000000000000000000e+00
1.275000000000000000e+03,6.266520801397622298e-02,0.000000000000000000e+00
1.276000000000000000e+03,-3.631935846805178086e-02,0.000000000000000000e+00
1.277000000000000000e+03,4.130783125139230599e-02,0.000000000000000000e+00
1.278000000000000000e+03,4.142228052661250937e-01,0.000000000000000000e+00
1.279000000000000000e+03,7.558223716780968493e-01,0.000000000000000000e+00
1.280000000000000000e+03,-1.870563757123049620e-01,0.000000000000000000e+00
1.281000000000000000e+03,-4.386068543204205694e-01,0.000000000000000000e+00
1.282000000000000000e+03,-3.897639917248730268e-01,0.000000000000000000e+00
1.283000000000000000e+03,-2.753616279832805103e-01,0.000000000000000000e+00
1.284000000000000000e+03,-2.084937402942926010e-01,0.000000000000000000e+00
1.285000000000000000e+03,1.470678418713931235e+00,0.000000000000000000e+00
1.286000000000000000e+03,5.082861679411649014e+00,0.000000000000000000e+00
1.287000000000000000e+03,1.746251719678036662e-01,1.000000000000000000e+00
1.288000000000000000e+03,-1.061079112236437805e+00,0.000000000000000000e+00
1.289000000000000000e+03,-1.153858732695883793e+00,0.000000000000000000e+00
1.290000000000000000e+03,-1.116780092977210481e+00,0.000000000000000000e+00
1.291000000000000000e+03,-9.054080367486823100e-01,0.000000000000000000e+00
1.292000000000000000e+03,-5.845227150283374140e-01,0.000000000000000000e+00
1.293000000000000000e+03,-5.669966179330016010e-01,0.000000000000000000e+00
1.294000000000000000e+03,-5.941722159547532245e-01,0.000000000000000000e+00
1.295000000000000000e+03,2.041737917275904604e-03,0.000000000000000000e+00
1.296000000000000000e+03,-1.168357554561425538e-01,0.000000000000000000e+00
1.297000000000000000e+03,3.884084772033998822e-01,0.000000000000000000e+00
1.298000000000000000e+03,4.675720107437040807e-01,0.000000000000000000e+00
1.299000000000000000e+03,9.521051799355316758e-01,0.000000000000000000e+00
1.300000000000000000e+03,1.367950261651742272e+00,0.000000000000000000e+00
1.301000000000000000e+03,1.449999754550154618e+00,0.000000000000000000e+00
1.302000000000000000e+03,1.135775597887473953e+00,0.000000000000000000e+00
1.303000000000000000e+03,4.568894364397496632e-01,0.000000000000000000e+00
1.304000000000000000e+03,-2.294150650907226252e-01,0.000000000000000000e+00
1.305000000000000000e+03,-6.096645175839886521e-01,0.000000000000000000e+00
1.306000000000000000e+03,-8.279029011730321130e-01,0.000000000000000000e+00
1.307000000000000000e+03,-9.348107018343908559e-01,0.000000000000000000e+00
1.308000000000000000e+03,-8.228499090311356401e-01,0.000000000000000000e+00
1.309000000000000000e+03,-7.848524561441064806e-01,0.000000000000000000e+00
1.310000000000000000e+03,-7.000157633220965847e-01,0.000000000000000000e+00
1.311000000000000000e+03,-2.198928289988373586e-01,0.000000000000000000e+00
1.312000000000000000e+03,-2.496615774003778099e-01,0.000000000000000000e+00
1.313000000000000000e+03,-2.327454020805913015e-01,0.000000000000000000e+00
1.314000000000000000e+03,-2.180438236056886081e-01,0.000000000000000000e+00
1.315000000000000000e+03,-2.911863391150996128e-01,0.000000000000000000e+00
1.316000000000000000e+03,-2.960805088053738987e-01,0.000000000000000000e+00
1.317000000000000000e+03,-2.307850961421365754e-01,0.000000000000000000e+00
1.318000000000000000e+03,-3.966798476608867502e-02,0.000000000000000000e+00
1.319000000000000000e+03,-2.785021585778535980e-01,0.000000000000000000e+00
1.320000000000000000e+03,-3.068882225740701131e-01,0.000000000000000000e+00
1.321000000000000000e+03,-1.172924465291822205e-01,0.000000000000000000e+00
1.322000000000000000e+03,7.274318373821393735e-02,0.000000000000000000e+00
1.323000000000000000e+03,-2.459442409229128101e-01,0.000000000000000000e+00
1.324000000000000000e+03,3.364708644133290738e-02,0.000000000000000000e+00
1.325000000000000000e+03,-7.487807863550184628e-02,0.000000000000000000e+00
1.326000000000000000e+03,1.239168917771104605e-01,0.000000000000000000e+00
1.327000000000000000e+03,1.317758985608109834e-01,0.000000000000000000e+00
1.328000000000000000e+03,4.167238067189345946e-02,0.000000000000000000e+00
1.329000000000000000e+03,2.354831507933698997e-01,0.000000000000000000e+00
1.330000000000000000e+03,8.213861756781279388e-02,0.000000000000000000e+00
1.331000000000000000e+03,3.378296963090276495e-01,0.000000000000000000e+00
1.332000000000000000e+03,9.836493271962157281e-02,0.000000000000000000e+00
1.333000000000000000e+03,5.152395052424916244e-01,0.000000000000000000e+00
1.334000000000000000e+03,8.051171114166352227e-01,0.000000000000000000e+00
1.335000000000000000e+03,5.337090876749881474e-01,0.000000000000000000e+00
1.336000000000000000e+03,-4.452965739782895754e-02,0.000000000000000000e+00
1.337000000000000000e+03,5.400293058978315741e-02,0.000000000000000000e+00
1.338000000000000000e+03,-1.167964689334755196e-01,0.000000000000000000e+00
1.339000000000000000e+03,3.292794458753232623e-01,0.000000000000000000e+00
1.340000000000000000e+03,2.363787358007678197e-01,0.000000000000000000e+00
1.341000000000000000e+03,4.723521962877122782e+00,0.000000000000000000e+00
1.342000000000000000e+03,2.464390229802594590e+00,1.000000000000000000e+00
1.343000000000000000e+03,-1.275875517280761651e+00,0.000000000000000000e+00
1.344000000000000000e+03,-5.367025268388594395e-01,0.000000000000000000e+00
1.345000000000000000e+03,-1.047692246564264407e+00,0.000000000000000000e+00
1.346000000000000000e+03,-5.402075897774851754e-01,0.000000000000000000e+00
1.347000000000000000e+03,-5.847595492190207356e-01,0.000000000000000000e+00
1.348000000000000000e+03,-3.016510797162213486e-01,0.000000000000000000e+00
1.349000000000000000e+03,-3.365010047710617069e-01,0.000000000000000000e+00
1.350000000000000000e+03,-3.577430323764535514e-02,0.000000000000000000e+00
1.351000000000000000e+03,-4.822829739006045426e-03,0.000000000000000000e+00
1.352000000000000000e+03,3.310946402151878631e-01,0.000000000000000000e+00
1.353000000000000000e+03,4.328236898180297665e-01,0.000000000000000000e+00
1.354000000000000000e+03,8.412737420746091432e-01,0.000000000000000000e+00
1.355000000000000000e+03,1.059254452584782458e+00,0.000000000000000000e+00
1.356000000000000000e+03,1.365254702532593845e+00,0.000000000000000000e+00
1.357000000000000000e+03,9.291247541265569287e-01,0.000000000000000000e+00
1.358000000000000000e+03,6.857100412030630032e-01,0.000000000000000000e+00
1.359000000000000000e+03,-3.424228820059353473e-01,0.000000000000000000e+00
1.360000000000000000e+03,-7.482745031612968445e-01,0.000000000000000000e+00
1.361000000000000000e+03,-1.105284468066913828e+00,0.000000000000000000e+00
1.362000000000000000e+03,-1.285125681052335267e+00,0.000000000000000000e+00
1.363000000000000000e+03,-1.246257887178443324e+00,0.000000000000000000e+00
1.364000000000000000e+03,-1.069743063041309172e+00,0.000000000000000000e+00
1.365000000000000000e+03,-9.777792840178302081e-01,0.000000000000000000e+00
1.366000000000000000e+03,-7.572561899830910770e-01,0.000000000000000000e+00
1.367000000000000000e+03,-8.877556110358796326e-01,0.000000000000000000e+00
1.368000000000000000e+03,-4.983019027660969824e-01,0.000000000000000000e+00
1.369000000000000000e+03,-5.132511900920139203e-01,0.000000000000000000e+00
1.370000000000000000e+03,-5.062208144992764725e-01,0.000000000000000000e+00
1.371000000000000000e+03,-3.981972921838254353e-01,0.000000000000000000e+00
1.372000000000000000e+03,-3.820011099750771355e-01,0.000000000000000000e+00
1.373000000000000000e+03,-4.325479668138816902e-01,0.000000000000000000e+00
1.374000000000000000e+03,-2.305784393879416749e-01,0.000000000000000000e+00
1.375000000000000000e+03,-3.189431504182624333e-01,0.000000000000000000e+00
1.376000000000000000e+03,-1.326940275959180848e-01,0.000000000000000000e+00
1.377000000000000000e+03,-2.883415347522426120e-01,0.000000000000000000e+00
1.378000000000000000e+03,-1.831280798706053647e-01,0.000000000000000000e+00
1.379000000000000000e+03,-2.833933894765356398e-01,0.000000000000000000e+00
1.380000000000000000e+03,-1.075189037026717531e-01,0.000000000000000000e+00
1.381000000000000000e+03,-3.465879506039144520e-01,0.000000000000000000e+00
1.382000000000000000e+03,-3.615854217465284265e-02,0.000000000000000000e+00
1.383000000000000000e+03,3.361296249663794575e-03,0.000000000000000000e+00
1.384000000000000000e+03,-7.236983044681068178e-02,0.000000000000000000e+00
1.385000000000000000e+03,-5.769706897190731570e-02,0.000000000000000000e+00
1.386000000000000000e+03,3.177391577375461573e-02,0.000000000000000000e+00
1.387000000000000000e+03,-3.030014335164194633e-02,0.000000000000000000e+00
1.388000000000000000e+03,5.491909898874321183e-02,0.000000000000000000e+00
1.389000000000000000e+03,7.780089324576291987e-02,0.000000000000000000e+00
1.390000000000000000e+03,4.771926610406933555e-01,0.000000000000000000e+00
1.391000000000000000e+03,6.466519306154622226e-01,0.000000000000000000e+00
1.392000000000000000e+03,1.383502094849753394e-01,0.000000000000000000e+00
1.393000000000000000e+03,-1.422595506116192676e-01,0.000000000000000000e+00
1.394000000000000000e+03,-2.955034172680522375e-01,0.000000000000000000e+00
1.395000000000000000e+03,-2.003649120598902655e-01,0.000000000000000000e+00
1.396000000000000000e+03,5.809342333734307008e-03,0.000000000000000000e+00
1.397000000000000000e+03,1.608351898831047455e+00,0.000000000000000000e+00
1.398000000000000000e+03,5.607418484581889295e+00,0.000000000000000000e+00
1.399000000000000000e+03,8.707087076173839479e-01,1.000000000000000000e+00
1.400000000000000000e+03,-1.134391059222878750e+00,0.000000000000000000e+00
1.401000000000000000e+03,-9.043301314522756984e-01,0.000000000000000000e+00
1.402000000000000000e+03,-1.198444542409725866e+00,0.000000000000000000e+00
1.403000000000000000e+03,-6.299845422244126913e-01,0.000000000000000000e+00
1.404000000000000000e+03,-8.592650808313363475e-01,0.000000000000000000e+00
1.405000000000000000e+03,-3.954508492586422119e-01,0.000000000000000000e+00
1.406000000000000000e+03,-3.039596757267699068e-01,0.000000000000000000e+00
1.407000000000000000e+03,-2.200465900538086939e-01,0.000000000000000000e+00
1.408000000000000000e+03,-6.216740010295115915e-02,0.000000000000000000e+00
1.409000000000000000e+03,8.872199620305824819e-02,0.000000000000000000e+00
1.410000000000000000e+03,3.504083565159294422e-01,0.000000000000000000e+00
1.411000000000000000e+03,1.140753698678867112e+00,0.000000000000000000e+00
1.412000000000000000e+03,1.103632689414785650e+00,0.000000000000000000e+00
1.413000000000000000e+03,1.228113079949294528e+00,0.000000000000000000e+00
1.414000000000000000e+03,8.473419270051887331e-01,0.000000000000000000e+00
1.415000000000000000e+03,5.410625421621584330e-01,0.000000000000000000e+00
1.416000000000000000e+03,-1.880558387724961533e-01,0.000000000000000000e+00
1.417000000000000000e+03,-6.495510370490712448e-01,0.000000000000000000e+00
1.418000000000000000e+03,-7.876060082983552535e-01,0.000000000000000000e+00
1.419000000000000000e+03,-8.232616827835045337e-01,0.000000000000000000e+00
1.420000000000000000e+03,-8.092089584189381402e-01,0.000000000000000000e+00
1.421000000000000000e+03,-7.321449350859525751e-01,0.000000000000000000e+00
1.422000000000000000e+03,-2.538131149839708001e-01,0.000000000000000000e+00
1.423000000000000000e+03,-4.097188053914031514e-01,0.000000000000000000e+00
1.424000000000000000e+03,-1.724685955346730304e-01,0.000000000000000000e+00
1.425000000000000000e+03,-2.175997968705426777e-01,0.000000000000000000e+00
1.426000000000000000e+03,-2.505379939826902214e-01,0.000000000000000000e+00
1.427000000000000000e+03,-2.066204736507420148e-01,0.000000000000000000e+00
1.428000000000000000e+03,-1.999007185813153620e-01,0.000000000000000000e+00
1.429000000000000000e+03,-2.258892264984682929e-01,0.000000000000000000e+00
1.430000000000000000e+03,-1.606920356999883281e-01,0.000000000000000000e+00
1.431000000000000000e+03,-1.220445903894610967e-01,0.000000000000000000e+00
1.432000000000000000e+03,-3.645178734358962558e-01,0.000000000000000000e+00
1.433000000000000000e+03,2.094409408408599502e-02,0.000000000000000000e+00
1.434000000000000000e+03,-2.207802227488296076e-01,0.000000000000000000e+00
1.435000000000000000e+03,9.763238232103862643e-03,0.000000000000000000e+00
1.436000000000000000e+03,8.492994379355937526e-03,0.000000000000000000e+00
1.437000000000000000e+03,1.328340931574213402e-01,0.000000000000000000e+00
1.438000000000000000e+03,2.741446547542063586e-02,0.000000000000000000e+00
1.439000000000000000e+03,5.028640837041901956e-03,0.000000000000000000e+00
1.440000000000000000e+03,-9.784418619507687098e-02,0.000000000000000000e+00
1.441000000000000000e+03,1.136938492622680957e-01,0.000000000000000000e+00
1.442000000000000000e+03,2.322901983397852865e-01,0.000000000000000000e+00
1.443000000000000000e+03,9.498190872721576361e-02,0.000000000000000000e+00
1.444000000000000000e+03,2.458562668650005056e-01,0.000000000000000000e+00
1.445000000000000000e+03,2.665915369983868910e-01,0.000000000000000000e+00
1.446000000000000000e+03,3.201633658357028178e-01,0.000000000000000000e+00
1.447000000000000000e+03,4.945944304162419036e-01,0.000000000000000000e+00
1.448000000000000000e+03,9.100828542298906587e-01,0.000000000000000000e+00
1.449000000000000000e+03,7.150060404933821223e-01,0.000000000000000000e+00
1.450000000000000000e+03,-3.524953132294080249e-01,0.000000000000000000e+00
1.451000000000000000e+03,-2.860160382531093393e-02,0.000000000000000000e+00
1.452000000000000000e+03,-1.967226820552219202e-01,0.000000000000000000e+00
1.453000000000000000e+03,2.766236172807717830e-01,0.000000000000000000e+00
1.454000000000000000e+03,3.517957509574043962e-01,0.000000000000000000e+00
1.455000000000000000e+03,4.875100760534576416e+00,0.000000000000000000e+00
1.456000000000000000e+03,2.752657255086360610e+00,1.000000000000000000e+00
1.457000000000000000e+03,-1.281624808294102857e+00,0.000000000000000000e+00
1.458000000000000000e+03,-5.615831764628842482e-01,0.000000000000000000e+00
1.459000000000000000e+03,-1.321911496675650888e+00,0.000000000000000000e+00
1.460000000000000000e+03,-7.288459935643025744e-01,0.000000000000000000e+00
1.461000000000000000e+03,-7.515893702475431315e-01,0.000000000000000000e+00
1.462000000000000000e+03,-5.123902136103621885e-01,0.000000000000000000e+00
1.463000000000000000e+03,-5.997896087500728113e-01,0.000000000000000000e+00
1.464000000000000000e+03,-2.673252896904718678e-01,0.000000000000000000e+00
1.465000000000000000e+03,-2.504947748313210432e-01,0.000000000000000000e+00
1.466000000000000000e+03,-1.260256880199420474e-03,0.000000000000000000e+00
1.467000000000000000e+03,1.214462393700538323e-01,0.000000000000000000e+00
1.468000000000000000e+03,7.521988552524316862e-01,0.000000000000000000e+00
1.469000000000000000e+03,1.131157708266389283e+00,0.000000000000000000e+00
1.470000000000000000e+03,1.385182934010923628e+00,0.000000000000000000e+00
1.471000000000000000e+03,1.153873574168809535e+00,0.000000000000000000e+00
1.472000000000000000e+03,5.964173648016999341e-01,0.000000000000000000e+00
1.473000000000000000e+03,-4.828607634983832220e-02,0.000000000000000000e+00
1.474000000000000000e+03,-6.140825497782067544e-01,0.000000000000000000e+00
1.475000000000000000e+03,-9.542658504208165748e-01,0.000000000000000000e+00
1.476000000000000000e+03,-9.396300680281420847e-01,0.000000000000000000e+00
1.477000000000000000e+03,-1.056438877882576621e+00,0.000000000000000000e+00
1.478000000000000000e+03,-6.692004103396043124e-01,0.000000000000000000e+00
1.479000000000000000e+03,-1.021899717313861755e+00,0.000000000000000000e+00
1.480000000000000000e+03,-5.055867925367952820e-01,0.000000000000000000e+00
1.481000000000000000e+03,-5.765218588772539343e-01,0.000000000000000000e+00
1.482000000000000000e+03,-4.818754795492748988e-01,0.000000000000000000e+00
1.483000000000000000e+03,-3.469549044478296707e-01,0.000000000000000000e+00
1.484000000000000000e+03,-6.626938552828331996e-01,0.000000000000000000e+00
1.485000000000000000e+03,-2.414860513000413877e-01,0.000000000000000000e+00
1.486000000000000000e+03,-4.248528385617830749e-01,0.000000000000000000e+00
1.487000000000000000e+03,-3.390848205324183406e-01,0.000000000000000000e+00
1.488000000000000000e+03,-3.860900357080902512e-01,0.000000000000000000e+00
1.489000000000000000e+03,-1.589006245005842866e-01,0.000000000000000000e+00
1.490000000000000000e+03,-3.847015387183355117e-01,0.000000000000000000e+00
1.491000000000000000e+03,-1.310040737811689893e-01,0.000000000000000000e+00
1.492000000000000000e+03,-3.070831074424531515e-01,0.000000000000000000e+00
1.493000000000000000e+03,4.508335509209039638e-02,0.000000000000000000e+00
1.494000000000000000e+03,-7.113681929146382921e-02,0.000000000000000000e+00
1.495000000000000000e+03,-4.509159832845577309e-02,0.000000000000000000e+00
1.496000000000000000e+03,-2.222934221224460161e-01,0.000000000000000000e+00
1.497000000000000000e+03,-2.001575498403665443e-02,0.000000000000000000e+00
1.498000000000000000e+03,-1.036298582665587248e-01,0.000000000000000000e+00
1.499000000000000000e+03,1.094888285934263877e-01,0.000000000000000000e+00
1.500000000000000000e+03,-2.420562740406962399e-01,0.000000000000000000e+00
1.501000000000000000e+03,-9.642449286535066666e-02,0.000000000000000000e+00
1.502000000000000000e+03,4.879887583247260324e-02,0.000000000000000000e+00
1.503000000000000000e+03,2.433066883439839456e-01,0.000000000000000000e+00
1.504000000000000000e+03,6.669344029778363492e-01,0.000000000000000000e+00
1.505000000000000000e+03,4.474399651660120880e-01,0.000000000000000000e+00
1.506000000000000000e+03,-3.113953575589532563e-01,0.000000000000000000e+00
1.507000000000000000e+03,-6.637388389634933661e-02,0.000000000000000000e+00
1.508000000000000000e+03,-1.227960155169191964e-01,0.000000000000000000e+00
1.509000000000000000e+03,-2.902001370819152701e-02,0.000000000000000000e+00
1.510000000000000000e+03,3.492308130424638946e-01,0.000000000000000000e+00
1.511000000000000000e+03,4.289562363749590546e+00,0.000000000000000000e+00
1.512000000000000000e+03,1.715021468124311665e+00,1.000000000000000000e+00
1.513000000000000000e+03,-1.401924640319220039e+00,0.000000000000000000e+00
1.514000000000000000e+03,-4.418350848776089745e-01,0.000000000000000000e+00
1.515000000000000000e+03,-1.077509507625356688e+00,0.000000000000000000e+00
1.516000000000000000e+03,-5.438975306308793112e-01,0.000000000000000000e+00
1.517000000000000000e+03,-7.292549764053558592e-01,0.000000000000000000e+00
1.518000000000000000e+03,-1.487665345241469816e-01,0.000000000000000000e+00
1.519000000000000000e+03,-3.296370292177003836e-01,0.000000000000000000e+00
1.520000000000000000e+03,1.454815643450752816e-01,0.000000000000000000e+00
1.521000000000000000e+03,-1.639025461858411303e-01,0.000000000000000000e+00
1.522000000000000000e+03,4.394725910888266918e-01,0.000000000000000000e+00
1.523000000000000000e+03,4.305160790885126931e-01,0.000000000000000000e+00
1.524000000000000000e+03,1.183520994113629765e+00,0.000000000000000000e+00
1.525000000000000000e+03,1.281778848859136621e+00,0.000000000000000000e+00
1.526000000000000000e+03,1.560124196997117352e+00,0.000000000000000000e+00
1.527000000000000000e+03,1.129134981702230034e+00,0.000000000000000000e+00
1.528000000000000000e+03,7.674432486038131884e-01,0.000000000000000000e+00
1.529000000000000000e+03,-4.177799461962906913e-02,0.000000000000000000e+00
1.530000000000000000e+03,-5.316408985129483789e-01,0.000000000000000000e+00
1.531000000000000000e+03,-9.326257309913609239e-01,0.000000000000000000e+00
1.532000000000000000e+03,-9.887897955512979786e-01,0.000000000000000000e+00
1.533000000000000000e+03,-1.165791380775291319e+00,0.000000000000000000e+00
1.534000000000000000e+03,-8.581051078945327593e-01,0.000000000000000000e+00
1.535000000000000000e+03,-6.345908348705275870e-01,0.000000000000000000e+00
1.536000000000000000e+03,-2.319231800464750248e-01,0.000000000000000000e+00
1.537000000000000000e+03,-6.377897455662543402e-01,0.000000000000000000e+00
1.538000000000000000e+03,-2.111902962992927291e-01,0.000000000000000000e+00
1.539000000000000000e+03,-4.769279609128879160e-01,0.000000000000000000e+00
1.540000000000000000e+03,-2.579377085299012218e-01,0.000000000000000000e+00
1.541000000000000000e+03,-3.079310968768025347e-01,0.000000000000000000e+00
1.542000000000000000e+03,-1.287528650998889801e-01,0.000000000000000000e+00
1.543000000000000000e+03,-4.256464719560790755e-01,0.000000000000000000e+00
1.544000000000000000e+03,-2.899694002539981996e-01,0.000000000000000000e+00
1.545000000000000000e+03,-2.266603788074192660e-01,0.000000000000000000e+00
1.546000000000000000e+03,-9.445687219511203492e-02,0.000000000000000000e+00
1.547000000000000000e+03,-2.786336533312980812e-01,0.000000000000000000e+00
1.548000000000000000e+03,-6.722764298706154426e-03,0.000000000000000000e+00
1.549000000000000000e+03,-2.582468797292683527e-01,0.000000000000000000e+00
1.550000000000000000e+03,-8.811852252465314506e-02,0.000000000000000000e+00
1.551000000000000000e+03,7.985246865966280638e-02,0.000000000000000000e+00
1.552000000000000000e+03,-1.441905244840646916e-01,0.000000000000000000e+00
1.553000000000000000e+03,1.727594949559250748e-01,0.000000000000000000e+00
1.554000000000000000e+03,7.759629176264536132e-02,0.000000000000000000e+00
1.555000000000000000e+03,-6.814191918517949198e-02,0.000000000000000000e+00
1.556000000000000000e+03,1.257127708194676896e-01,0.000000000000000000e+00
1.557000000000000000e+03,1.076583208961019167e-01,0.000000000000000000e+00
1.558000000000000000e+03,2.918771325848386056e-01,0.000000000000000000e+00
1.559000000000000000e+03,1.035261932759843490e-01,0.000000000000000000e+00
1.560000000000000000e+03,4.634627076408254776e-01,0.000000000000000000e+00
1.561000000000000000e+03,8.865012544510207926e-01,0.000000000000000000e+00
1.562000000000000000e+03,7.721807549748588295e-01,0.000000000000000000e+00
1.563000000000000000e+03,-1.526285892777031195e-01,0.000000000000000000e+00
1.564000000000000000e+03,2.712655359307575842e-01,0.000000000000000000e+00
1.565000000000000000e+03,-3.085643178555134147e-01,0.000000000000000000e+00
1.566000000000000000e+03,2.760047062425246556e-01,0.000000000000000000e+00
1.567000000000000000e+03,4.057312323366928930e-01,0.000000000000000000e+00
1.568000000000000000e+03,4.452131103632996023e+00,0.000000000000000000e+00
1.569000000000000000e+03,3.338857835227994286e+00,1.000000000000000000e+00
1.570000000000000000e+03,-1.383486225414855664e+00,0.000000000000000000e+00
1.571000000000000000e+03,-8.143881066979208327e-01,0.000000000000000000e+00
1.572000000000000000e+03,-1.126369764441347954e+00,0.000000000000000000e+00
1.573000000000000000e+03,-1.063850274728239231e+00,0.000000000000000000e+00
1.574000000000000000e+03,-9.229894565879448454e-01,0.000000000000000000e+00
1.575000000000000000e+03,-4.497089792646534190e-01,0.000000000000000000e+00
1.576000000000000000e+03,-5.114738717918638766e-01,0.000000000000000000e+00
1.577000000000000000e+03,-2.961937897323371760e-01,0.000000000000000000e+00
1.578000000000000000e+03,-3.807569785741927726e-01,0.000000000000000000e+00
1.579000000000000000e+03,6.637898712448395133e-02,0.000000000000000000e+00
1.580000000000000000e+03,3.330679653625743253e-01,0.000000000000000000e+00
1.581000000000000000e+03,8.589823384842582010e-01,0.000000000000000000e+00
1.582000000000000000e+03,1.154915944747372025e+00,0.000000000000000000e+00
1.583000000000000000e+03,1.320706123519565622e+00,0.000000000000000000e+00
1.584000000000000000e+03,1.225595996174624558e+00,0.000000000000000000e+00
1.585000000000000000e+03,6.845139928880278335e-01,0.000000000000000000e+00
1.586000000000000000e+03,1.505997244763160048e-01,0.000000000000000000e+00
