timestamp,ecg_measurement,qrs_detected
0.000000000000000000e+00,2.300555421056959815e-01,0.000000000000000000e+00
1.000000000000000000e+00,3.378656007759099356e-01,0.000000000000000000e+00
2.000000000000000000e+00,7.192178398306167120e-01,0.000000000000000000e+00
3.000000000000000000e+00,9.228976548881056008e-01,0.000000000000000000e+00
4.000000000000000000e+00,1.207517283575169964e+00,0.000000000000000000e+00
5.000000000000000000e+00,1.212281568958825995e+00,0.000000000000000000e+00
6.000000000000000000e+00,7.313376609300785702e-01,0.000000000000000000e+00
7.000000000000000000e+00,-2.343198311575185877e-01,0.000000000000000000e+00
8.000000000000000000e+00,-1.283431962610183996e+00,1.000000000000000000e+00
9.000000000000000000e+00,-2.006315977399502071e+00,0.000000000000000000e+00
1.000000000000000000e+01,-2.023081889272014156e+00,0.000000000000000000e+00
1.100000000000000000e+01,-1.918909217143713430e+00,0.000000000000000000e+00
1.200000000000000000e+01,-1.774802799629847661e+00,0.000000000000000000e+00
1.300000000000000000e+01,-1.754191500010234606e+00,0.000000000000000000e+00
1.400000000000000000e+01,-1.364043229942698998e+00,0.000000000000000000e+00
1.500000000000000000e+01,-1.337324337646313088e+00,0.000000000000000000e+00
1.600000000000000000e+01,-1.016545592314479052e+00,0.000000000000000000e+00
1.700000000000000000e+01,-8.280376159083508991e-01,0.000000000000000000e+00
1.800000000000000000e+01,-7.740733514643737267e-01,0.000000000000000000e+00
1.900000000000000000e+01,-7.435753275988030708e-01,0.000000000000000000e+00
2.000000000000000000e+01,-5.321286006910713740e-01,0.000000000000000000e+00
2.100000000000000000e+01,-6.111636943013414314e-01,0.000000000000000000e+00
2.200000000000000000e+01,-3.424009781376782247e-01,0.000000000000000000e+00
2.300000000000000000e+01,-4.617571519534896529e-01,0.000000000000000000e+00
2.400000000000000000e+01,-2.509872937941555748e-01,0.000000000000000000e+00
2.500000000000000000e+01,-2.241415331621760543e-01,0.000000000000000000e+00
2.600000000000000000e+01,-2.572065277754681523e-01,0.000000000000000000e+00
2.700000000000000000e+01,-7.349512897130261457e-02,0.000000000000000000e+00
2.800000000000000000e+01,-2.958321959159508976e-02,0.000000000000000000e+00
2.900000000000000000e+01,-5.144686301947918455e-02,0.000000000000000000e+00
3.000000000000000000e+01,4.295181668769629214e-04,0.000000000000000000e+00
3.100000000000000000e+01,7.012511876852838000e-02,0.000000000000000000e+00
3.200000000000000000e+01,7.947895827758275078e-02,0.000000000000000000e+00
3.300000000000000000e+01,2.275343255456910296e-01,0.000000000000000000e+00
3.400000000000000000e+01,2.857047580196554470e-01,0.000000000000000000e+00
3.500000000000000000e+01,2.474291324516900425e-01,0.000000000000000000e+00
3.600000000000000000e+01,3.568430763343853895e-01,0.000000000000000000e+00
3.700000000000000000e+01,3.706197779342065846e-01,0.000000000000000000e+00
3.800000000000000000e+01,4.099774174155724205e-01,0.000000000000000000e+00
3.900000000000000000e+01,4.250911840768465400e-01,0.000000000000000000e+00
4.000000000000000000e+01,4.749873789494367116e-01,0.000000000000000000e+00
4.100000000000000000e+01,4.059024804810874021e-01,0.000000000000000000e+00
4.200000000000000000e+01,5.643016211137561466e-01,0.000000000000000000e+00
4.300000000000000000e+01,5.430238111947878199e-01,0.000000000000000000e+00
4.400000000000000000e+01,7.724108695826127358e-01,0.000000000000000000e+00
4.500000000000000000e+01,7.116610729424208692e-01,0.000000000000000000e+00
4.600000000000000000e+01,7.179805447803271345e-01,0.000000000000000000e+00
4.700000000000000000e+01,3.445584896264586305e-01,0.000000000000000000e+00
4.800000000000000000e+01,3.027419727881156541e-01,0.000000000000000000e+00
4.900000000000000000e+01,1.557548203298505241e-01,0.000000000000000000e+00
5.000000000000000000e+01,2.746294301660189285e-01,0.000000000000000000e+00
5.100000000000000000e+01,1.135125378487402553e-01,0.000000000000000000e+00
5.200000000000000000e+01,5.142748466588379364e-01,0.000000000000000000e+00
5.300000000000000000e+01,4.360397177978697081e-01,0.000000000000000000e+00
5.400000000000000000e+01,3.319980599470015115e+00,0.000000000000000000e+00
5.500000000000000000e+01,3.852618295773335255e+00,0.000000000000000000e+00
5.600000000000000000e+01,-7.231324477336693868e-02,1.000000000000000000e+00
5.700000000000000000e+01,1.498279075123604420e-01,0.000000000000000000e+00
5.800000000000000000e+01,-2.389412691746508333e-01,0.000000000000000000e+00
5.900000000000000000e+01,-3.637068303985566686e-01,0.000000000000000000e+00
6.000000000000000000e+01,-5.818137439278550094e-01,0.000000000000000000e+00
6.100000000000000000e+01,-3.436605537948768663e-01,0.000000000000000000e+00
6.200000000000000000e+01,-3.614559816005375459e-01,0.000000000000000000e+00
6.300000000000000000e+01,-1.541954589626419458e-01,0.000000000000000000e+00
6.400000000000000000e+01,-4.075227712156826408e-03,0.000000000000000000e+00
6.500000000000000000e+01,2.395327939575573883e-01,0.000000000000000000e+00
6.600000000000000000e+01,2.904185628655581164e-01,0.000000000000000000e+00
6.700000000000000000e+01,8.905586269031792179e-01,0.000000000000000000e+00
6.800000000000000000e+01,1.094139679792087927e+00,0.000000000000000000e+00
6.900000000000000000e+01,1.304985418369198680e+00,0.000000000000000000e+00
7.000000000000000000e+01,1.142493259084936597e+00,0.000000000000000000e+00
7.100000000000000000e+01,3.657788229372703759e-01,0.000000000000000000e+00
7.200000000000000000e+01,-8.160722776290998404e-01,0.000000000000000000e+00
7.300000000000000000e+01,-1.586058843443702626e+00,0.000000000000000000e+00
7.400000000000000000e+01,-2.006517202893979945e+00,0.000000000000000000e+00
7.500000000000000000e+01,-2.071741708117070591e+00,0.000000000000000000e+00
7.600000000000000000e+01,-1.857227383463689874e+00,0.000000000000000000e+00
7.700000000000000000e+01,-1.719314263850387547e+00,0.000000000000000000e+00
7.800000000000000000e+01,-1.516286802703390668e+00,0.000000000000000000e+00
7.900000000000000000e+01,-1.316094663698250011e+00,0.000000000000000000e+00
8.000000000000000000e+01,-1.102509837759498623e+00,0.000000000000000000e+00
8.100000000000000000e+01,-9.338078253194840306e-01,0.000000000000000000e+00
8.200000000000000000e+01,-8.008689771068850938e-01,0.000000000000000000e+00
8.300000000000000000e+01,-6.663384526893908477e-01,0.000000000000000000e+00
8.400000000000000000e+01,-4.995746887344458820e-01,0.000000000000000000e+00
8.500000000000000000e+01,-5.245342271451594041e-01,0.000000000000000000e+00
8.600000000000000000e+01,-3.472502007693423209e-01,0.000000000000000000e+00
8.700000000000000000e+01,-5.220562097845258265e-01,0.000000000000000000e+00
8.800000000000000000e+01,-2.175619129031339805e-01,0.000000000000000000e+00
8.900000000000000000e+01,-2.502702211396237719e-01,0.000000000000000000e+00
9.000000000000000000e+01,-1.910388842364313944e-01,0.000000000000000000e+00
9.100000000000000000e+01,8.761776247191155331e-03,0.000000000000000000e+00
9.200000000000000000e+01,-1.576438241149692165e-01,0.000000000000000000e+00
9.300000000000000000e+01,9.766061122595477706e-02,0.000000000000000000e+00
9.400000000000000000e+01,-3.459446219856177063e-02,0.000000000000000000e+00
9.500000000000000000e+01,2.495615553123920194e-01,0.000000000000000000e+00
9.600000000000000000e+01,2.543303066619950759e-01,0.000000000000000000e+00
9.700000000000000000e+01,7.989694525619174537e-02,0.000000000000000000e+00
9.800000000000000000e+01,3.155519782289613606e-01,0.000000000000000000e+00
9.900000000000000000e+01,3.768690739979210225e-01,0.000000000000000000e+00
1.000000000000000000e+02,3.952688523993733716e-01,0.000000000000000000e+00
1.010000000000000000e+02,3.639202927374021734e-01,0.000000000000000000e+00
1.020000000000000000e+02,3.643835358768888200e-01,0.000000000000000000e+00
1.030000000000000000e+02,4.363136659464267320e-01,0.000000000000000000e+00
1.040000000000000000e+02,4.698646185316070478e-01,0.000000000000000000e+00
1.050000000000000000e+02,4.990476233378142168e-01,0.000000000000000000e+00
1.060000000000000000e+02,4.713912433668093760e-01,0.000000000000000000e+00
1.070000000000000000e+02,4.536336012462050538e-01,0.000000000000000000e+00
1.080000000000000000e+02,4.295212099007807982e-01,0.000000000000000000e+00
1.090000000000000000e+02,5.257773823539994007e-01,0.000000000000000000e+00
1.100000000000000000e+02,5.409569743945883413e-01,0.000000000000000000e+00
1.110000000000000000e+02,6.454689858058130225e-01,0.000000000000000000e+00
1.120000000000000000e+02,7.977581853634553299e-01,0.000000000000000000e+00
1.130000000000000000e+02,7.576936306484761685e-01,0.000000000000000000e+00
1.140000000000000000e+02,4.465175769196775835e-01,0.000000000000000000e+00
1.150000000000000000e+02,1.546202987019782704e-01,0.000000000000000000e+00
1.160000000000000000e+02,1.403590711657181633e-01,0.000000000000000000e+00
1.170000000000000000e+02,1.898022312540064704e-01,0.000000000000000000e+00
1.180000000000000000e+02,1.112987507668413284e-01,0.000000000000000000e+00
1.190000000000000000e+02,2.762413008137620252e-01,0.000000000000000000e+00
1.200000000000000000e+02,3.650013571001368140e-01,0.000000000000000000e+00
1.210000000000000000e+02,1.820859716016970609e+00,0.000000000000000000e+00
1.220000000000000000e+02,4.796348647474355076e+00,0.000000000000000000e+00
1.230000000000000000e+02,1.281471395824813175e+00,1.000000000000000000e+00
1.240000000000000000e+02,-1.849925152563699493e-01,0.000000000000000000e+00
1.250000000000000000e+02,-2.117386969399664975e-01,0.000000000000000000e+00
1.260000000000000000e+02,-6.236532642542913507e-01,0.000000000000000000e+00
1.270000000000000000e+02,-4.961572251601212846e-01,0.000000000000000000e+00
1.280000000000000000e+02,-5.657500979622710480e-01,0.000000000000000000e+00
1.290000000000000000e+02,-5.114938962813788681e-01,0.000000000000000000e+00
1.300000000000000000e+02,-3.034836241360416853e-01,0.000000000000000000e+00
1.310000000000000000e+02,-2.050905745193123131e-01,0.000000000000000000e+00
1.320000000000000000e+02,3.625883301318735125e-02,0.000000000000000000e+00
1.330000000000000000e+02,3.307109465044466567e-01,0.000000000000000000e+00
1.340000000000000000e+02,6.708006839543220190e-01,0.000000000000000000e+00
1.350000000000000000e+02,9.724094691239180133e-01,0.000000000000000000e+00
1.360000000000000000e+02,1.229667987080151681e+00,0.000000000000000000e+00
1.370000000000000000e+02,1.279153445029717728e+00,0.000000000000000000e+00
1.380000000000000000e+02,6.588728417292881723e-01,0.000000000000000000e+00
1.390000000000000000e+02,-3.108240043337499592e-01,0.000000000000000000e+00
1.400000000000000000e+02,-1.487796022775597082e+00,0.000000000000000000e+00
1.410000000000000000e+02,-1.950870423755052263e+00,0.000000000000000000e+00
1.420000000000000000e+02,-2.263573154095172235e+00,0.000000000000000000e+00
1.430000000000000000e+02,-2.077179597169483305e+00,0.000000000000000000e+00
1.440000000000000000e+02,-1.997031281449205720e+00,0.000000000000000000e+00
1.450000000000000000e+02,-1.703529273817304679e+00,0.000000000000000000e+00
1.460000000000000000e+02,-1.523031692436034090e+00,0.000000000000000000e+00
1.470000000000000000e+02,-1.347389619728572852e+00,0.000000000000000000e+00
1.480000000000000000e+02,-1.231521151363955902e+00,0.000000000000000000e+00
1.490000000000000000e+02,-9.282617097003273976e-01,0.000000000000000000e+00
1.500000000000000000e+02,-9.423449122679896650e-01,0.000000000000000000e+00
1.510000000000000000e+02,-7.267901997760312094e-01,0.000000000000000000e+00
1.520000000000000000e+02,-5.755103076803739226e-01,0.000000000000000000e+00
1.530000000000000000e+02,-4.646856036808819646e-01,0.000000000000000000e+00
1.540000000000000000e+02,-6.364919577030839770e-01,0.000000000000000000e+00
1.550000000000000000e+02,-3.998815145251453651e-01,0.000000000000000000e+00
1.560000000000000000e+02,-3.051814969759375495e-01,0.000000000000000000e+00
1.570000000000000000e+02,-2.596777361012816976e-01,0.000000000000000000e+00
1.580000000000000000e+02,-2.559248094205729407e-01,0.000000000000000000e+00
1.590000000000000000e+02,-8.006460109559603022e-02,0.000000000000000000e+00
1.600000000000000000e+02,-1.164396054947420961e-01,0.000000000000000000e+00
1.610000000000000000e+02,1.216753198106024052e-02,0.000000000000000000e+00
1.620000000000000000e+02,2.294391513762952459e-02,0.000000000000000000e+00
1.630000000000000000e+02,1.441312831885396550e-01,0.000000000000000000e+00
1.640000000000000000e+02,1.960658745466324349e-01,0.000000000000000000e+00
1.650000000000000000e+02,2.387713116036529470e-01,0.000000000000000000e+00
1.660000000000000000e+02,2.834198574890168798e-01,0.000000000000000000e+00
1.670000000000000000e+02,3.334080285276505573e-01,0.000000000000000000e+00
1.680000000000000000e+02,3.190680543338216824e-01,0.000000000000000000e+00
1.690000000000000000e+02,4.494661917059573630e-01,0.000000000000000000e+00
1.700000000000000000e+02,3.123894220349541784e-01,0.000000000000000000e+00
1.710000000000000000e+02,4.142701710226935341e-01,0.000000000000000000e+00
1.720000000000000000e+02,5.074665346855867787e-01,0.000000000000000000e+00
1.730000000000000000e+02,4.782103021156468015e-01,0.000000000000000000e+00
1.740000000000000000e+02,4.239197800482810696e-01,0.000000000000000000e+00
1.750000000000000000e+02,5.993884930835933211e-01,0.000000000000000000e+00
1.760000000000000000e+02,4.443958630411789512e-01,0.000000000000000000e+00
1.770000000000000000e+02,5.585109757969621835e-01,0.000000000000000000e+00
1.780000000000000000e+02,5.262178352688979821e-01,0.000000000000000000e+00
1.790000000000000000e+02,6.329321596648352921e-01,0.000000000000000000e+00
1.800000000000000000e+02,6.641552143626343607e-01,0.000000000000000000e+00
1.810000000000000000e+02,8.747044600359925592e-01,0.000000000000000000e+00
1.820000000000000000e+02,7.351850087059822458e-01,0.000000000000000000e+00
1.830000000000000000e+02,6.056314670454141513e-01,0.000000000000000000e+00
1.840000000000000000e+02,7.020285227724336330e-02,0.000000000000000000e+00
1.850000000000000000e+02,3.525983640239931383e-01,0.000000000000000000e+00
1.860000000000000000e+02,8.611461160475307464e-02,0.000000000000000000e+00
1.870000000000000000e+02,2.404646973956500178e-01,0.000000000000000000e+00
1.880000000000000000e+02,1.464406043806982249e-01,0.000000000000000000e+00
1.890000000000000000e+02,3.406428419825543452e-01,0.000000000000000000e+00
1.900000000000000000e+02,1.583332618062623265e+00,0.000000000000000000e+00
1.910000000000000000e+02,5.034410792387705058e+00,0.000000000000000000e+00
1.920000000000000000e+02,1.830871979380262360e+00,1.000000000000000000e+00
1.930000000000000000e+02,-2.355184336819546864e-01,0.000000000000000000e+00
1.940000000000000000e+02,-1.394585847174592830e-01,0.000000000000000000e+00
1.950000000000000000e+02,-5.594132648014373821e-01,0.000000000000000000e+00
1.960000000000000000e+02,-6.091340623282578415e-01,0.000000000000000000e+00
1.970000000000000000e+02,-6.114482352954498934e-01,0.000000000000000000e+00
1.980000000000000000e+02,-4.358095068788053195e-01,0.000000000000000000e+00
1.990000000000000000e+02,-2.800852769119799857e-01,0.000000000000000000e+00
2.000000000000000000e+02,-2.094844631134734347e-01,0.000000000000000000e+00
2.010000000000000000e+02,6.202059989528879019e-02,0.000000000000000000e+00
2.020000000000000000e+02,3.129549207404206390e-01,0.000000000000000000e+00
2.030000000000000000e+02,6.381565088166509803e-01,0.000000000000000000e+00
2.040000000000000000e+02,8.943308761452227751e-01,0.000000000000000000e+00
2.050000000000000000e+02,1.255288414187378798e+00,0.000000000000000000e+00
2.060000000000000000e+02,1.309416305176487549e+00,0.000000000000000000e+00
2.070000000000000000e+02,7.567261640873274020e-01,0.000000000000000000e+00
2.080000000000000000e+02,-1.212683067251508762e-01,0.000000000000000000e+00
2.090000000000000000e+02,-1.303696848325450963e+00,0.000000000000000000e+00
2.100000000000000000e+02,-1.995181168474449596e+00,0.000000000000000000e+00
2.110000000000000000e+02,-2.083955841105420870e+00,0.000000000000000000e+00
2.120000000000000000e+02,-2.048230259829940003e+00,0.000000000000000000e+00
2.130000000000000000e+02,-2.048923758771768799e+00,0.000000000000000000e+00
2.140000000000000000e+02,-1.668529274329279222e+00,0.000000000000000000e+00
2.150000000000000000e+02,-1.544438657115566382e+00,0.000000000000000000e+00
2.160000000000000000e+02,-1.224298784944475083e+00,0.000000000000000000e+00
2.170000000000000000e+02,-1.167011740769003492e+00,0.000000000000000000e+00
2.180000000000000000e+02,-9.366868704385711286e-01,0.000000000000000000e+00
2.190000000000000000e+02,-8.847635169965633040e-01,0.000000000000000000e+00
2.200000000000000000e+02,-6.730945728439785558e-01,0.000000000000000000e+00
2.210000000000000000e+02,-5.314701495805028708e-01,0.000000000000000000e+00
2.220000000000000000e+02,-5.289529448834960901e-01,0.000000000000000000e+00
2.230000000000000000e+02,-4.676020969063204302e-01,0.000000000000000000e+00
2.240000000000000000e+02,-5.266243976109554747e-01,0.000000000000000000e+00
2.250000000000000000e+02,-4.061344850738376477e-01,0.000000000000000000e+00
2.260000000000000000e+02,-2.963562690493889984e-01,0.000000000000000000e+00
2.270000000000000000e+02,-2.477513991084377976e-01,0.000000000000000000e+00
2.280000000000000000e+02,-1.251631063893186013e-01,0.000000000000000000e+00
2.290000000000000000e+02,-1.217155511541138241e-01,0.000000000000000000e+00
2.300000000000000000e+02,-9.358353572529726216e-02,0.000000000000000000e+00
2.310000000000000000e+02,-3.246340062481836708e-02,0.000000000000000000e+00
2.320000000000000000e+02,1.159352901173757305e-01,0.000000000000000000e+00
2.330000000000000000e+02,2.188385735863344339e-01,0.000000000000000000e+00
2.340000000000000000e+02,1.663911290750438310e-01,0.000000000000000000e+00
2.350000000000000000e+02,1.076201969215812571e-01,0.000000000000000000e+00
2.360000000000000000e+02,2.450022135162487069e-01,0.000000000000000000e+00
2.370000000000000000e+02,3.227157069714605142e-01,0.000000000000000000e+00
2.380000000000000000e+02,3.894929924266181676e-01,0.000000000000000000e+00
2.390000000000000000e+02,4.405364209842549950e-01,0.000000000000000000e+00
2.400000000000000000e+02,3.646732349878392676e-01,0.000000000000000000e+00
2.410000000000000000e+02,3.600158728066059632e-01,0.000000000000000000e+00
2.420000000000000000e+02,4.947568539723888881e-01,0.000000000000000000e+00
2.430000000000000000e+02,4.824112548112919341e-01,0.000000000000000000e+00
2.440000000000000000e+02,5.306699039531230788e-01,0.000000000000000000e+00
2.450000000000000000e+02,6.293735338412667080e-01,0.000000000000000000e+00
2.460000000000000000e+02,2.733588371670415684e-01,0.000000000000000000e+00
2.470000000000000000e+02,5.714199819003368264e-01,0.000000000000000000e+00
2.480000000000000000e+02,6.745367526346612852e-01,0.000000000000000000e+00
2.490000000000000000e+02,7.894732159504469493e-01,0.000000000000000000e+00
2.500000000000000000e+02,8.447425021264628464e-01,0.000000000000000000e+00
2.510000000000000000e+02,6.419517969589085826e-01,0.000000000000000000e+00
2.520000000000000000e+02,2.023929456346748035e-01,0.000000000000000000e+00
2.530000000000000000e+02,2.391952211768036407e-01,0.000000000000000000e+00
2.540000000000000000e+02,1.811614073791087409e-01,0.000000000000000000e+00
2.550000000000000000e+02,2.817417052397017119e-01,0.000000000000000000e+00
2.560000000000000000e+02,2.179472852470589195e-01,0.000000000000000000e+00
2.570000000000000000e+02,4.513975839909744048e-01,0.000000000000000000e+00
2.580000000000000000e+02,1.445980989684390927e+00,0.000000000000000000e+00
2.590000000000000000e+02,4.929757987867726676e+00,0.000000000000000000e+00
2.600000000000000000e+02,1.815430106571531033e+00,1.000000000000000000e+00
2.610000000000000000e+02,-4.295234012281392011e-01,0.000000000000000000e+00
2.620000000000000000e+02,9.744828954132020438e-02,0.000000000000000000e+00
2.630000000000000000e+02,-4.544773870721862674e-01,0.000000000000000000e+00
2.640000000000000000e+02,-3.886692769750613730e-01,0.000000000000000000e+00
2.650000000000000000e+02,-6.337368964108619496e-01,0.000000000000000000e+00
2.660000000000000000e+02,-3.243674850390053654e-01,0.000000000000000000e+00
2.670000000000000000e+02,-3.423067721974524802e-01,0.000000000000000000e+00
2.680000000000000000e+02,1.998642856741773138e-02,0.000000000000000000e+00
2.690000000000000000e+02,-4.201637922225220229e-02,0.000000000000000000e+00
2.700000000000000000e+02,3.568932585561284121e-01,0.000000000000000000e+00
2.710000000000000000e+02,5.869774417744416661e-01,0.000000000000000000e+00
2.720000000000000000e+02,1.030809840794224996e+00,0.000000000000000000e+00
2.730000000000000000e+02,1.033633422278811498e+00,0.000000000000000000e+00
2.740000000000000000e+02,1.254069558490263248e+00,0.000000000000000000e+00
2.750000000000000000e+02,8.892613134800564367e-01,0.000000000000000000e+00
2.760000000000000000e+02,-1.041749857279776897e-01,0.000000000000000000e+00
2.770000000000000000e+02,-1.250905311221345517e+00,0.000000000000000000e+00
2.780000000000000000e+02,-1.931711331827678624e+00,0.000000000000000000e+00
2.790000000000000000e+02,-2.207356346880681386e+00,0.000000000000000000e+00
2.800000000000000000e+02,-1.971157184083325964e+00,0.000000000000000000e+00
2.810000000000000000e+02,-1.876942181819282407e+00,0.000000000000000000e+00
2.820000000000000000e+02,-1.691601584261145819e+00,0.000000000000000000e+00
2.830000000000000000e+02,-1.552469429296442494e+00,0.000000000000000000e+00
2.840000000000000000e+02,-1.234397625438649504e+00,0.000000000000000000e+00
2.850000000000000000e+02,-1.172970898407313278e+00,0.000000000000000000e+00
2.860000000000000000e+02,-8.044284490875930338e-01,0.000000000000000000e+00
2.870000000000000000e+02,-9.226580338775696166e-01,0.000000000000000000e+00
2.880000000000000000e+02,-6.099046024474401584e-01,0.000000000000000000e+00
2.890000000000000000e+02,-5.523699134892969820e-01,0.000000000000000000e+00
2.900000000000000000e+02,-4.978456034348140435e-01,0.000000000000000000e+00
2.910000000000000000e+02,-3.851191623904973160e-01,0.000000000000000000e+00
2.920000000000000000e+02,-2.588609557857728949e-01,0.000000000000000000e+00
2.930000000000000000e+02,-3.211690994949865652e-01,0.000000000000000000e+00
2.940000000000000000e+02,-1.771595058450970150e-01,0.000000000000000000e+00
2.950000000000000000e+02,-2.148024104091888764e-01,0.000000000000000000e+00
2.960000000000000000e+02,-1.007197542674842794e-01,0.000000000000000000e+00
2.970000000000000000e+02,3.154032128718226718e-02,0.000000000000000000e+00
2.980000000000000000e+02,5.993743888413985421e-02,0.000000000000000000e+00
2.990000000000000000e+02,1.221496465450832708e-01,0.000000000000000000e+00
3.000000000000000000e+02,7.759375928998528404e-02,0.000000000000000000e+00
3.010000000000000000e+02,2.283695169783782619e-01,0.000000000000000000e+00
3.020000000000000000e+02,2.198669082837795830e-01,0.000000000000000000e+00
3.030000000000000000e+02,2.221576255802049371e-01,0.000000000000000000e+00
3.040000000000000000e+02,3.674958543508852760e-01,0.000000000000000000e+00
3.050000000000000000e+02,3.442073559974621055e-01,0.000000000000000000e+00
3.060000000000000000e+02,3.292234252748332812e-01,0.000000000000000000e+00
3.070000000000000000e+02,2.923436021613151081e-01,0.000000000000000000e+00
3.080000000000000000e+02,4.279120178502990868e-01,0.000000000000000000e+00
3.090000000000000000e+02,5.100345985718771624e-01,0.000000000000000000e+00
3.100000000000000000e+02,3.669084083108485883e-01,0.000000000000000000e+00
3.110000000000000000e+02,4.468559223320599516e-01,0.000000000000000000e+00
3.120000000000000000e+02,4.348872214693499383e-01,0.000000000000000000e+00
3.130000000000000000e+02,6.173629089256269520e-01,0.000000000000000000e+00
3.140000000000000000e+02,8.275544007345762010e-01,0.000000000000000000e+00
3.150000000000000000e+02,8.270073036713013748e-01,0.000000000000000000e+00
3.160000000000000000e+02,5.912074835318309463e-01,0.000000000000000000e+00
3.170000000000000000e+02,2.838764996947002461e-01,0.000000000000000000e+00
3.180000000000000000e+02,1.343479105290413811e-01,0.000000000000000000e+00
3.190000000000000000e+02,1.713280372326623224e-01,0.000000000000000000e+00
3.200000000000000000e+02,2.061505195215564135e-01,0.000000000000000000e+00
3.210000000000000000e+02,2.604743594846736787e-01,0.000000000000000000e+00
3.220000000000000000e+02,3.116320320465780225e-01,0.000000000000000000e+00
3.230000000000000000e+02,8.255490207776395861e-01,0.000000000000000000e+00
3.240000000000000000e+02,3.910514519548089929e+00,0.000000000000000000e+00
3.250000000000000000e+02,2.476168599874274623e+00,1.000000000000000000e+00
3.260000000000000000e+02,-4.622437916368907218e-01,0.000000000000000000e+00
3.270000000000000000e+02,2.715643510481300926e-01,0.000000000000000000e+00
3.280000000000000000e+02,-3.351184896847956840e-01,0.000000000000000000e+00
3.290000000000000000e+02,-4.198402313866493873e-01,0.000000000000000000e+00
3.300000000000000000e+02,-3.936922269441571753e-01,0.000000000000000000e+00
3.310000000000000000e+02,-3.102762986754276087e-01,0.000000000000000000e+00
3.320000000000000000e+02,-4.273652963203297128e-01,0.000000000000000000e+00
3.330000000000000000e+02,7.675299225739384834e-02,0.000000000000000000e+00
3.340000000000000000e+02,-1.291498776125027947e-01,0.000000000000000000e+00
3.350000000000000000e+02,3.296310959277176100e-01,0.000000000000000000e+00
3.360000000000000000e+02,5.141110197906085810e-01,0.000000000000000000e+00
3.370000000000000000e+02,1.006242396120908378e+00,0.000000000000000000e+00
3.380000000000000000e+02,9.376035424042780120e-01,0.000000000000000000e+00
3.390000000000000000e+02,1.313727702436667144e+00,0.000000000000000000e+00
3.400000000000000000e+02,9.144934484022136933e-01,0.000000000000000000e+00
3.410000000000000000e+02,1.000777883321807699e-01,0.000000000000000000e+00
3.420000000000000000e+02,-1.047067020151394967e+00,0.000000000000000000e+00
3.430000000000000000e+02,-1.633403524328419287e+00,0.000000000000000000e+00
3.440000000000000000e+02,-1.968718364522382691e+00,0.000000000000000000e+00
3.450000000000000000e+02,-1.934950906878259325e+00,0.000000000000000000e+00
3.460000000000000000e+02,-1.692017420709348796e+00,0.000000000000000000e+00
3.470000000000000000e+02,-1.618100246358570971e+00,0.000000000000000000e+00
3.480000000000000000e+02,-1.555537937327549303e+00,0.000000000000000000e+00
3.490000000000000000e+02,-1.199389584847636359e+00,0.000000000000000000e+00
3.500000000000000000e+02,-1.123011040442589481e+00,0.000000000000000000e+00
3.510000000000000000e+02,-8.455555867727565511e-01,0.000000000000000000e+00
3.520000000000000000e+02,-7.385275056356958023e-01,0.000000000000000000e+00
3.530000000000000000e+02,-7.415703072527128903e-01,0.000000000000000000e+00
3.540000000000000000e+02,-5.070428255290794217e-01,0.000000000000000000e+00
3.550000000000000000e+02,-6.669564944761955383e-01,0.000000000000000000e+00
3.560000000000000000e+02,-3.974182726326319637e-01,0.000000000000000000e+00
3.570000000000000000e+02,-4.392728531952987403e-01,0.000000000000000000e+00
3.580000000000000000e+02,-2.020859077394515368e-01,0.000000000000000000e+00
3.590000000000000000e+02,-2.917091544633170219e-01,0.000000000000000000e+00
3.600000000000000000e+02,-2.321342312599491697e-01,0.000000000000000000e+00
3.610000000000000000e+02,-8.418074723584823005e-02,0.000000000000000000e+00
3.620000000000000000e+02,-2.342541676281880703e-01,0.000000000000000000e+00
3.630000000000000000e+02,8.575965547865871397e-02,0.000000000000000000e+00
3.640000000000000000e+02,-4.183749049123058200e-02,0.000000000000000000e+00
3.650000000000000000e+02,1.678436367315646049e-01,0.000000000000000000e+00
3.660000000000000000e+02,1.324780135132257453e-01,0.000000000000000000e+00
3.670000000000000000e+02,1.801129082669784831e-01,0.000000000000000000e+00
3.680000000000000000e+02,2.948596895086933456e-01,0.000000000000000000e+00
3.690000000000000000e+02,2.139661191845806942e-01,0.000000000000000000e+00
3.700000000000000000e+02,2.523268175188987383e-01,0.000000000000000000e+00
3.710000000000000000e+02,3.601501294742191495e-01,0.000000000000000000e+00
3.720000000000000000e+02,3.080510017512032572e-01,0.000000000000000000e+00
3.730000000000000000e+02,3.830474074561968645e-01,0.000000000000000000e+00
3.740000000000000000e+02,4.278816065170502614e-01,0.000000000000000000e+00
3.750000000000000000e+02,4.137504030942246724e-01,0.000000000000000000e+00
3.760000000000000000e+02,4.319248100152153769e-01,0.000000000000000000e+00
3.770000000000000000e+02,4.792548432352997656e-01,0.000000000000000000e+00
3.780000000000000000e+02,9.028978761026469346e-01,0.000000000000000000e+00
3.790000000000000000e+02,7.973488816680219804e-01,0.000000000000000000e+00
3.800000000000000000e+02,5.535024526585704541e-01,0.000000000000000000e+00
3.810000000000000000e+02,5.589936819111434030e-01,0.000000000000000000e+00
3.820000000000000000e+02,9.302023331371050974e-02,0.000000000000000000e+00
3.830000000000000000e+02,1.579835656318856474e-01,0.000000000000000000e+00
3.840000000000000000e+02,1.270851322684525553e-01,0.000000000000000000e+00
3.850000000000000000e+02,1.673085383745580024e-01,0.000000000000000000e+00
3.860000000000000000e+02,3.297039371487988646e-01,0.000000000000000000e+00
3.870000000000000000e+02,3.398482700045663552e-01,0.000000000000000000e+00
3.880000000000000000e+02,3.174126033787827872e+00,0.000000000000000000e+00
3.890000000000000000e+02,4.079344611806189569e+00,0.000000000000000000e+00
3.900000000000000000e+02,2.510174778656027450e-01,1.000000000000000000e+00
3.910000000000000000e+02,5.232755340297522324e-03,0.000000000000000000e+00
3.920000000000000000e+02,-3.839131985051795759e-01,0.000000000000000000e+00
3.930000000000000000e+02,-3.329657260588950729e-01,0.000000000000000000e+00
3.940000000000000000e+02,-6.667838945352760893e-01,0.000000000000000000e+00
3.950000000000000000e+02,-4.361959618704237540e-01,0.000000000000000000e+00
3.960000000000000000e+02,-3.746214570411768308e-01,0.000000000000000000e+00
3.970000000000000000e+02,-2.509327996259981264e-01,0.000000000000000000e+00
3.980000000000000000e+02,7.622568572255000036e-03,0.000000000000000000e+00
3.990000000000000000e+02,7.258617798279468070e-02,0.000000000000000000e+00
4.000000000000000000e+02,4.745660136423832109e-01,0.000000000000000000e+00
4.010000000000000000e+02,8.718929793816668772e-01,0.000000000000000000e+00
4.020000000000000000e+02,9.295169823089501904e-01,0.000000000000000000e+00
4.030000000000000000e+02,1.312416200899394925e+00,0.000000000000000000e+00
4.040000000000000000e+02,1.104212720550184823e+00,0.000000000000000000e+00
4.050000000000000000e+02,5.060977345739529065e-01,0.000000000000000000e+00
4.060000000000000000e+02,-7.127018489133181145e-01,0.000000000000000000e+00
4.070000000000000000e+02,-1.528823055216481874e+00,0.000000000000000000e+00
4.080000000000000000e+02,-1.923695861430512632e+00,0.000000000000000000e+00
4.090000000000000000e+02,-1.941092585479531119e+00,0.000000000000000000e+00
4.100000000000000000e+02,-1.824025461003467408e+00,0.000000000000000000e+00
4.110000000000000000e+02,-1.620521876430386810e+00,0.000000000000000000e+00
4.120000000000000000e+02,-1.540146039723414129e+00,0.000000000000000000e+00
4.130000000000000000e+02,-1.198721988520615289e+00,0.000000000000000000e+00
4.140000000000000000e+02,-1.103460943592932786e+00,0.000000000000000000e+00
4.150000000000000000e+02,-8.130164497499162701e-01,0.000000000000000000e+00
4.160000000000000000e+02,-7.372537471713030977e-01,0.000000000000000000e+00
4.170000000000000000e+02,-6.227085295360730299e-01,0.000000000000000000e+00
4.180000000000000000e+02,-4.961128100107652927e-01,0.000000000000000000e+00
4.190000000000000000e+02,-3.806753171568106331e-01,0.000000000000000000e+00
4.200000000000000000e+02,-3.983224248368676945e-01,0.000000000000000000e+00
4.210000000000000000e+02,-4.138639837737516092e-01,0.000000000000000000e+00
4.220000000000000000e+02,-2.531180418408864319e-01,0.000000000000000000e+00
4.230000000000000000e+02,-2.568939880139234910e-01,0.000000000000000000e+00
4.240000000000000000e+02,-1.574645556861874462e-01,0.000000000000000000e+00
4.250000000000000000e+02,-5.315468103713993225e-02,0.000000000000000000e+00
4.260000000000000000e+02,-2.914024541551726161e-02,0.000000000000000000e+00
4.270000000000000000e+02,-7.254375251830312218e-03,0.000000000000000000e+00
4.280000000000000000e+02,7.426625660533645035e-02,0.000000000000000000e+00
4.290000000000000000e+02,2.633043374465339759e-01,0.000000000000000000e+00
4.300000000000000000e+02,6.985626894160450184e-02,0.000000000000000000e+00
4.310000000000000000e+02,2.632478757363260202e-01,0.000000000000000000e+00
4.320000000000000000e+02,1.975947422287073207e-01,0.000000000000000000e+00
4.330000000000000000e+02,3.759950667528007551e-01,0.000000000000000000e+00
4.340000000000000000e+02,2.314382221690141905e-01,0.000000000000000000e+00
4.350000000000000000e+02,4.130286693185939995e-01,0.000000000000000000e+00
4.360000000000000000e+02,1.530276714704695840e-01,0.000000000000000000e+00
4.370000000000000000e+02,4.565569315870363631e-01,0.000000000000000000e+00
4.380000000000000000e+02,5.017925753058617433e-01,0.000000000000000000e+00
4.390000000000000000e+02,3.591889377822166107e-01,0.000000000000000000e+00
4.400000000000000000e+02,2.859613853347408030e-01,0.000000000000000000e+00
4.410000000000000000e+02,5.207710575574151513e-01,0.000000000000000000e+00
4.420000000000000000e+02,3.704602381389094368e-01,0.000000000000000000e+00
4.430000000000000000e+02,5.452718588781996223e-01,0.000000000000000000e+00
4.440000000000000000e+02,6.942670802980567268e-01,0.000000000000000000e+00
4.450000000000000000e+02,9.948168498246987568e-01,0.000000000000000000e+00
4.460000000000000000e+02,5.518622936191869277e-01,0.000000000000000000e+00
4.470000000000000000e+02,7.380142321697081842e-01,0.000000000000000000e+00
4.480000000000000000e+02,2.999778273827809483e-01,0.000000000000000000e+00
4.490000000000000000e+02,1.092903943710320097e-01,0.000000000000000000e+00
4.500000000000000000e+02,1.234343733513776631e-01,0.000000000000000000e+00
4.510000000000000000e+02,1.854997888914791115e-01,0.000000000000000000e+00
4.520000000000000000e+02,1.477878999988221087e-01,0.000000000000000000e+00
4.530000000000000000e+02,3.044092742512400362e-01,0.000000000000000000e+00
4.540000000000000000e+02,9.143020037701098390e-01,0.000000000000000000e+00
4.550000000000000000e+02,4.645663228589311800e+00,0.000000000000000000e+00
4.560000000000000000e+02,2.626606054617873109e+00,1.000000000000000000e+00
4.570000000000000000e+02,-3.154473654938067528e-01,0.000000000000000000e+00
4.580000000000000000e+02,-5.389981805043404794e-02,0.000000000000000000e+00
4.590000000000000000e+02,-6.251875788965995939e-01,0.000000000000000000e+00
4.600000000000000000e+02,-4.660841350582805021e-01,0.000000000000000000e+00
4.610000000000000000e+02,-6.821394776564990714e-01,0.000000000000000000e+00
4.620000000000000000e+02,-5.097205996193923117e-01,0.000000000000000000e+00
4.630000000000000000e+02,-3.739294118787474530e-01,0.000000000000000000e+00
4.640000000000000000e+02,-2.413646262890294936e-01,0.000000000000000000e+00
4.650000000000000000e+02,-7.089281427963645132e-02,0.000000000000000000e+00
4.660000000000000000e+02,2.700042309161181375e-01,0.000000000000000000e+00
4.670000000000000000e+02,4.434594454193174773e-01,0.000000000000000000e+00
4.680000000000000000e+02,1.006250802608301465e+00,0.000000000000000000e+00
4.690000000000000000e+02,1.216133960553835713e+00,0.000000000000000000e+00
4.700000000000000000e+02,1.274073974368020501e+00,0.000000000000000000e+00
4.710000000000000000e+02,1.013460704098971155e+00,0.000000000000000000e+00
4.720000000000000000e+02,1.588334251885497317e-01,0.000000000000000000e+00
4.730000000000000000e+02,-1.095348141095925154e+00,0.000000000000000000e+00
4.740000000000000000e+02,-1.810624054181409148e+00,0.000000000000000000e+00
4.750000000000000000e+02,-2.152923440084482998e+00,0.000000000000000000e+00
4.760000000000000000e+02,-1.927353198370188370e+00,0.000000000000000000e+00
4.770000000000000000e+02,-1.947232400458316137e+00,0.000000000000000000e+00
4.780000000000000000e+02,-1.618400783986173819e+00,0.000000000000000000e+00
4.790000000000000000e+02,-1.502673534446708148e+00,0.000000000000000000e+00
4.800000000000000000e+02,-1.311678771276581834e+00,0.000000000000000000e+00
4.810000000000000000e+02,-1.238355436119673803e+00,0.000000000000000000e+00
4.820000000000000000e+02,-9.297149533349053918e-01,0.000000000000000000e+00
4.830000000000000000e+02,-7.726624976589454574e-01,0.000000000000000000e+00
4.840000000000000000e+02,-6.577979622932175197e-01,0.000000000000000000e+00
4.850000000000000000e+02,-5.418959829994686173e-01,0.000000000000000000e+00
4.860000000000000000e+02,-4.666961779776303554e-01,0.000000000000000000e+00
4.870000000000000000e+02,-5.797464323510483908e-01,0.000000000000000000e+00
4.880000000000000000e+02,-2.728025851659664491e-01,0.000000000000000000e+00
4.890000000000000000e+02,-3.735963330047216702e-01,0.000000000000000000e+00
4.900000000000000000e+02,-2.303218963557328858e-01,0.000000000000000000e+00
4.910000000000000000e+02,-1.871789359192648772e-01,0.000000000000000000e+00
4.920000000000000000e+02,-2.400084577923830842e-01,0.000000000000000000e+00
4.930000000000000000e+02,-1.059570733459318098e-01,0.000000000000000000e+00
4.940000000000000000e+02,-2.428811378289510992e-02,0.000000000000000000e+00
4.950000000000000000e+02,1.172839269836625960e-02,0.000000000000000000e+00
4.960000000000000000e+02,2.053671695758578497e-01,0.000000000000000000e+00
4.970000000000000000e+02,1.424894121194444363e-01,0.000000000000000000e+00
4.980000000000000000e+02,1.244075369291454264e-01,0.000000000000000000e+00
4.990000000000000000e+02,1.926026286743259541e-01,0.000000000000000000e+00
5.000000000000000000e+02,2.333129769222411221e-01,0.000000000000000000e+00
5.010000000000000000e+02,3.069404889643033152e-01,0.000000000000000000e+00
5.020000000000000000e+02,3.315096531884414999e-01,0.000000000000000000e+00
5.030000000000000000e+02,4.498913370581111293e-01,0.000000000000000000e+00
5.040000000000000000e+02,3.998548633375618166e-01,0.000000000000000000e+00
5.050000000000000000e+02,4.213271642772364878e-01,0.000000000000000000e+00
5.060000000000000000e+02,4.345015621847798104e-01,0.000000000000000000e+00
5.070000000000000000e+02,3.815325735293519371e-01,0.000000000000000000e+00
5.080000000000000000e+02,5.272005483392999681e-01,0.000000000000000000e+00
5.090000000000000000e+02,5.300446695547654796e-01,0.000000000000000000e+00
5.100000000000000000e+02,4.859830120103935114e-01,0.000000000000000000e+00
5.110000000000000000e+02,6.668950336670084189e-01,0.000000000000000000e+00
5.120000000000000000e+02,8.102414195786221685e-01,0.000000000000000000e+00
5.130000000000000000e+02,9.662654643235041307e-01,0.000000000000000000e+00
5.140000000000000000e+02,7.615859694272795188e-01,0.000000000000000000e+00
5.150000000000000000e+02,7.364362449045094294e-01,0.000000000000000000e+00
5.160000000000000000e+02,1.168872262488095670e-01,0.000000000000000000e+00
5.170000000000000000e+02,2.987785780949561154e-01,0.000000000000000000e+00
5.180000000000000000e+02,3.799428925885311309e-02,0.000000000000000000e+00
5.190000000000000000e+02,1.724142695538187497e-01,0.000000000000000000e+00
5.200000000000000000e+02,1.556502319366002973e-01,0.000000000000000000e+00
5.210000000000000000e+02,3.296957064431748075e-01,0.000000000000000000e+00
5.220000000000000000e+02,1.660510650651637388e+00,0.000000000000000000e+00
5.230000000000000000e+02,4.956186073616492216e+00,0.000000000000000000e+00
5.240000000000000000e+02,1.755777486359621387e+00,1.000000000000000000e+00
5.250000000000000000e+02,-4.174267437406370407e-01,0.000000000000000000e+00
5.260000000000000000e+02,-1.693740997399292569e-01,0.000000000000000000e+00
5.270000000000000000e+02,-6.982501424306345461e-01,0.000000000000000000e+00
5.280000000000000000e+02,-6.028820688293354824e-01,0.000000000000000000e+00
5.290000000000000000e+02,-7.084468440369794395e-01,0.000000000000000000e+00
5.300000000000000000e+02,-5.498165441245954632e-01,0.000000000000000000e+00
5.310000000000000000e+02,-4.801879527361108679e-01,0.000000000000000000e+00
5.320000000000000000e+02,-1.706751996409902050e-01,0.000000000000000000e+00
5.330000000000000000e+02,-1.066437732345610484e-02,0.000000000000000000e+00
5.340000000000000000e+02,2.461841456479282042e-01,0.000000000000000000e+00
5.350000000000000000e+02,6.384997087934896065e-01,0.000000000000000000e+00
5.360000000000000000e+02,8.925774618299832097e-01,0.000000000000000000e+00
5.370000000000000000e+02,1.216136730575401614e+00,0.000000000000000000e+00
5.380000000000000000e+02,1.216717024418733528e+00,0.000000000000000000e+00
5.390000000000000000e+02,8.555164422096332988e-01,0.000000000000000000e+00
5.400000000000000000e+02,-2.446029167132063031e-01,0.000000000000000000e+00
5.410000000000000000e+02,-1.366222964728852851e+00,0.000000000000000000e+00
5.420000000000000000e+02,-2.004692278122021776e+00,0.000000000000000000e+00
5.430000000000000000e+02,-2.042919038672399878e+00,0.000000000000000000e+00
5.440000000000000000e+02,-2.001253968290958252e+00,0.000000000000000000e+00
5.450000000000000000e+02,-1.878138890657265581e+00,0.000000000000000000e+00
5.460000000000000000e+02,-1.714739737756750371e+00,0.000000000000000000e+00
5.470000000000000000e+02,-1.553930533275449610e+00,0.000000000000000000e+00
5.480000000000000000e+02,-1.236300405277563907e+00,0.000000000000000000e+00
5.490000000000000000e+02,-1.161640059389612345e+00,0.000000000000000000e+00
5.500000000000000000e+02,-9.119273313953736304e-01,0.000000000000000000e+00
5.510000000000000000e+02,-7.791304653076275288e-01,0.000000000000000000e+00
5.520000000000000000e+02,-7.248074621635823833e-01,0.000000000000000000e+00
5.530000000000000000e+02,-6.208522626097888741e-01,0.000000000000000000e+00
5.540000000000000000e+02,-5.294321696485674300e-01,0.000000000000000000e+00
5.550000000000000000e+02,-4.995987491241843936e-01,0.000000000000000000e+00
5.560000000000000000e+02,-3.858849222136379042e-01,0.000000000000000000e+00
5.570000000000000000e+02,-2.757420412295574774e-01,0.000000000000000000e+00
5.580000000000000000e+02,-3.545430028612319151e-01,0.000000000000000000e+00
5.590000000000000000e+02,-1.615450302089773138e-01,0.000000000000000000e+00
5.600000000000000000e+02,-2.131741548902789662e-01,0.000000000000000000e+00
5.610000000000000000e+02,-5.956475119735842039e-02,0.000000000000000000e+00
5.620000000000000000e+02,3.711569044416399986e-04,0.000000000000000000e+00
5.630000000000000000e+02,-4.653526130330541688e-02,0.000000000000000000e+00
5.640000000000000000e+02,3.605868016284896616e-02,0.000000000000000000e+00
5.650000000000000000e+02,1.010767725976896431e-01,0.000000000000000000e+00
5.660000000000000000e+02,2.340004248210201532e-01,0.000000000000000000e+00
5.670000000000000000e+02,3.013194345432089194e-01,0.000000000000000000e+00
5.680000000000000000e+02,2.152091235135482894e-01,0.000000000000000000e+00
5.690000000000000000e+02,3.495722202385162514e-01,0.000000000000000000e+00
5.700000000000000000e+02,2.746223238879548223e-01,0.000000000000000000e+00
5.710000000000000000e+02,4.555682799387214543e-01,0.000000000000000000e+00
5.720000000000000000e+02,4.866387232265874108e-01,0.000000000000000000e+00
5.730000000000000000e+02,4.744302389701915978e-01,0.000000000000000000e+00
5.740000000000000000e+02,5.732700029422345134e-01,0.000000000000000000e+00
5.750000000000000000e+02,4.937484490017970962e-01,0.000000000000000000e+00
5.760000000000000000e+02,4.374691362596376809e-01,0.000000000000000000e+00
5.770000000000000000e+02,5.169601710370242964e-01,0.000000000000000000e+00
5.780000000000000000e+02,5.375149694404599554e-01,0.000000000000000000e+00
5.790000000000000000e+02,6.051159410713858877e-01,0.000000000000000000e+00
5.800000000000000000e+02,8.930049771210796239e-01,0.000000000000000000e+00
5.810000000000000000e+02,1.006391225650201005e+00,0.000000000000000000e+00
5.820000000000000000e+02,6.731194234918588259e-01,0.000000000000000000e+00
5.830000000000000000e+02,7.206556755068064257e-01,0.000000000000000000e+00
5.840000000000000000e+02,2.528806184111618838e-01,0.000000000000000000e+00
5.850000000000000000e+02,2.052848311163517625e-01,0.000000000000000000e+00
5.860000000000000000e+02,2.052376778935464663e-01,0.000000000000000000e+00
5.870000000000000000e+02,2.708611163228983321e-01,0.000000000000000000e+00
5.880000000000000000e+02,2.416856099003094893e-01,0.000000000000000000e+00
5.890000000000000000e+02,3.537888184679812698e-01,0.000000000000000000e+00
5.900000000000000000e+02,1.754771095614596543e+00,0.000000000000000000e+00
5.910000000000000000e+02,4.955970394036628868e+00,0.000000000000000000e+00
5.920000000000000000e+02,1.330036930506864223e+00,1.000000000000000000e+00
5.930000000000000000e+02,-3.737867442577880728e-01,0.000000000000000000e+00
5.940000000000000000e+02,5.013918171907735810e-02,0.000000000000000000e+00
5.950000000000000000e+02,-5.844523585499964424e-01,0.000000000000000000e+00
5.960000000000000000e+02,-4.833126188273788038e-01,0.000000000000000000e+00
5.970000000000000000e+02,-5.289232930941100141e-01,0.000000000000000000e+00
5.980000000000000000e+02,-4.256153555438337843e-01,0.000000000000000000e+00
5.990000000000000000e+02,-3.258940876401417164e-01,0.000000000000000000e+00
6.000000000000000000e+02,-1.243918902603325660e-01,0.000000000000000000e+00
6.010000000000000000e+02,7.208075837123661955e-02,0.000000000000000000e+00
6.020000000000000000e+02,2.948012745528442169e-01,0.000000000000000000e+00
6.030000000000000000e+02,6.327896405401425284e-01,0.000000000000000000e+00
6.040000000000000000e+02,9.470151474496375510e-01,0.000000000000000000e+00
6.050000000000000000e+02,1.206346657047310478e+00,0.000000000000000000e+00
6.060000000000000000e+02,1.225223035416332706e+00,0.000000000000000000e+00
6.070000000000000000e+02,6.413347486094396199e-01,0.000000000000000000e+00
6.080000000000000000e+02,-1.892321101880693468e-01,0.000000000000000000e+00
6.090000000000000000e+02,-1.332121627805455288e+00,0.000000000000000000e+00
6.100000000000000000e+02,-1.933274184864004708e+00,0.000000000000000000e+00
6.110000000000000000e+02,-1.997832353363098834e+00,0.000000000000000000e+00
6.120000000000000000e+02,-2.012178638640476969e+00,0.000000000000000000e+00
6.130000000000000000e+02,-1.765033155239119855e+00,0.000000000000000000e+00
6.140000000000000000e+02,-1.685616162205716639e+00,0.000000000000000000e+00
6.150000000000000000e+02,-1.470548185214389791e+00,0.000000000000000000e+00
6.160000000000000000e+02,-1.181571417689715631e+00,0.000000000000000000e+00
6.170000000000000000e+02,-9.677338144153980748e-01,0.000000000000000000e+00
6.180000000000000000e+02,-9.309839930901504523e-01,0.000000000000000000e+00
6.190000000000000000e+02,-6.322301374847376643e-01,0.000000000000000000e+00
6.200000000000000000e+02,-5.991066463983724111e-01,0.000000000000000000e+00
6.210000000000000000e+02,-5.362472577200181334e-01,0.000000000000000000e+00
6.220000000000000000e+02,-5.529253451527895713e-01,0.000000000000000000e+00
6.230000000000000000e+02,-5.835797337576549282e-01,0.000000000000000000e+00
6.240000000000000000e+02,-2.530519100249988274e-01,0.000000000000000000e+00
6.250000000000000000e+02,-3.717795413973697394e-01,0.000000000000000000e+00
6.260000000000000000e+02,-1.674913612898094595e-01,0.000000000000000000e+00
6.270000000000000000e+02,-2.937256363767140055e-01,0.000000000000000000e+00
6.280000000000000000e+02,-7.312332762586647161e-02,0.000000000000000000e+00
6.290000000000000000e+02,-1.055347738919755612e-01,0.000000000000000000e+00
6.300000000000000000e+02,-2.998621302152185142e-02,0.000000000000000000e+00
6.310000000000000000e+02,5.990901851756673391e-02,0.000000000000000000e+00
6.320000000000000000e+02,9.840095964950058838e-02,0.000000000000000000e+00
6.330000000000000000e+02,1.451941081366824038e-01,0.000000000000000000e+00
6.340000000000000000e+02,1.618998512369644871e-01,0.000000000000000000e+00
6.350000000000000000e+02,2.689903486557742585e-01,0.000000000000000000e+00
6.360000000000000000e+02,8.978431646577113290e-02,0.000000000000000000e+00
6.370000000000000000e+02,3.391750350824533355e-01,0.000000000000000000e+00
6.380000000000000000e+02,2.965951558045072933e-01,0.000000000000000000e+00
6.390000000000000000e+02,3.939908254204574356e-01,0.000000000000000000e+00
6.400000000000000000e+02,3.382296229578417579e-01,0.000000000000000000e+00
6.410000000000000000e+02,4.715448793866862109e-01,0.000000000000000000e+00
6.420000000000000000e+02,2.813613192399921359e-01,0.000000000000000000e+00
6.430000000000000000e+02,5.200143240148002999e-01,0.000000000000000000e+00
6.440000000000000000e+02,4.972499157972083972e-01,0.000000000000000000e+00
6.450000000000000000e+02,8.860699821567631362e-01,0.000000000000000000e+00
6.460000000000000000e+02,7.025036886957334303e-01,0.000000000000000000e+00
6.470000000000000000e+02,6.827316223725004019e-01,0.000000000000000000e+00
6.480000000000000000e+02,4.221832424024625219e-01,0.000000000000000000e+00
6.490000000000000000e+02,2.116998889821870011e-01,0.000000000000000000e+00
6.500000000000000000e+02,2.229353698696681929e-01,0.000000000000000000e+00
6.510000000000000000e+02,1.645415220784534061e-01,0.000000000000000000e+00
6.520000000000000000e+02,4.947551141760396509e-02,0.000000000000000000e+00
6.530000000000000000e+02,3.920944653832434956e-01,0.000000000000000000e+00
6.540000000000000000e+02,4.543887535752061946e-01,0.000000000000000000e+00
6.550000000000000000e+02,3.512351414611251776e+00,0.000000000000000000e+00
6.560000000000000000e+02,3.272542463500693444e+00,0.000000000000000000e+00
6.570000000000000000e+02,-2.704361844512292445e-01,1.000000000000000000e+00
6.580000000000000000e+02,9.585383411281665766e-02,0.000000000000000000e+00
6.590000000000000000e+02,-2.617197946508718620e-01,0.000000000000000000e+00
6.600000000000000000e+02,-3.928248012853466364e-01,0.000000000000000000e+00
6.610000000000000000e+02,-4.614527931271603656e-01,0.000000000000000000e+00
6.620000000000000000e+02,-4.771297356796529443e-01,0.000000000000000000e+00
6.630000000000000000e+02,-2.157102780608698700e-01,0.000000000000000000e+00
6.640000000000000000e+02,5.680603253532940516e-03,0.000000000000000000e+00
6.650000000000000000e+02,-1.171864439350331910e-01,0.000000000000000000e+00
6.660000000000000000e+02,4.334219336393936861e-01,0.000000000000000000e+00
6.670000000000000000e+02,4.401108314989122250e-01,0.000000000000000000e+00
6.680000000000000000e+02,9.883900388052702102e-01,0.000000000000000000e+00
6.690000000000000000e+02,1.204529289056862629e+00,0.000000000000000000e+00
6.700000000000000000e+02,1.240311914463919196e+00,0.000000000000000000e+00
6.710000000000000000e+02,1.058935410717564363e+00,0.000000000000000000e+00
6.720000000000000000e+02,4.767065811256904206e-01,0.000000000000000000e+00
6.730000000000000000e+02,-8.293038843772576607e-01,0.000000000000000000e+00
6.740000000000000000e+02,-1.585360794014323726e+00,0.000000000000000000e+00
6.750000000000000000e+02,-1.954100467853838952e+00,0.000000000000000000e+00
6.760000000000000000e+02,-1.951934375666914079e+00,0.000000000000000000e+00
6.770000000000000000e+02,-1.788141124451005703e+00,0.000000000000000000e+00
6.780000000000000000e+02,-1.658389086125112932e+00,0.000000000000000000e+00
6.790000000000000000e+02,-1.436159598273001103e+00,0.000000000000000000e+00
6.800000000000000000e+02,-1.198480898318494692e+00,0.000000000000000000e+00
6.810000000000000000e+02,-1.100151039166137990e+00,0.000000000000000000e+00
6.820000000000000000e+02,-7.408332728712847537e-01,0.000000000000000000e+00
6.830000000000000000e+02,-8.649185846120288623e-01,0.000000000000000000e+00
6.840000000000000000e+02,-6.256536176405631533e-01,0.000000000000000000e+00
6.850000000000000000e+02,-4.661303465621531861e-01,0.000000000000000000e+00
6.860000000000000000e+02,-4.742523210847985338e-01,0.000000000000000000e+00
6.870000000000000000e+02,-3.830268977104575590e-01,0.000000000000000000e+00
6.880000000000000000e+02,-3.563124174396146704e-01,0.000000000000000000e+00
6.890000000000000000e+02,-3.285938961879003029e-01,0.000000000000000000e+00
6.900000000000000000e+02,-2.104263164275616271e-01,0.000000000000000000e+00
6.910000000000000000e+02,-2.022636854968762887e-01,0.000000000000000000e+00
6.920000000000000000e+02,7.308114687714792335e-02,0.000000000000000000e+00
6.930000000000000000e+02,-8.211334203137080068e-02,0.000000000000000000e+00
6.940000000000000000e+02,5.037724330355303898e-02,0.000000000000000000e+00
6.950000000000000000e+02,5.786929466537306735e-03,0.000000000000000000e+00
6.960000000000000000e+02,1.330785785171362534e-01,0.000000000000000000e+00
6.970000000000000000e+02,1.737914910153913750e-01,0.000000000000000000e+00
6.980000000000000000e+02,2.858711011375205113e-01,0.000000000000000000e+00
6.990000000000000000e+02,2.056998217939851881e-01,0.000000000000000000e+00
7.000000000000000000e+02,1.489369023827949723e-01,0.000000000000000000e+00
7.010000000000000000e+02,3.694137901783906552e-01,0.000000000000000000e+00
7.020000000000000000e+02,2.539872289994329901e-01,0.000000000000000000e+00
7.030000000000000000e+02,1.944195079257384773e-01,0.000000000000000000e+00
7.040000000000000000e+02,4.588034139885904250e-01,0.000000000000000000e+00
7.050000000000000000e+02,3.431089634661987908e-01,0.000000000000000000e+00
7.060000000000000000e+02,3.118188481323557193e-01,0.000000000000000000e+00
7.070000000000000000e+02,4.051314389818585493e-01,0.000000000000000000e+00
7.080000000000000000e+02,2.745013087533474949e-01,0.000000000000000000e+00
7.090000000000000000e+02,4.691129170178744423e-01,0.000000000000000000e+00
7.100000000000000000e+02,7.481333278460421399e-01,0.000000000000000000e+00
7.110000000000000000e+02,7.905010204123136264e-01,0.000000000000000000e+00
7.120000000000000000e+02,7.545297107981602247e-01,0.000000000000000000e+00
7.130000000000000000e+02,6.301236030037715707e-01,0.000000000000000000e+00
7.140000000000000000e+02,2.696078578699507289e-01,0.000000000000000000e+00
7.150000000000000000e+02,1.371078599270231790e-01,0.000000000000000000e+00
7.160000000000000000e+02,1.854516124044371383e-01,0.000000000000000000e+00
7.170000000000000000e+02,1.588789122342232907e-01,0.000000000000000000e+00
7.180000000000000000e+02,1.351806303545267096e-01,0.000000000000000000e+00
7.190000000000000000e+02,3.605831343967533797e-01,0.000000000000000000e+00
7.200000000000000000e+02,8.483512368783037161e-01,0.000000000000000000e+00
7.210000000000000000e+02,4.591369597285071436e+00,0.000000000000000000e+00
7.220000000000000000e+02,2.780960670267278445e+00,1.000000000000000000e+00
7.230000000000000000e+02,-3.623953197015281624e-01,0.000000000000000000e+00
7.240000000000000000e+02,1.074023031358550956e-01,0.000000000000000000e+00
7.250000000000000000e+02,-6.391679787295410087e-01,0.000000000000000000e+00
7.260000000000000000e+02,-4.926382213186099035e-01,0.000000000000000000e+00
7.270000000000000000e+02,-5.812689447035681578e-01,0.000000000000000000e+00
7.280000000000000000e+02,-3.712606065133677857e-01,0.000000000000000000e+00
7.290000000000000000e+02,-4.871009497901043206e-01,0.000000000000000000e+00
7.300000000000000000e+02,8.804196642134078099e-02,0.000000000000000000e+00
7.310000000000000000e+02,-1.441890708512871266e-01,0.000000000000000000e+00
7.320000000000000000e+02,4.071622506986125600e-01,0.000000000000000000e+00
7.330000000000000000e+02,5.399156867248995351e-01,0.000000000000000000e+00
7.340000000000000000e+02,1.000977763712292967e+00,0.000000000000000000e+00
7.350000000000000000e+02,1.140399998951369120e+00,0.000000000000000000e+00
7.360000000000000000e+02,1.224721237843684252e+00,0.000000000000000000e+00
7.370000000000000000e+02,8.903784717250203817e-01,0.000000000000000000e+00
7.380000000000000000e+02,9.328281573958324691e-02,0.000000000000000000e+00
7.390000000000000000e+02,-1.155732603576707040e+00,0.000000000000000000e+00
7.400000000000000000e+02,-1.786634389637067777e+00,0.000000000000000000e+00
7.410000000000000000e+02,-2.132589843558737819e+00,0.000000000000000000e+00
7.420000000000000000e+02,-1.871997074355993940e+00,0.000000000000000000e+00
7.430000000000000000e+02,-1.873467085016953027e+00,0.000000000000000000e+00
7.440000000000000000e+02,-1.583742307970596563e+00,0.000000000000000000e+00
7.450000000000000000e+02,-1.493717722360178968e+00,0.000000000000000000e+00
7.460000000000000000e+02,-1.278758406377244805e+00,0.000000000000000000e+00
7.470000000000000000e+02,-1.260554814173329818e+00,0.000000000000000000e+00
7.480000000000000000e+02,-8.046414196520622619e-01,0.000000000000000000e+00
7.490000000000000000e+02,-8.630606753203124981e-01,0.000000000000000000e+00
7.500000000000000000e+02,-6.703447387007458458e-01,0.000000000000000000e+00
7.510000000000000000e+02,-4.936250868413871729e-01,0.000000000000000000e+00
7.520000000000000000e+02,-5.820230932789843825e-01,0.000000000000000000e+00
7.530000000000000000e+02,-4.160338246114914096e-01,0.000000000000000000e+00
7.540000000000000000e+02,-4.873925171189156247e-01,0.000000000000000000e+00
7.550000000000000000e+02,-3.610978401606783073e-01,0.000000000000000000e+00
7.560000000000000000e+02,-2.263197285515266555e-01,0.000000000000000000e+00
7.570000000000000000e+02,-2.264370066093428502e-01,0.000000000000000000e+00
7.580000000000000000e+02,3.067710505996355461e-02,0.000000000000000000e+00
7.590000000000000000e+02,-1.271324319790372026e-01,0.000000000000000000e+00
7.600000000000000000e+02,9.930075723221967743e-02,0.000000000000000000e+00
7.610000000000000000e+02,4.308759215043190399e-02,0.000000000000000000e+00
7.620000000000000000e+02,1.602185139283768822e-01,0.000000000000000000e+00
7.630000000000000000e+02,2.591265661618816218e-01,0.000000000000000000e+00
7.640000000000000000e+02,1.733918788546354450e-01,0.000000000000000000e+00
7.650000000000000000e+02,2.042932296905086709e-01,0.000000000000000000e+00
7.660000000000000000e+02,2.941699548064197756e-01,0.000000000000000000e+00
7.670000000000000000e+02,3.090055031817809383e-01,0.000000000000000000e+00
7.680000000000000000e+02,3.956874410589525937e-01,0.000000000000000000e+00
7.690000000000000000e+02,3.397826865342413183e-01,0.000000000000000000e+00
7.700000000000000000e+02,4.797011920322190037e-01,0.000000000000000000e+00
7.710000000000000000e+02,3.775737829529531298e-01,0.000000000000000000e+00
7.720000000000000000e+02,4.763093847464829333e-01,0.000000000000000000e+00
7.730000000000000000e+02,4.295848488296605261e-01,0.000000000000000000e+00
7.740000000000000000e+02,4.378596266689857575e-01,0.000000000000000000e+00
7.750000000000000000e+02,4.010001068649248768e-01,0.000000000000000000e+00
7.760000000000000000e+02,5.286389129606412496e-01,0.000000000000000000e+00
7.770000000000000000e+02,6.249400444739586780e-01,0.000000000000000000e+00
7.780000000000000000e+02,8.467525343362128920e-01,0.000000000000000000e+00
7.790000000000000000e+02,9.462363077428694869e-01,0.000000000000000000e+00
7.800000000000000000e+02,6.861881078521111510e-01,0.000000000000000000e+00
7.810000000000000000e+02,4.829729277748474048e-01,0.000000000000000000e+00
7.820000000000000000e+02,9.947755813400829816e-02,0.000000000000000000e+00
7.830000000000000000e+02,9.608165724283940223e-02,0.000000000000000000e+00
7.840000000000000000e+02,2.954999179200652470e-01,0.000000000000000000e+00
7.850000000000000000e+02,1.679053803887016819e-02,0.000000000000000000e+00
7.860000000000000000e+02,2.291315155380366786e-01,0.000000000000000000e+00
7.870000000000000000e+02,3.452428366278015859e-01,0.000000000000000000e+00
7.880000000000000000e+02,3.018205352231884575e+00,0.000000000000000000e+00
7.890000000000000000e+02,4.624770507514235796e+00,0.000000000000000000e+00
7.900000000000000000e+02,2.910144007561609736e-01,1.000000000000000000e+00
7.910000000000000000e+02,-1.912951418254701386e-01,0.000000000000000000e+00
7.920000000000000000e+02,-4.720680863338319044e-01,0.000000000000000000e+00
7.930000000000000000e+02,-8.345745192749315366e-01,0.000000000000000000e+00
7.940000000000000000e+02,-5.898330735834262928e-01,0.000000000000000000e+00
7.950000000000000000e+02,-6.959349262285321469e-01,0.000000000000000000e+00
7.960000000000000000e+02,-4.593036594028274133e-01,0.000000000000000000e+00
7.970000000000000000e+02,-4.292222225310548533e-01,0.000000000000000000e+00
7.980000000000000000e+02,-2.995760558855084521e-01,0.000000000000000000e+00
7.990000000000000000e+02,1.046251675332998399e-01,0.000000000000000000e+00
8.000000000000000000e+02,4.205104319952202019e-01,0.000000000000000000e+00
8.010000000000000000e+02,7.745477273197799439e-01,0.000000000000000000e+00
8.020000000000000000e+02,1.103778519798611635e+00,0.000000000000000000e+00
8.030000000000000000e+02,1.274097313702264644e+00,0.000000000000000000e+00
8.040000000000000000e+02,1.224029133508921285e+00,0.000000000000000000e+00
8.050000000000000000e+02,5.391104771382002614e-01,0.000000000000000000e+00
8.060000000000000000e+02,-5.557737506372953940e-01,0.000000000000000000e+00
8.070000000000000000e+02,-1.641156612928429404e+00,0.000000000000000000e+00
8.080000000000000000e+02,-2.012416779258706434e+00,0.000000000000000000e+00
8.090000000000000000e+02,-2.145142104058883170e+00,0.000000000000000000e+00
8.100000000000000000e+02,-1.944115835860861230e+00,0.000000000000000000e+00
8.110000000000000000e+02,-1.883021431471047169e+00,0.000000000000000000e+00
8.120000000000000000e+02,-1.556349467655570251e+00,0.000000000000000000e+00
8.130000000000000000e+02,-1.494564052162217660e+00,0.000000000000000000e+00
8.140000000000000000e+02,-1.109099911993411736e+00,0.000000000000000000e+00
8.150000000000000000e+02,-1.049352481885381660e+00,0.000000000000000000e+00
8.160000000000000000e+02,-9.278347185464715929e-01,0.000000000000000000e+00
8.170000000000000000e+02,-7.230946282811223647e-01,0.000000000000000000e+00
8.180000000000000000e+02,-6.253316626123813782e-01,0.000000000000000000e+00
8.190000000000000000e+02,-6.251252021981075213e-01,0.000000000000000000e+00
8.200000000000000000e+02,-4.159739224819784531e-01,0.000000000000000000e+00
8.210000000000000000e+02,-4.448752995389055331e-01,0.000000000000000000e+00
8.220000000000000000e+02,-4.911363913303635198e-01,0.000000000000000000e+00
8.230000000000000000e+02,-2.595236588789279764e-01,0.000000000000000000e+00
8.240000000000000000e+02,-2.675610586789682332e-01,0.000000000000000000e+00
8.250000000000000000e+02,-1.479164168530932300e-01,0.000000000000000000e+00
8.260000000000000000e+02,-6.481370567983871234e-02,0.000000000000000000e+00
8.270000000000000000e+02,-1.109042940467997868e-01,0.000000000000000000e+00
8.280000000000000000e+02,-6.580766970853045572e-02,0.000000000000000000e+00
8.290000000000000000e+02,8.479317594294896732e-02,0.000000000000000000e+00
8.300000000000000000e+02,6.742179991530304617e-02,0.000000000000000000e+00
8.310000000000000000e+02,2.712463471671144322e-01,0.000000000000000000e+00
8.320000000000000000e+02,2.011968327624504005e-01,0.000000000000000000e+00
8.330000000000000000e+02,1.584358401477856948e-01,0.000000000000000000e+00
8.340000000000000000e+02,2.921269283043679832e-01,0.000000000000000000e+00
8.350000000000000000e+02,2.587899957804812856e-01,0.000000000000000000e+00
8.360000000000000000e+02,4.332108367170107166e-01,0.000000000000000000e+00
8.370000000000000000e+02,4.332690303572981905e-01,0.000000000000000000e+00
8.380000000000000000e+02,4.315308119655318908e-01,0.000000000000000000e+00
8.390000000000000000e+02,4.948466720593705515e-01,0.000000000000000000e+00
8.400000000000000000e+02,4.960589835934355318e-01,0.000000000000000000e+00
8.410000000000000000e+02,4.940810480745856936e-01,0.000000000000000000e+00
8.420000000000000000e+02,5.072324026817134346e-01,0.000000000000000000e+00
8.430000000000000000e+02,5.487233359933987309e-01,0.000000000000000000e+00
8.440000000000000000e+02,8.447883071003513544e-01,0.000000000000000000e+00
8.450000000000000000e+02,1.034956745155535485e+00,0.000000000000000000e+00
8.460000000000000000e+02,8.761332089579390026e-01,0.000000000000000000e+00
8.470000000000000000e+02,7.255380994384306170e-01,0.000000000000000000e+00
8.480000000000000000e+02,7.360597720362731522e-01,0.000000000000000000e+00
8.490000000000000000e+02,1.391288767719073838e-01,0.000000000000000000e+00
8.500000000000000000e+02,2.057563523822081852e-01,0.000000000000000000e+00
8.510000000000000000e+02,2.751321186870676061e-01,0.000000000000000000e+00
8.520000000000000000e+02,4.218142951589056583e-02,0.000000000000000000e+00
8.530000000000000000e+02,3.549076250801511123e-01,0.000000000000000000e+00
8.540000000000000000e+02,3.949785439543381238e-01,0.000000000000000000e+00
8.550000000000000000e+02,2.827923308450905449e+00,0.000000000000000000e+00
8.560000000000000000e+02,4.933833348457336676e+00,0.000000000000000000e+00
8.570000000000000000e+02,4.823367616262738133e-01,1.000000000000000000e+00
8.580000000000000000e+02,-1.489065337220793483e-01,0.000000000000000000e+00
8.590000000000000000e+02,-3.451335854508912337e-01,0.000000000000000000e+00
8.600000000000000000e+02,-5.075806807433046464e-01,0.000000000000000000e+00
8.610000000000000000e+02,-8.070545878893196079e-01,0.000000000000000000e+00
8.620000000000000000e+02,-3.516828884019635448e-01,0.000000000000000000e+00
8.630000000000000000e+02,-4.591225417799348896e-01,0.000000000000000000e+00
8.640000000000000000e+02,-2.263101797043065300e-01,0.000000000000000000e+00
8.650000000000000000e+02,2.400163333162984303e-02,0.000000000000000000e+00
8.660000000000000000e+02,1.527224374994649858e-01,0.000000000000000000e+00
8.670000000000000000e+02,4.162468894487389992e-01,0.000000000000000000e+00
8.680000000000000000e+02,8.720687754204922149e-01,0.000000000000000000e+00
8.690000000000000000e+02,1.175442248996777739e+00,0.000000000000000000e+00
8.700000000000000000e+02,1.278100870011460666e+00,0.000000000000000000e+00
8.710000000000000000e+02,1.335873809576846094e+00,0.000000000000000000e+00
8.720000000000000000e+02,7.473566876029251738e-01,0.000000000000000000e+00
8.730000000000000000e+02,-5.298400186180824978e-01,0.000000000000000000e+00
8.740000000000000000e+02,-1.676379816072307793e+00,0.000000000000000000e+00
8.750000000000000000e+02,-1.909387703550461612e+00,0.000000000000000000e+00
8.760000000000000000e+02,-2.210906488080014665e+00,0.000000000000000000e+00
8.770000000000000000e+02,-1.983940763529690843e+00,0.000000000000000000e+00
8.780000000000000000e+02,-1.809643461742201920e+00,0.000000000000000000e+00
8.790000000000000000e+02,-1.852461155649142377e+00,0.000000000000000000e+00
8.800000000000000000e+02,-1.460085488042730528e+00,0.000000000000000000e+00
8.810000000000000000e+02,-1.250305263663975541e+00,0.000000000000000000e+00
8.820000000000000000e+02,-1.178475271260525092e+00,0.000000000000000000e+00
8.830000000000000000e+02,-9.003304492578797502e-01,0.000000000000000000e+00
8.840000000000000000e+02,-8.188045255964999658e-01,0.000000000000000000e+00
8.850000000000000000e+02,-7.789111513753567140e-01,0.000000000000000000e+00
8.860000000000000000e+02,-7.094542662516410969e-01,0.000000000000000000e+00
8.870000000000000000e+02,-5.905586408243631569e-01,0.000000000000000000e+00
8.880000000000000000e+02,-5.723161561611774806e-01,0.000000000000000000e+00
8.890000000000000000e+02,-3.775882366912952648e-01,0.000000000000000000e+00
8.900000000000000000e+02,-4.002997634112646641e-01,0.000000000000000000e+00
8.910000000000000000e+02,-2.746667817112732335e-01,0.000000000000000000e+00
8.920000000000000000e+02,-2.591948951581691807e-01,0.000000000000000000e+00
8.930000000000000000e+02,-1.332671263121525118e-01,0.000000000000000000e+00
8.940000000000000000e+02,-1.057714907256740583e-01,0.000000000000000000e+00
8.950000000000000000e+02,-1.215554934485955181e-03,0.000000000000000000e+00
8.960000000000000000e+02,1.541127071131464243e-01,0.000000000000000000e+00
8.970000000000000000e+02,2.929364611648826913e-04,0.000000000000000000e+00
8.980000000000000000e+02,1.648099605729757833e-01,0.000000000000000000e+00
8.990000000000000000e+02,2.582279497614338171e-01,0.000000000000000000e+00
9.000000000000000000e+02,3.122715745036351298e-01,0.000000000000000000e+00
9.010000000000000000e+02,2.452510247617047667e-01,0.000000000000000000e+00
9.020000000000000000e+02,3.765674034790805202e-01,0.000000000000000000e+00
9.030000000000000000e+02,2.900627442658844646e-01,0.000000000000000000e+00
9.040000000000000000e+02,3.854256436056955337e-01,0.000000000000000000e+00
9.050000000000000000e+02,4.724666550501611106e-01,0.000000000000000000e+00
9.060000000000000000e+02,3.802447635971221152e-01,0.000000000000000000e+00
9.070000000000000000e+02,5.171152068492105291e-01,0.000000000000000000e+00
9.080000000000000000e+02,3.480745694079603880e-01,0.000000000000000000e+00
9.090000000000000000e+02,3.946547172335631015e-01,0.000000000000000000e+00
9.100000000000000000e+02,6.143791558170543787e-01,0.000000000000000000e+00
9.110000000000000000e+02,6.464881029310296512e-01,0.000000000000000000e+00
9.120000000000000000e+02,9.039224951997656410e-01,0.000000000000000000e+00
9.130000000000000000e+02,7.500473601302727333e-01,0.000000000000000000e+00
9.140000000000000000e+02,6.890623000219108230e-01,0.000000000000000000e+00
9.150000000000000000e+02,1.426786070320984201e-01,0.000000000000000000e+00
9.160000000000000000e+02,1.741908598471685610e-01,0.000000000000000000e+00
9.170000000000000000e+02,1.111500216591816970e-01,0.000000000000000000e+00
9.180000000000000000e+02,2.994236149802033675e-01,0.000000000000000000e+00
9.190000000000000000e+02,1.756258933932979549e-01,0.000000000000000000e+00
9.200000000000000000e+02,3.831772553444635632e-01,0.000000000000000000e+00
9.210000000000000000e+02,1.385135948678680506e+00,0.000000000000000000e+00
9.220000000000000000e+02,4.853962006569910947e+00,0.000000000000000000e+00
9.230000000000000000e+02,1.715012464133944148e+00,1.000000000000000000e+00
9.240000000000000000e+02,-2.905159541711374027e-01,0.000000000000000000e+00
9.250000000000000000e+02,7.879321371265231300e-02,0.000000000000000000e+00
9.260000000000000000e+02,-4.112092439026927559e-01,0.000000000000000000e+00
9.270000000000000000e+02,-3.313579359020722426e-01,0.000000000000000000e+00
9.280000000000000000e+02,-5.107185930250869310e-01,0.000000000000000000e+00
9.290000000000000000e+02,-1.598589464887182066e-01,0.000000000000000000e+00
9.300000000000000000e+02,-3.856038274742772387e-01,0.000000000000000000e+00
9.310000000000000000e+02,3.311171930628321186e-02,0.000000000000000000e+00
9.320000000000000000e+02,1.566590225824256166e-01,0.000000000000000000e+00
9.330000000000000000e+02,3.393450671789605133e-01,0.000000000000000000e+00
9.340000000000000000e+02,7.409408827785129992e-01,0.000000000000000000e+00
9.350000000000000000e+02,1.080574486916455967e+00,0.000000000000000000e+00
9.360000000000000000e+02,1.113902751132045399e+00,0.000000000000000000e+00
9.370000000000000000e+02,1.339066328489445956e+00,0.000000000000000000e+00
9.380000000000000000e+02,8.028822664692951694e-01,0.000000000000000000e+00
9.390000000000000000e+02,-5.280138130557193721e-02,0.000000000000000000e+00
9.400000000000000000e+02,-1.173390245155085276e+00,0.000000000000000000e+00
9.410000000000000000e+02,-1.846886151867484616e+00,0.000000000000000000e+00
9.420000000000000000e+02,-1.912700720581985481e+00,0.000000000000000000e+00
9.430000000000000000e+02,-1.991786508176426107e+00,0.000000000000000000e+00
9.440000000000000000e+02,-1.874300422764670238e+00,0.000000000000000000e+00
9.450000000000000000e+02,-1.641929204292246869e+00,0.000000000000000000e+00
9.460000000000000000e+02,-1.393528868170517132e+00,0.000000000000000000e+00
9.470000000000000000e+02,-1.234348586750009913e+00,0.000000000000000000e+00
9.480000000000000000e+02,-1.051370408206188989e+00,0.000000000000000000e+00
9.490000000000000000e+02,-8.437879763823425971e-01,0.000000000000000000e+00
9.500000000000000000e+02,-8.238753421129210164e-01,0.000000000000000000e+00
9.510000000000000000e+02,-7.044305930506834512e-01,0.000000000000000000e+00
9.520000000000000000e+02,-6.246803153507147766e-01,0.000000000000000000e+00
9.530000000000000000e+02,-5.680453187887476441e-01,0.000000000000000000e+00
9.540000000000000000e+02,-5.522136135558662895e-01,0.000000000000000000e+00
9.550000000000000000e+02,-3.760681444752328462e-01,0.000000000000000000e+00
9.560000000000000000e+02,-4.446341341120512713e-01,0.000000000000000000e+00
9.570000000000000000e+02,-1.863824480542293771e-01,0.000000000000000000e+00
9.580000000000000000e+02,-1.190192321018365001e-01,0.000000000000000000e+00
9.590000000000000000e+02,-1.710105646595366513e-01,0.000000000000000000e+00
9.600000000000000000e+02,-9.900595079269121357e-02,0.000000000000000000e+00
9.610000000000000000e+02,-6.288164594721974525e-03,0.000000000000000000e+00
9.620000000000000000e+02,-8.759764650214944826e-02,0.000000000000000000e+00
9.630000000000000000e+02,1.857556312399127885e-01,0.000000000000000000e+00
9.640000000000000000e+02,1.472026486042211091e-01,0.000000000000000000e+00
9.650000000000000000e+02,1.966151548614676337e-01,0.000000000000000000e+00
9.660000000000000000e+02,2.015560335168539718e-01,0.000000000000000000e+00
9.670000000000000000e+02,2.375205954686579746e-01,0.000000000000000000e+00
9.680000000000000000e+02,4.367786578230845040e-01,0.000000000000000000e+00
9.690000000000000000e+02,4.460026064031172854e-01,0.000000000000000000e+00
9.700000000000000000e+02,3.869123230815377790e-01,0.000000000000000000e+00
9.710000000000000000e+02,4.951342213025153871e-01,0.000000000000000000e+00
9.720000000000000000e+02,4.144376006329314466e-01,0.000000000000000000e+00
9.730000000000000000e+02,5.626092473199393318e-01,0.000000000000000000e+00
9.740000000000000000e+02,7.033536646030104089e-01,0.000000000000000000e+00
9.750000000000000000e+02,7.576891324222810864e-01,0.000000000000000000e+00
9.760000000000000000e+02,8.736317327965954505e-01,0.000000000000000000e+00
9.770000000000000000e+02,6.552166688628197067e-01,0.000000000000000000e+00
9.780000000000000000e+02,3.982767072095103611e-01,0.000000000000000000e+00
9.790000000000000000e+02,2.316306317146587246e-01,0.000000000000000000e+00
9.800000000000000000e+02,1.723949280098428516e-01,0.000000000000000000e+00
9.810000000000000000e+02,3.132488488112775138e-01,0.000000000000000000e+00
9.820000000000000000e+02,1.452667065840100857e-01,0.000000000000000000e+00
9.830000000000000000e+02,4.281438555761028497e-01,0.000000000000000000e+00
9.840000000000000000e+02,7.911571516342524868e-01,0.000000000000000000e+00
9.850000000000000000e+02,3.880826838008236468e+00,0.000000000000000000e+00
9.860000000000000000e+02,2.752904624226580221e+00,1.000000000000000000e+00
9.870000000000000000e+02,-3.496637383128243792e-01,0.000000000000000000e+00
9.880000000000000000e+02,3.237001822156470032e-01,0.000000000000000000e+00
9.890000000000000000e+02,-3.843243094115265657e-01,0.000000000000000000e+00
9.900000000000000000e+02,-2.013249299213474564e-01,0.000000000000000000e+00
9.910000000000000000e+02,-4.521611525531960551e-01,0.000000000000000000e+00
9.920000000000000000e+02,-3.577243068210511634e-01,0.000000000000000000e+00
9.930000000000000000e+02,-1.684859251510704425e-01,0.000000000000000000e+00
9.940000000000000000e+02,-1.004701854520894666e-01,0.000000000000000000e+00
9.950000000000000000e+02,1.858346738112860372e-02,0.000000000000000000e+00
9.960000000000000000e+02,3.086578620192754752e-01,0.000000000000000000e+00
9.970000000000000000e+02,4.768458259834484347e-01,0.000000000000000000e+00
9.980000000000000000e+02,1.064354368972569853e+00,0.000000000000000000e+00
9.990000000000000000e+02,9.279369228756640942e-01,0.000000000000000000e+00
1.000000000000000000e+03,1.292034039887304697e+00,0.000000000000000000e+00
1.001000000000000000e+03,9.428943318068467860e-01,0.000000000000000000e+00
1.002000000000000000e+03,1.184529393170404982e-01,0.000000000000000000e+00
1.003000000000000000e+03,-9.408604802886182394e-01,0.000000000000000000e+00
1.004000000000000000e+03,-1.663174149025123283e+00,0.000000000000000000e+00
1.005000000000000000e+03,-2.058365442867699624e+00,0.000000000000000000e+00
1.006000000000000000e+03,-1.959694116447594059e+00,0.000000000000000000e+00
1.007000000000000000e+03,-1.764106659704373747e+00,0.000000000000000000e+00
1.008000000000000000e+03,-1.681596098471110245e+00,0.000000000000000000e+00
1.009000000000000000e+03,-1.449610945068110279e+00,0.000000000000000000e+00
1.010000000000000000e+03,-1.246127907723926009e+00,0.000000000000000000e+00
1.011000000000000000e+03,-1.086920075302868050e+00,0.000000000000000000e+00
1.012000000000000000e+03,-8.092981037791394661e-01,0.000000000000000000e+00
1.013000000000000000e+03,-8.123827572419318743e-01,0.000000000000000000e+00
1.014000000000000000e+03,-5.026362208074502957e-01,0.000000000000000000e+00
1.015000000000000000e+03,-6.537490243624078934e-01,0.000000000000000000e+00
1.016000000000000000e+03,-5.099007166795140877e-01,0.000000000000000000e+00
1.017000000000000000e+03,-5.324050781516433961e-01,0.000000000000000000e+00
1.018000000000000000e+03,-3.108174414132353625e-01,0.000000000000000000e+00
1.019000000000000000e+03,-2.884141577825645175e-01,0.000000000000000000e+00
1.020000000000000000e+03,-2.213751082722669461e-01,0.000000000000000000e+00
1.021000000000000000e+03,-2.920927597353938365e-01,0.000000000000000000e+00
1.022000000000000000e+03,-1.604630387157517102e-01,0.000000000000000000e+00
1.023000000000000000e+03,-7.539183603346438778e-02,0.000000000000000000e+00
1.024000000000000000e+03,9.948859431853804280e-02,0.000000000000000000e+00
1.025000000000000000e+03,-1.154803045539914003e-01,0.000000000000000000e+00
1.026000000000000000e+03,1.718935668653950311e-01,0.000000000000000000e+00
1.027000000000000000e+03,4.366988130738200247e-02,0.000000000000000000e+00
1.028000000000000000e+03,2.223941791876367646e-01,0.000000000000000000e+00
1.029000000000000000e+03,2.405757962325509314e-01,0.000000000000000000e+00
1.030000000000000000e+03,2.943916099428420807e-01,0.000000000000000000e+00
1.031000000000000000e+03,3.412013690639273955e-01,0.000000000000000000e+00
1.032000000000000000e+03,2.207044435062705534e-01,0.000000000000000000e+00
1.033000000000000000e+03,3.515981062758982145e-01,0.000000000000000000e+00
1.034000000000000000e+03,3.946864419147863012e-01,0.000000000000000000e+00
1.035000000000000000e+03,3.821365119667877175e-01,0.000000000000000000e+00
1.036000000000000000e+03,4.250751540259507522e-01,0.000000000000000000e+00
1.037000000000000000e+03,4.103962598910467219e-01,0.000000000000000000e+00
1.038000000000000000e+03,4.745578041545147063e-01,0.000000000000000000e+00
1.039000000000000000e+03,6.152575554447564654e-01,0.000000000000000000e+00
1.040000000000000000e+03,9.580213300776023733e-01,0.000000000000000000e+00
1.041000000000000000e+03,6.683950359690264964e-01,0.000000000000000000e+00
1.042000000000000000e+03,7.083238726523121143e-01,0.000000000000000000e+00
1.043000000000000000e+03,3.987214591590688695e-01,0.000000000000000000e+00
1.044000000000000000e+03,8.555921581754902250e-02,0.000000000000000000e+00
1.045000000000000000e+03,2.138536997589245980e-01,0.000000000000000000e+00
1.046000000000000000e+03,2.139947490335850633e-01,0.000000000000000000e+00
1.047000000000000000e+03,1.506756878988183557e-01,0.000000000000000000e+00
1.048000000000000000e+03,3.747791481024710381e-01,0.000000000000000000e+00
1.049000000000000000e+03,1.416396785012830062e+00,0.000000000000000000e+00
1.050000000000000000e+03,4.930361162577609591e+00,0.000000000000000000e+00
1.051000000000000000e+03,1.851597216709398142e+00,1.000000000000000000e+00
1.052000000000000000e+03,-4.259708293943376689e-01,0.000000000000000000e+00
1.053000000000000000e+03,-2.176860302070405054e-02,0.000000000000000000e+00
1.054000000000000000e+03,-5.253002852934521849e-01,0.000000000000000000e+00
1.055000000000000000e+03,-5.461413939767408854e-01,0.000000000000000000e+00
1.056000000000000000e+03,-4.705010164352418367e-01,0.000000000000000000e+00
1.057000000000000000e+03,-4.434539942109333444e-01,0.000000000000000000e+00
1.058000000000000000e+03,-3.004285614186059106e-01,0.000000000000000000e+00
1.059000000000000000e+03,-2.926657541344707680e-01,0.000000000000000000e+00
1.060000000000000000e+03,7.494400221483529800e-02,0.000000000000000000e+00
1.061000000000000000e+03,3.964887716419227548e-01,0.000000000000000000e+00
1.062000000000000000e+03,6.188102210819428350e-01,0.000000000000000000e+00
1.063000000000000000e+03,1.197150207070001526e+00,0.000000000000000000e+00
1.064000000000000000e+03,1.162884290244032170e+00,0.000000000000000000e+00
1.065000000000000000e+03,1.309484306758683658e+00,0.000000000000000000e+00
1.066000000000000000e+03,8.143736847720460803e-01,0.000000000000000000e+00
1.067000000000000000e+03,-1.275244174689106058e-01,0.000000000000000000e+00
1.068000000000000000e+03,-1.225137953347072761e+00,0.000000000000000000e+00
1.069000000000000000e+03,-1.823092473068284924e+00,0.000000000000000000e+00
1.070000000000000000e+03,-2.039326119589023989e+00,0.000000000000000000e+00
1.071000000000000000e+03,-1.909692004369750506e+00,0.000000000000000000e+00
1.072000000000000000e+03,-1.889253512734323515e+00,0.000000000000000000e+00
1.073000000000000000e+03,-1.472930596217991273e+00,0.000000000000000000e+00
1.074000000000000000e+03,-1.444683249953277793e+00,0.000000000000000000e+00
1.075000000000000000e+03,-1.202340469532756417e+00,0.000000000000000000e+00
1.076000000000000000e+03,-9.075519282812386512e-01,0.000000000000000000e+00
1.077000000000000000e+03,-1.010844009167575441e+00,0.000000000000000000e+00
1.078000000000000000e+03,-5.969774684658291086e-01,0.000000000000000000e+00
1.079000000000000000e+03,-6.279576145641591056e-01,0.000000000000000000e+00
1.080000000000000000e+03,-4.994783750549467993e-01,0.000000000000000000e+00
1.081000000000000000e+03,-4.109228198612121519e-01,0.000000000000000000e+00
1.082000000000000000e+03,-3.536629501684279697e-01,0.000000000000000000e+00
1.083000000000000000e+03,-4.028221314245940543e-01,0.000000000000000000e+00
1.084000000000000000e+03,-2.685430206116927732e-01,0.000000000000000000e+00
1.085000000000000000e+03,-1.907918467035082666e-01,0.000000000000000000e+00
1.086000000000000000e+03,-2.440120633486044799e-01,0.000000000000000000e+00
1.087000000000000000e+03,-4.505829116118740402e-02,0.000000000000000000e+00
1.088000000000000000e+03,5.378167436278854380e-02,0.000000000000000000e+00
1.089000000000000000e+03,-5.555433414562105376e-03,0.000000000000000000e+00
1.090000000000000000e+03,-3.857633538820318814e-02,0.000000000000000000e+00
1.091000000000000000e+03,2.837488780598593774e-01,0.000000000000000000e+00
1.092000000000000000e+03,5.649108191035585175e-02,0.000000000000000000e+00
1.093000000000000000e+03,2.186076914277447492e-01,0.000000000000000000e+00
1.094000000000000000e+03,1.710000497045618684e-01,0.000000000000000000e+00
1.095000000000000000e+03,1.615359820844320116e-01,0.000000000000000000e+00
1.096000000000000000e+03,3.734386557720699162e-01,0.000000000000000000e+00
1.097000000000000000e+03,2.094540996188433979e-01,0.000000000000000000e+00
1.098000000000000000e+03,4.467215464407542358e-01,0.000000000000000000e+00
1.099000000000000000e+03,2.902189383842558867e-01,0.000000000000000000e+00
1.100000000000000000e+03,3.055277098286662829e-01,0.000000000000000000e+00
1.101000000000000000e+03,4.054868251948037239e-01,0.000000000000000000e+00
1.102000000000000000e+03,4.602258226548363584e-01,0.000000000000000000e+00
1.103000000000000000e+03,3.284542464468047651e-01,0.000000000000000000e+00
1.104000000000000000e+03,4.957090842008056719e-01,0.000000000000000000e+00
1.105000000000000000e+03,5.500521691064651497e-01,0.000000000000000000e+00
1.106000000000000000e+03,9.165787894933089541e-01,0.000000000000000000e+00
1.107000000000000000e+03,6.638669996335381240e-01,0.000000000000000000e+00
1.108000000000000000e+03,4.816285416931943564e-01,0.000000000000000000e+00
1.109000000000000000e+03,2.626187069559133280e-01,0.000000000000000000e+00
1.110000000000000000e+03,8.021614499978416135e-02,0.000000000000000000e+00
1.111000000000000000e+03,2.274408621243787509e-01,0.000000000000000000e+00
1.112000000000000000e+03,8.965835114949828599e-02,0.000000000000000000e+00
1.113000000000000000e+03,7.765292770477863482e-02,0.000000000000000000e+00
1.114000000000000000e+03,4.303822978245190889e-01,0.000000000000000000e+00
1.115000000000000000e+03,1.322152549209295591e+00,0.000000000000000000e+00
1.116000000000000000e+03,5.040195015160864322e+00,0.000000000000000000e+00
1.117000000000000000e+03,2.012286698663217521e+00,1.000000000000000000e+00
1.118000000000000000e+03,-4.742249293216064254e-01,0.000000000000000000e+00
1.119000000000000000e+03,-1.673619907609142365e-01,0.000000000000000000e+00
1.120000000000000000e+03,-5.549872428484741160e-01,0.000000000000000000e+00
1.121000000000000000e+03,-6.163439473897619481e-01,0.000000000000000000e+00
1.122000000000000000e+03,-5.628873384438491945e-01,0.000000000000000000e+00
1.123000000000000000e+03,-3.807230255782807493e-01,0.000000000000000000e+00
1.124000000000000000e+03,-3.891239096239272333e-01,0.000000000000000000e+00
1.125000000000000000e+03,-9.903874243990688775e-02,0.000000000000000000e+00
1.126000000000000000e+03,2.416070341647183484e-02,0.000000000000000000e+00
1.127000000000000000e+03,2.974611556784813038e-01,0.000000000000000000e+00
1.128000000000000000e+03,7.140631217439036282e-01,0.000000000000000000e+00
1.129000000000000000e+03,1.094910713820098858e+00,0.000000000000000000e+00
1.130000000000000000e+03,1.263989654298021792e+00,0.000000000000000000e+00
1.131000000000000000e+03,1.327378892837755231e+00,0.000000000000000000e+00
1.132000000000000000e+03,8.654117418624711622e-01,0.000000000000000000e+00
1.133000000000000000e+03,-4.756380891030519489e-03,0.000000000000000000e+00
1.134000000000000000e+03,-1.367011958246394432e+00,0.000000000000000000e+00
1.135000000000000000e+03,-1.702464239211827435e+00,0.000000000000000000e+00
1.136000000000000000e+03,-2.222814170152757729e+00,0.000000000000000000e+00
1.137000000000000000e+03,-1.939289219271508324e+00,0.000000000000000000e+00
1.138000000000000000e+03,-1.840497720754412647e+00,0.000000000000000000e+00
1.139000000000000000e+03,-1.682235393110386612e+00,0.000000000000000000e+00
1.140000000000000000e+03,-1.369910897712514730e+00,0.000000000000000000e+00
1.141000000000000000e+03,-1.207120343027240583e+00,0.000000000000000000e+00
1.142000000000000000e+03,-1.103697200934528500e+00,0.000000000000000000e+00
1.143000000000000000e+03,-9.574720835411216768e-01,0.000000000000000000e+00
1.144000000000000000e+03,-6.867465765397793298e-01,0.000000000000000000e+00
1.145000000000000000e+03,-6.044589204924251113e-01,0.000000000000000000e+00
1.146000000000000000e+03,-5.019848090675933516e-01,0.000000000000000000e+00
1.147000000000000000e+03,-4.683258572811539455e-01,0.000000000000000000e+00
1.148000000000000000e+03,-3.557514205299299181e-01,0.000000000000000000e+00
1.149000000000000000e+03,-4.194876092070430884e-01,0.000000000000000000e+00
1.150000000000000000e+03,-3.883414285011139166e-01,0.000000000000000000e+00
1.151000000000000000e+03,-2.111750180551512923e-01,0.000000000000000000e+00
1.152000000000000000e+03,-1.903694162432231773e-01,0.000000000000000000e+00
1.153000000000000000e+03,-6.283821081689341947e-02,0.000000000000000000e+00
1.154000000000000000e+03,-7.535224873877661989e-02,0.000000000000000000e+00
1.155000000000000000e+03,1.106987700541395420e-01,0.000000000000000000e+00
1.156000000000000000e+03,8.566541814750473771e-02,0.000000000000000000e+00
1.157000000000000000e+03,8.877159178442284304e-02,0.000000000000000000e+00
1.158000000000000000e+03,5.976002493553619899e-02,0.000000000000000000e+00
1.159000000000000000e+03,3.377405486709914029e-01,0.000000000000000000e+00
1.160000000000000000e+03,2.864085146256383774e-01,0.000000000000000000e+00
1.161000000000000000e+03,4.074077906180060826e-01,0.000000000000000000e+00
1.162000000000000000e+03,2.080521381652005453e-01,0.000000000000000000e+00
1.163000000000000000e+03,2.470027089853570890e-01,0.000000000000000000e+00
1.164000000000000000e+03,4.452309321513761575e-01,0.000000000000000000e+00
1.165000000000000000e+03,3.348587873922349578e-01,0.000000000000000000e+00
1.166000000000000000e+03,4.173231189429207899e-01,0.000000000000000000e+00
1.167000000000000000e+03,5.054448419112013147e-01,0.000000000000000000e+00
1.168000000000000000e+03,2.770206738709729000e-01,0.000000000000000000e+00
1.169000000000000000e+03,7.263589036919058106e-01,0.000000000000000000e+00
1.170000000000000000e+03,3.111509762827963654e-01,0.000000000000000000e+00
1.171000000000000000e+03,7.088672685046013555e-01,0.000000000000000000e+00
1.172000000000000000e+03,8.883918235323957635e-01,0.000000000000000000e+00
1.173000000000000000e+03,8.058766064413126484e-01,0.000000000000000000e+00
1.174000000000000000e+03,6.309144492121868675e-01,0.000000000000000000e+00
1.175000000000000000e+03,6.389927094126223173e-01,0.000000000000000000e+00
1.176000000000000000e+03,1.274462463852837901e-01,0.000000000000000000e+00
1.177000000000000000e+03,-6.831101114002148880e-03,0.000000000000000000e+00
1.178000000000000000e+03,2.324331863878605353e-01,0.000000000000000000e+00
1.179000000000000000e+03,7.509707985122747453e-02,0.000000000000000000e+00
1.180000000000000000e+03,2.237708854749725085e-01,0.000000000000000000e+00
1.181000000000000000e+03,1.462280263042398110e-01,0.000000000000000000e+00
1.182000000000000000e+03,1.861581191752831987e+00,0.000000000000000000e+00
1.183000000000000000e+03,5.086607658717079872e+00,0.000000000000000000e+00
1.184000000000000000e+03,1.524097543400917854e+00,1.000000000000000000e+00
1.185000000000000000e+03,-3.541883122028641195e-01,0.000000000000000000e+00
1.186000000000000000e+03,-2.377344909949724028e-01,0.000000000000000000e+00
1.187000000000000000e+03,-5.889487389459696631e-01,0.000000000000000000e+00
1.188000000000000000e+03,-6.800827704542359298e-01,0.000000000000000000e+00
1.189000000000000000e+03,-6.357182012430171447e-01,0.000000000000000000e+00
1.190000000000000000e+03,-4.191972301572655657e-01,0.000000000000000000e+00
1.191000000000000000e+03,-5.480855589035107389e-01,0.000000000000000000e+00
1.192000000000000000e+03,-1.863265239333017353e-02,0.000000000000000000e+00
1.193000000000000000e+03,2.196738774362757066e-02,0.000000000000000000e+00
1.194000000000000000e+03,3.594318762648054388e-01,0.000000000000000000e+00
1.195000000000000000e+03,7.350502554308977476e-01,0.000000000000000000e+00
1.196000000000000000e+03,1.105112176258397749e+00,0.000000000000000000e+00
1.197000000000000000e+03,1.210501497881097954e+00,0.000000000000000000e+00
1.198000000000000000e+03,1.413819602250605767e+00,0.000000000000000000e+00
1.199000000000000000e+03,7.183555277335692546e-01,0.000000000000000000e+00
1.200000000000000000e+03,-3.379441619883845616e-01,0.000000000000000000e+00
1.201000000000000000e+03,-1.391783260224210395e+00,0.000000000000000000e+00
1.202000000000000000e+03,-1.962180080149111605e+00,0.000000000000000000e+00
1.203000000000000000e+03,-2.177814076662680343e+00,0.000000000000000000e+00
1.204000000000000000e+03,-2.013321675393648480e+00,0.000000000000000000e+00
1.205000000000000000e+03,-2.006124792991944794e+00,0.000000000000000000e+00
1.206000000000000000e+03,-1.723273320599831182e+00,0.000000000000000000e+00
1.207000000000000000e+03,-1.519446280653325987e+00,0.000000000000000000e+00
1.208000000000000000e+03,-1.244908895586480213e+00,0.000000000000000000e+00
1.209000000000000000e+03,-1.088895370289338471e+00,0.000000000000000000e+00
1.210000000000000000e+03,-9.346178663720542401e-01,0.000000000000000000e+00
1.211000000000000000e+03,-7.810330899172456265e-01,0.000000000000000000e+00
1.212000000000000000e+03,-6.604485693586378270e-01,0.000000000000000000e+00
1.213000000000000000e+03,-6.034687735864090463e-01,0.000000000000000000e+00
1.214000000000000000e+03,-5.025857114843034212e-01,0.000000000000000000e+00
1.215000000000000000e+03,-4.860476469160673885e-01,0.000000000000000000e+00
1.216000000000000000e+03,-3.065275320625297506e-01,0.000000000000000000e+00
1.217000000000000000e+03,-3.351683256815269907e-01,0.000000000000000000e+00
1.218000000000000000e+03,-2.073015583913622728e-01,0.000000000000000000e+00
1.219000000000000000e+03,-2.071604891124718406e-01,0.000000000000000000e+00
1.220000000000000000e+03,-8.894111039149197456e-03,0.000000000000000000e+00
1.221000000000000000e+03,-6.132869279960054959e-02,0.000000000000000000e+00
1.222000000000000000e+03,1.614725555923652300e-01,0.000000000000000000e+00
1.223000000000000000e+03,1.490416623186921474e-01,0.000000000000000000e+00
1.224000000000000000e+03,1.878799235273534152e-01,0.000000000000000000e+00
1.225000000000000000e+03,1.162961845723822218e-01,0.000000000000000000e+00
1.226000000000000000e+03,3.350366742627583494e-01,0.000000000000000000e+00
1.227000000000000000e+03,3.133944164510810704e-01,0.000000000000000000e+00
1.228000000000000000e+03,4.447200326457501629e-01,0.000000000000000000e+00
1.229000000000000000e+03,4.113142152861974932e-01,0.000000000000000000e+00
1.230000000000000000e+03,3.801578959254210965e-01,0.000000000000000000e+00
1.231000000000000000e+03,3.134155917379793932e-01,0.000000000000000000e+00
1.232000000000000000e+03,5.430097792457968531e-01,0.000000000000000000e+00
1.233000000000000000e+03,4.395944556064270148e-01,0.000000000000000000e+00
1.234000000000000000e+03,5.826432886558038371e-01,0.000000000000000000e+00
1.235000000000000000e+03,5.093363560299979387e-01,0.000000000000000000e+00
1.236000000000000000e+03,4.734906645283921689e-01,0.000000000000000000e+00
1.237000000000000000e+03,4.480249860479614821e-01,0.000000000000000000e+00
1.238000000000000000e+03,6.369185586435414104e-01,0.000000000000000000e+00
1.239000000000000000e+03,8.573715387065560245e-01,0.000000000000000000e+00
1.240000000000000000e+03,9.249621764342403907e-01,0.000000000000000000e+00
1.241000000000000000e+03,6.907342581679141169e-01,0.000000000000000000e+00
1.242000000000000000e+03,7.541857793181072633e-01,0.000000000000000000e+00
1.243000000000000000e+03,2.678001091417606672e-01,0.000000000000000000e+00
1.244000000000000000e+03,1.511339597567059601e-01,0.000000000000000000e+00
1.245000000000000000e+03,1.387819519478776242e-01,0.000000000000000000e+00
1.246000000000000000e+03,2.266984028733191325e-01,0.000000000000000000e+00
1.247000000000000000e+03,2.134256729360940741e-01,0.000000000000000000e+00
1.248000000000000000e+03,4.069087562999038621e-01,0.000000000000000000e+00
1.249000000000000000e+03,1.426661252180401851e+00,0.000000000000000000e+00
1.250000000000000000e+03,5.135851670591149443e+00,0.000000000000000000e+00
1.251000000000000000e+03,1.837478408064256108e+00,1.000000000000000000e+00
1.252000000000000000e+03,-3.765041187537088163e-01,0.000000000000000000e+00
1.253000000000000000e+03,-1.281799307918542741e-01,0.000000000000000000e+00
1.254000000000000000e+03,-6.893605846808233961e-01,0.000000000000000000e+00
1.255000000000000000e+03,-5.959642630494917936e-01,0.000000000000000000e+00
1.256000000000000000e+03,-7.375375230717823305e-01,0.000000000000000000e+00
1.257000000000000000e+03,-5.054865384857410993e-01,0.000000000000000000e+00
1.258000000000000000e+03,-4.275440932097599456e-01,0.000000000000000000e+00
1.259000000000000000e+03,-2.223374234918980008e-01,0.000000000000000000e+00
1.260000000000000000e+03,-1.829411247487203879e-02,0.000000000000000000e+00
1.261000000000000000e+03,2.626011551501855612e-01,0.000000000000000000e+00
1.262000000000000000e+03,5.959331479744780502e-01,0.000000000000000000e+00
1.263000000000000000e+03,9.778543309148247653e-01,0.000000000000000000e+00
1.264000000000000000e+03,1.116562653163508223e+00,0.000000000000000000e+00
1.265000000000000000e+03,1.169299809881304553e+00,0.000000000000000000e+00
1.266000000000000000e+03,6.333406481774844776e-01,0.000000000000000000e+00
1.267000000000000000e+03,-1.916916425873762819e-01,0.000000000000000000e+00
1.268000000000000000e+03,-1.475732397731392531e+00,0.000000000000000000e+00
1.269000000000000000e+03,-2.044826438361904142e+00,0.000000000000000000e+00
1.270000000000000000e+03,-2.198180663036072957e+00,0.000000000000000000e+00
1.271000000000000000e+03,-2.238145681633092465e+00,0.000000000000000000e+00
1.272000000000000000e+03,-2.025677750655286324e+00,0.000000000000000000e+00
1.273000000000000000e+03,-1.733425245975287465e+00,0.000000000000000000e+00
1.274000000000000000e+03,-1.593696755595450210e+00,0.000000000000000000e+00
1.275000000000000000e+03,-1.421962296171419782e+00,0.000000000000000000e+00
1.276000000000000000e+03,-1.225281336041541547e+00,0.000000000000000000e+00
1.277000000000000000e+03,-9.740957839762254267e-01,0.000000000000000000e+00
1.278000000000000000e+03,-8.143423687221511553e-01,0.000000000000000000e+00
1.279000000000000000e+03,-6.854725741532264882e-01,0.000000000000000000e+00
1.280000000000000000e+03,-6.383988288134844202e-01,0.000000000000000000e+00
1.281000000000000000e+03,-3.950298406543157337e-01,0.000000000000000000e+00
1.282000000000000000e+03,-3.867870646929776335e-01,0.000000000000000000e+00
1.283000000000000000e+03,-2.890471321579142217e-01,0.000000000000000000e+00
1.284000000000000000e+03,-2.501866737641893490e-01,0.000000000000000000e+00
1.285000000000000000e+03,-1.502884409927029985e-01,0.000000000000000000e+00
1.286000000000000000e+03,-1.429347998771494932e-01,0.000000000000000000e+00
1.287000000000000000e+03,1.561025485005137180e-02,0.000000000000000000e+00
1.288000000000000000e+03,1.126169374768435233e-01,0.000000000000000000e+00
1.289000000000000000e+03,8.329435331513247720e-02,0.000000000000000000e+00
1.290000000000000000e+03,2.533439855183079459e-01,0.000000000000000000e+00
1.291000000000000000e+03,2.925407263223607779e-01,0.000000000000000000e+00
1.292000000000000000e+03,3.846280850765765313e-01,0.000000000000000000e+00
1.293000000000000000e+03,2.942766271067810968e-01,0.000000000000000000e+00
1.294000000000000000e+03,3.600252555026662304e-01,0.000000000000000000e+00
1.295000000000000000e+03,4.086425584963004898e-01,0.000000000000000000e+00
1.296000000000000000e+03,5.218592406254679572e-01,0.000000000000000000e+00
1.297000000000000000e+03,3.840990915000010442e-01,0.000000000000000000e+00
1.298000000000000000e+03,3.661867840159053200e-01,0.000000000000000000e+00
1.299000000000000000e+03,5.138677268178125646e-01,0.000000000000000000e+00
1.300000000000000000e+03,5.308527858694254142e-01,0.000000000000000000e+00
1.301000000000000000e+03,4.185164172929292103e-01,0.000000000000000000e+00
1.302000000000000000e+03,5.469725121262354328e-01,0.000000000000000000e+00
1.303000000000000000e+03,6.623959064036385458e-01,0.000000000000000000e+00
1.304000000000000000e+03,9.273453274811748193e-01,0.000000000000000000e+00
1.305000000000000000e+03,8.643252823235526572e-01,0.000000000000000000e+00
1.306000000000000000e+03,7.918233584259224411e-01,0.000000000000000000e+00
1.307000000000000000e+03,5.707979248047651000e-01,0.000000000000000000e+00
1.308000000000000000e+03,1.320460519678791356e-01,0.000000000000000000e+00
1.309000000000000000e+03,3.119196487121502770e-01,0.000000000000000000e+00
1.310000000000000000e+03,2.154328369919179531e-01,0.000000000000000000e+00
1.311000000000000000e+03,1.395031269949569830e-01,0.000000000000000000e+00
1.312000000000000000e+03,3.778021416192631765e-01,0.000000000000000000e+00
1.313000000000000000e+03,4.589288992535578426e-01,0.000000000000000000e+00
1.314000000000000000e+03,3.160505758831861023e+00,0.000000000000000000e+00
1.315000000000000000e+03,3.634625408235387933e+00,0.000000000000000000e+00
1.316000000000000000e+03,-2.376879622919516044e-01,1.000000000000000000e+00
1.317000000000000000e+03,1.214782434298506547e-02,0.000000000000000000e+00
1.318000000000000000e+03,-1.399922478047424534e-01,0.000000000000000000e+00
1.319000000000000000e+03,-3.093876696948281713e-01,0.000000000000000000e+00
1.320000000000000000e+03,-4.641848787454468939e-01,0.000000000000000000e+00
1.321000000000000000e+03,-2.571856093889380301e-01,0.000000000000000000e+00
1.322000000000000000e+03,-3.407869636097519139e-01,0.000000000000000000e+00
1.323000000000000000e+03,-2.524325294302642853e-01,0.000000000000000000e+00
1.324000000000000000e+03,1.010388048284635229e-02,0.000000000000000000e+00
1.325000000000000000e+03,1.530644192722617480e-01,0.000000000000000000e+00
1.326000000000000000e+03,4.426861493655062652e-01,0.000000000000000000e+00
1.327000000000000000e+03,8.179036952003434502e-01,0.000000000000000000e+00
1.328000000000000000e+03,1.068430520686735941e+00,0.000000000000000000e+00
1.329000000000000000e+03,1.138874757150848849e+00,0.000000000000000000e+00
1.330000000000000000e+03,9.679924700193547338e-01,0.000000000000000000e+00
1.331000000000000000e+03,3.763981515913881193e-01,0.000000000000000000e+00
1.332000000000000000e+03,-8.308834452359729061e-01,0.000000000000000000e+00
1.333000000000000000e+03,-1.641763619451819256e+00,0.000000000000000000e+00
1.334000000000000000e+03,-1.989125008500276737e+00,0.000000000000000000e+00
1.335000000000000000e+03,-1.969946635614873820e+00,0.000000000000000000e+00
1.336000000000000000e+03,-1.736936916075989989e+00,0.000000000000000000e+00
1.337000000000000000e+03,-1.748614430548145693e+00,0.000000000000000000e+00
1.338000000000000000e+03,-1.390178294743543708e+00,0.000000000000000000e+00
1.339000000000000000e+03,-1.446922008471841714e+00,0.000000000000000000e+00
1.340000000000000000e+03,-1.106418694369911027e+00,0.000000000000000000e+00
1.341000000000000000e+03,-7.575622174170759671e-01,0.000000000000000000e+00
1.342000000000000000e+03,-8.686479683044679989e-01,0.000000000000000000e+00
1.343000000000000000e+03,-5.581309491882748830e-01,0.000000000000000000e+00
1.344000000000000000e+03,-6.466839146622087586e-01,0.000000000000000000e+00
1.345000000000000000e+03,-5.031237705505557933e-01,0.000000000000000000e+00
1.346000000000000000e+03,-4.777879868799105312e-01,0.000000000000000000e+00
1.347000000000000000e+03,-4.053887309994389510e-01,0.000000000000000000e+00
1.348000000000000000e+03,-3.171253850501024041e-01,0.000000000000000000e+00
1.349000000000000000e+03,-2.974127449376040566e-01,0.000000000000000000e+00
1.350000000000000000e+03,-2.624533422429968232e-01,0.000000000000000000e+00
1.351000000000000000e+03,-9.170363122623959029e-02,0.000000000000000000e+00
1.352000000000000000e+03,-6.547779585090489352e-02,0.000000000000000000e+00
1.353000000000000000e+03,-2.504613603297703092e-02,0.000000000000000000e+00
1.354000000000000000e+03,6.980244481847842908e-02,0.000000000000000000e+00
1.355000000000000000e+03,-2.756846406184079376e-02,0.000000000000000000e+00
1.356000000000000000e+03,1.542541470270642201e-01,0.000000000000000000e+00
1.357000000000000000e+03,1.593934573030520441e-01,0.000000000000000000e+00
1.358000000000000000e+03,1.996723923283208191e-01,0.000000000000000000e+00
1.359000000000000000e+03,2.291261180145499343e-01,0.000000000000000000e+00
1.360000000000000000e+03,2.548368616552859067e-01,0.000000000000000000e+00
1.361000000000000000e+03,2.297475415979324254e-01,0.000000000000000000e+00
1.362000000000000000e+03,3.286023026615040865e-01,0.000000000000000000e+00
1.363000000000000000e+03,3.121743581444641480e-01,0.000000000000000000e+00
1.364000000000000000e+03,3.913045451068272729e-01,0.000000000000000000e+00
1.365000000000000000e+03,2.965249570498448284e-01,0.000000000000000000e+00
1.366000000000000000e+03,4.745619689767019977e-01,0.000000000000000000e+00
1.367000000000000000e+03,5.742964137620589771e-01,0.000000000000000000e+00
1.368000000000000000e+03,8.912382146802568794e-01,0.000000000000000000e+00
1.369000000000000000e+03,6.783382611040285060e-01,0.000000000000000000e+00
1.370000000000000000e+03,6.807685863039850682e-01,0.000000000000000000e+00
1.371000000000000000e+03,3.350684328591807537e-01,0.000000000000000000e+00
1.372000000000000000e+03,1.001501504066965448e-01,0.000000000000000000e+00
1.373000000000000000e+03,2.267197594688606932e-01,0.000000000000000000e+00
1.374000000000000000e+03,3.406648292899531194e-01,0.000000000000000000e+00
1.375000000000000000e+03,1.884207586913932142e-01,0.000000000000000000e+00
1.376000000000000000e+03,5.099212795000456211e-01,0.000000000000000000e+00
1.377000000000000000e+03,1.178774289454863178e+00,0.000000000000000000e+00
1.378000000000000000e+03,4.548771832988490083e+00,0.000000000000000000e+00
1.379000000000000000e+03,2.134421072996392166e+00,1.000000000000000000e+00
1.380000000000000000e+03,-2.615741545762671483e-01,0.000000000000000000e+00
1.381000000000000000e+03,1.438824485069485348e-01,0.000000000000000000e+00
1.382000000000000000e+03,-3.646137470883415443e-01,0.000000000000000000e+00
1.383000000000000000e+03,-4.473634992758988016e-01,0.000000000000000000e+00
1.384000000000000000e+03,-4.369755341813771343e-01,0.000000000000000000e+00
1.385000000000000000e+03,-2.938499891137499320e-01,0.000000000000000000e+00
1.386000000000000000e+03,-2.810058040612483654e-01,0.000000000000000000e+00
1.387000000000000000e+03,-2.241071275362471055e-02,0.000000000000000000e+00
1.388000000000000000e+03,3.064129780497952364e-03,0.000000000000000000e+00
1.389000000000000000e+03,4.499495530545907229e-01,0.000000000000000000e+00
1.390000000000000000e+03,6.571889383901134973e-01,0.000000000000000000e+00
1.391000000000000000e+03,1.109692136165281617e+00,0.000000000000000000e+00
1.392000000000000000e+03,1.197482885789569629e+00,0.000000000000000000e+00
1.393000000000000000e+03,1.225919093046659025e+00,0.000000000000000000e+00
1.394000000000000000e+03,8.825619928524466307e-01,0.000000000000000000e+00
1.395000000000000000e+03,-6.036877458682000236e-02,0.000000000000000000e+00
1.396000000000000000e+03,-1.133320835145223082e+00,0.000000000000000000e+00
1.397000000000000000e+03,-1.783657703384447624e+00,0.000000000000000000e+00
1.398000000000000000e+03,-2.039509881992143114e+00,0.000000000000000000e+00
1.399000000000000000e+03,-2.001974001313163054e+00,0.000000000000000000e+00
1.400000000000000000e+03,-1.823019750126928740e+00,0.000000000000000000e+00
1.401000000000000000e+03,-1.644618795993226135e+00,0.000000000000000000e+00
1.402000000000000000e+03,-1.525030952556724273e+00,0.000000000000000000e+00
1.403000000000000000e+03,-1.197891966643532147e+00,0.000000000000000000e+00
1.404000000000000000e+03,-1.095679159039907979e+00,0.000000000000000000e+00
1.405000000000000000e+03,-8.820434143769654289e-01,0.000000000000000000e+00
1.406000000000000000e+03,-7.377627571388225558e-01,0.000000000000000000e+00
1.407000000000000000e+03,-6.262412167070032787e-01,0.000000000000000000e+00
1.408000000000000000e+03,-5.278985852367548137e-01,0.000000000000000000e+00
1.409000000000000000e+03,-4.194263079371740588e-01,0.000000000000000000e+00
1.410000000000000000e+03,-4.097226033519833499e-01,0.000000000000000000e+00
1.411000000000000000e+03,-4.657611556327925784e-01,0.000000000000000000e+00
1.412000000000000000e+03,-3.876936971002816756e-01,0.000000000000000000e+00
1.413000000000000000e+03,-2.310297340046345016e-01,0.000000000000000000e+00
1.414000000000000000e+03,-1.698543530748390928e-01,0.000000000000000000e+00
1.415000000000000000e+03,-5.791224523186347395e-02,0.000000000000000000e+00
1.416000000000000000e+03,-9.462296632234808158e-03,0.000000000000000000e+00
1.417000000000000000e+03,1.213477536567853302e-02,0.000000000000000000e+00
1.418000000000000000e+03,9.130550902363701593e-02,0.000000000000000000e+00
1.419000000000000000e+03,7.131054363327879453e-02,0.000000000000000000e+00
1.420000000000000000e+03,1.383130700182741424e-01,0.000000000000000000e+00
1.421000000000000000e+03,2.233091803833612554e-01,0.000000000000000000e+00
1.422000000000000000e+03,4.061263751394795785e-01,0.000000000000000000e+00
1.423000000000000000e+03,2.543643474454324038e-01,0.000000000000000000e+00
1.424000000000000000e+03,3.179261769888334643e-01,0.000000000000000000e+00
1.425000000000000000e+03,3.816276620405282816e-01,0.000000000000000000e+00
1.426000000000000000e+03,4.362394910925415648e-01,0.000000000000000000e+00
1.427000000000000000e+03,3.230793153965846876e-01,0.000000000000000000e+00
1.428000000000000000e+03,5.290868341074427272e-01,0.000000000000000000e+00
1.429000000000000000e+03,3.253534537283598316e-01,0.000000000000000000e+00
1.430000000000000000e+03,4.503811944444900406e-01,0.000000000000000000e+00
1.431000000000000000e+03,4.079116254090169869e-01,0.000000000000000000e+00
1.432000000000000000e+03,4.452377057824519757e-01,0.000000000000000000e+00
1.433000000000000000e+03,5.800530587670977845e-01,0.000000000000000000e+00
1.434000000000000000e+03,8.037102039949455268e-01,0.000000000000000000e+00
1.435000000000000000e+03,7.866152220476615442e-01,0.000000000000000000e+00
1.436000000000000000e+03,6.800221624106447260e-01,0.000000000000000000e+00
1.437000000000000000e+03,3.866948957822510247e-01,0.000000000000000000e+00
1.438000000000000000e+03,1.169047207748882128e-01,0.000000000000000000e+00
1.439000000000000000e+03,1.849860885037425684e-01,0.000000000000000000e+00
1.440000000000000000e+03,2.359006555646439574e-01,0.000000000000000000e+00
1.441000000000000000e+03,4.088530926131407617e-02,0.000000000000000000e+00
1.442000000000000000e+03,3.953360593695343095e-01,0.000000000000000000e+00
1.443000000000000000e+03,4.490867965227446912e-01,0.000000000000000000e+00
1.444000000000000000e+03,3.586025206589588343e+00,0.000000000000000000e+00
1.445000000000000000e+03,3.938955432971759762e+00,0.000000000000000000e+00
1.446000000000000000e+03,-3.480119099437235797e-02,1.000000000000000000e+00
1.447000000000000000e+03,-3.970026389161242925e-02,0.000000000000000000e+00
1.448000000000000000e+03,-3.399617388863218626e-01,0.000000000000000000e+00
1.449000000000000000e+03,-5.001882527481018581e-01,0.000000000000000000e+00
1.450000000000000000e+03,-6.510612082503649534e-01,0.000000000000000000e+00
1.451000000000000000e+03,-3.579530724824469545e-01,0.000000000000000000e+00
1.452000000000000000e+03,-4.200193036085482223e-01,0.000000000000000000e+00
1.453000000000000000e+03,-1.653690671388701738e-01,0.000000000000000000e+00
1.454000000000000000e+03,-9.497713807756429094e-02,0.000000000000000000e+00
1.455000000000000000e+03,1.539060589972195414e-01,0.000000000000000000e+00
1.456000000000000000e+03,4.024316444930959302e-01,0.000000000000000000e+00
1.457000000000000000e+03,9.373672039855238669e-01,0.000000000000000000e+00
1.458000000000000000e+03,1.025203322673401418e+00,0.000000000000000000e+00
1.459000000000000000e+03,1.324673073368385801e+00,0.000000000000000000e+00
1.460000000000000000e+03,1.038505079685925647e+00,0.000000000000000000e+00
1.461000000000000000e+03,4.417636639115724018e-01,0.000000000000000000e+00
1.462000000000000000e+03,-8.435384776977248311e-01,0.000000000000000000e+00
1.463000000000000000e+03,-1.584878217737527129e+00,0.000000000000000000e+00
1.464000000000000000e+03,-1.913907939362437638e+00,0.000000000000000000e+00
1.465000000000000000e+03,-2.066351309879425280e+00,0.000000000000000000e+00
1.466000000000000000e+03,-1.862155877477090549e+00,0.000000000000000000e+00
1.467000000000000000e+03,-1.602393882560900762e+00,0.000000000000000000e+00
1.468000000000000000e+03,-1.775109917897775613e+00,0.000000000000000000e+00
1.469000000000000000e+03,-1.239796907830464257e+00,0.000000000000000000e+00
1.470000000000000000e+03,-1.246176648924998576e+00,0.000000000000000000e+00
1.471000000000000000e+03,-9.514457968104718111e-01,0.000000000000000000e+00
1.472000000000000000e+03,-9.855229118753162654e-01,0.000000000000000000e+00
1.473000000000000000e+03,-6.709906973267447672e-01,0.000000000000000000e+00
1.474000000000000000e+03,-5.566305513721560017e-01,0.000000000000000000e+00
1.475000000000000000e+03,-5.960032906688393917e-01,0.000000000000000000e+00
1.476000000000000000e+03,-4.917528915201045958e-01,0.000000000000000000e+00
1.477000000000000000e+03,-4.589816534238470580e-01,0.000000000000000000e+00
1.478000000000000000e+03,-3.347905235060931739e-01,0.000000000000000000e+00
1.479000000000000000e+03,-2.550815115549582845e-01,0.000000000000000000e+00
1.480000000000000000e+03,-3.504762669193622893e-01,0.000000000000000000e+00
1.481000000000000000e+03,-3.473806405718075918e-02,0.000000000000000000e+00
1.482000000000000000e+03,2.507481857861666350e-04,0.000000000000000000e+00
1.483000000000000000e+03,5.661554795639350129e-02,0.000000000000000000e+00
1.484000000000000000e+03,9.795139030463717589e-02,0.000000000000000000e+00
1.485000000000000000e+03,2.462146870085669959e-02,0.000000000000000000e+00
1.486000000000000000e+03,2.685137751052594779e-01,0.000000000000000000e+00
1.487000000000000000e+03,2.068920640462736105e-01,0.000000000000000000e+00
1.488000000000000000e+03,3.452005563476088223e-01,0.000000000000000000e+00
1.489000000000000000e+03,3.584487848819057909e-01,0.000000000000000000e+00
1.490000000000000000e+03,3.263534063872045587e-01,0.000000000000000000e+00
1.491000000000000000e+03,4.992394740791925023e-01,0.000000000000000000e+00
1.492000000000000000e+03,3.825295791271016155e-01,0.000000000000000000e+00
1.493000000000000000e+03,4.397712411811364186e-01,0.000000000000000000e+00
1.494000000000000000e+03,5.161880082593819363e-01,0.000000000000000000e+00
1.495000000000000000e+03,3.534217099074177248e-01,0.000000000000000000e+00
1.496000000000000000e+03,6.411694926795211691e-01,0.000000000000000000e+00
1.497000000000000000e+03,3.911746087235601910e-01,0.000000000000000000e+00
1.498000000000000000e+03,4.465664432938768469e-01,0.000000000000000000e+00
1.499000000000000000e+03,4.967155449242611209e-01,0.000000000000000000e+00
1.500000000000000000e+03,5.826572771483861102e-01,0.000000000000000000e+00
1.501000000000000000e+03,7.873094725451414977e-01,0.000000000000000000e+00
1.502000000000000000e+03,9.472244611608284792e-01,0.000000000000000000e+00
1.503000000000000000e+03,8.214629600692824329e-01,0.000000000000000000e+00
1.504000000000000000e+03,4.856254238752669705e-01,0.000000000000000000e+00
1.505000000000000000e+03,2.084612248235771792e-01,0.000000000000000000e+00
1.506000000000000000e+03,1.099335012797783839e-01,0.000000000000000000e+00
1.507000000000000000e+03,3.485197563746086219e-02,0.000000000000000000e+00
1.508000000000000000e+03,1.861176285872002401e-01,0.000000000000000000e+00
1.509000000000000000e+03,2.390220292856773399e-01,0.000000000000000000e+00
1.510000000000000000e+03,1.487238115389886706e-01,0.000000000000000000e+00
1.511000000000000000e+03,1.818320909273871910e+00,0.000000000000000000e+00
1.512000000000000000e+03,4.883191676408388027e+00,0.000000000000000000e+00
1.513000000000000000e+03,1.323938737871014792e+00,1.000000000000000000e+00
1.514000000000000000e+03,-3.655497772429437964e-01,0.000000000000000000e+00
1.515000000000000000e+03,-1.542520718406654168e-01,0.000000000000000000e+00
1.516000000000000000e+03,-7.596633948668983782e-01,0.000000000000000000e+00
1.517000000000000000e+03,-5.630358247958037188e-01,0.000000000000000000e+00
1.518000000000000000e+03,-7.344593694800725103e-01,0.000000000000000000e+00
1.519000000000000000e+03,-3.341694748526192194e-01,0.000000000000000000e+00
1.520000000000000000e+03,-5.165413054485158417e-01,0.000000000000000000e+00
1.521000000000000000e+03,-1.689894083620506193e-01,0.000000000000000000e+00
1.522000000000000000e+03,-2.525164177187691483e-02,0.000000000000000000e+00
1.523000000000000000e+03,3.119907965072789557e-01,0.000000000000000000e+00
1.524000000000000000e+03,5.254228123333846145e-01,0.000000000000000000e+00
1.525000000000000000e+03,1.035539692810386603e+00,0.000000000000000000e+00
1.526000000000000000e+03,1.200893857866534464e+00,0.000000000000000000e+00
1.527000000000000000e+03,1.210457038273607733e+00,0.000000000000000000e+00
1.528000000000000000e+03,7.516780558663980205e-01,0.000000000000000000e+00
1.529000000000000000e+03,-1.790265772173650904e-01,0.000000000000000000e+00
1.530000000000000000e+03,-1.403014552336797172e+00,0.000000000000000000e+00
1.531000000000000000e+03,-1.886341340993623605e+00,0.000000000000000000e+00
1.532000000000000000e+03,-2.067468264094875607e+00,0.000000000000000000e+00
1.533000000000000000e+03,-1.966393587104686924e+00,0.000000000000000000e+00
1.534000000000000000e+03,-1.831147468376685516e+00,0.000000000000000000e+00
1.535000000000000000e+03,-1.616168300707458760e+00,0.000000000000000000e+00
1.536000000000000000e+03,-1.482935010823134503e+00,0.000000000000000000e+00
1.537000000000000000e+03,-1.208648867480243583e+00,0.000000000000000000e+00
1.538000000000000000e+03,-1.102098821021183950e+00,0.000000000000000000e+00
1.539000000000000000e+03,-8.154362738508972308e-01,0.000000000000000000e+00
1.540000000000000000e+03,-9.195810513677801223e-01,0.000000000000000000e+00
1.541000000000000000e+03,-6.786269578424145577e-01,0.000000000000000000e+00
1.542000000000000000e+03,-5.756508721572963783e-01,0.000000000000000000e+00
1.543000000000000000e+03,-6.321145425795281492e-01,0.000000000000000000e+00
1.544000000000000000e+03,-5.456527810306158743e-01,0.000000000000000000e+00
1.545000000000000000e+03,-3.666879974369670614e-01,0.000000000000000000e+00
1.546000000000000000e+03,-5.002939069951531925e-01,0.000000000000000000e+00
1.547000000000000000e+03,-2.800240467392275945e-01,0.000000000000000000e+00
1.548000000000000000e+03,-2.908960511051041364e-01,0.000000000000000000e+00
1.549000000000000000e+03,-2.187992660234544806e-01,0.000000000000000000e+00
1.550000000000000000e+03,-1.420318969600873615e-01,0.000000000000000000e+00
1.551000000000000000e+03,-1.276982820071352887e-01,0.000000000000000000e+00
1.552000000000000000e+03,6.065471064968310649e-02,0.000000000000000000e+00
1.553000000000000000e+03,1.984628664199235629e-02,0.000000000000000000e+00
1.554000000000000000e+03,1.166899964871103562e-01,0.000000000000000000e+00
1.555000000000000000e+03,1.591926705572739853e-01,0.000000000000000000e+00
1.556000000000000000e+03,1.172118494821869708e-02,0.000000000000000000e+00
1.557000000000000000e+03,3.480471535670645600e-01,0.000000000000000000e+00
1.558000000000000000e+03,2.976168453707442874e-01,0.000000000000000000e+00
1.559000000000000000e+03,3.569250491448346940e-01,0.000000000000000000e+00
1.560000000000000000e+03,3.362124321035063756e-01,0.000000000000000000e+00
1.561000000000000000e+03,4.220896301682813823e-01,0.000000000000000000e+00
1.562000000000000000e+03,3.242361393367976796e-01,0.000000000000000000e+00
1.563000000000000000e+03,3.673708298059591981e-01,0.000000000000000000e+00
1.564000000000000000e+03,4.790278679632860581e-01,0.000000000000000000e+00
1.565000000000000000e+03,4.892171266757520676e-01,0.000000000000000000e+00
1.566000000000000000e+03,3.399315022895700311e-01,0.000000000000000000e+00
1.567000000000000000e+03,7.128159747290261361e-01,0.000000000000000000e+00
1.568000000000000000e+03,6.264474210594577208e-01,0.000000000000000000e+00
1.569000000000000000e+03,9.945176491145081288e-01,0.000000000000000000e+00
1.570000000000000000e+03,7.200691090939628225e-01,0.000000000000000000e+00
1.571000000000000000e+03,7.441297911109425733e-01,0.000000000000000000e+00
1.572000000000000000e+03,2.977896392766353761e-01,0.000000000000000000e+00
1.573000000000000000e+03,1.247131273033123544e-01,0.000000000000000000e+00
1.574000000000000000e+03,9.546836198268347784e-02,0.000000000000000000e+00
1.575000000000000000e+03,2.383138340768829744e-01,0.000000000000000000e+00
1.576000000000000000e+03,1.217105047488528935e-01,0.000000000000000000e+00
1.577000000000000000e+03,3.709182964827159035e-01,0.000000000000000000e+00
1.578000000000000000e+03,9.515911714686589029e-01,0.000000000000000000e+00
1.579000000000000000e+03,4.653127005492300405e+00,0.000000000000000000e+00
1.580000000000000000e+03,2.802318972771034922e+00,1.000000000000000000e+00
1.581000000000000000e+03,-4.858835911029031340e-01,0.000000000000000000e+00
1.582000000000000000e+03,1.108797823832941565e-01,0.000000000000000000e+00
1.583000000000000000e+03,-6.522001336366849422e-01,0.000000000000000000e+00
1.584000000000000000e+03,-4.979391727338599583e-01,0.000000000000000000e+00
1.585000000000000000e+03,-8.001266666950376250e-01,0.000000000000000000e+00
1.586000000000000000e+03,-4.630824024468906952e-01,0.000000000000000000e+00
1.587000000000000000e+03,-3.218180029549640442e-01,0.000000000000000000e+00
1.588000000000000000e+03,-1.163876760517542630e-01,0.000000000000000000e+00
