timestamp,ecg_measurement,qrs_detected
0.000000000000000000e+00,3.761103451913553469e-02,0.000000000000000000e+00
1.000000000000000000e+00,-3.220513487054297436e-02,0.000000000000000000e+00
2.000000000000000000e+00,1.741700460706281390e-03,0.000000000000000000e+00
3.000000000000000000e+00,2.199146956124264085e-01,0.000000000000000000e+00
4.000000000000000000e+00,9.777937225574533098e-02,0.000000000000000000e+00
5.000000000000000000e+00,1.754265493059518621e-01,0.000000000000000000e+00
6.000000000000000000e+00,3.099676370031573813e-01,0.000000000000000000e+00
7.000000000000000000e+00,2.422121294410947701e-01,0.000000000000000000e+00
8.000000000000000000e+00,2.524024677969276542e-01,0.000000000000000000e+00
9.000000000000000000e+00,4.365888880727253896e-01,0.000000000000000000e+00
1.000000000000000000e+01,2.153789498383100187e-01,0.000000000000000000e+00
1.100000000000000000e+01,4.558555296371014087e-01,0.000000000000000000e+00
1.200000000000000000e+01,2.445527780048918076e-01,0.000000000000000000e+00
1.300000000000000000e+01,5.960413230595444922e-01,0.000000000000000000e+00
1.400000000000000000e+01,3.540305716621057752e-01,0.000000000000000000e+00
1.500000000000000000e+01,4.235114663745940811e-01,0.000000000000000000e+00
1.600000000000000000e+01,4.485618948515294746e-01,0.000000000000000000e+00
1.700000000000000000e+01,4.119472293741378577e-01,0.000000000000000000e+00
1.800000000000000000e+01,5.985146053681307254e-01,0.000000000000000000e+00
1.900000000000000000e+01,8.237361716573283754e-01,0.000000000000000000e+00
2.000000000000000000e+01,7.664187447963716204e-01,0.000000000000000000e+00
2.100000000000000000e+01,6.108436275191970743e-01,0.000000000000000000e+00
2.200000000000000000e+01,5.782074711074614015e-01,0.000000000000000000e+00
2.300000000000000000e+01,9.962499254311205088e-02,0.000000000000000000e+00
2.400000000000000000e+01,1.455780374764113483e-01,0.000000000000000000e+00
2.500000000000000000e+01,6.052141752448333273e-02,0.000000000000000000e+00
2.600000000000000000e+01,1.327997911380933982e-01,0.000000000000000000e+00
2.700000000000000000e+01,3.194348591254155822e-01,0.000000000000000000e+00
2.800000000000000000e+01,2.203460603636634429e-01,0.000000000000000000e+00
2.900000000000000000e+01,2.551049827827885252e+00,0.000000000000000000e+00
3.000000000000000000e+01,4.704846384262896031e+00,0.000000000000000000e+00
3.100000000000000000e+01,4.495100394031625868e-01,1.000000000000000000e+00
3.200000000000000000e+01,-1.710136807326112507e-01,0.000000000000000000e+00
3.300000000000000000e+01,-9.860725661014281551e-02,0.000000000000000000e+00
3.400000000000000000e+01,-6.019192829493744679e-01,0.000000000000000000e+00
3.500000000000000000e+01,-4.981863867642369881e-01,0.000000000000000000e+00
3.600000000000000000e+01,-5.165976736523876234e-01,0.000000000000000000e+00
3.700000000000000000e+01,-3.544252919059264206e-01,0.000000000000000000e+00
3.800000000000000000e+01,-3.602378522933777361e-01,0.000000000000000000e+00
3.900000000000000000e+01,-5.947468077813035381e-02,0.000000000000000000e+00
4.000000000000000000e+01,1.609433236238556608e-01,0.000000000000000000e+00
4.100000000000000000e+01,3.737430570698739296e-01,0.000000000000000000e+00
4.200000000000000000e+01,8.679908184622008305e-01,0.000000000000000000e+00
4.300000000000000000e+01,9.745868287645662598e-01,0.000000000000000000e+00
4.400000000000000000e+01,1.288314031618766675e+00,0.000000000000000000e+00
4.500000000000000000e+01,1.133522516822104587e+00,0.000000000000000000e+00
4.600000000000000000e+01,5.454189101217211677e-01,0.000000000000000000e+00
4.700000000000000000e+01,-6.269122481350213327e-01,0.000000000000000000e+00
4.800000000000000000e+01,-1.480594327146095512e+00,0.000000000000000000e+00
4.900000000000000000e+01,-2.018628093053648431e+00,0.000000000000000000e+00
5.000000000000000000e+01,-2.099262313229807386e+00,0.000000000000000000e+00
5.100000000000000000e+01,-2.009777899337303886e+00,0.000000000000000000e+00
5.200000000000000000e+01,-1.677337195096026745e+00,0.000000000000000000e+00
5.300000000000000000e+01,-1.591956014524438245e+00,0.000000000000000000e+00
5.400000000000000000e+01,-1.371315852979560823e+00,0.000000000000000000e+00
5.500000000000000000e+01,-1.256229992040293730e+00,0.000000000000000000e+00
5.600000000000000000e+01,-9.864676867431203533e-01,0.000000000000000000e+00
5.700000000000000000e+01,-8.450243216621938780e-01,0.000000000000000000e+00
5.800000000000000000e+01,-7.261684880918765073e-01,0.000000000000000000e+00
5.900000000000000000e+01,-6.545411420033399041e-01,0.000000000000000000e+00
6.000000000000000000e+01,-4.145867796153309692e-01,0.000000000000000000e+00
6.100000000000000000e+01,-3.802551219547511407e-01,0.000000000000000000e+00
6.200000000000000000e+01,-4.879100148509382118e-01,0.000000000000000000e+00
6.300000000000000000e+01,-3.621375499633427419e-01,0.000000000000000000e+00
6.400000000000000000e+01,-2.346557951926380170e-01,0.000000000000000000e+00
6.500000000000000000e+01,-2.193159377527352238e-01,0.000000000000000000e+00
6.600000000000000000e+01,-4.950936847469954855e-02,0.000000000000000000e+00
6.700000000000000000e+01,-9.877362074836461281e-02,0.000000000000000000e+00
6.800000000000000000e+01,-1.867639165104535356e-02,0.000000000000000000e+00
6.900000000000000000e+01,2.647275559232649053e-03,0.000000000000000000e+00
7.000000000000000000e+01,1.340707962034215842e-02,0.000000000000000000e+00
7.100000000000000000e+01,2.294599862938009049e-01,0.000000000000000000e+00
7.200000000000000000e+01,3.532982828012470877e-01,0.000000000000000000e+00
7.300000000000000000e+01,1.958266358985326361e-01,0.000000000000000000e+00
7.400000000000000000e+01,3.171245863188548175e-01,0.000000000000000000e+00
7.500000000000000000e+01,1.756163118674286816e-01,0.000000000000000000e+00
7.600000000000000000e+01,2.916269766527818663e-01,0.000000000000000000e+00
7.700000000000000000e+01,5.167908259242405267e-01,0.000000000000000000e+00
7.800000000000000000e+01,4.065918064914113561e-01,0.000000000000000000e+00
7.900000000000000000e+01,5.289611646900770348e-01,0.000000000000000000e+00
8.000000000000000000e+01,2.742695958662208500e-01,0.000000000000000000e+00
8.100000000000000000e+01,4.518340343520063640e-01,0.000000000000000000e+00
8.200000000000000000e+01,4.626291084074549698e-01,0.000000000000000000e+00
8.300000000000000000e+01,5.846274722939552859e-01,0.000000000000000000e+00
8.400000000000000000e+01,7.694529482939854725e-01,0.000000000000000000e+00
8.500000000000000000e+01,8.550018618012501515e-01,0.000000000000000000e+00
8.600000000000000000e+01,5.768212991477855711e-01,0.000000000000000000e+00
8.700000000000000000e+01,6.000937833006351196e-01,0.000000000000000000e+00
8.800000000000000000e+01,1.214799196960413413e-01,0.000000000000000000e+00
8.900000000000000000e+01,1.139257851632841517e-01,0.000000000000000000e+00
9.000000000000000000e+01,2.211867038865058810e-01,0.000000000000000000e+00
9.100000000000000000e+01,2.460784792206618110e-01,0.000000000000000000e+00
9.200000000000000000e+01,3.298094213478441339e-01,0.000000000000000000e+00
9.300000000000000000e+01,3.102880112825938119e-01,0.000000000000000000e+00
9.400000000000000000e+01,2.321787027660512148e+00,0.000000000000000000e+00
9.500000000000000000e+01,3.903610371931288459e+00,0.000000000000000000e+00
9.600000000000000000e+01,5.627895270481987344e-01,1.000000000000000000e+00
9.700000000000000000e+01,-1.220077820616235625e-01,0.000000000000000000e+00
9.800000000000000000e+01,1.115022993108852611e-01,0.000000000000000000e+00
9.900000000000000000e+01,-3.604585595136594600e-01,0.000000000000000000e+00
1.000000000000000000e+02,-3.298906339603243643e-01,0.000000000000000000e+00
1.010000000000000000e+02,-5.004991372380699355e-01,0.000000000000000000e+00
1.020000000000000000e+02,-1.880935346666872399e-01,0.000000000000000000e+00
1.030000000000000000e+02,-1.700842178984155184e-01,0.000000000000000000e+00
1.040000000000000000e+02,-5.359251436101454547e-02,0.000000000000000000e+00
1.050000000000000000e+02,1.743848336136569199e-01,0.000000000000000000e+00
1.060000000000000000e+02,4.221155079958914813e-01,0.000000000000000000e+00
1.070000000000000000e+02,7.575851433320152095e-01,0.000000000000000000e+00
1.080000000000000000e+02,9.493301821880487656e-01,0.000000000000000000e+00
1.090000000000000000e+02,1.322309725774409195e+00,0.000000000000000000e+00
1.100000000000000000e+02,1.193980965554184648e+00,0.000000000000000000e+00
1.110000000000000000e+02,5.061126084234573996e-01,0.000000000000000000e+00
1.120000000000000000e+02,-6.593615028713988302e-01,0.000000000000000000e+00
1.130000000000000000e+02,-1.560373251912560599e+00,0.000000000000000000e+00
1.140000000000000000e+02,-1.937579458398471566e+00,0.000000000000000000e+00
1.150000000000000000e+02,-1.978687139838720910e+00,0.000000000000000000e+00
1.160000000000000000e+02,-1.823418021528101951e+00,0.000000000000000000e+00
1.170000000000000000e+02,-1.659224993895755507e+00,0.000000000000000000e+00
1.180000000000000000e+02,-1.508647897595785103e+00,0.000000000000000000e+00
1.190000000000000000e+02,-1.329060548071890224e+00,0.000000000000000000e+00
1.200000000000000000e+02,-1.167972999761461628e+00,0.000000000000000000e+00
1.210000000000000000e+02,-9.263083938903884373e-01,0.000000000000000000e+00
1.220000000000000000e+02,-7.458092771488925576e-01,0.000000000000000000e+00
1.230000000000000000e+02,-6.490303874451970323e-01,0.000000000000000000e+00
1.240000000000000000e+02,-4.788754239643215338e-01,0.000000000000000000e+00
1.250000000000000000e+02,-5.377133410233413402e-01,0.000000000000000000e+00
1.260000000000000000e+02,-3.247243196463936998e-01,0.000000000000000000e+00
1.270000000000000000e+02,-3.598408230858963219e-01,0.000000000000000000e+00
1.280000000000000000e+02,-2.149938130586597773e-01,0.000000000000000000e+00
1.290000000000000000e+02,-2.646557610237578184e-01,0.000000000000000000e+00
1.300000000000000000e+02,-2.172878893512035503e-01,0.000000000000000000e+00
1.310000000000000000e+02,-1.065862454535106418e-01,0.000000000000000000e+00
1.320000000000000000e+02,-5.300820815853215379e-02,0.000000000000000000e+00
1.330000000000000000e+02,3.041517287738684967e-03,0.000000000000000000e+00
1.340000000000000000e+02,1.287458150843999727e-01,0.000000000000000000e+00
1.350000000000000000e+02,5.340102299209895792e-02,0.000000000000000000e+00
1.360000000000000000e+02,8.945318826797078737e-02,0.000000000000000000e+00
1.370000000000000000e+02,1.795052231350678373e-01,0.000000000000000000e+00
1.380000000000000000e+02,2.596347691358496523e-01,0.000000000000000000e+00
1.390000000000000000e+02,2.244725289267941459e-01,0.000000000000000000e+00
1.400000000000000000e+02,2.204103088701883095e-01,0.000000000000000000e+00
1.410000000000000000e+02,3.685169445008997235e-01,0.000000000000000000e+00
1.420000000000000000e+02,2.741503418464319441e-01,0.000000000000000000e+00
1.430000000000000000e+02,3.860257606134677721e-01,0.000000000000000000e+00
1.440000000000000000e+02,3.496799986069124566e-01,0.000000000000000000e+00
1.450000000000000000e+02,3.536436174149103495e-01,0.000000000000000000e+00
1.460000000000000000e+02,2.684705104324074387e-01,0.000000000000000000e+00
1.470000000000000000e+02,4.621634416553727642e-01,0.000000000000000000e+00
1.480000000000000000e+02,4.650325881936766548e-01,0.000000000000000000e+00
1.490000000000000000e+02,6.819533556359649307e-01,0.000000000000000000e+00
1.500000000000000000e+02,9.209221258731445925e-01,0.000000000000000000e+00
1.510000000000000000e+02,6.086725742432060882e-01,0.000000000000000000e+00
1.520000000000000000e+02,6.408442325776133597e-01,0.000000000000000000e+00
1.530000000000000000e+02,2.591309284221979259e-01,0.000000000000000000e+00
1.540000000000000000e+02,1.444990409956262156e-01,0.000000000000000000e+00
1.550000000000000000e+02,1.194062845369068399e-01,0.000000000000000000e+00
1.560000000000000000e+02,2.887819136838903344e-01,0.000000000000000000e+00
1.570000000000000000e+02,5.650787459852404417e-03,0.000000000000000000e+00
1.580000000000000000e+02,3.107030143132062383e-01,0.000000000000000000e+00
1.590000000000000000e+02,9.505294992979587132e-01,0.000000000000000000e+00
1.600000000000000000e+02,4.515726551283251844e+00,0.000000000000000000e+00
1.610000000000000000e+02,2.566411182110490685e+00,1.000000000000000000e+00
1.620000000000000000e+02,-2.755890671116959512e-01,0.000000000000000000e+00
1.630000000000000000e+02,-3.854736551717089649e-02,0.000000000000000000e+00
1.640000000000000000e+02,-4.867598211355666504e-01,0.000000000000000000e+00
1.650000000000000000e+02,-4.008154266741995597e-01,0.000000000000000000e+00
1.660000000000000000e+02,-5.793237943166091863e-01,0.000000000000000000e+00
1.670000000000000000e+02,-3.784019464484330020e-01,0.000000000000000000e+00
1.680000000000000000e+02,-2.995886950273775606e-01,0.000000000000000000e+00
1.690000000000000000e+02,-1.466168207955546587e-01,0.000000000000000000e+00
1.700000000000000000e+02,-3.487271108561666721e-02,0.000000000000000000e+00
1.710000000000000000e+02,3.849064377816139304e-01,0.000000000000000000e+00
1.720000000000000000e+02,4.510212224777531143e-01,0.000000000000000000e+00
1.730000000000000000e+02,1.073862993702591639e+00,0.000000000000000000e+00
1.740000000000000000e+02,1.154653776030325485e+00,0.000000000000000000e+00
1.750000000000000000e+02,1.309074976010590419e+00,0.000000000000000000e+00
1.760000000000000000e+02,8.608234765624523943e-01,0.000000000000000000e+00
1.770000000000000000e+02,-5.038868787373085995e-02,0.000000000000000000e+00
1.780000000000000000e+02,-1.321275307217110173e+00,0.000000000000000000e+00
1.790000000000000000e+02,-1.758252859253309319e+00,0.000000000000000000e+00
1.800000000000000000e+02,-2.122978849399414170e+00,0.000000000000000000e+00
1.810000000000000000e+02,-1.840968789098804015e+00,0.000000000000000000e+00
1.820000000000000000e+02,-2.037872111585304236e+00,0.000000000000000000e+00
1.830000000000000000e+02,-1.613299977637450588e+00,0.000000000000000000e+00
1.840000000000000000e+02,-1.552444862706921391e+00,0.000000000000000000e+00
1.850000000000000000e+02,-1.236894611374648179e+00,0.000000000000000000e+00
1.860000000000000000e+02,-1.093864602904900840e+00,0.000000000000000000e+00
1.870000000000000000e+02,-9.008100990088669935e-01,0.000000000000000000e+00
1.880000000000000000e+02,-8.231028009732486161e-01,0.000000000000000000e+00
1.890000000000000000e+02,-6.303039255516870165e-01,0.000000000000000000e+00
1.900000000000000000e+02,-5.561759789522026098e-01,0.000000000000000000e+00
1.910000000000000000e+02,-6.031104838137384405e-01,0.000000000000000000e+00
1.920000000000000000e+02,-3.940694329345600933e-01,0.000000000000000000e+00
1.930000000000000000e+02,-4.079842318480688679e-01,0.000000000000000000e+00
1.940000000000000000e+02,-3.727540158169114215e-01,0.000000000000000000e+00
1.950000000000000000e+02,-7.277980999752188540e-02,0.000000000000000000e+00
1.960000000000000000e+02,-3.218315450237727027e-01,0.000000000000000000e+00
1.970000000000000000e+02,-8.670214674264242749e-02,0.000000000000000000e+00
1.980000000000000000e+02,-8.628552422227532548e-02,0.000000000000000000e+00
1.990000000000000000e+02,2.387432378353076395e-02,0.000000000000000000e+00
2.000000000000000000e+02,1.872851073854001069e-02,0.000000000000000000e+00
2.010000000000000000e+02,2.276877657233483399e-01,0.000000000000000000e+00
2.020000000000000000e+02,1.277960355813756443e-01,0.000000000000000000e+00
2.030000000000000000e+02,3.714308283971602398e-01,0.000000000000000000e+00
2.040000000000000000e+02,1.176863338473004700e-01,0.000000000000000000e+00
2.050000000000000000e+02,2.788572804918608705e-01,0.000000000000000000e+00
2.060000000000000000e+02,2.856911228611883624e-01,0.000000000000000000e+00
2.070000000000000000e+02,4.624952404169474507e-01,0.000000000000000000e+00
2.080000000000000000e+02,2.940816838849172887e-01,0.000000000000000000e+00
2.090000000000000000e+02,4.321862033546877702e-01,0.000000000000000000e+00
2.100000000000000000e+02,3.427243580331802986e-01,0.000000000000000000e+00
2.110000000000000000e+02,5.483672203734065720e-01,0.000000000000000000e+00
2.120000000000000000e+02,3.673094207645997145e-01,0.000000000000000000e+00
2.130000000000000000e+02,4.458968645322048951e-01,0.000000000000000000e+00
2.140000000000000000e+02,3.933967775182986015e-01,0.000000000000000000e+00
2.150000000000000000e+02,5.962411794146316169e-01,0.000000000000000000e+00
2.160000000000000000e+02,6.142407106476925893e-01,0.000000000000000000e+00
2.170000000000000000e+02,9.161900855576069480e-01,0.000000000000000000e+00
2.180000000000000000e+02,6.801039828341775006e-01,0.000000000000000000e+00
2.190000000000000000e+02,7.726948004984474094e-01,0.000000000000000000e+00
2.200000000000000000e+02,3.209468388834536556e-01,0.000000000000000000e+00
2.210000000000000000e+02,8.417310729033176953e-02,0.000000000000000000e+00
2.220000000000000000e+02,1.603598009603513785e-01,0.000000000000000000e+00
2.230000000000000000e+02,2.166890620079214014e-01,0.000000000000000000e+00
2.240000000000000000e+02,7.610970301257762027e-02,0.000000000000000000e+00
2.250000000000000000e+02,2.708848560886219503e-01,0.000000000000000000e+00
2.260000000000000000e+02,7.927594665117276840e-01,0.000000000000000000e+00
2.270000000000000000e+02,3.977905992648879341e+00,0.000000000000000000e+00
2.280000000000000000e+02,3.296121444379294552e+00,1.000000000000000000e+00
2.290000000000000000e+02,-2.748851390572990550e-01,0.000000000000000000e+00
2.300000000000000000e+02,1.583620452830765760e-02,0.000000000000000000e+00
2.310000000000000000e+02,-6.635320008079311771e-01,0.000000000000000000e+00
2.320000000000000000e+02,-4.303499169312183792e-01,0.000000000000000000e+00
2.330000000000000000e+02,-7.574963828293669321e-01,0.000000000000000000e+00
2.340000000000000000e+02,-5.574262750467383620e-01,0.000000000000000000e+00
2.350000000000000000e+02,-4.773786667049859100e-01,0.000000000000000000e+00
2.360000000000000000e+02,-1.887183110424512922e-01,0.000000000000000000e+00
2.370000000000000000e+02,-5.414819921274185988e-02,0.000000000000000000e+00
2.380000000000000000e+02,2.649173782042538727e-01,0.000000000000000000e+00
2.390000000000000000e+02,5.129190509997801906e-01,0.000000000000000000e+00
2.400000000000000000e+02,8.522458270062609476e-01,0.000000000000000000e+00
2.410000000000000000e+02,1.341223566006547241e+00,0.000000000000000000e+00
2.420000000000000000e+02,1.359679731901580313e+00,0.000000000000000000e+00
2.430000000000000000e+02,1.034045472134354826e+00,0.000000000000000000e+00
2.440000000000000000e+02,1.503877470969015029e-01,0.000000000000000000e+00
2.450000000000000000e+02,-1.142815870793694621e+00,0.000000000000000000e+00
2.460000000000000000e+02,-1.778467424853282797e+00,0.000000000000000000e+00
2.470000000000000000e+02,-2.039776526611456919e+00,0.000000000000000000e+00
2.480000000000000000e+02,-1.959669256974708285e+00,0.000000000000000000e+00
2.490000000000000000e+02,-1.922748910220954066e+00,0.000000000000000000e+00
2.500000000000000000e+02,-1.611032101931758609e+00,0.000000000000000000e+00
2.510000000000000000e+02,-1.547723751426513861e+00,0.000000000000000000e+00
2.520000000000000000e+02,-1.266330983996593051e+00,0.000000000000000000e+00
2.530000000000000000e+02,-1.113933686142714263e+00,0.000000000000000000e+00
2.540000000000000000e+02,-1.043082869031891624e+00,0.000000000000000000e+00
2.550000000000000000e+02,-7.311369125595067464e-01,0.000000000000000000e+00
2.560000000000000000e+02,-6.242129566856258194e-01,0.000000000000000000e+00
2.570000000000000000e+02,-4.797053894605015079e-01,0.000000000000000000e+00
2.580000000000000000e+02,-4.998564420385762652e-01,0.000000000000000000e+00
2.590000000000000000e+02,-4.618199875698364987e-01,0.000000000000000000e+00
2.600000000000000000e+02,-3.626032508814860944e-01,0.000000000000000000e+00
2.610000000000000000e+02,-1.816758933000140741e-01,0.000000000000000000e+00
2.620000000000000000e+02,-2.575216315329537098e-01,0.000000000000000000e+00
2.630000000000000000e+02,-1.474961517296650426e-01,0.000000000000000000e+00
2.640000000000000000e+02,-7.156841076806075286e-02,0.000000000000000000e+00
2.650000000000000000e+02,2.821929952342021666e-02,0.000000000000000000e+00
2.660000000000000000e+02,8.370285604091224838e-03,0.000000000000000000e+00
2.670000000000000000e+02,1.236456801062171262e-01,0.000000000000000000e+00
2.680000000000000000e+02,1.511902792944477825e-01,0.000000000000000000e+00
2.690000000000000000e+02,2.363708646175491646e-01,0.000000000000000000e+00
2.700000000000000000e+02,1.779479276823374700e-01,0.000000000000000000e+00
2.710000000000000000e+02,2.711137627927486249e-01,0.000000000000000000e+00
2.720000000000000000e+02,3.716584056780489198e-01,0.000000000000000000e+00
2.730000000000000000e+02,2.393239512927207990e-01,0.000000000000000000e+00
2.740000000000000000e+02,3.695487462459423056e-01,0.000000000000000000e+00
2.750000000000000000e+02,4.685099030208852433e-01,0.000000000000000000e+00
2.760000000000000000e+02,4.502064575900910359e-01,0.000000000000000000e+00
2.770000000000000000e+02,4.023798877803230756e-01,0.000000000000000000e+00
2.780000000000000000e+02,2.730611048015968989e-01,0.000000000000000000e+00
2.790000000000000000e+02,4.170241307867408320e-01,0.000000000000000000e+00
2.800000000000000000e+02,4.570306964493076052e-01,0.000000000000000000e+00
2.810000000000000000e+02,6.021910255377047605e-01,0.000000000000000000e+00
2.820000000000000000e+02,3.613604508746838251e-01,0.000000000000000000e+00
2.830000000000000000e+02,5.867708297213783952e-01,0.000000000000000000e+00
2.840000000000000000e+02,7.662718910118555549e-01,0.000000000000000000e+00
2.850000000000000000e+02,8.609694442967019690e-01,0.000000000000000000e+00
2.860000000000000000e+02,6.646703565324314500e-01,0.000000000000000000e+00
2.870000000000000000e+02,6.600113775481366574e-01,0.000000000000000000e+00
2.880000000000000000e+02,2.124801423666946854e-01,0.000000000000000000e+00
2.890000000000000000e+02,4.863100413234208025e-02,0.000000000000000000e+00
2.900000000000000000e+02,1.645587955289325444e-01,0.000000000000000000e+00
2.910000000000000000e+02,1.475167319667239074e-01,0.000000000000000000e+00
2.920000000000000000e+02,2.261055456833520605e-01,0.000000000000000000e+00
2.930000000000000000e+02,2.391421830229942536e-01,0.000000000000000000e+00
2.940000000000000000e+02,1.594880794243245026e+00,0.000000000000000000e+00
2.950000000000000000e+02,5.051683547879969538e+00,0.000000000000000000e+00
2.960000000000000000e+02,1.760925632841739086e+00,1.000000000000000000e+00
2.970000000000000000e+02,-3.913112392028444964e-01,0.000000000000000000e+00
2.980000000000000000e+02,-1.651304571147967359e-01,0.000000000000000000e+00
2.990000000000000000e+02,-6.443179335794060325e-01,0.000000000000000000e+00
3.000000000000000000e+02,-6.127463773050085827e-01,0.000000000000000000e+00
3.010000000000000000e+02,-5.525136117194138219e-01,0.000000000000000000e+00
3.020000000000000000e+02,-3.767273993084609418e-01,0.000000000000000000e+00
3.030000000000000000e+02,-4.551018094884019538e-01,0.000000000000000000e+00
3.040000000000000000e+02,-1.790210690805924265e-01,0.000000000000000000e+00
3.050000000000000000e+02,-1.276123050475286465e-02,0.000000000000000000e+00
3.060000000000000000e+02,3.767478465010808408e-01,0.000000000000000000e+00
3.070000000000000000e+02,7.190164752452673502e-01,0.000000000000000000e+00
3.080000000000000000e+02,1.144358089054855920e+00,0.000000000000000000e+00
3.090000000000000000e+02,1.288203223639507122e+00,0.000000000000000000e+00
3.100000000000000000e+02,1.330582944641790277e+00,0.000000000000000000e+00
3.110000000000000000e+02,7.948564707096925641e-01,0.000000000000000000e+00
3.120000000000000000e+02,-2.835361408190020804e-01,0.000000000000000000e+00
3.130000000000000000e+02,-1.426582352480597615e+00,0.000000000000000000e+00
3.140000000000000000e+02,-2.020422982613137020e+00,0.000000000000000000e+00
3.150000000000000000e+02,-2.145537139562534446e+00,0.000000000000000000e+00
3.160000000000000000e+02,-2.082517772840495773e+00,0.000000000000000000e+00
3.170000000000000000e+02,-1.955027666282505461e+00,0.000000000000000000e+00
3.180000000000000000e+02,-1.662840029126904318e+00,0.000000000000000000e+00
3.190000000000000000e+02,-1.489893559293507863e+00,0.000000000000000000e+00
3.200000000000000000e+02,-1.378411347253911901e+00,0.000000000000000000e+00
3.210000000000000000e+02,-1.107626122896110621e+00,0.000000000000000000e+00
3.220000000000000000e+02,-9.094013617735106081e-01,0.000000000000000000e+00
3.230000000000000000e+02,-8.095206811492354770e-01,0.000000000000000000e+00
3.240000000000000000e+02,-6.610933537185563758e-01,0.000000000000000000e+00
3.250000000000000000e+02,-6.432363660377465875e-01,0.000000000000000000e+00
3.260000000000000000e+02,-5.041405977480836187e-01,0.000000000000000000e+00
3.270000000000000000e+02,-4.610111522150733276e-01,0.000000000000000000e+00
3.280000000000000000e+02,-4.258277936567933519e-01,0.000000000000000000e+00
3.290000000000000000e+02,-1.978736418366814076e-01,0.000000000000000000e+00
3.300000000000000000e+02,-2.656026599360117313e-01,0.000000000000000000e+00
3.310000000000000000e+02,-2.309106496339086434e-01,0.000000000000000000e+00
3.320000000000000000e+02,-1.639685327351483590e-01,0.000000000000000000e+00
3.330000000000000000e+02,-8.612784424738356703e-02,0.000000000000000000e+00
3.340000000000000000e+02,5.092286688148992685e-02,0.000000000000000000e+00
3.350000000000000000e+02,6.115096929047495605e-02,0.000000000000000000e+00
3.360000000000000000e+02,1.845853378711738157e-01,0.000000000000000000e+00
3.370000000000000000e+02,2.873493869273984758e-01,0.000000000000000000e+00
3.380000000000000000e+02,1.835500699099579525e-01,0.000000000000000000e+00
3.390000000000000000e+02,1.843390784685401407e-01,0.000000000000000000e+00
3.400000000000000000e+02,3.357715750136328059e-01,0.000000000000000000e+00
3.410000000000000000e+02,3.856894232885251794e-01,0.000000000000000000e+00
3.420000000000000000e+02,3.446308089716711986e-01,0.000000000000000000e+00
3.430000000000000000e+02,3.974224553118230197e-01,0.000000000000000000e+00
3.440000000000000000e+02,3.437990548466620111e-01,0.000000000000000000e+00
3.450000000000000000e+02,3.654352325029694426e-01,0.000000000000000000e+00
3.460000000000000000e+02,4.977944376828437600e-01,0.000000000000000000e+00
3.470000000000000000e+02,5.627519454970605350e-01,0.000000000000000000e+00
3.480000000000000000e+02,4.036469830912675083e-01,0.000000000000000000e+00
3.490000000000000000e+02,5.709689047315095189e-01,0.000000000000000000e+00
3.500000000000000000e+02,4.860132872850005392e-01,0.000000000000000000e+00
3.510000000000000000e+02,7.818809619562459012e-01,0.000000000000000000e+00
3.520000000000000000e+02,8.539811142180465664e-01,0.000000000000000000e+00
3.530000000000000000e+02,6.959396752172670730e-01,0.000000000000000000e+00
3.540000000000000000e+02,3.831893509467422798e-01,0.000000000000000000e+00
3.550000000000000000e+02,2.188093461002923734e-01,0.000000000000000000e+00
3.560000000000000000e+02,1.855391804417380330e-01,0.000000000000000000e+00
3.570000000000000000e+02,1.692118181529083665e-01,0.000000000000000000e+00
3.580000000000000000e+02,1.929577520375157507e-01,0.000000000000000000e+00
3.590000000000000000e+02,3.181371359999977666e-01,0.000000000000000000e+00
3.600000000000000000e+02,5.729841944248897923e-01,0.000000000000000000e+00
3.610000000000000000e+02,3.650078575733961106e+00,0.000000000000000000e+00
3.620000000000000000e+02,3.276263783469254509e+00,1.000000000000000000e+00
3.630000000000000000e+02,-4.536868537154119529e-01,0.000000000000000000e+00
3.640000000000000000e+02,1.589897653223503460e-01,0.000000000000000000e+00
3.650000000000000000e+02,-2.669415009729040333e-01,0.000000000000000000e+00
3.660000000000000000e+02,-4.114857729608321080e-01,0.000000000000000000e+00
3.670000000000000000e+02,-4.812858853982589502e-01,0.000000000000000000e+00
3.680000000000000000e+02,-3.359779792682960897e-01,0.000000000000000000e+00
3.690000000000000000e+02,-4.078999685008934950e-01,0.000000000000000000e+00
3.700000000000000000e+02,-7.507324379066850073e-02,0.000000000000000000e+00
3.710000000000000000e+02,-4.681450889457011016e-02,0.000000000000000000e+00
3.720000000000000000e+02,3.487250724336892760e-01,0.000000000000000000e+00
3.730000000000000000e+02,4.839858493760176295e-01,0.000000000000000000e+00
3.740000000000000000e+02,8.763537352360989408e-01,0.000000000000000000e+00
3.750000000000000000e+02,9.987917584832076701e-01,0.000000000000000000e+00
3.760000000000000000e+02,1.356009612138527443e+00,0.000000000000000000e+00
3.770000000000000000e+02,1.072893249514790259e+00,0.000000000000000000e+00
3.780000000000000000e+02,3.124622700030650901e-01,0.000000000000000000e+00
3.790000000000000000e+02,-1.134785694277327339e+00,0.000000000000000000e+00
3.800000000000000000e+02,-1.560538866196000685e+00,0.000000000000000000e+00
3.810000000000000000e+02,-2.152278307836957172e+00,0.000000000000000000e+00
3.820000000000000000e+02,-2.010867706623181039e+00,0.000000000000000000e+00
3.830000000000000000e+02,-1.888271833431546476e+00,0.000000000000000000e+00
3.840000000000000000e+02,-1.641007701294425969e+00,0.000000000000000000e+00
3.850000000000000000e+02,-1.447033392909167215e+00,0.000000000000000000e+00
3.860000000000000000e+02,-1.226462519244200688e+00,0.000000000000000000e+00
3.870000000000000000e+02,-1.273803435133901818e+00,0.000000000000000000e+00
3.880000000000000000e+02,-8.747873561456612768e-01,0.000000000000000000e+00
3.890000000000000000e+02,-8.740647464112919485e-01,0.000000000000000000e+00
3.900000000000000000e+02,-5.997994362954550684e-01,0.000000000000000000e+00
3.910000000000000000e+02,-4.834784397801149547e-01,0.000000000000000000e+00
3.920000000000000000e+02,-5.384685102590854866e-01,0.000000000000000000e+00
3.930000000000000000e+02,-4.081182670325390061e-01,0.000000000000000000e+00
3.940000000000000000e+02,-3.410548258713635428e-01,0.000000000000000000e+00
3.950000000000000000e+02,-3.610816464676868121e-01,0.000000000000000000e+00
3.960000000000000000e+02,-3.586023653388475951e-01,0.000000000000000000e+00
3.970000000000000000e+02,2.529843863007850621e-02,0.000000000000000000e+00
3.980000000000000000e+02,-1.880631418941626776e-01,0.000000000000000000e+00
3.990000000000000000e+02,-1.047807877175972041e-02,0.000000000000000000e+00
4.000000000000000000e+02,2.896070376809494959e-02,0.000000000000000000e+00
4.010000000000000000e+02,1.056750406291862010e-01,0.000000000000000000e+00
4.020000000000000000e+02,1.160411474687350064e-01,0.000000000000000000e+00
4.030000000000000000e+02,9.847210892204952271e-02,0.000000000000000000e+00
4.040000000000000000e+02,1.747163932717866741e-01,0.000000000000000000e+00
4.050000000000000000e+02,2.323088154775661274e-01,0.000000000000000000e+00
4.060000000000000000e+02,2.225751529012027219e-01,0.000000000000000000e+00
4.070000000000000000e+02,2.800557895432077560e-01,0.000000000000000000e+00
4.080000000000000000e+02,3.528480488335656307e-01,0.000000000000000000e+00
4.090000000000000000e+02,2.727094347436496702e-01,0.000000000000000000e+00
4.100000000000000000e+02,3.646664523658375567e-01,0.000000000000000000e+00
4.110000000000000000e+02,2.927191552905583638e-01,0.000000000000000000e+00
4.120000000000000000e+02,4.092301207484256853e-01,0.000000000000000000e+00
4.130000000000000000e+02,3.441230362979802448e-01,0.000000000000000000e+00
4.140000000000000000e+02,5.339476502309793426e-01,0.000000000000000000e+00
4.150000000000000000e+02,6.163380381326014623e-01,0.000000000000000000e+00
4.160000000000000000e+02,8.206851346651903301e-01,0.000000000000000000e+00
4.170000000000000000e+02,6.633949658953159911e-01,0.000000000000000000e+00
4.180000000000000000e+02,6.236225571964644221e-01,0.000000000000000000e+00
4.190000000000000000e+02,1.966764803233196357e-01,0.000000000000000000e+00
4.200000000000000000e+02,1.047846602451809744e-01,0.000000000000000000e+00
4.210000000000000000e+02,1.848226979943303483e-01,0.000000000000000000e+00
4.220000000000000000e+02,1.197924362917604374e-01,0.000000000000000000e+00
4.230000000000000000e+02,1.850115488759621341e-01,0.000000000000000000e+00
4.240000000000000000e+02,2.184653788309706413e-01,0.000000000000000000e+00
4.250000000000000000e+02,1.559660439058590420e+00,0.000000000000000000e+00
4.260000000000000000e+02,4.572844908802585984e+00,0.000000000000000000e+00
4.270000000000000000e+02,1.627562791117523888e+00,1.000000000000000000e+00
4.280000000000000000e+02,-3.355283150591176211e-01,0.000000000000000000e+00
4.290000000000000000e+02,2.177675740739107996e-02,0.000000000000000000e+00
4.300000000000000000e+02,-6.093529263925192563e-01,0.000000000000000000e+00
4.310000000000000000e+02,-2.824675132485946483e-01,0.000000000000000000e+00
4.320000000000000000e+02,-6.568916104624177299e-01,0.000000000000000000e+00
4.330000000000000000e+02,-1.708267337817980791e-01,0.000000000000000000e+00
4.340000000000000000e+02,-2.636780818986885766e-01,0.000000000000000000e+00
4.350000000000000000e+02,-1.048792923080089368e-01,0.000000000000000000e+00
4.360000000000000000e+02,2.496436889517508750e-01,0.000000000000000000e+00
4.370000000000000000e+02,3.821046112975802211e-01,0.000000000000000000e+00
4.380000000000000000e+02,7.436070029588167651e-01,0.000000000000000000e+00
4.390000000000000000e+02,1.142634333538868008e+00,0.000000000000000000e+00
4.400000000000000000e+02,1.325411692741728098e+00,0.000000000000000000e+00
4.410000000000000000e+02,1.278434018757722557e+00,0.000000000000000000e+00
4.420000000000000000e+02,8.609020392752373407e-01,0.000000000000000000e+00
4.430000000000000000e+02,-8.180142459866522608e-02,0.000000000000000000e+00
4.440000000000000000e+02,-1.408131583488484440e+00,0.000000000000000000e+00
4.450000000000000000e+02,-1.694118710857433374e+00,0.000000000000000000e+00
4.460000000000000000e+02,-2.043332261244033887e+00,0.000000000000000000e+00
4.470000000000000000e+02,-1.859484085731036185e+00,0.000000000000000000e+00
4.480000000000000000e+02,-1.807414532445126731e+00,0.000000000000000000e+00
4.490000000000000000e+02,-1.566835219059243167e+00,0.000000000000000000e+00
4.500000000000000000e+02,-1.439719040786327175e+00,0.000000000000000000e+00
4.510000000000000000e+02,-1.146609585140201393e+00,0.000000000000000000e+00
4.520000000000000000e+02,-9.837007677266201844e-01,0.000000000000000000e+00
4.530000000000000000e+02,-8.028817399319495562e-01,0.000000000000000000e+00
4.540000000000000000e+02,-6.251902261035867658e-01,0.000000000000000000e+00
4.550000000000000000e+02,-6.888240144494166550e-01,0.000000000000000000e+00
4.560000000000000000e+02,-3.919958634994431534e-01,0.000000000000000000e+00
4.570000000000000000e+02,-4.490502876032894108e-01,0.000000000000000000e+00
4.580000000000000000e+02,-4.256923410682984521e-01,0.000000000000000000e+00
4.590000000000000000e+02,-2.959892198089321691e-01,0.000000000000000000e+00
4.600000000000000000e+02,-3.029054680751086526e-01,0.000000000000000000e+00
4.610000000000000000e+02,-2.175574758884356030e-01,0.000000000000000000e+00
4.620000000000000000e+02,-8.431955861228511429e-02,0.000000000000000000e+00
4.630000000000000000e+02,-2.439059652726368113e-02,0.000000000000000000e+00
4.640000000000000000e+02,-7.843622357878037021e-02,0.000000000000000000e+00
4.650000000000000000e+02,7.962220541631770399e-02,0.000000000000000000e+00
4.660000000000000000e+02,6.891614325358962068e-02,0.000000000000000000e+00
4.670000000000000000e+02,2.023492580212217853e-02,0.000000000000000000e+00
4.680000000000000000e+02,3.127980345878710877e-01,0.000000000000000000e+00
4.690000000000000000e+02,3.450971049321969741e-01,0.000000000000000000e+00
4.700000000000000000e+02,2.131725852715898040e-01,0.000000000000000000e+00
4.710000000000000000e+02,2.644854540015900701e-01,0.000000000000000000e+00
4.720000000000000000e+02,2.595868985505236926e-01,0.000000000000000000e+00
4.730000000000000000e+02,3.187948128695249905e-01,0.000000000000000000e+00
4.740000000000000000e+02,4.423046131775002499e-01,0.000000000000000000e+00
4.750000000000000000e+02,4.226331722943789670e-01,0.000000000000000000e+00
4.760000000000000000e+02,3.169779145422846334e-01,0.000000000000000000e+00
4.770000000000000000e+02,4.402503127349645662e-01,0.000000000000000000e+00
4.780000000000000000e+02,3.193216794183174612e-01,0.000000000000000000e+00
4.790000000000000000e+02,4.810633427426307951e-01,0.000000000000000000e+00
4.800000000000000000e+02,4.152765060610488779e-01,0.000000000000000000e+00
4.810000000000000000e+02,5.590616462256791097e-01,0.000000000000000000e+00
4.820000000000000000e+02,6.242299742244208360e-01,0.000000000000000000e+00
4.830000000000000000e+02,8.801363699222720660e-01,0.000000000000000000e+00
4.840000000000000000e+02,5.927456224524610962e-01,0.000000000000000000e+00
4.850000000000000000e+02,4.499587165447523907e-01,0.000000000000000000e+00
4.860000000000000000e+02,2.132872004978539626e-01,0.000000000000000000e+00
4.870000000000000000e+02,1.735382964725766253e-01,0.000000000000000000e+00
4.880000000000000000e+02,1.341008866474480976e-01,0.000000000000000000e+00
4.890000000000000000e+02,1.878088610344895715e-01,0.000000000000000000e+00
4.900000000000000000e+02,1.600502407263528770e-01,0.000000000000000000e+00
4.910000000000000000e+02,9.481058642670125991e-02,0.000000000000000000e+00
4.920000000000000000e+02,1.289028722341813316e+00,0.000000000000000000e+00
4.930000000000000000e+02,4.836687441351811501e+00,0.000000000000000000e+00
4.940000000000000000e+02,1.964694550115492433e+00,1.000000000000000000e+00
4.950000000000000000e+02,-4.288107846612166374e-01,0.000000000000000000e+00
4.960000000000000000e+02,1.370829842260760413e-02,0.000000000000000000e+00
4.970000000000000000e+02,-6.482648696575623593e-01,0.000000000000000000e+00
4.980000000000000000e+02,-6.954305322731515471e-01,0.000000000000000000e+00
4.990000000000000000e+02,-6.240050203927791639e-01,0.000000000000000000e+00
5.000000000000000000e+02,-3.219044733851486040e-01,0.000000000000000000e+00
5.010000000000000000e+02,-4.002597095914333103e-01,0.000000000000000000e+00
5.020000000000000000e+02,-4.055946237605041749e-02,0.000000000000000000e+00
5.030000000000000000e+02,-1.384852494289704750e-01,0.000000000000000000e+00
5.040000000000000000e+02,3.618758917266765018e-01,0.000000000000000000e+00
5.050000000000000000e+02,5.959925992367614000e-01,0.000000000000000000e+00
5.060000000000000000e+02,1.102206865116452716e+00,0.000000000000000000e+00
5.070000000000000000e+02,1.143945167113620931e+00,0.000000000000000000e+00
5.080000000000000000e+02,1.305936226734424555e+00,0.000000000000000000e+00
5.090000000000000000e+02,8.585395470814717322e-01,0.000000000000000000e+00
5.100000000000000000e+02,-1.916475876525245980e-01,0.000000000000000000e+00
5.110000000000000000e+02,-1.411307031038127491e+00,0.000000000000000000e+00
5.120000000000000000e+02,-1.873794553840009369e+00,0.000000000000000000e+00
5.130000000000000000e+02,-2.191859469527511983e+00,0.000000000000000000e+00
5.140000000000000000e+02,-1.979963470457502428e+00,0.000000000000000000e+00
5.150000000000000000e+02,-1.860731232451983352e+00,0.000000000000000000e+00
5.160000000000000000e+02,-1.563601294532955155e+00,0.000000000000000000e+00
5.170000000000000000e+02,-1.548490019758202330e+00,0.000000000000000000e+00
5.180000000000000000e+02,-1.360899894872003468e+00,0.000000000000000000e+00
5.190000000000000000e+02,-1.074578581496284713e+00,0.000000000000000000e+00
5.200000000000000000e+02,-9.257647399391479848e-01,0.000000000000000000e+00
5.210000000000000000e+02,-8.203557189079767609e-01,0.000000000000000000e+00
5.220000000000000000e+02,-5.777861688950717278e-01,0.000000000000000000e+00
5.230000000000000000e+02,-5.855644177375699533e-01,0.000000000000000000e+00
5.240000000000000000e+02,-3.840506402672064779e-01,0.000000000000000000e+00
5.250000000000000000e+02,-4.929764444102221477e-01,0.000000000000000000e+00
5.260000000000000000e+02,-4.427239836184997945e-01,0.000000000000000000e+00
5.270000000000000000e+02,-3.196757125601855654e-01,0.000000000000000000e+00
5.280000000000000000e+02,-1.482051888653710126e-01,0.000000000000000000e+00
5.290000000000000000e+02,-1.877979215411411940e-01,0.000000000000000000e+00
5.300000000000000000e+02,-1.065731250055772378e-01,0.000000000000000000e+00
5.310000000000000000e+02,6.504878585119364814e-03,0.000000000000000000e+00
5.320000000000000000e+02,1.266311865698714345e-01,0.000000000000000000e+00
5.330000000000000000e+02,4.714752953206283875e-02,0.000000000000000000e+00
5.340000000000000000e+02,2.059846347817854417e-01,0.000000000000000000e+00
5.350000000000000000e+02,4.144296905581317664e-02,0.000000000000000000e+00
5.360000000000000000e+02,2.500559362830684362e-01,0.000000000000000000e+00
5.370000000000000000e+02,1.586373466766996254e-01,0.000000000000000000e+00
5.380000000000000000e+02,3.860696734145494524e-01,0.000000000000000000e+00
5.390000000000000000e+02,2.239007611667370445e-01,0.000000000000000000e+00
5.400000000000000000e+02,4.062150410239495635e-01,0.000000000000000000e+00
5.410000000000000000e+02,3.763571810088709446e-01,0.000000000000000000e+00
5.420000000000000000e+02,4.011781571403051361e-01,0.000000000000000000e+00
5.430000000000000000e+02,2.925134941915262243e-01,0.000000000000000000e+00
5.440000000000000000e+02,4.719535672020897521e-01,0.000000000000000000e+00
5.450000000000000000e+02,3.938494790172932802e-01,0.000000000000000000e+00
5.460000000000000000e+02,4.123426375050369685e-01,0.000000000000000000e+00
5.470000000000000000e+02,3.643784168559034420e-01,0.000000000000000000e+00
5.480000000000000000e+02,5.133033494933489926e-01,0.000000000000000000e+00
5.490000000000000000e+02,6.633275573024975946e-01,0.000000000000000000e+00
5.500000000000000000e+02,8.897962143356824560e-01,0.000000000000000000e+00
5.510000000000000000e+02,7.566515845324636169e-01,0.000000000000000000e+00
5.520000000000000000e+02,7.299555876164200985e-01,0.000000000000000000e+00
5.530000000000000000e+02,4.232507479391661165e-01,0.000000000000000000e+00
5.540000000000000000e+02,1.733040115821597449e-01,0.000000000000000000e+00
5.550000000000000000e+02,7.621373497574612799e-02,0.000000000000000000e+00
5.560000000000000000e+02,2.741474166819247715e-01,0.000000000000000000e+00
5.570000000000000000e+02,-2.292624492378328438e-02,0.000000000000000000e+00
5.580000000000000000e+02,3.916810131819256635e-01,0.000000000000000000e+00
5.590000000000000000e+02,3.737410443606917210e-01,0.000000000000000000e+00
5.600000000000000000e+02,3.559781748729669015e+00,0.000000000000000000e+00
5.610000000000000000e+02,4.178713892373324690e+00,0.000000000000000000e+00
5.620000000000000000e+02,1.470820493753937919e-01,1.000000000000000000e+00
5.630000000000000000e+02,-2.312299028154335065e-02,0.000000000000000000e+00
5.640000000000000000e+02,-5.067517200608703254e-01,0.000000000000000000e+00
5.650000000000000000e+02,-4.630200408809226342e-01,0.000000000000000000e+00
5.660000000000000000e+02,-5.728010789537524294e-01,0.000000000000000000e+00
5.670000000000000000e+02,-5.125515743277595515e-01,0.000000000000000000e+00
5.680000000000000000e+02,-3.775889920576714354e-01,0.000000000000000000e+00
5.690000000000000000e+02,-1.795667386233772145e-01,0.000000000000000000e+00
5.700000000000000000e+02,-8.897880192084600681e-02,0.000000000000000000e+00
5.710000000000000000e+02,3.355303792691448628e-01,0.000000000000000000e+00
5.720000000000000000e+02,4.620833738417585712e-01,0.000000000000000000e+00
5.730000000000000000e+02,1.068047816718910026e+00,0.000000000000000000e+00
5.740000000000000000e+02,1.012983258461921832e+00,0.000000000000000000e+00
5.750000000000000000e+02,1.392105884204349442e+00,0.000000000000000000e+00
5.760000000000000000e+02,1.129971736169551821e+00,0.000000000000000000e+00
5.770000000000000000e+02,3.897151487142103687e-01,0.000000000000000000e+00
5.780000000000000000e+02,-7.414291365503695719e-01,0.000000000000000000e+00
5.790000000000000000e+02,-1.691143392249402799e+00,0.000000000000000000e+00
5.800000000000000000e+02,-2.134617851099422037e+00,0.000000000000000000e+00
5.810000000000000000e+02,-2.090167191886867837e+00,0.000000000000000000e+00
5.820000000000000000e+02,-2.009064567527218070e+00,0.000000000000000000e+00
5.830000000000000000e+02,-1.721391440416742746e+00,0.000000000000000000e+00
5.840000000000000000e+02,-1.688736602626436545e+00,0.000000000000000000e+00
5.850000000000000000e+02,-1.379971997594323430e+00,0.000000000000000000e+00
5.860000000000000000e+02,-1.158800356434968482e+00,0.000000000000000000e+00
5.870000000000000000e+02,-1.118137625240363198e+00,0.000000000000000000e+00
5.880000000000000000e+02,-8.168179144291163318e-01,0.000000000000000000e+00
5.890000000000000000e+02,-9.012045055895895329e-01,0.000000000000000000e+00
5.900000000000000000e+02,-5.917345517397397670e-01,0.000000000000000000e+00
5.910000000000000000e+02,-5.167436593453172966e-01,0.000000000000000000e+00
5.920000000000000000e+02,-4.650301392629943575e-01,0.000000000000000000e+00
5.930000000000000000e+02,-3.529110457102118681e-01,0.000000000000000000e+00
5.940000000000000000e+02,-3.527018166998687199e-01,0.000000000000000000e+00
5.950000000000000000e+02,-3.628635535830601611e-01,0.000000000000000000e+00
5.960000000000000000e+02,-2.205317763605136872e-01,0.000000000000000000e+00
5.970000000000000000e+02,-2.331553645850226175e-01,0.000000000000000000e+00
5.980000000000000000e+02,-9.232402317191251706e-02,0.000000000000000000e+00
5.990000000000000000e+02,-3.551993490828739969e-02,0.000000000000000000e+00
6.000000000000000000e+02,7.541366846931274459e-02,0.000000000000000000e+00
6.010000000000000000e+02,8.999945742445229768e-02,0.000000000000000000e+00
6.020000000000000000e+02,1.763411666553612311e-01,0.000000000000000000e+00
6.030000000000000000e+02,1.450398864422484946e-01,0.000000000000000000e+00
6.040000000000000000e+02,3.317780081308239759e-01,0.000000000000000000e+00
6.050000000000000000e+02,1.971032357353459108e-01,0.000000000000000000e+00
6.060000000000000000e+02,3.394958242542445714e-01,0.000000000000000000e+00
6.070000000000000000e+02,4.207335061136864840e-01,0.000000000000000000e+00
6.080000000000000000e+02,3.521182062237231958e-01,0.000000000000000000e+00
6.090000000000000000e+02,3.646700956253347004e-01,0.000000000000000000e+00
6.100000000000000000e+02,3.375736637643328431e-01,0.000000000000000000e+00
6.110000000000000000e+02,4.805959599023015838e-01,0.000000000000000000e+00
6.120000000000000000e+02,3.943379247676201960e-01,0.000000000000000000e+00
6.130000000000000000e+02,4.375010099859881207e-01,0.000000000000000000e+00
6.140000000000000000e+02,3.572954149703516102e-01,0.000000000000000000e+00
6.150000000000000000e+02,4.482740868643023679e-01,0.000000000000000000e+00
6.160000000000000000e+02,4.981466759249572052e-01,0.000000000000000000e+00
6.170000000000000000e+02,7.892483424623533139e-01,0.000000000000000000e+00
6.180000000000000000e+02,8.007116358555412816e-01,0.000000000000000000e+00
6.190000000000000000e+02,6.690209952295800289e-01,0.000000000000000000e+00
6.200000000000000000e+02,6.464453631129656319e-01,0.000000000000000000e+00
6.210000000000000000e+02,2.508979697363931116e-01,0.000000000000000000e+00
6.220000000000000000e+02,2.139470492035016325e-01,0.000000000000000000e+00
6.230000000000000000e+02,1.619020846849410777e-01,0.000000000000000000e+00
6.240000000000000000e+02,1.253407809098193160e-01,0.000000000000000000e+00
6.250000000000000000e+02,2.026476921754652716e-01,0.000000000000000000e+00
6.260000000000000000e+02,2.803682128547352881e-01,0.000000000000000000e+00
6.270000000000000000e+02,1.705058299947795897e+00,0.000000000000000000e+00
6.280000000000000000e+02,4.616289277498435872e+00,0.000000000000000000e+00
6.290000000000000000e+02,1.369935510676594026e+00,1.000000000000000000e+00
6.300000000000000000e+02,-4.609028841576792157e-01,0.000000000000000000e+00
6.310000000000000000e+02,-1.883928289303287915e-02,0.000000000000000000e+00
6.320000000000000000e+02,-4.401652825012924986e-01,0.000000000000000000e+00
6.330000000000000000e+02,-4.277719848751403986e-01,0.000000000000000000e+00
6.340000000000000000e+02,-5.688944638699667822e-01,0.000000000000000000e+00
6.350000000000000000e+02,-2.635615568432257971e-01,0.000000000000000000e+00
6.360000000000000000e+02,-4.662386749071893988e-01,0.000000000000000000e+00
6.370000000000000000e+02,-5.817834207377847733e-02,0.000000000000000000e+00
6.380000000000000000e+02,5.995167390325386453e-02,0.000000000000000000e+00
6.390000000000000000e+02,3.925277281263843121e-01,0.000000000000000000e+00
6.400000000000000000e+02,6.054365664621943477e-01,0.000000000000000000e+00
6.410000000000000000e+02,8.880584668001330062e-01,0.000000000000000000e+00
6.420000000000000000e+02,1.114343703767417537e+00,0.000000000000000000e+00
6.430000000000000000e+02,1.279510093519506952e+00,0.000000000000000000e+00
6.440000000000000000e+02,7.859917737204253907e-01,0.000000000000000000e+00
6.450000000000000000e+02,-2.276860752155954737e-01,0.000000000000000000e+00
6.460000000000000000e+02,-1.413634708195644629e+00,0.000000000000000000e+00
6.470000000000000000e+02,-1.843814480085153473e+00,0.000000000000000000e+00
6.480000000000000000e+02,-2.066965572501362480e+00,0.000000000000000000e+00
6.490000000000000000e+02,-1.888740037397445226e+00,0.000000000000000000e+00
6.500000000000000000e+02,-1.749336607230633778e+00,0.000000000000000000e+00
6.510000000000000000e+02,-1.463525181809264719e+00,0.000000000000000000e+00
6.520000000000000000e+02,-1.491652711804756892e+00,0.000000000000000000e+00
6.530000000000000000e+02,-1.049191165791438340e+00,0.000000000000000000e+00
6.540000000000000000e+02,-1.025922148417262925e+00,0.000000000000000000e+00
6.550000000000000000e+02,-8.853355840340041416e-01,0.000000000000000000e+00
6.560000000000000000e+02,-6.611501119443577990e-01,0.000000000000000000e+00
6.570000000000000000e+02,-6.950098681929736122e-01,0.000000000000000000e+00
6.580000000000000000e+02,-6.060705719618190157e-01,0.000000000000000000e+00
6.590000000000000000e+02,-3.789970225547769078e-01,0.000000000000000000e+00
6.600000000000000000e+02,-4.463624113984106523e-01,0.000000000000000000e+00
6.610000000000000000e+02,-3.869886820970493413e-01,0.000000000000000000e+00
6.620000000000000000e+02,-3.324324885676318009e-01,0.000000000000000000e+00
6.630000000000000000e+02,-1.965789584573319482e-01,0.000000000000000000e+00
6.640000000000000000e+02,-1.606664103580839609e-01,0.000000000000000000e+00
6.650000000000000000e+02,-3.028887829910286919e-02,0.000000000000000000e+00
6.660000000000000000e+02,1.901731165366553691e-02,0.000000000000000000e+00
6.670000000000000000e+02,1.649134550947880390e-02,0.000000000000000000e+00
6.680000000000000000e+02,1.455332146049464204e-01,0.000000000000000000e+00
6.690000000000000000e+02,1.680282370181719609e-01,0.000000000000000000e+00
6.700000000000000000e+02,8.703680712580040557e-02,0.000000000000000000e+00
6.710000000000000000e+02,2.469658722401006090e-01,0.000000000000000000e+00
6.720000000000000000e+02,2.113581038521473165e-01,0.000000000000000000e+00
6.730000000000000000e+02,2.964642822286201462e-01,0.000000000000000000e+00
6.740000000000000000e+02,2.597674174505599787e-01,0.000000000000000000e+00
6.750000000000000000e+02,3.870794760127857503e-01,0.000000000000000000e+00
6.760000000000000000e+02,3.170564398989592636e-01,0.000000000000000000e+00
6.770000000000000000e+02,4.153102481573505145e-01,0.000000000000000000e+00
6.780000000000000000e+02,2.129985966474621795e-01,0.000000000000000000e+00
6.790000000000000000e+02,4.371770488840718838e-01,0.000000000000000000e+00
6.800000000000000000e+02,3.727532307800073275e-01,0.000000000000000000e+00
6.810000000000000000e+02,4.842449070699140767e-01,0.000000000000000000e+00
6.820000000000000000e+02,5.521304199690374448e-01,0.000000000000000000e+00
6.830000000000000000e+02,8.433960694783180223e-01,0.000000000000000000e+00
6.840000000000000000e+02,7.140250092559767836e-01,0.000000000000000000e+00
6.850000000000000000e+02,6.864697273684923218e-01,0.000000000000000000e+00
6.860000000000000000e+02,5.195416316183090050e-02,0.000000000000000000e+00
6.870000000000000000e+02,1.229077373637693232e-01,0.000000000000000000e+00
6.880000000000000000e+02,1.081912719596957173e-01,0.000000000000000000e+00
6.890000000000000000e+02,1.689565406516687351e-01,0.000000000000000000e+00
6.900000000000000000e+02,2.474256540208402411e-01,0.000000000000000000e+00
6.910000000000000000e+02,3.369968494218991695e-01,0.000000000000000000e+00
6.920000000000000000e+02,1.487180391285055192e+00,0.000000000000000000e+00
6.930000000000000000e+02,4.497613114564589232e+00,0.000000000000000000e+00
6.940000000000000000e+02,1.402045944801369792e+00,1.000000000000000000e+00
6.950000000000000000e+02,-1.556776195113621364e-01,0.000000000000000000e+00
6.960000000000000000e+02,3.255842746852807140e-02,0.000000000000000000e+00
6.970000000000000000e+02,-4.436835564542963017e-01,0.000000000000000000e+00
6.980000000000000000e+02,-3.603460769180333312e-01,0.000000000000000000e+00
6.990000000000000000e+02,-4.160417111534575607e-01,0.000000000000000000e+00
7.000000000000000000e+02,-3.477762251805838756e-01,0.000000000000000000e+00
7.010000000000000000e+02,-2.394047316860059837e-01,0.000000000000000000e+00
7.020000000000000000e+02,-4.816894165766561625e-02,0.000000000000000000e+00
7.030000000000000000e+02,7.402579597526930122e-02,0.000000000000000000e+00
7.040000000000000000e+02,4.130279199337684726e-01,0.000000000000000000e+00
7.050000000000000000e+02,7.834136453495542662e-01,0.000000000000000000e+00
7.060000000000000000e+02,1.044509162727448981e+00,0.000000000000000000e+00
7.070000000000000000e+02,1.237357063083430520e+00,0.000000000000000000e+00
7.080000000000000000e+02,1.226118415458392619e+00,0.000000000000000000e+00
7.090000000000000000e+02,7.772687158416308195e-01,0.000000000000000000e+00
7.100000000000000000e+02,-1.126432552507992402e-01,0.000000000000000000e+00
7.110000000000000000e+02,-1.277281408081263558e+00,0.000000000000000000e+00
7.120000000000000000e+02,-1.731193201470081044e+00,0.000000000000000000e+00
7.130000000000000000e+02,-1.876647809809358192e+00,0.000000000000000000e+00
7.140000000000000000e+02,-1.845703774361636684e+00,0.000000000000000000e+00
7.150000000000000000e+02,-1.792318083410386453e+00,0.000000000000000000e+00
7.160000000000000000e+02,-1.704587671088067635e+00,0.000000000000000000e+00
7.170000000000000000e+02,-1.283937878911867392e+00,0.000000000000000000e+00
7.180000000000000000e+02,-1.246713661177379251e+00,0.000000000000000000e+00
7.190000000000000000e+02,-9.477712151591319856e-01,0.000000000000000000e+00
7.200000000000000000e+02,-8.660154248467212268e-01,0.000000000000000000e+00
7.210000000000000000e+02,-7.212293313013219409e-01,0.000000000000000000e+00
7.220000000000000000e+02,-6.138599433352253110e-01,0.000000000000000000e+00
7.230000000000000000e+02,-6.179658346580153561e-01,0.000000000000000000e+00
7.240000000000000000e+02,-5.531077253524840920e-01,0.000000000000000000e+00
7.250000000000000000e+02,-4.320929994452982204e-01,0.000000000000000000e+00
7.260000000000000000e+02,-3.402525562255235836e-01,0.000000000000000000e+00
7.270000000000000000e+02,-2.932808289503285870e-01,0.000000000000000000e+00
7.280000000000000000e+02,-1.969525948234138735e-01,0.000000000000000000e+00
7.290000000000000000e+02,-3.115584706101959811e-01,0.000000000000000000e+00
7.300000000000000000e+02,-1.031361633594408966e-01,0.000000000000000000e+00
7.310000000000000000e+02,-3.409254616515924874e-02,0.000000000000000000e+00
7.320000000000000000e+02,-4.313085242391611479e-02,0.000000000000000000e+00
7.330000000000000000e+02,1.326098854351078493e-01,0.000000000000000000e+00
7.340000000000000000e+02,1.032044244203321470e-01,0.000000000000000000e+00
7.350000000000000000e+02,1.549268599575106542e-01,0.000000000000000000e+00
7.360000000000000000e+02,2.889512405754747770e-01,0.000000000000000000e+00
7.370000000000000000e+02,1.667762823455794241e-01,0.000000000000000000e+00
7.380000000000000000e+02,2.951790067764054615e-01,0.000000000000000000e+00
7.390000000000000000e+02,5.064779381218330601e-01,0.000000000000000000e+00
7.400000000000000000e+02,3.276512908598366858e-01,0.000000000000000000e+00
7.410000000000000000e+02,3.290979836634814193e-01,0.000000000000000000e+00
7.420000000000000000e+02,4.681466837944791570e-01,0.000000000000000000e+00
7.430000000000000000e+02,3.941578452240840913e-01,0.000000000000000000e+00
7.440000000000000000e+02,4.168799860852545613e-01,0.000000000000000000e+00
7.450000000000000000e+02,3.970298818813117192e-01,0.000000000000000000e+00
7.460000000000000000e+02,4.768929763490757368e-01,0.000000000000000000e+00
7.470000000000000000e+02,4.699127250650699805e-01,0.000000000000000000e+00
7.480000000000000000e+02,4.984756287201988489e-01,0.000000000000000000e+00
7.490000000000000000e+02,7.394310174628516696e-01,0.000000000000000000e+00
7.500000000000000000e+02,8.764151784398933609e-01,0.000000000000000000e+00
7.510000000000000000e+02,6.007431306602738497e-01,0.000000000000000000e+00
7.520000000000000000e+02,5.814997054391213283e-01,0.000000000000000000e+00
7.530000000000000000e+02,2.530382611737705956e-01,0.000000000000000000e+00
7.540000000000000000e+02,1.575082869182042183e-02,0.000000000000000000e+00
7.550000000000000000e+02,3.309409560881710344e-01,0.000000000000000000e+00
7.560000000000000000e+02,5.155375925421049749e-02,0.000000000000000000e+00
7.570000000000000000e+02,3.381704060949243251e-01,0.000000000000000000e+00
7.580000000000000000e+02,3.258304815306642399e-01,0.000000000000000000e+00
7.590000000000000000e+02,2.313967431159713151e+00,0.000000000000000000e+00
7.600000000000000000e+02,4.795030290484636915e+00,0.000000000000000000e+00
7.610000000000000000e+02,8.922774780174981268e-01,1.000000000000000000e+00
7.620000000000000000e+02,-1.391221122130557875e-01,0.000000000000000000e+00
7.630000000000000000e+02,-2.894387230895325569e-01,0.000000000000000000e+00
7.640000000000000000e+02,-4.207592499788864737e-01,0.000000000000000000e+00
7.650000000000000000e+02,-6.393349867812841980e-01,0.000000000000000000e+00
7.660000000000000000e+02,-5.027593371029257519e-01,0.000000000000000000e+00
7.670000000000000000e+02,-4.574423115985332688e-01,0.000000000000000000e+00
7.680000000000000000e+02,-2.399069271652617130e-01,0.000000000000000000e+00
7.690000000000000000e+02,-1.061819848038981356e-01,0.000000000000000000e+00
7.700000000000000000e+02,9.983653191471739130e-02,0.000000000000000000e+00
7.710000000000000000e+02,3.675186363431557357e-01,0.000000000000000000e+00
7.720000000000000000e+02,6.339990839314653126e-01,0.000000000000000000e+00
7.730000000000000000e+02,1.139893977969471006e+00,0.000000000000000000e+00
7.740000000000000000e+02,1.220087215198891073e+00,0.000000000000000000e+00
7.750000000000000000e+02,1.240379192780991957e+00,0.000000000000000000e+00
7.760000000000000000e+02,7.014329365708342756e-01,0.000000000000000000e+00
7.770000000000000000e+02,-4.490137653068210222e-01,0.000000000000000000e+00
7.780000000000000000e+02,-1.442911439308192545e+00,0.000000000000000000e+00
7.790000000000000000e+02,-1.982882252640582710e+00,0.000000000000000000e+00
7.800000000000000000e+02,-2.057656349339544999e+00,0.000000000000000000e+00
7.810000000000000000e+02,-1.930561672006993135e+00,0.000000000000000000e+00
7.820000000000000000e+02,-1.793086586358843215e+00,0.000000000000000000e+00
7.830000000000000000e+02,-1.577807589626478491e+00,0.000000000000000000e+00
7.840000000000000000e+02,-1.492932426393449807e+00,0.000000000000000000e+00
7.850000000000000000e+02,-1.184238817644930108e+00,0.000000000000000000e+00
7.860000000000000000e+02,-9.222997477750504158e-01,0.000000000000000000e+00
7.870000000000000000e+02,-9.708619969507931158e-01,0.000000000000000000e+00
7.880000000000000000e+02,-6.216683076304662103e-01,0.000000000000000000e+00
7.890000000000000000e+02,-5.839139208649224422e-01,0.000000000000000000e+00
7.900000000000000000e+02,-5.510110459898752699e-01,0.000000000000000000e+00
7.910000000000000000e+02,-5.110733091034029840e-01,0.000000000000000000e+00
7.920000000000000000e+02,-4.721072047601211907e-01,0.000000000000000000e+00
7.930000000000000000e+02,-4.078172023840209159e-01,0.000000000000000000e+00
7.940000000000000000e+02,-2.375578669000819598e-01,0.000000000000000000e+00
7.950000000000000000e+02,-3.685461951350497145e-01,0.000000000000000000e+00
7.960000000000000000e+02,-2.065893451152235327e-01,0.000000000000000000e+00
7.970000000000000000e+02,-4.341882659557583929e-03,0.000000000000000000e+00
7.980000000000000000e+02,-1.842549638734772566e-01,0.000000000000000000e+00
7.990000000000000000e+02,2.853833748844309542e-02,0.000000000000000000e+00
8.000000000000000000e+02,5.466414075048926791e-02,0.000000000000000000e+00
8.010000000000000000e+02,1.515247058289899140e-01,0.000000000000000000e+00
8.020000000000000000e+02,1.033732008079787101e-01,0.000000000000000000e+00
8.030000000000000000e+02,2.301088246489696176e-01,0.000000000000000000e+00
8.040000000000000000e+02,2.528018637138600422e-01,0.000000000000000000e+00
8.050000000000000000e+02,2.644752031418327043e-01,0.000000000000000000e+00
8.060000000000000000e+02,2.446706311794100419e-01,0.000000000000000000e+00
8.070000000000000000e+02,2.924586795624467550e-01,0.000000000000000000e+00
8.080000000000000000e+02,4.362713160180288208e-01,0.000000000000000000e+00
8.090000000000000000e+02,3.513852425588600559e-01,0.000000000000000000e+00
8.100000000000000000e+02,4.379933759500522217e-01,0.000000000000000000e+00
8.110000000000000000e+02,3.650067333407891468e-01,0.000000000000000000e+00
8.120000000000000000e+02,3.925840800987767110e-01,0.000000000000000000e+00
8.130000000000000000e+02,4.648387192532881795e-01,0.000000000000000000e+00
8.140000000000000000e+02,4.926580036017869646e-01,0.000000000000000000e+00
8.150000000000000000e+02,4.924737852506342883e-01,0.000000000000000000e+00
8.160000000000000000e+02,4.776068641543490534e-01,0.000000000000000000e+00
8.170000000000000000e+02,8.311763421966359422e-01,0.000000000000000000e+00
8.180000000000000000e+02,8.197481675999038764e-01,0.000000000000000000e+00
8.190000000000000000e+02,6.532582702233360461e-01,0.000000000000000000e+00
8.200000000000000000e+02,4.809573864449887548e-01,0.000000000000000000e+00
8.210000000000000000e+02,1.398094807900628761e-02,0.000000000000000000e+00
8.220000000000000000e+02,-1.404088235997315581e-01,0.000000000000000000e+00
8.230000000000000000e+02,2.414889103235545453e-01,0.000000000000000000e+00
8.240000000000000000e+02,-3.326653593785506430e-02,0.000000000000000000e+00
8.250000000000000000e+02,2.455686297296160447e-01,0.000000000000000000e+00
8.260000000000000000e+02,1.882164189532664345e-01,0.000000000000000000e+00
8.270000000000000000e+02,2.009055478127872441e+00,0.000000000000000000e+00
8.280000000000000000e+02,4.862704052250318654e+00,0.000000000000000000e+00
8.290000000000000000e+02,1.127576587966760968e+00,1.000000000000000000e+00
8.300000000000000000e+02,-4.158231429204948260e-01,0.000000000000000000e+00
8.310000000000000000e+02,-2.087566488564295275e-01,0.000000000000000000e+00
8.320000000000000000e+02,-6.405361165697570636e-01,0.000000000000000000e+00
8.330000000000000000e+02,-6.269190792189897055e-01,0.000000000000000000e+00
8.340000000000000000e+02,-7.038570663844924136e-01,0.000000000000000000e+00
8.350000000000000000e+02,-4.770045528762042464e-01,0.000000000000000000e+00
8.360000000000000000e+02,-3.057935311494424657e-01,0.000000000000000000e+00
8.370000000000000000e+02,-2.093657107857451738e-01,0.000000000000000000e+00
8.380000000000000000e+02,1.393436915896030873e-02,0.000000000000000000e+00
8.390000000000000000e+02,3.201922123616380844e-01,0.000000000000000000e+00
8.400000000000000000e+02,6.209266864260796215e-01,0.000000000000000000e+00
8.410000000000000000e+02,1.005634833917224524e+00,0.000000000000000000e+00
8.420000000000000000e+02,1.296974990280282070e+00,0.000000000000000000e+00
8.430000000000000000e+02,1.128348039068206354e+00,0.000000000000000000e+00
8.440000000000000000e+02,7.378979958992666344e-01,0.000000000000000000e+00
8.450000000000000000e+02,-4.212416152163646066e-01,0.000000000000000000e+00
8.460000000000000000e+02,-1.510176258989122333e+00,0.000000000000000000e+00
8.470000000000000000e+02,-1.888571544224317389e+00,0.000000000000000000e+00
8.480000000000000000e+02,-2.192768787035775713e+00,0.000000000000000000e+00
8.490000000000000000e+02,-2.024246609431888277e+00,0.000000000000000000e+00
8.500000000000000000e+02,-1.862246710338400613e+00,0.000000000000000000e+00
8.510000000000000000e+02,-1.656183003815611343e+00,0.000000000000000000e+00
8.520000000000000000e+02,-1.397451537125846466e+00,0.000000000000000000e+00
8.530000000000000000e+02,-1.305444997223937698e+00,0.000000000000000000e+00
8.540000000000000000e+02,-9.384778541327161161e-01,0.000000000000000000e+00
8.550000000000000000e+02,-8.874639002120116027e-01,0.000000000000000000e+00
8.560000000000000000e+02,-7.104957552342090477e-01,0.000000000000000000e+00
8.570000000000000000e+02,-6.060373085243456748e-01,0.000000000000000000e+00
8.580000000000000000e+02,-5.031555327037638969e-01,0.000000000000000000e+00
8.590000000000000000e+02,-5.506744399502493392e-01,0.000000000000000000e+00
8.600000000000000000e+02,-3.839458081856040317e-01,0.000000000000000000e+00
8.610000000000000000e+02,-2.362217695446798271e-01,0.000000000000000000e+00
8.620000000000000000e+02,-1.932309956604424672e-01,0.000000000000000000e+00
8.630000000000000000e+02,-1.125174294443930662e-01,0.000000000000000000e+00
8.640000000000000000e+02,-1.259150695491030314e-01,0.000000000000000000e+00
8.650000000000000000e+02,-7.863836823302544632e-02,0.000000000000000000e+00
8.660000000000000000e+02,8.259657167788198029e-02,0.000000000000000000e+00
8.670000000000000000e+02,-5.322518282725564182e-02,0.000000000000000000e+00
8.680000000000000000e+02,2.026074764261764638e-01,0.000000000000000000e+00
8.690000000000000000e+02,2.054863056578415947e-01,0.000000000000000000e+00
8.700000000000000000e+02,2.411597025603346989e-01,0.000000000000000000e+00
8.710000000000000000e+02,2.684657031580062747e-01,0.000000000000000000e+00
8.720000000000000000e+02,3.034472084202388120e-01,0.000000000000000000e+00
8.730000000000000000e+02,3.618313819870658810e-01,0.000000000000000000e+00
8.740000000000000000e+02,2.965068050772236008e-01,0.000000000000000000e+00
8.750000000000000000e+02,3.310264034060171889e-01,0.000000000000000000e+00
8.760000000000000000e+02,4.914312478017453523e-01,0.000000000000000000e+00
8.770000000000000000e+02,3.766650719945187076e-01,0.000000000000000000e+00
8.780000000000000000e+02,4.819062509805285277e-01,0.000000000000000000e+00
8.790000000000000000e+02,4.148681005190589244e-01,0.000000000000000000e+00
8.800000000000000000e+02,6.494079695285815967e-01,0.000000000000000000e+00
8.810000000000000000e+02,4.343795529710264280e-01,0.000000000000000000e+00
8.820000000000000000e+02,5.794621978641436577e-01,0.000000000000000000e+00
8.830000000000000000e+02,5.124747220386839386e-01,0.000000000000000000e+00
8.840000000000000000e+02,5.705200496639234453e-01,0.000000000000000000e+00
8.850000000000000000e+02,9.464457829682015877e-01,0.000000000000000000e+00
8.860000000000000000e+02,8.272012810776803171e-01,0.000000000000000000e+00
8.870000000000000000e+02,8.562857322230138513e-01,0.000000000000000000e+00
8.880000000000000000e+02,5.549243254692931560e-01,0.000000000000000000e+00
8.890000000000000000e+02,3.576255735109137857e-01,0.000000000000000000e+00
8.900000000000000000e+02,1.232696651224093609e-01,0.000000000000000000e+00
8.910000000000000000e+02,1.795085988901029550e-01,0.000000000000000000e+00
8.920000000000000000e+02,2.707272227106340967e-01,0.000000000000000000e+00
8.930000000000000000e+02,3.972191913388127826e-01,0.000000000000000000e+00
8.940000000000000000e+02,2.936769630782981033e-01,0.000000000000000000e+00
8.950000000000000000e+02,2.318804985023696918e+00,0.000000000000000000e+00
8.960000000000000000e+02,4.728953169753388863e+00,0.000000000000000000e+00
8.970000000000000000e+02,7.733176991194167238e-01,1.000000000000000000e+00
8.980000000000000000e+02,-2.439594891748492200e-01,0.000000000000000000e+00
8.990000000000000000e+02,-1.011547053538991991e-01,0.000000000000000000e+00
9.000000000000000000e+02,-4.584677489136472772e-01,0.000000000000000000e+00
9.010000000000000000e+02,-4.195190788920643010e-01,0.000000000000000000e+00
9.020000000000000000e+02,-4.847561095738780468e-01,0.000000000000000000e+00
9.030000000000000000e+02,-3.022763871054100493e-01,0.000000000000000000e+00
9.040000000000000000e+02,-3.370836450151197261e-01,0.000000000000000000e+00
9.050000000000000000e+02,-1.867088429773640923e-01,0.000000000000000000e+00
9.060000000000000000e+02,1.050381465906939371e-01,0.000000000000000000e+00
9.070000000000000000e+02,3.908161802589290579e-01,0.000000000000000000e+00
9.080000000000000000e+02,6.110048368141866026e-01,0.000000000000000000e+00
9.090000000000000000e+02,1.009632630228636474e+00,0.000000000000000000e+00
9.100000000000000000e+02,1.200233876738863614e+00,0.000000000000000000e+00
9.110000000000000000e+02,8.977410052751442215e-01,0.000000000000000000e+00
9.120000000000000000e+02,6.348080651219113468e-01,0.000000000000000000e+00
9.130000000000000000e+02,-4.088708112071233192e-01,0.000000000000000000e+00
9.140000000000000000e+02,-1.478630849872792252e+00,0.000000000000000000e+00
9.150000000000000000e+02,-1.958441768728402144e+00,0.000000000000000000e+00
9.160000000000000000e+02,-2.141296280084816317e+00,0.000000000000000000e+00
9.170000000000000000e+02,-1.983568015755950764e+00,0.000000000000000000e+00
9.180000000000000000e+02,-1.878355773059187106e+00,0.000000000000000000e+00
9.190000000000000000e+02,-1.717551025915409424e+00,0.000000000000000000e+00
9.200000000000000000e+02,-1.370755878489247293e+00,0.000000000000000000e+00
9.210000000000000000e+02,-1.247796288616021210e+00,0.000000000000000000e+00
9.220000000000000000e+02,-9.963478755167928247e-01,0.000000000000000000e+00
9.230000000000000000e+02,-9.746540035396979995e-01,0.000000000000000000e+00
9.240000000000000000e+02,-7.667904190563241684e-01,0.000000000000000000e+00
9.250000000000000000e+02,-7.392700826959294202e-01,0.000000000000000000e+00
9.260000000000000000e+02,-5.722691127084738039e-01,0.000000000000000000e+00
9.270000000000000000e+02,-6.225593741989041696e-01,0.000000000000000000e+00
9.280000000000000000e+02,-4.218834019583628248e-01,0.000000000000000000e+00
9.290000000000000000e+02,-3.999329461524894214e-01,0.000000000000000000e+00
9.300000000000000000e+02,-4.146328864618917254e-01,0.000000000000000000e+00
9.310000000000000000e+02,-4.055972136304679121e-01,0.000000000000000000e+00
9.320000000000000000e+02,-1.721117879735916123e-01,0.000000000000000000e+00
9.330000000000000000e+02,-1.050577472018956876e-01,0.000000000000000000e+00
9.340000000000000000e+02,-1.613898744770891069e-01,0.000000000000000000e+00
9.350000000000000000e+02,-1.426939414365291717e-02,0.000000000000000000e+00
9.360000000000000000e+02,4.985286296616108642e-02,0.000000000000000000e+00
9.370000000000000000e+02,-9.735489036261231466e-02,0.000000000000000000e+00
9.380000000000000000e+02,1.103684295183390840e-01,0.000000000000000000e+00
9.390000000000000000e+02,3.786033384704957094e-01,0.000000000000000000e+00
9.400000000000000000e+02,7.179222717022482048e-02,0.000000000000000000e+00
9.410000000000000000e+02,3.282656579814850484e-01,0.000000000000000000e+00
9.420000000000000000e+02,2.312927160627047674e-01,0.000000000000000000e+00
9.430000000000000000e+02,2.467237917962604443e-01,0.000000000000000000e+00
9.440000000000000000e+02,4.478875489587086367e-01,0.000000000000000000e+00
9.450000000000000000e+02,3.579228355306070530e-01,0.000000000000000000e+00
9.460000000000000000e+02,4.127947044175076519e-01,0.000000000000000000e+00
9.470000000000000000e+02,3.049833380848794850e-01,0.000000000000000000e+00
9.480000000000000000e+02,2.847988163636862025e-01,0.000000000000000000e+00
9.490000000000000000e+02,5.489997831985032883e-01,0.000000000000000000e+00
9.500000000000000000e+02,6.999982064208626342e-01,0.000000000000000000e+00
9.510000000000000000e+02,8.907600110002443783e-01,0.000000000000000000e+00
9.520000000000000000e+02,6.733508780692512019e-01,0.000000000000000000e+00
9.530000000000000000e+02,6.609982335399634534e-01,0.000000000000000000e+00
9.540000000000000000e+02,2.403657251009106155e-01,0.000000000000000000e+00
9.550000000000000000e+02,1.611512906680734047e-01,0.000000000000000000e+00
9.560000000000000000e+02,1.856199637031330507e-01,0.000000000000000000e+00
9.570000000000000000e+02,2.328771302341019200e-01,0.000000000000000000e+00
9.580000000000000000e+02,1.591149317238787220e-01,0.000000000000000000e+00
9.590000000000000000e+02,4.536826339007099529e-01,0.000000000000000000e+00
9.600000000000000000e+02,1.757397179170425039e+00,0.000000000000000000e+00
9.610000000000000000e+02,4.511887829632771130e+00,0.000000000000000000e+00
9.620000000000000000e+02,1.367491912277560617e+00,1.000000000000000000e+00
9.630000000000000000e+02,-2.800215210073058181e-01,0.000000000000000000e+00
9.640000000000000000e+02,2.538888045139011881e-02,0.000000000000000000e+00
9.650000000000000000e+02,-4.352439491272167005e-01,0.000000000000000000e+00
9.660000000000000000e+02,-4.212205155036294335e-01,0.000000000000000000e+00
9.670000000000000000e+02,-4.682302833008845644e-01,0.000000000000000000e+00
9.680000000000000000e+02,-3.291578382236495792e-01,0.000000000000000000e+00
9.690000000000000000e+02,-2.401213805414959823e-01,0.000000000000000000e+00
9.700000000000000000e+02,2.604309332680872571e-02,0.000000000000000000e+00
9.710000000000000000e+02,1.800770998964147940e-01,0.000000000000000000e+00
9.720000000000000000e+02,3.501667532448417552e-01,0.000000000000000000e+00
9.730000000000000000e+02,7.292880763383680076e-01,0.000000000000000000e+00
9.740000000000000000e+02,1.113581273815145156e+00,0.000000000000000000e+00
9.750000000000000000e+02,1.328913730909132340e+00,0.000000000000000000e+00
9.760000000000000000e+02,1.268213816663388060e+00,0.000000000000000000e+00
9.770000000000000000e+02,8.359264000130613992e-01,0.000000000000000000e+00
9.780000000000000000e+02,-2.511141075440408987e-01,0.000000000000000000e+00
9.790000000000000000e+02,-1.327186179349324036e+00,0.000000000000000000e+00
9.800000000000000000e+02,-1.862891548610713821e+00,0.000000000000000000e+00
9.810000000000000000e+02,-1.929877389884272487e+00,0.000000000000000000e+00
9.820000000000000000e+02,-1.918274954133065702e+00,0.000000000000000000e+00
9.830000000000000000e+02,-1.723827019592276688e+00,0.000000000000000000e+00
9.840000000000000000e+02,-1.465594262732991426e+00,0.000000000000000000e+00
9.850000000000000000e+02,-1.355451605827643347e+00,0.000000000000000000e+00
9.860000000000000000e+02,-1.168157966504937306e+00,0.000000000000000000e+00
9.870000000000000000e+02,-9.311485036876411270e-01,0.000000000000000000e+00
9.880000000000000000e+02,-7.425625946354561524e-01,0.000000000000000000e+00
9.890000000000000000e+02,-5.348897798042980822e-01,0.000000000000000000e+00
9.900000000000000000e+02,-5.485815632262804886e-01,0.000000000000000000e+00
9.910000000000000000e+02,-4.390001905252741699e-01,0.000000000000000000e+00
9.920000000000000000e+02,-4.104668060934035800e-01,0.000000000000000000e+00
9.930000000000000000e+02,-4.039483172325526450e-01,0.000000000000000000e+00
9.940000000000000000e+02,-3.332636229597125133e-01,0.000000000000000000e+00
9.950000000000000000e+02,-2.740808296628332030e-01,0.000000000000000000e+00
9.960000000000000000e+02,-2.693268088432654306e-01,0.000000000000000000e+00
9.970000000000000000e+02,4.670842143131459512e-02,0.000000000000000000e+00
9.980000000000000000e+02,-6.355245573548198856e-02,0.000000000000000000e+00
9.990000000000000000e+02,4.256486657155532372e-02,0.000000000000000000e+00
1.000000000000000000e+03,-3.481186576066171851e-02,0.000000000000000000e+00
1.001000000000000000e+03,1.261836673263864728e-01,0.000000000000000000e+00
1.002000000000000000e+03,9.327942437138259102e-02,0.000000000000000000e+00
1.003000000000000000e+03,2.630176012730292556e-01,0.000000000000000000e+00
1.004000000000000000e+03,1.863906007406619103e-01,0.000000000000000000e+00
1.005000000000000000e+03,3.292963030944162650e-01,0.000000000000000000e+00
1.006000000000000000e+03,1.234046969045836800e-01,0.000000000000000000e+00
1.007000000000000000e+03,3.472701626714334577e-01,0.000000000000000000e+00
1.008000000000000000e+03,2.024190440155072823e-01,0.000000000000000000e+00
1.009000000000000000e+03,4.689977445238663334e-01,0.000000000000000000e+00
1.010000000000000000e+03,3.210762545255284039e-01,0.000000000000000000e+00
1.011000000000000000e+03,4.643759307116740453e-01,0.000000000000000000e+00
1.012000000000000000e+03,3.404775610098583760e-01,0.000000000000000000e+00
1.013000000000000000e+03,4.302464533361960997e-01,0.000000000000000000e+00
1.014000000000000000e+03,4.658645178430189104e-01,0.000000000000000000e+00
1.015000000000000000e+03,3.960758522346328192e-01,0.000000000000000000e+00
1.016000000000000000e+03,5.673802887431473874e-01,0.000000000000000000e+00
1.017000000000000000e+03,8.536410380795523833e-01,0.000000000000000000e+00
1.018000000000000000e+03,8.220774795844453253e-01,0.000000000000000000e+00
1.019000000000000000e+03,5.591973919795579784e-01,0.000000000000000000e+00
1.020000000000000000e+03,3.661754686661765623e-01,0.000000000000000000e+00
1.021000000000000000e+03,3.233670317377146386e-01,0.000000000000000000e+00
1.022000000000000000e+03,-2.866806261502052519e-02,0.000000000000000000e+00
1.023000000000000000e+03,2.032256750813442314e-01,0.000000000000000000e+00
1.024000000000000000e+03,1.391010370336552837e-01,0.000000000000000000e+00
1.025000000000000000e+03,1.922989867917007933e-01,0.000000000000000000e+00
1.026000000000000000e+03,3.225760645233816670e-01,0.000000000000000000e+00
1.027000000000000000e+03,2.825756774286177109e+00,0.000000000000000000e+00
1.028000000000000000e+03,4.635120666473569351e+00,0.000000000000000000e+00
1.029000000000000000e+03,4.912586066764874082e-01,1.000000000000000000e+00
1.030000000000000000e+03,-2.228707436840509926e-01,0.000000000000000000e+00
1.031000000000000000e+03,-3.603393563199220329e-01,0.000000000000000000e+00
1.032000000000000000e+03,-4.599530457310510023e-01,0.000000000000000000e+00
1.033000000000000000e+03,-6.937259253521230740e-01,0.000000000000000000e+00
1.034000000000000000e+03,-5.352975370917152365e-01,0.000000000000000000e+00
1.035000000000000000e+03,-4.420768707929725871e-01,0.000000000000000000e+00
1.036000000000000000e+03,-2.740796795389756069e-01,0.000000000000000000e+00
1.037000000000000000e+03,-1.014713327579838675e-01,0.000000000000000000e+00
1.038000000000000000e+03,2.936523113935752410e-02,0.000000000000000000e+00
1.039000000000000000e+03,4.612580827439954900e-01,0.000000000000000000e+00
1.040000000000000000e+03,8.244491666333884083e-01,0.000000000000000000e+00
1.041000000000000000e+03,9.800460532322206042e-01,0.000000000000000000e+00
1.042000000000000000e+03,1.157960852112866146e+00,0.000000000000000000e+00
1.043000000000000000e+03,1.145682483324439893e+00,0.000000000000000000e+00
1.044000000000000000e+03,6.289345464592009938e-01,0.000000000000000000e+00
1.045000000000000000e+03,-6.827817132531258659e-01,0.000000000000000000e+00
1.046000000000000000e+03,-1.654006583193502467e+00,0.000000000000000000e+00
1.047000000000000000e+03,-2.141117922826915709e+00,0.000000000000000000e+00
1.048000000000000000e+03,-2.094992493622628071e+00,0.000000000000000000e+00
1.049000000000000000e+03,-1.905313356676461067e+00,0.000000000000000000e+00
1.050000000000000000e+03,-1.908979603098851063e+00,0.000000000000000000e+00
1.051000000000000000e+03,-1.603499196606152477e+00,0.000000000000000000e+00
1.052000000000000000e+03,-1.552731217188638935e+00,0.000000000000000000e+00
1.053000000000000000e+03,-1.307661145660199642e+00,0.000000000000000000e+00
1.054000000000000000e+03,-1.144654437901459598e+00,0.000000000000000000e+00
1.055000000000000000e+03,-8.596328166821054495e-01,0.000000000000000000e+00
1.056000000000000000e+03,-7.221080364377500116e-01,0.000000000000000000e+00
1.057000000000000000e+03,-6.090501730947228687e-01,0.000000000000000000e+00
1.058000000000000000e+03,-6.286528928423578133e-01,0.000000000000000000e+00
1.059000000000000000e+03,-4.783598141395725145e-01,0.000000000000000000e+00
1.060000000000000000e+03,-3.592809842741487292e-01,0.000000000000000000e+00
1.061000000000000000e+03,-4.122143109751683077e-01,0.000000000000000000e+00
1.062000000000000000e+03,-2.922839507300140083e-01,0.000000000000000000e+00
1.063000000000000000e+03,-2.335376456260548073e-01,0.000000000000000000e+00
1.064000000000000000e+03,-2.161972719122335629e-01,0.000000000000000000e+00
1.065000000000000000e+03,-7.830382313485850787e-02,0.000000000000000000e+00
1.066000000000000000e+03,1.915856869819358363e-02,0.000000000000000000e+00
1.067000000000000000e+03,-2.092086604032184979e-02,0.000000000000000000e+00
1.068000000000000000e+03,-5.317101846336064197e-02,0.000000000000000000e+00
1.069000000000000000e+03,1.165400507156902216e-01,0.000000000000000000e+00
1.070000000000000000e+03,4.371875211018648455e-02,0.000000000000000000e+00
1.071000000000000000e+03,3.438663118977556832e-01,0.000000000000000000e+00
1.072000000000000000e+03,1.939763015833233517e-01,0.000000000000000000e+00
1.073000000000000000e+03,3.408822353424395546e-01,0.000000000000000000e+00
1.074000000000000000e+03,2.274552863692018423e-01,0.000000000000000000e+00
1.075000000000000000e+03,2.666635657882904797e-01,0.000000000000000000e+00
1.076000000000000000e+03,4.871710576290818606e-01,0.000000000000000000e+00
1.077000000000000000e+03,3.363769027306704462e-01,0.000000000000000000e+00
1.078000000000000000e+03,3.812299034522652619e-01,0.000000000000000000e+00
1.079000000000000000e+03,4.555769125366000427e-01,0.000000000000000000e+00
1.080000000000000000e+03,3.748597819033202549e-01,0.000000000000000000e+00
1.081000000000000000e+03,4.129536308367720565e-01,0.000000000000000000e+00
1.082000000000000000e+03,3.948153710473012445e-01,0.000000000000000000e+00
1.083000000000000000e+03,5.149590318155299329e-01,0.000000000000000000e+00
1.084000000000000000e+03,6.911382529476343128e-01,0.000000000000000000e+00
1.085000000000000000e+03,8.065163144101286097e-01,0.000000000000000000e+00
1.086000000000000000e+03,7.503831649935827075e-01,0.000000000000000000e+00
1.087000000000000000e+03,6.990996346115723181e-01,0.000000000000000000e+00
1.088000000000000000e+03,3.803448727780477934e-01,0.000000000000000000e+00
1.089000000000000000e+03,7.591951549798033050e-02,0.000000000000000000e+00
1.090000000000000000e+03,1.459668775393695717e-01,0.000000000000000000e+00
1.091000000000000000e+03,2.462398752109198063e-01,0.000000000000000000e+00
1.092000000000000000e+03,1.864096727630969175e-01,0.000000000000000000e+00
1.093000000000000000e+03,3.513770888077442089e-01,0.000000000000000000e+00
1.094000000000000000e+03,8.129121319836924986e-01,0.000000000000000000e+00
1.095000000000000000e+03,4.460021922239320702e+00,0.000000000000000000e+00
1.096000000000000000e+03,3.323040365558007192e+00,1.000000000000000000e+00
1.097000000000000000e+03,-3.415299995426395729e-01,0.000000000000000000e+00
1.098000000000000000e+03,1.478311891280838231e-01,0.000000000000000000e+00
1.099000000000000000e+03,-4.712272074746274853e-01,0.000000000000000000e+00
1.100000000000000000e+03,-5.196819648323780516e-01,0.000000000000000000e+00
1.101000000000000000e+03,-5.921759080799576802e-01,0.000000000000000000e+00
1.102000000000000000e+03,-4.769388893425856035e-01,0.000000000000000000e+00
1.103000000000000000e+03,-3.209479632495378376e-01,0.000000000000000000e+00
1.104000000000000000e+03,-9.312452561789839878e-02,0.000000000000000000e+00
1.105000000000000000e+03,3.177348345391830392e-02,0.000000000000000000e+00
1.106000000000000000e+03,3.056942004627479781e-01,0.000000000000000000e+00
1.107000000000000000e+03,6.136330369915383720e-01,0.000000000000000000e+00
1.108000000000000000e+03,9.995954716402345452e-01,0.000000000000000000e+00
1.109000000000000000e+03,1.224845430287271997e+00,0.000000000000000000e+00
1.110000000000000000e+03,1.387139542312617824e+00,0.000000000000000000e+00
1.111000000000000000e+03,1.176904136493940545e+00,0.000000000000000000e+00
1.112000000000000000e+03,2.218489693644075111e-01,0.000000000000000000e+00
1.113000000000000000e+03,-1.058413775375752763e+00,0.000000000000000000e+00
1.114000000000000000e+03,-1.926578643704789595e+00,0.000000000000000000e+00
1.115000000000000000e+03,-2.051831547951309620e+00,0.000000000000000000e+00
1.116000000000000000e+03,-2.013751945838179847e+00,0.000000000000000000e+00
1.117000000000000000e+03,-1.832841304588877396e+00,0.000000000000000000e+00
1.118000000000000000e+03,-1.687514638583282212e+00,0.000000000000000000e+00
1.119000000000000000e+03,-1.593623224675675631e+00,0.000000000000000000e+00
1.120000000000000000e+03,-1.378268227807267321e+00,0.000000000000000000e+00
1.121000000000000000e+03,-1.213499487123272491e+00,0.000000000000000000e+00
1.122000000000000000e+03,-9.043369983047772065e-01,0.000000000000000000e+00
1.123000000000000000e+03,-7.848144925315031495e-01,0.000000000000000000e+00
1.124000000000000000e+03,-7.529099693617671285e-01,0.000000000000000000e+00
1.125000000000000000e+03,-6.028892821076384800e-01,0.000000000000000000e+00
1.126000000000000000e+03,-5.173014235399535643e-01,0.000000000000000000e+00
1.127000000000000000e+03,-4.789507577509539149e-01,0.000000000000000000e+00
1.128000000000000000e+03,-4.138235311817526907e-01,0.000000000000000000e+00
1.129000000000000000e+03,-4.503956424245704748e-01,0.000000000000000000e+00
1.130000000000000000e+03,-3.037868301730834997e-01,0.000000000000000000e+00
1.131000000000000000e+03,-2.378436550494025248e-01,0.000000000000000000e+00
1.132000000000000000e+03,-6.781059442502775092e-02,0.000000000000000000e+00
1.133000000000000000e+03,-8.158369359223713313e-02,0.000000000000000000e+00
1.134000000000000000e+03,6.569869833724545360e-02,0.000000000000000000e+00
1.135000000000000000e+03,8.147780265613387141e-02,0.000000000000000000e+00
1.136000000000000000e+03,3.802860062197553626e-02,0.000000000000000000e+00
1.137000000000000000e+03,2.020583187984529849e-01,0.000000000000000000e+00
1.138000000000000000e+03,2.378887244398450451e-01,0.000000000000000000e+00
1.139000000000000000e+03,2.671048032237021697e-01,0.000000000000000000e+00
1.140000000000000000e+03,1.991959718251062050e-01,0.000000000000000000e+00
1.141000000000000000e+03,3.362430355503359669e-01,0.000000000000000000e+00
1.142000000000000000e+03,3.486875004878472462e-01,0.000000000000000000e+00
1.143000000000000000e+03,3.302048075376807779e-01,0.000000000000000000e+00
1.144000000000000000e+03,4.275986642781243741e-01,0.000000000000000000e+00
1.145000000000000000e+03,4.876978609342296767e-01,0.000000000000000000e+00
1.146000000000000000e+03,4.338018629945937232e-01,0.000000000000000000e+00
1.147000000000000000e+03,3.929987041931489178e-01,0.000000000000000000e+00
1.148000000000000000e+03,5.005276296143125192e-01,0.000000000000000000e+00
1.149000000000000000e+03,3.788268056242439785e-01,0.000000000000000000e+00
1.150000000000000000e+03,4.284697374460361696e-01,0.000000000000000000e+00
1.151000000000000000e+03,5.793930575738479583e-01,0.000000000000000000e+00
1.152000000000000000e+03,7.531857365337057963e-01,0.000000000000000000e+00
1.153000000000000000e+03,8.911207167348785818e-01,0.000000000000000000e+00
1.154000000000000000e+03,7.819276674193210708e-01,0.000000000000000000e+00
1.155000000000000000e+03,6.784472774098340153e-01,0.000000000000000000e+00
1.156000000000000000e+03,2.953190585435597204e-01,0.000000000000000000e+00
1.157000000000000000e+03,1.724858045229841763e-01,0.000000000000000000e+00
1.158000000000000000e+03,1.151030292690336243e-01,0.000000000000000000e+00
1.159000000000000000e+03,1.642789605754305660e-01,0.000000000000000000e+00
1.160000000000000000e+03,1.627104910068860877e-01,0.000000000000000000e+00
1.161000000000000000e+03,4.084505543983339981e-01,0.000000000000000000e+00
1.162000000000000000e+03,7.868409838372008025e-01,0.000000000000000000e+00
1.163000000000000000e+03,4.188202026101655484e+00,0.000000000000000000e+00
1.164000000000000000e+03,3.105512057613659671e+00,1.000000000000000000e+00
1.165000000000000000e+03,-4.640908938289187713e-01,0.000000000000000000e+00
1.166000000000000000e+03,1.501491858818056191e-01,0.000000000000000000e+00
1.167000000000000000e+03,-4.330588026306614324e-01,0.000000000000000000e+00
1.168000000000000000e+03,-3.251454463864056343e-01,0.000000000000000000e+00
1.169000000000000000e+03,-6.943115273950525301e-01,0.000000000000000000e+00
1.170000000000000000e+03,-2.888753922212565217e-01,0.000000000000000000e+00
1.171000000000000000e+03,-3.810469977021532229e-01,0.000000000000000000e+00
1.172000000000000000e+03,-3.769663642535928116e-02,0.000000000000000000e+00
1.173000000000000000e+03,8.916437746145233767e-02,0.000000000000000000e+00
1.174000000000000000e+03,1.510069107464747928e-01,0.000000000000000000e+00
1.175000000000000000e+03,4.666272071612238559e-01,0.000000000000000000e+00
1.176000000000000000e+03,9.357653583185848722e-01,0.000000000000000000e+00
1.177000000000000000e+03,1.082372251193983725e+00,0.000000000000000000e+00
1.178000000000000000e+03,1.308484321175487519e+00,0.000000000000000000e+00
1.179000000000000000e+03,9.557451199774560369e-01,0.000000000000000000e+00
1.180000000000000000e+03,1.139669367495402819e-01,0.000000000000000000e+00
1.181000000000000000e+03,-1.174170822623047838e+00,0.000000000000000000e+00
1.182000000000000000e+03,-1.863581417262548223e+00,0.000000000000000000e+00
1.183000000000000000e+03,-2.103299445132771783e+00,0.000000000000000000e+00
1.184000000000000000e+03,-2.095799734216422738e+00,0.000000000000000000e+00
1.185000000000000000e+03,-1.953203387285608716e+00,0.000000000000000000e+00
1.186000000000000000e+03,-1.711356817325986990e+00,0.000000000000000000e+00
1.187000000000000000e+03,-1.640230050174008802e+00,0.000000000000000000e+00
1.188000000000000000e+03,-1.508627698156779440e+00,0.000000000000000000e+00
1.189000000000000000e+03,-1.073782885889889682e+00,0.000000000000000000e+00
1.190000000000000000e+03,-1.016460468779307957e+00,0.000000000000000000e+00
1.191000000000000000e+03,-9.285995546563893255e-01,0.000000000000000000e+00
1.192000000000000000e+03,-6.940413084268582944e-01,0.000000000000000000e+00
1.193000000000000000e+03,-6.424242291638434521e-01,0.000000000000000000e+00
1.194000000000000000e+03,-5.420105459605090159e-01,0.000000000000000000e+00
1.195000000000000000e+03,-5.303586491911079781e-01,0.000000000000000000e+00
1.196000000000000000e+03,-4.944129188578618161e-01,0.000000000000000000e+00
1.197000000000000000e+03,-4.397070027648832813e-01,0.000000000000000000e+00
1.198000000000000000e+03,-3.139447534616202629e-01,0.000000000000000000e+00
1.199000000000000000e+03,-2.295271808001478342e-01,0.000000000000000000e+00
1.200000000000000000e+03,-6.854744128887814425e-02,0.000000000000000000e+00
1.201000000000000000e+03,-1.545193606518078244e-01,0.000000000000000000e+00
1.202000000000000000e+03,7.729108694534752785e-03,0.000000000000000000e+00
1.203000000000000000e+03,2.602066169460556799e-04,0.000000000000000000e+00
1.204000000000000000e+03,4.044322928387812655e-02,0.000000000000000000e+00
1.205000000000000000e+03,1.024692346316258690e-01,0.000000000000000000e+00
1.206000000000000000e+03,1.545444079033788665e-01,0.000000000000000000e+00
1.207000000000000000e+03,7.188998672142177249e-02,0.000000000000000000e+00
1.208000000000000000e+03,3.631086566794007320e-01,0.000000000000000000e+00
1.209000000000000000e+03,2.177873638328057804e-01,0.000000000000000000e+00
1.210000000000000000e+03,2.938957543492257685e-01,0.000000000000000000e+00
1.211000000000000000e+03,3.677300202660448991e-01,0.000000000000000000e+00
1.212000000000000000e+03,3.503034729853165552e-01,0.000000000000000000e+00
1.213000000000000000e+03,3.418646843136096680e-01,0.000000000000000000e+00
1.214000000000000000e+03,5.054326725940656573e-01,0.000000000000000000e+00
1.215000000000000000e+03,3.621632622258084688e-01,0.000000000000000000e+00
1.216000000000000000e+03,4.305027054844353662e-01,0.000000000000000000e+00
1.217000000000000000e+03,5.533423289458615502e-01,0.000000000000000000e+00
1.218000000000000000e+03,7.846874752233720107e-01,0.000000000000000000e+00
1.219000000000000000e+03,8.270735975602730994e-01,0.000000000000000000e+00
1.220000000000000000e+03,6.296204132963720834e-01,0.000000000000000000e+00
1.221000000000000000e+03,6.415802528999451360e-01,0.000000000000000000e+00
1.222000000000000000e+03,4.883053189326577725e-01,0.000000000000000000e+00
1.223000000000000000e+03,1.774949427092378448e-02,0.000000000000000000e+00
1.224000000000000000e+03,2.995030772678661246e-01,0.000000000000000000e+00
1.225000000000000000e+03,2.256474168574210404e-01,0.000000000000000000e+00
1.226000000000000000e+03,2.164407559754854271e-01,0.000000000000000000e+00
1.227000000000000000e+03,2.425623649454506370e-01,0.000000000000000000e+00
1.228000000000000000e+03,1.636965187972482472e+00,0.000000000000000000e+00
1.229000000000000000e+03,4.759066480697996759e+00,0.000000000000000000e+00
1.230000000000000000e+03,1.757257874995477920e+00,1.000000000000000000e+00
1.231000000000000000e+03,-3.472426917728824169e-01,0.000000000000000000e+00
1.232000000000000000e+03,9.020204381331450860e-02,0.000000000000000000e+00
1.233000000000000000e+03,-5.854223706730458110e-01,0.000000000000000000e+00
1.234000000000000000e+03,-3.435865708505449478e-01,0.000000000000000000e+00
1.235000000000000000e+03,-5.671131682716054057e-01,0.000000000000000000e+00
1.236000000000000000e+03,-3.339338655133307077e-01,0.000000000000000000e+00
1.237000000000000000e+03,-3.162451618505718320e-01,0.000000000000000000e+00
1.238000000000000000e+03,7.153882401870990948e-02,0.000000000000000000e+00
1.239000000000000000e+03,2.505924706498912496e-02,0.000000000000000000e+00
1.240000000000000000e+03,5.231465451591799098e-01,0.000000000000000000e+00
1.241000000000000000e+03,5.956185552487751611e-01,0.000000000000000000e+00
1.242000000000000000e+03,1.108419161686351684e+00,0.000000000000000000e+00
1.243000000000000000e+03,1.284307924433233383e+00,0.000000000000000000e+00
1.244000000000000000e+03,1.375712061405382824e+00,0.000000000000000000e+00
1.245000000000000000e+03,8.772760391003757707e-01,0.000000000000000000e+00
1.246000000000000000e+03,-2.126816569544910107e-01,0.000000000000000000e+00
1.247000000000000000e+03,-1.376471439139524744e+00,0.000000000000000000e+00
1.248000000000000000e+03,-1.818974812350913517e+00,0.000000000000000000e+00
1.249000000000000000e+03,-2.020560707035648385e+00,0.000000000000000000e+00
1.250000000000000000e+03,-2.040413993328698439e+00,0.000000000000000000e+00
1.251000000000000000e+03,-1.793079938626543024e+00,0.000000000000000000e+00
1.252000000000000000e+03,-1.643292833060526759e+00,0.000000000000000000e+00
1.253000000000000000e+03,-1.408243060595631757e+00,0.000000000000000000e+00
1.254000000000000000e+03,-1.147034046428742959e+00,0.000000000000000000e+00
1.255000000000000000e+03,-1.183759669075887588e+00,0.000000000000000000e+00
1.256000000000000000e+03,-7.888380101697143321e-01,0.000000000000000000e+00
1.257000000000000000e+03,-6.951312018310462637e-01,0.000000000000000000e+00
1.258000000000000000e+03,-6.010945612883985545e-01,0.000000000000000000e+00
1.259000000000000000e+03,-5.032167072265409935e-01,0.000000000000000000e+00
1.260000000000000000e+03,-4.162708567261423909e-01,0.000000000000000000e+00
1.261000000000000000e+03,-4.289348083854367388e-01,0.000000000000000000e+00
1.262000000000000000e+03,-2.832072700913438323e-01,0.000000000000000000e+00
1.263000000000000000e+03,-3.223109869360656354e-01,0.000000000000000000e+00
1.264000000000000000e+03,-9.940991031983770210e-02,0.000000000000000000e+00
1.265000000000000000e+03,-2.986749470517768290e-01,0.000000000000000000e+00
1.266000000000000000e+03,5.237597080943423057e-03,0.000000000000000000e+00
1.267000000000000000e+03,-2.026779907726826077e-02,0.000000000000000000e+00
1.268000000000000000e+03,5.447907807261405388e-02,0.000000000000000000e+00
1.269000000000000000e+03,2.209375268320038221e-01,0.000000000000000000e+00
1.270000000000000000e+03,1.374142627327097910e-01,0.000000000000000000e+00
1.271000000000000000e+03,2.781145839272787801e-01,0.000000000000000000e+00
1.272000000000000000e+03,2.678353322874730824e-01,0.000000000000000000e+00
1.273000000000000000e+03,2.223187901800651178e-01,0.000000000000000000e+00
1.274000000000000000e+03,2.157118340217253349e-01,0.000000000000000000e+00
1.275000000000000000e+03,4.362306361619908146e-01,0.000000000000000000e+00
1.276000000000000000e+03,3.827568595542166774e-01,0.000000000000000000e+00
1.277000000000000000e+03,3.788542899763522320e-01,0.000000000000000000e+00
1.278000000000000000e+03,5.700936814661053953e-01,0.000000000000000000e+00
1.279000000000000000e+03,3.877070974944292758e-01,0.000000000000000000e+00
1.280000000000000000e+03,5.642914345996220549e-01,0.000000000000000000e+00
1.281000000000000000e+03,3.352769049214364694e-01,0.000000000000000000e+00
1.282000000000000000e+03,4.747473012755645261e-01,0.000000000000000000e+00
1.283000000000000000e+03,3.214464017423761533e-01,0.000000000000000000e+00
1.284000000000000000e+03,5.882248757681146634e-01,0.000000000000000000e+00
1.285000000000000000e+03,5.376986797769873760e-01,0.000000000000000000e+00
1.286000000000000000e+03,9.651928286504332100e-01,0.000000000000000000e+00
1.287000000000000000e+03,6.742163418832819444e-01,0.000000000000000000e+00
1.288000000000000000e+03,5.804362098032682660e-01,0.000000000000000000e+00
1.289000000000000000e+03,4.044668216284280082e-01,0.000000000000000000e+00
1.290000000000000000e+03,-3.328787102715840412e-02,0.000000000000000000e+00
1.291000000000000000e+03,1.187141235904272812e-01,0.000000000000000000e+00
1.292000000000000000e+03,2.403072659914787246e-01,0.000000000000000000e+00
1.293000000000000000e+03,1.075873981208881752e-01,0.000000000000000000e+00
1.294000000000000000e+03,2.663088791736937799e-01,0.000000000000000000e+00
1.295000000000000000e+03,7.290158596683556924e-01,0.000000000000000000e+00
1.296000000000000000e+03,4.423216414498570614e+00,0.000000000000000000e+00
1.297000000000000000e+03,2.949972516664811195e+00,1.000000000000000000e+00
1.298000000000000000e+03,-3.529850517463455906e-01,0.000000000000000000e+00
1.299000000000000000e+03,-9.079403681480982535e-02,0.000000000000000000e+00
1.300000000000000000e+03,-6.242886423715439115e-01,0.000000000000000000e+00
1.301000000000000000e+03,-5.130020763450466870e-01,0.000000000000000000e+00
1.302000000000000000e+03,-8.254210254637416311e-01,0.000000000000000000e+00
1.303000000000000000e+03,-3.812410081158023045e-01,0.000000000000000000e+00
1.304000000000000000e+03,-6.311057784767943879e-01,0.000000000000000000e+00
1.305000000000000000e+03,-1.552818995301252225e-01,0.000000000000000000e+00
1.306000000000000000e+03,-1.052336794749343385e-01,0.000000000000000000e+00
1.307000000000000000e+03,1.616246746111342503e-01,0.000000000000000000e+00
1.308000000000000000e+03,4.663067947631819865e-01,0.000000000000000000e+00
1.309000000000000000e+03,9.227643005685702837e-01,0.000000000000000000e+00
1.310000000000000000e+03,1.116967911250457579e+00,0.000000000000000000e+00
1.311000000000000000e+03,1.321394337206758696e+00,0.000000000000000000e+00
1.312000000000000000e+03,9.474072259371647542e-01,0.000000000000000000e+00
1.313000000000000000e+03,2.019313025069716383e-01,0.000000000000000000e+00
1.314000000000000000e+03,-1.134665068497910045e+00,0.000000000000000000e+00
1.315000000000000000e+03,-1.876171584680251136e+00,0.000000000000000000e+00
1.316000000000000000e+03,-2.189690270757591595e+00,0.000000000000000000e+00
1.317000000000000000e+03,-2.001899897014752128e+00,0.000000000000000000e+00
1.318000000000000000e+03,-2.057598915336833034e+00,0.000000000000000000e+00
1.319000000000000000e+03,-1.659104510495166940e+00,0.000000000000000000e+00
1.320000000000000000e+03,-1.517164347826349236e+00,0.000000000000000000e+00
1.321000000000000000e+03,-1.468619261811295873e+00,0.000000000000000000e+00
1.322000000000000000e+03,-1.160411953353205128e+00,0.000000000000000000e+00
1.323000000000000000e+03,-1.014187965857128670e+00,0.000000000000000000e+00
1.324000000000000000e+03,-8.665797567069962737e-01,0.000000000000000000e+00
1.325000000000000000e+03,-5.697618540015545463e-01,0.000000000000000000e+00
1.326000000000000000e+03,-6.914112692381230163e-01,0.000000000000000000e+00
1.327000000000000000e+03,-4.801200202664052119e-01,0.000000000000000000e+00
1.328000000000000000e+03,-5.415451299737598090e-01,0.000000000000000000e+00
1.329000000000000000e+03,-3.420180634294254784e-01,0.000000000000000000e+00
1.330000000000000000e+03,-3.206627938476128703e-01,0.000000000000000000e+00
1.331000000000000000e+03,-3.116049799772600548e-01,0.000000000000000000e+00
1.332000000000000000e+03,-1.588286371754728532e-01,0.000000000000000000e+00
1.333000000000000000e+03,-1.454559455190727602e-01,0.000000000000000000e+00
1.334000000000000000e+03,-5.917027105328095948e-02,0.000000000000000000e+00
1.335000000000000000e+03,3.857842664120657988e-02,0.000000000000000000e+00
1.336000000000000000e+03,3.685554634298833510e-02,0.000000000000000000e+00
1.337000000000000000e+03,1.996299751562274905e-01,0.000000000000000000e+00
1.338000000000000000e+03,1.470806065121043060e-01,0.000000000000000000e+00
1.339000000000000000e+03,2.188460031306974918e-01,0.000000000000000000e+00
1.340000000000000000e+03,2.742062515174723547e-01,0.000000000000000000e+00
1.341000000000000000e+03,3.474915902675312362e-01,0.000000000000000000e+00
1.342000000000000000e+03,3.521664494600381112e-01,0.000000000000000000e+00
1.343000000000000000e+03,3.584450732252627003e-01,0.000000000000000000e+00
1.344000000000000000e+03,3.718026195513635113e-01,0.000000000000000000e+00
1.345000000000000000e+03,4.032616815685130529e-01,0.000000000000000000e+00
1.346000000000000000e+03,4.984114222649722592e-01,0.000000000000000000e+00
1.347000000000000000e+03,4.445619282442492826e-01,0.000000000000000000e+00
1.348000000000000000e+03,4.965621101906784185e-01,0.000000000000000000e+00
1.349000000000000000e+03,4.091083088827147662e-01,0.000000000000000000e+00
1.350000000000000000e+03,5.223822890824590948e-01,0.000000000000000000e+00
1.351000000000000000e+03,4.086334970848984338e-01,0.000000000000000000e+00
1.352000000000000000e+03,6.730769511686760520e-01,0.000000000000000000e+00
1.353000000000000000e+03,7.115217348562096200e-01,0.000000000000000000e+00
1.354000000000000000e+03,8.585319850068716674e-01,0.000000000000000000e+00
1.355000000000000000e+03,6.927814398966707365e-01,0.000000000000000000e+00
1.356000000000000000e+03,6.158890934225079716e-01,0.000000000000000000e+00
1.357000000000000000e+03,3.289258944287165587e-01,0.000000000000000000e+00
1.358000000000000000e+03,8.896027178742428598e-02,0.000000000000000000e+00
1.359000000000000000e+03,9.742145954437758659e-02,0.000000000000000000e+00
1.360000000000000000e+03,2.341386969456985268e-01,0.000000000000000000e+00
1.361000000000000000e+03,1.222842973085241508e-01,0.000000000000000000e+00
1.362000000000000000e+03,4.742849291367108866e-01,0.000000000000000000e+00
1.363000000000000000e+03,9.298671031331399162e-01,0.000000000000000000e+00
1.364000000000000000e+03,4.874880173559736463e+00,0.000000000000000000e+00
1.365000000000000000e+03,2.535414544282513116e+00,1.000000000000000000e+00
1.366000000000000000e+03,-3.778019853077798640e-01,0.000000000000000000e+00
1.367000000000000000e+03,-3.638851421528983138e-02,0.000000000000000000e+00
1.368000000000000000e+03,-6.941643187234588508e-01,0.000000000000000000e+00
1.369000000000000000e+03,-5.251858304373898667e-01,0.000000000000000000e+00
1.370000000000000000e+03,-6.738243105828104484e-01,0.000000000000000000e+00
1.371000000000000000e+03,-4.616496833940712530e-01,0.000000000000000000e+00
1.372000000000000000e+03,-3.367671204692096465e-01,0.000000000000000000e+00
1.373000000000000000e+03,-8.782723420484378485e-02,0.000000000000000000e+00
1.374000000000000000e+03,-7.867530329517917476e-02,0.000000000000000000e+00
1.375000000000000000e+03,3.438240865931392332e-01,0.000000000000000000e+00
1.376000000000000000e+03,5.708309441460470701e-01,0.000000000000000000e+00
1.377000000000000000e+03,1.078877350845813599e+00,0.000000000000000000e+00
1.378000000000000000e+03,1.124609759960309985e+00,0.000000000000000000e+00
1.379000000000000000e+03,1.435450725935779825e+00,0.000000000000000000e+00
1.380000000000000000e+03,9.050285359461744950e-01,0.000000000000000000e+00
1.381000000000000000e+03,-6.056451509313952319e-02,0.000000000000000000e+00
1.382000000000000000e+03,-1.168671635790814012e+00,0.000000000000000000e+00
1.383000000000000000e+03,-1.905297742155926954e+00,0.000000000000000000e+00
1.384000000000000000e+03,-2.220054174257273250e+00,0.000000000000000000e+00
1.385000000000000000e+03,-2.117038399391092174e+00,0.000000000000000000e+00
1.386000000000000000e+03,-1.947967033601285314e+00,0.000000000000000000e+00
1.387000000000000000e+03,-1.639457880493624620e+00,0.000000000000000000e+00
1.388000000000000000e+03,-1.535609579593438578e+00,0.000000000000000000e+00
1.389000000000000000e+03,-1.429823688520104108e+00,0.000000000000000000e+00
1.390000000000000000e+03,-1.072200372437829063e+00,0.000000000000000000e+00
1.391000000000000000e+03,-1.022204189275429664e+00,0.000000000000000000e+00
1.392000000000000000e+03,-8.278526095883593783e-01,0.000000000000000000e+00
1.393000000000000000e+03,-6.882352629126204935e-01,0.000000000000000000e+00
1.394000000000000000e+03,-6.539263155493163504e-01,0.000000000000000000e+00
1.395000000000000000e+03,-5.496896785916559613e-01,0.000000000000000000e+00
1.396000000000000000e+03,-4.813529402774041066e-01,0.000000000000000000e+00
1.397000000000000000e+03,-3.352793042104675880e-01,0.000000000000000000e+00
1.398000000000000000e+03,-3.982614388518677107e-01,0.000000000000000000e+00
1.399000000000000000e+03,-2.823162469164239852e-01,0.000000000000000000e+00
1.400000000000000000e+03,-1.694639049223091443e-01,0.000000000000000000e+00
1.401000000000000000e+03,-1.394791681068554279e-01,0.000000000000000000e+00
1.402000000000000000e+03,-9.234924046306468293e-02,0.000000000000000000e+00
1.403000000000000000e+03,-3.416350542363859322e-02,0.000000000000000000e+00
1.404000000000000000e+03,1.771492475426008628e-01,0.000000000000000000e+00
1.405000000000000000e+03,1.333127846848623510e-01,0.000000000000000000e+00
1.406000000000000000e+03,1.179844997027482828e-01,0.000000000000000000e+00
1.407000000000000000e+03,1.933910035234706615e-01,0.000000000000000000e+00
1.408000000000000000e+03,2.492298609306582147e-01,0.000000000000000000e+00
1.409000000000000000e+03,3.862381570013668775e-01,0.000000000000000000e+00
1.410000000000000000e+03,3.422981119202026523e-01,0.000000000000000000e+00
1.411000000000000000e+03,3.452479283769898655e-01,0.000000000000000000e+00
1.412000000000000000e+03,3.509710695876160913e-01,0.000000000000000000e+00
1.413000000000000000e+03,4.120766625304939090e-01,0.000000000000000000e+00
1.414000000000000000e+03,4.082556021518014555e-01,0.000000000000000000e+00
1.415000000000000000e+03,5.347711600893240158e-01,0.000000000000000000e+00
1.416000000000000000e+03,4.257296971956966991e-01,0.000000000000000000e+00
1.417000000000000000e+03,5.109243446011410006e-01,0.000000000000000000e+00
1.418000000000000000e+03,4.449731724538563138e-01,0.000000000000000000e+00
1.419000000000000000e+03,4.724740828568956275e-01,0.000000000000000000e+00
1.420000000000000000e+03,6.427444457321705995e-01,0.000000000000000000e+00
1.421000000000000000e+03,6.983321925624279558e-01,0.000000000000000000e+00
1.422000000000000000e+03,8.497419903735093927e-01,0.000000000000000000e+00
1.423000000000000000e+03,7.952314772233357587e-01,0.000000000000000000e+00
1.424000000000000000e+03,6.589903300837356426e-01,0.000000000000000000e+00
1.425000000000000000e+03,3.037161321026943805e-01,0.000000000000000000e+00
1.426000000000000000e+03,1.669084082397937208e-01,0.000000000000000000e+00
1.427000000000000000e+03,1.575466372591692310e-01,0.000000000000000000e+00
1.428000000000000000e+03,9.588780372842167776e-02,0.000000000000000000e+00
1.429000000000000000e+03,2.861255728342489424e-01,0.000000000000000000e+00
1.430000000000000000e+03,2.015323536635117707e-01,0.000000000000000000e+00
1.431000000000000000e+03,1.203429652952688445e+00,0.000000000000000000e+00
1.432000000000000000e+03,4.262191485015219605e+00,0.000000000000000000e+00
1.433000000000000000e+03,2.330183120230479243e+00,1.000000000000000000e+00
1.434000000000000000e+03,-4.469152249161927326e-01,0.000000000000000000e+00
1.435000000000000000e+03,1.160478016446774979e-01,0.000000000000000000e+00
1.436000000000000000e+03,-3.933184422380840983e-01,0.000000000000000000e+00
1.437000000000000000e+03,-3.051218381706065075e-01,0.000000000000000000e+00
1.438000000000000000e+03,-5.661896622982908189e-01,0.000000000000000000e+00
1.439000000000000000e+03,-2.990471506242871058e-01,0.000000000000000000e+00
1.440000000000000000e+03,-3.300077696995739052e-01,0.000000000000000000e+00
1.441000000000000000e+03,-5.496253467328626741e-02,0.000000000000000000e+00
1.442000000000000000e+03,-1.326489467215456221e-02,0.000000000000000000e+00
1.443000000000000000e+03,2.935206670797613770e-01,0.000000000000000000e+00
1.444000000000000000e+03,4.099083312541177970e-01,0.000000000000000000e+00
1.445000000000000000e+03,9.501283363137832394e-01,0.000000000000000000e+00
1.446000000000000000e+03,1.170144013456677179e+00,0.000000000000000000e+00
1.447000000000000000e+03,1.115013418662468059e+00,0.000000000000000000e+00
1.448000000000000000e+03,8.710038776842854436e-01,0.000000000000000000e+00
1.449000000000000000e+03,-1.225297055076693953e-01,0.000000000000000000e+00
1.450000000000000000e+03,-1.247343168896259069e+00,0.000000000000000000e+00
1.451000000000000000e+03,-1.888143706821858947e+00,0.000000000000000000e+00
1.452000000000000000e+03,-2.150539793360699115e+00,0.000000000000000000e+00
1.453000000000000000e+03,-1.985223136560606338e+00,0.000000000000000000e+00
1.454000000000000000e+03,-1.800838116329229077e+00,0.000000000000000000e+00
1.455000000000000000e+03,-1.652023176582935404e+00,0.000000000000000000e+00
1.456000000000000000e+03,-1.556411275596575994e+00,0.000000000000000000e+00
1.457000000000000000e+03,-1.189197079888916875e+00,0.000000000000000000e+00
1.458000000000000000e+03,-1.199507921984841241e+00,0.000000000000000000e+00
1.459000000000000000e+03,-8.035119601801383737e-01,0.000000000000000000e+00
1.460000000000000000e+03,-7.852050077350215540e-01,0.000000000000000000e+00
1.461000000000000000e+03,-6.362070016500516179e-01,0.000000000000000000e+00
1.462000000000000000e+03,-6.372758109237123270e-01,0.000000000000000000e+00
1.463000000000000000e+03,-4.047315834346382757e-01,0.000000000000000000e+00
1.464000000000000000e+03,-6.410007487429439932e-01,0.000000000000000000e+00
1.465000000000000000e+03,-2.754203394663484739e-01,0.000000000000000000e+00
1.466000000000000000e+03,-3.948496594920268277e-01,0.000000000000000000e+00
1.467000000000000000e+03,-2.549389888375283575e-01,0.000000000000000000e+00
1.468000000000000000e+03,-1.524908562863986905e-01,0.000000000000000000e+00
1.469000000000000000e+03,-6.419380971938133673e-02,0.000000000000000000e+00
1.470000000000000000e+03,-3.484852312408297931e-02,0.000000000000000000e+00
1.471000000000000000e+03,-1.105381785032237413e-01,0.000000000000000000e+00
1.472000000000000000e+03,1.726575744094240583e-01,0.000000000000000000e+00
1.473000000000000000e+03,1.653064971594078725e-01,0.000000000000000000e+00
1.474000000000000000e+03,4.789209582437128909e-03,0.000000000000000000e+00
1.475000000000000000e+03,2.997807143193613189e-01,0.000000000000000000e+00
1.476000000000000000e+03,1.860185371642703867e-01,0.000000000000000000e+00
1.477000000000000000e+03,2.969985367186310232e-01,0.000000000000000000e+00
1.478000000000000000e+03,3.862331790127505049e-01,0.000000000000000000e+00
1.479000000000000000e+03,4.232777132280339805e-01,0.000000000000000000e+00
1.480000000000000000e+03,2.048974439051425289e-01,0.000000000000000000e+00
1.481000000000000000e+03,3.423411614764522715e-01,0.000000000000000000e+00
1.482000000000000000e+03,3.871507453677652810e-01,0.000000000000000000e+00
1.483000000000000000e+03,3.241329918124993825e-01,0.000000000000000000e+00
1.484000000000000000e+03,4.702544574248294085e-01,0.000000000000000000e+00
1.485000000000000000e+03,3.393653186045796355e-01,0.000000000000000000e+00
1.486000000000000000e+03,5.611035573672479293e-01,0.000000000000000000e+00
1.487000000000000000e+03,8.582465628176639827e-01,0.000000000000000000e+00
1.488000000000000000e+03,6.671560526343713882e-01,0.000000000000000000e+00
1.489000000000000000e+03,6.008691916441661895e-01,0.000000000000000000e+00
1.490000000000000000e+03,4.869582108204750792e-01,0.000000000000000000e+00
1.491000000000000000e+03,-1.573726129953354966e-02,0.000000000000000000e+00
1.492000000000000000e+03,1.530110879053248329e-01,0.000000000000000000e+00
1.493000000000000000e+03,1.707146026934988070e-01,0.000000000000000000e+00
1.494000000000000000e+03,1.117481194324910498e-01,0.000000000000000000e+00
1.495000000000000000e+03,2.810595223033570123e-01,0.000000000000000000e+00
1.496000000000000000e+03,5.020466325314906220e-01,0.000000000000000000e+00
1.497000000000000000e+03,3.739334321699514962e+00,0.000000000000000000e+00
1.498000000000000000e+03,3.645519254864223679e+00,0.000000000000000000e+00
1.499000000000000000e+03,-2.450634532832677293e-01,1.000000000000000000e+00
1.500000000000000000e+03,4.958337238872479596e-02,0.000000000000000000e+00
1.501000000000000000e+03,-3.847297227695080646e-01,0.000000000000000000e+00
1.502000000000000000e+03,-3.294692107236586454e-01,0.000000000000000000e+00
1.503000000000000000e+03,-7.556623478288765350e-01,0.000000000000000000e+00
1.504000000000000000e+03,-2.004815282017834710e-01,0.000000000000000000e+00
1.505000000000000000e+03,-2.426277445993058057e-01,0.000000000000000000e+00
1.506000000000000000e+03,-1.402705928601469809e-01,0.000000000000000000e+00
1.507000000000000000e+03,1.036879005945773834e-02,0.000000000000000000e+00
1.508000000000000000e+03,3.364579984025412585e-01,0.000000000000000000e+00
1.509000000000000000e+03,5.501003056216843268e-01,0.000000000000000000e+00
1.510000000000000000e+03,1.117239696371022495e+00,0.000000000000000000e+00
1.511000000000000000e+03,1.260720464921273098e+00,0.000000000000000000e+00
1.512000000000000000e+03,1.486123458693908272e+00,0.000000000000000000e+00
1.513000000000000000e+03,1.220100191907635523e+00,0.000000000000000000e+00
1.514000000000000000e+03,4.070924272397867250e-01,0.000000000000000000e+00
1.515000000000000000e+03,-7.819236616444801280e-01,0.000000000000000000e+00
1.516000000000000000e+03,-1.686208354537018783e+00,0.000000000000000000e+00
1.517000000000000000e+03,-2.018556690370408191e+00,0.000000000000000000e+00
1.518000000000000000e+03,-1.857197852734065346e+00,0.000000000000000000e+00
1.519000000000000000e+03,-1.675037089655382561e+00,0.000000000000000000e+00
1.520000000000000000e+03,-1.727618000019731648e+00,0.000000000000000000e+00
1.521000000000000000e+03,-1.372994184096738124e+00,0.000000000000000000e+00
1.522000000000000000e+03,-1.441406399296051299e+00,0.000000000000000000e+00
1.523000000000000000e+03,-1.031945243821448477e+00,0.000000000000000000e+00
1.524000000000000000e+03,-8.408749476285460878e-01,0.000000000000000000e+00
1.525000000000000000e+03,-7.482777385650897228e-01,0.000000000000000000e+00
1.526000000000000000e+03,-5.921031538742623779e-01,0.000000000000000000e+00
1.527000000000000000e+03,-4.921058052943826366e-01,0.000000000000000000e+00
1.528000000000000000e+03,-4.983239936431728689e-01,0.000000000000000000e+00
1.529000000000000000e+03,-2.168632036337629909e-01,0.000000000000000000e+00
1.530000000000000000e+03,-3.795360941562584967e-01,0.000000000000000000e+00
1.531000000000000000e+03,-2.549902242657663964e-01,0.000000000000000000e+00
1.532000000000000000e+03,-2.159373251576208741e-01,0.000000000000000000e+00
1.533000000000000000e+03,-2.280893058894915559e-01,0.000000000000000000e+00
1.534000000000000000e+03,-7.288583833774321674e-02,0.000000000000000000e+00
1.535000000000000000e+03,-2.515928475560831254e-02,0.000000000000000000e+00
1.536000000000000000e+03,1.031637043528536024e-01,0.000000000000000000e+00
1.537000000000000000e+03,8.898841248609874743e-02,0.000000000000000000e+00
1.538000000000000000e+03,6.840812651061602134e-02,0.000000000000000000e+00
1.539000000000000000e+03,1.075534558243343708e-01,0.000000000000000000e+00
1.540000000000000000e+03,3.047889256686316384e-01,0.000000000000000000e+00
1.541000000000000000e+03,2.734925541052837805e-01,0.000000000000000000e+00
1.542000000000000000e+03,2.465948333106299240e-01,0.000000000000000000e+00
1.543000000000000000e+03,3.910018580792684051e-01,0.000000000000000000e+00
1.544000000000000000e+03,2.162521684394196897e-01,0.000000000000000000e+00
1.545000000000000000e+03,3.900000701097347533e-01,0.000000000000000000e+00
1.546000000000000000e+03,4.361940702330237563e-01,0.000000000000000000e+00
1.547000000000000000e+03,2.941888588320474285e-01,0.000000000000000000e+00
1.548000000000000000e+03,5.130944083174916459e-01,0.000000000000000000e+00
1.549000000000000000e+03,4.118094908682534139e-01,0.000000000000000000e+00
1.550000000000000000e+03,3.817414964029743341e-01,0.000000000000000000e+00
1.551000000000000000e+03,3.730144116305956214e-01,0.000000000000000000e+00
1.552000000000000000e+03,3.299725958212236243e-01,0.000000000000000000e+00
1.553000000000000000e+03,6.971150190262880297e-01,0.000000000000000000e+00
1.554000000000000000e+03,6.002144091514433066e-01,0.000000000000000000e+00
1.555000000000000000e+03,9.394338977413289049e-01,0.000000000000000000e+00
1.556000000000000000e+03,5.898238686098183914e-01,0.000000000000000000e+00
1.557000000000000000e+03,5.480049634193120411e-01,0.000000000000000000e+00
1.558000000000000000e+03,9.556514586521380403e-03,0.000000000000000000e+00
1.559000000000000000e+03,-2.744758026481743107e-02,0.000000000000000000e+00
1.560000000000000000e+03,2.065653850760847676e-01,0.000000000000000000e+00
1.561000000000000000e+03,-7.246956861367594149e-02,0.000000000000000000e+00
1.562000000000000000e+03,2.100631739417954669e-01,0.000000000000000000e+00
1.563000000000000000e+03,2.146419303848547677e-01,0.000000000000000000e+00
1.564000000000000000e+03,2.039464472491521629e+00,0.000000000000000000e+00
1.565000000000000000e+03,4.762173601627396557e+00,0.000000000000000000e+00
1.566000000000000000e+03,8.716574968918624489e-01,1.000000000000000000e+00
1.567000000000000000e+03,-3.120937386110858025e-01,0.000000000000000000e+00
1.568000000000000000e+03,-2.285380499070006621e-01,0.000000000000000000e+00
1.569000000000000000e+03,-6.690726438352955219e-01,0.000000000000000000e+00
1.570000000000000000e+03,-7.117002450943452629e-01,0.000000000000000000e+00
1.571000000000000000e+03,-7.768941368427290106e-01,0.000000000000000000e+00
1.572000000000000000e+03,-5.960448361734695943e-01,0.000000000000000000e+00
1.573000000000000000e+03,-5.622283568365034068e-01,0.000000000000000000e+00
1.574000000000000000e+03,-1.427119867981673507e-01,0.000000000000000000e+00
1.575000000000000000e+03,1.673274040006526506e-02,0.000000000000000000e+00
1.576000000000000000e+03,2.513092997176721299e-01,0.000000000000000000e+00
1.577000000000000000e+03,5.386714715828486710e-01,0.000000000000000000e+00
1.578000000000000000e+03,9.680873010487616170e-01,0.000000000000000000e+00
1.579000000000000000e+03,1.016599685472109105e+00,0.000000000000000000e+00
1.580000000000000000e+03,1.235385963165836598e+00,0.000000000000000000e+00
1.581000000000000000e+03,6.290823412376307378e-01,0.000000000000000000e+00
1.582000000000000000e+03,-4.537465777642135656e-01,0.000000000000000000e+00
1.583000000000000000e+03,-1.581725811760089861e+00,0.000000000000000000e+00
1.584000000000000000e+03,-2.189331085823269962e+00,0.000000000000000000e+00
1.585000000000000000e+03,-2.273116071352829781e+00,0.000000000000000000e+00
1.586000000000000000e+03,-2.093441863121978663e+00,0.000000000000000000e+00
1.587000000000000000e+03,-1.907354521468856534e+00,0.000000000000000000e+00
1.588000000000000000e+03,-1.764789090677210126e+00,0.000000000000000000e+00
1.589000000000000000e+03,-1.589190714603771593e+00,0.000000000000000000e+00
