timestamp,ecg_measurement,qrs_detected
0.000000000000000000e+00,-5.557859360346038002e-01,0.000000000000000000e+00
1.000000000000000000e+00,4.381733190323466864e+00,0.000000000000000000e+00
2.000000000000000000e+00,1.879508801833681408e+00,0.000000000000000000e+00
3.000000000000000000e+00,-3.029943080408169287e+00,0.000000000000000000e+00
4.000000000000000000e+00,-8.020266927376160093e-03,0.000000000000000000e+00
5.000000000000000000e+00,-5.439876275198851641e-01,0.000000000000000000e+00
6.000000000000000000e+00,4.582850215389461801e-01,0.000000000000000000e+00
7.000000000000000000e+00,-2.516297081609840391e-02,0.000000000000000000e+00
8.000000000000000000e+00,4.532335456770048565e-01,0.000000000000000000e+00
9.000000000000000000e+00,-2.949447152175305523e-02,0.000000000000000000e+00
1.000000000000000000e+01,2.863218427900211527e-01,0.000000000000000000e+00
1.100000000000000000e+01,2.217219517306461551e-01,0.000000000000000000e+00
1.200000000000000000e+01,2.944092276707157008e-01,0.000000000000000000e+00
1.300000000000000000e+01,4.919525942864917956e-01,0.000000000000000000e+00
1.400000000000000000e+01,5.062906113171591338e-01,0.000000000000000000e+00
1.500000000000000000e+01,8.550245552696056350e-01,0.000000000000000000e+00
1.600000000000000000e+01,1.040676113512298606e+00,0.000000000000000000e+00
1.700000000000000000e+01,1.521207641595426985e+00,0.000000000000000000e+00
1.800000000000000000e+01,1.589959283257903033e+00,0.000000000000000000e+00
1.900000000000000000e+01,1.401619543611731578e+00,0.000000000000000000e+00
2.000000000000000000e+01,8.054903874780154904e-01,0.000000000000000000e+00
2.100000000000000000e+01,-4.702683122221928969e-01,0.000000000000000000e+00
2.200000000000000000e+01,-7.898302301281385773e-01,1.000000000000000000e+00
2.300000000000000000e+01,-1.532564357781903031e+00,0.000000000000000000e+00
2.400000000000000000e+01,-1.115196331793248063e+00,0.000000000000000000e+00
2.500000000000000000e+01,-1.534486034070811078e+00,0.000000000000000000e+00
2.600000000000000000e+01,-1.113420205311882905e+00,0.000000000000000000e+00
2.700000000000000000e+01,-1.252100883942321552e+00,0.000000000000000000e+00
2.800000000000000000e+01,-1.040356110811295309e+00,0.000000000000000000e+00
2.900000000000000000e+01,-1.026805804262672206e+00,0.000000000000000000e+00
3.000000000000000000e+01,-8.899192259912733771e-01,0.000000000000000000e+00
3.100000000000000000e+01,-6.730610510135451863e-01,0.000000000000000000e+00
3.200000000000000000e+01,-6.634506543549677504e-01,0.000000000000000000e+00
3.300000000000000000e+01,-5.381340292480366605e-01,0.000000000000000000e+00
3.400000000000000000e+01,-5.235465733490660689e-01,0.000000000000000000e+00
3.500000000000000000e+01,-4.158038263306991777e-01,0.000000000000000000e+00
3.600000000000000000e+01,-2.860426499143611800e-01,0.000000000000000000e+00
3.700000000000000000e+01,-3.695220970017171758e-01,0.000000000000000000e+00
3.800000000000000000e+01,-2.317618839991461843e-01,0.000000000000000000e+00
3.900000000000000000e+01,-3.055572826451850021e-01,0.000000000000000000e+00
4.000000000000000000e+01,1.977378766948635624e-02,0.000000000000000000e+00
4.100000000000000000e+01,-1.993301466889730589e-01,0.000000000000000000e+00
4.200000000000000000e+01,1.662115253589278585e-01,0.000000000000000000e+00
4.300000000000000000e+01,-2.238378524526140334e-01,0.000000000000000000e+00
4.400000000000000000e+01,2.260076975434907598e-01,0.000000000000000000e+00
4.500000000000000000e+01,-2.716636818131799858e-02,0.000000000000000000e+00
4.600000000000000000e+01,1.559472745015666462e-01,0.000000000000000000e+00
4.700000000000000000e+01,8.756624180546700165e-03,0.000000000000000000e+00
4.800000000000000000e+01,1.417501235105455559e-01,0.000000000000000000e+00
4.900000000000000000e+01,2.142743373027049814e-01,0.000000000000000000e+00
5.000000000000000000e+01,3.594925127351828453e-01,0.000000000000000000e+00
5.100000000000000000e+01,3.872229883006780837e-01,0.000000000000000000e+00
5.200000000000000000e+01,8.196178671300211604e-01,0.000000000000000000e+00
5.300000000000000000e+01,3.844623484260500934e-01,0.000000000000000000e+00
5.400000000000000000e+01,4.836940966562259803e-01,0.000000000000000000e+00
5.500000000000000000e+01,5.905630063442739441e-01,0.000000000000000000e+00
5.600000000000000000e+01,-2.183745041390791064e-01,0.000000000000000000e+00
5.700000000000000000e+01,-7.829854689819940039e-02,0.000000000000000000e+00
5.800000000000000000e+01,-3.577600822576420397e-02,0.000000000000000000e+00
5.900000000000000000e+01,-9.760000610985697378e-02,0.000000000000000000e+00
6.000000000000000000e+01,2.392718430485940573e-01,0.000000000000000000e+00
6.100000000000000000e+01,-2.431819459078866097e-01,0.000000000000000000e+00
6.200000000000000000e+01,-1.721904589701355598e-02,0.000000000000000000e+00
6.300000000000000000e+01,1.083767988996790083e-01,0.000000000000000000e+00
6.400000000000000000e+01,5.147167769886118016e+00,0.000000000000000000e+00
6.500000000000000000e+01,-2.076475156330535310e-01,1.000000000000000000e+00
6.600000000000000000e+01,-2.417064737041176414e+00,0.000000000000000000e+00
6.700000000000000000e+01,-3.358308566483495516e-01,0.000000000000000000e+00
6.800000000000000000e+01,-3.464762685752658666e-01,0.000000000000000000e+00
6.900000000000000000e+01,1.284550498411700659e-01,0.000000000000000000e+00
7.000000000000000000e+01,4.650334622304173882e-02,0.000000000000000000e+00
7.100000000000000000e+01,5.347690500428218391e-02,0.000000000000000000e+00
7.200000000000000000e+01,7.855659087530691975e-02,0.000000000000000000e+00
7.300000000000000000e+01,2.774629087304985586e-01,0.000000000000000000e+00
7.400000000000000000e+01,2.966746572874703978e-03,0.000000000000000000e+00
7.500000000000000000e+01,3.481396358094627774e-01,0.000000000000000000e+00
7.600000000000000000e+01,3.385218542933273733e-01,0.000000000000000000e+00
7.700000000000000000e+01,6.094064101279221823e-01,0.000000000000000000e+00
7.800000000000000000e+01,8.208695180778841083e-01,0.000000000000000000e+00
7.900000000000000000e+01,1.147874985927109792e+00,0.000000000000000000e+00
8.000000000000000000e+01,1.567816460570629955e+00,0.000000000000000000e+00
8.100000000000000000e+01,1.737512791307608051e+00,0.000000000000000000e+00
8.200000000000000000e+01,1.241738421185348606e+00,0.000000000000000000e+00
8.300000000000000000e+01,5.182426524390759681e-01,0.000000000000000000e+00
8.400000000000000000e+01,-6.475407632107502698e-01,0.000000000000000000e+00
8.500000000000000000e+01,-1.003872387714469738e+00,0.000000000000000000e+00
8.600000000000000000e+01,-1.613552425969484450e+00,0.000000000000000000e+00
8.700000000000000000e+01,-1.477979103204124067e+00,0.000000000000000000e+00
8.800000000000000000e+01,-1.446789128149234882e+00,0.000000000000000000e+00
8.900000000000000000e+01,-1.436468500378320190e+00,0.000000000000000000e+00
9.000000000000000000e+01,-1.214261872871708059e+00,0.000000000000000000e+00
9.100000000000000000e+01,-1.109129687713477530e+00,0.000000000000000000e+00
9.200000000000000000e+01,-1.070199135163283799e+00,0.000000000000000000e+00
9.300000000000000000e+01,-9.009069831577858345e-01,0.000000000000000000e+00
9.400000000000000000e+01,-7.599094277610239923e-01,0.000000000000000000e+00
9.500000000000000000e+01,-9.122102424852090996e-01,0.000000000000000000e+00
9.600000000000000000e+01,-3.343601112456540680e-01,0.000000000000000000e+00
9.700000000000000000e+01,-4.717409207523657333e-01,0.000000000000000000e+00
9.800000000000000000e+01,-3.928796535431410275e-01,0.000000000000000000e+00
9.900000000000000000e+01,-5.284367043091849903e-01,0.000000000000000000e+00
1.000000000000000000e+02,-3.758389073992678409e-01,0.000000000000000000e+00
1.010000000000000000e+02,-2.444406223718885718e-01,0.000000000000000000e+00
1.020000000000000000e+02,-1.448810803231712074e-01,0.000000000000000000e+00
1.030000000000000000e+02,-1.192520019571537276e-01,0.000000000000000000e+00
1.040000000000000000e+02,-2.105713916366386829e-01,0.000000000000000000e+00
1.050000000000000000e+02,-1.130420785341987311e-01,0.000000000000000000e+00
1.060000000000000000e+02,3.276868489197397316e-02,0.000000000000000000e+00
1.070000000000000000e+02,8.467431178887289966e-02,0.000000000000000000e+00
1.080000000000000000e+02,6.164368223344006414e-02,0.000000000000000000e+00
1.090000000000000000e+02,1.812462987835816164e-01,0.000000000000000000e+00
1.100000000000000000e+02,2.204065494958317994e-01,0.000000000000000000e+00
1.110000000000000000e+02,2.727476364069817416e-01,0.000000000000000000e+00
1.120000000000000000e+02,3.813188759457994403e-01,0.000000000000000000e+00
1.130000000000000000e+02,4.388802587934777510e-01,0.000000000000000000e+00
1.140000000000000000e+02,7.519100102167954880e-01,0.000000000000000000e+00
1.150000000000000000e+02,6.454104645915256233e-01,0.000000000000000000e+00
1.160000000000000000e+02,5.811110709388120910e-01,0.000000000000000000e+00
1.170000000000000000e+02,2.274635909957885005e-01,0.000000000000000000e+00
1.180000000000000000e+02,1.196713977768488757e-01,0.000000000000000000e+00
1.190000000000000000e+02,-4.931970553624399206e-02,0.000000000000000000e+00
1.200000000000000000e+02,4.984191468255052410e-02,0.000000000000000000e+00
1.210000000000000000e+02,6.231014343632201163e-02,0.000000000000000000e+00
1.220000000000000000e+02,1.655540969025822429e-01,0.000000000000000000e+00
1.230000000000000000e+02,2.372757208109124716e-01,0.000000000000000000e+00
1.240000000000000000e+02,-2.908222297479811647e-01,0.000000000000000000e+00
1.250000000000000000e+02,1.243135451317923801e+00,0.000000000000000000e+00
1.260000000000000000e+02,5.251570171692126365e+00,0.000000000000000000e+00
1.270000000000000000e+02,-1.470474377221314688e+00,1.000000000000000000e+00
1.280000000000000000e+02,-2.215102634265269987e+00,0.000000000000000000e+00
1.290000000000000000e+02,-3.026227605727430658e-01,0.000000000000000000e+00
1.300000000000000000e+02,8.861770977238575542e-02,0.000000000000000000e+00
1.310000000000000000e+02,2.511542683006797172e-01,0.000000000000000000e+00
1.320000000000000000e+02,2.348165099835898550e-01,0.000000000000000000e+00
1.330000000000000000e+02,3.466062898207690757e-01,0.000000000000000000e+00
1.340000000000000000e+02,2.915635435340504511e-01,0.000000000000000000e+00
1.350000000000000000e+02,3.491996070636348426e-01,0.000000000000000000e+00
1.360000000000000000e+02,1.670000012201983131e-01,0.000000000000000000e+00
1.370000000000000000e+02,5.853322436444233778e-01,0.000000000000000000e+00
1.380000000000000000e+02,6.063640057358015145e-01,0.000000000000000000e+00
1.390000000000000000e+02,6.838477575059898061e-01,0.000000000000000000e+00
1.400000000000000000e+02,9.325383909801812088e-01,0.000000000000000000e+00
1.410000000000000000e+02,1.368651194385668735e+00,0.000000000000000000e+00
1.420000000000000000e+02,1.700689106168561171e+00,0.000000000000000000e+00
1.430000000000000000e+02,1.677352542389971113e+00,0.000000000000000000e+00
1.440000000000000000e+02,1.237052412198202278e+00,0.000000000000000000e+00
1.450000000000000000e+02,3.257474022815468745e-02,0.000000000000000000e+00
1.460000000000000000e+02,-3.974409593898103887e-01,0.000000000000000000e+00
1.470000000000000000e+02,-1.386082030963285527e+00,0.000000000000000000e+00
1.480000000000000000e+02,-1.322694620905838114e+00,0.000000000000000000e+00
1.490000000000000000e+02,-1.538749854153849350e+00,0.000000000000000000e+00
1.500000000000000000e+02,-1.352444999608965581e+00,0.000000000000000000e+00
1.510000000000000000e+02,-1.346293153446695756e+00,0.000000000000000000e+00
1.520000000000000000e+02,-1.154364585656625364e+00,0.000000000000000000e+00
1.530000000000000000e+02,-1.137132026239441318e+00,0.000000000000000000e+00
1.540000000000000000e+02,-9.622719441935327911e-01,0.000000000000000000e+00
1.550000000000000000e+02,-8.245975333925956718e-01,0.000000000000000000e+00
1.560000000000000000e+02,-6.321797261534349843e-01,0.000000000000000000e+00
1.570000000000000000e+02,-5.644794100560193151e-01,0.000000000000000000e+00
1.580000000000000000e+02,-5.618425333131517041e-01,0.000000000000000000e+00
1.590000000000000000e+02,-3.633586523184016981e-01,0.000000000000000000e+00
1.600000000000000000e+02,-5.758154716835405251e-01,0.000000000000000000e+00
1.610000000000000000e+02,-3.643913336337958886e-01,0.000000000000000000e+00
1.620000000000000000e+02,-1.511374447091884954e-01,0.000000000000000000e+00
1.630000000000000000e+02,-3.255382111250552657e-01,0.000000000000000000e+00
1.640000000000000000e+02,-1.115726913717509650e-01,0.000000000000000000e+00
1.650000000000000000e+02,-2.442122787772812165e-01,0.000000000000000000e+00
1.660000000000000000e+02,-2.265707186304634357e-01,0.000000000000000000e+00
1.670000000000000000e+02,1.218337558649599389e-02,0.000000000000000000e+00
1.680000000000000000e+02,3.788812096397214252e-02,0.000000000000000000e+00
1.690000000000000000e+02,7.696335855477109966e-02,0.000000000000000000e+00
1.700000000000000000e+02,-9.758237010645208487e-02,0.000000000000000000e+00
1.710000000000000000e+02,2.414738972712068485e-02,0.000000000000000000e+00
1.720000000000000000e+02,2.693943062614493900e-01,0.000000000000000000e+00
1.730000000000000000e+02,3.730754936707587621e-01,0.000000000000000000e+00
1.740000000000000000e+02,3.586460557250292225e-01,0.000000000000000000e+00
1.750000000000000000e+02,7.249592476989404899e-01,0.000000000000000000e+00
1.760000000000000000e+02,5.892695812786942211e-01,0.000000000000000000e+00
1.770000000000000000e+02,3.602389934578299480e-01,0.000000000000000000e+00
1.780000000000000000e+02,3.370888598245695422e-01,0.000000000000000000e+00
1.790000000000000000e+02,-2.092888721824162357e-01,0.000000000000000000e+00
1.800000000000000000e+02,6.889134943723124703e-03,0.000000000000000000e+00
1.810000000000000000e+02,-8.815235887221441191e-02,0.000000000000000000e+00
1.820000000000000000e+02,1.104076750448162170e-01,0.000000000000000000e+00
1.830000000000000000e+02,5.126999833962241765e-02,0.000000000000000000e+00
1.840000000000000000e+02,2.441996940918103043e-01,0.000000000000000000e+00
1.850000000000000000e+02,-3.065561474750709281e-01,0.000000000000000000e+00
1.860000000000000000e+02,1.559358528459226623e+00,0.000000000000000000e+00
1.870000000000000000e+02,4.713557123055283959e+00,0.000000000000000000e+00
1.880000000000000000e+02,-2.216933786502671033e+00,1.000000000000000000e+00
1.890000000000000000e+02,-1.933848486724808913e+00,0.000000000000000000e+00
1.900000000000000000e+02,-8.675017238640707340e-02,0.000000000000000000e+00
1.910000000000000000e+02,-1.576994666559560498e-01,0.000000000000000000e+00
1.920000000000000000e+02,5.154002183292133443e-01,0.000000000000000000e+00
1.930000000000000000e+02,1.186001532636204725e-01,0.000000000000000000e+00
1.940000000000000000e+02,3.084119506970229296e-01,0.000000000000000000e+00
1.950000000000000000e+02,2.984851439593934064e-01,0.000000000000000000e+00
1.960000000000000000e+02,2.686225617692818979e-01,0.000000000000000000e+00
1.970000000000000000e+02,4.251968248817251661e-01,0.000000000000000000e+00
1.980000000000000000e+02,4.586056779978083253e-01,0.000000000000000000e+00
1.990000000000000000e+02,4.506391711241573006e-01,0.000000000000000000e+00
2.000000000000000000e+02,9.796860664303079780e-01,0.000000000000000000e+00
2.010000000000000000e+02,9.215487952674087380e-01,0.000000000000000000e+00
2.020000000000000000e+02,1.453432312047924224e+00,0.000000000000000000e+00
2.030000000000000000e+02,1.548920409984892776e+00,0.000000000000000000e+00
2.040000000000000000e+02,1.537007415916347153e+00,0.000000000000000000e+00
2.050000000000000000e+02,1.313631069304502352e+00,0.000000000000000000e+00
2.060000000000000000e+02,-8.173415517247132125e-03,0.000000000000000000e+00
2.070000000000000000e+02,-6.211699245951021187e-01,0.000000000000000000e+00
2.080000000000000000e+02,-1.069936455179550272e+00,0.000000000000000000e+00
2.090000000000000000e+02,-1.370038574628745343e+00,0.000000000000000000e+00
2.100000000000000000e+02,-1.504696703685993731e+00,0.000000000000000000e+00
2.110000000000000000e+02,-1.320656921937904293e+00,0.000000000000000000e+00
2.120000000000000000e+02,-1.362227674182045378e+00,0.000000000000000000e+00
2.130000000000000000e+02,-1.093542495961209227e+00,0.000000000000000000e+00
2.140000000000000000e+02,-1.095878150675029028e+00,0.000000000000000000e+00
2.150000000000000000e+02,-9.119808731632346177e-01,0.000000000000000000e+00
2.160000000000000000e+02,-6.793642396895256397e-01,0.000000000000000000e+00
2.170000000000000000e+02,-8.354971222346245785e-01,0.000000000000000000e+00
2.180000000000000000e+02,-4.303678819939427136e-01,0.000000000000000000e+00
2.190000000000000000e+02,-5.578870390269855539e-01,0.000000000000000000e+00
2.200000000000000000e+02,-4.828514970200478706e-01,0.000000000000000000e+00
2.210000000000000000e+02,-3.818112432775163101e-01,0.000000000000000000e+00
2.220000000000000000e+02,-5.402514853630947522e-01,0.000000000000000000e+00
2.230000000000000000e+02,-2.940897760263559979e-01,0.000000000000000000e+00
2.240000000000000000e+02,-1.428170417891880539e-01,0.000000000000000000e+00
2.250000000000000000e+02,-1.841481638150450073e-01,0.000000000000000000e+00
2.260000000000000000e+02,-2.327492348711847903e-01,0.000000000000000000e+00
2.270000000000000000e+02,-1.835568261799617740e-01,0.000000000000000000e+00
2.280000000000000000e+02,1.364334283561666195e-02,0.000000000000000000e+00
2.290000000000000000e+02,-6.125638796137183179e-02,0.000000000000000000e+00
2.300000000000000000e+02,9.506578158850167992e-02,0.000000000000000000e+00
2.310000000000000000e+02,-9.371631428346330339e-02,0.000000000000000000e+00
2.320000000000000000e+02,1.638322169772319092e-01,0.000000000000000000e+00
2.330000000000000000e+02,3.556382548311255026e-02,0.000000000000000000e+00
2.340000000000000000e+02,3.655483335160908398e-01,0.000000000000000000e+00
2.350000000000000000e+02,2.962494296566763885e-01,0.000000000000000000e+00
2.360000000000000000e+02,4.762003197633210561e-01,0.000000000000000000e+00
2.370000000000000000e+02,5.168280900440440639e-01,0.000000000000000000e+00
2.380000000000000000e+02,5.007004599361165598e-01,0.000000000000000000e+00
2.390000000000000000e+02,3.515625715315513489e-01,0.000000000000000000e+00
2.400000000000000000e+02,5.343979536418439480e-01,0.000000000000000000e+00
2.410000000000000000e+02,-3.414292100371527083e-01,0.000000000000000000e+00
2.420000000000000000e+02,1.227031171734142140e-01,0.000000000000000000e+00
2.430000000000000000e+02,-1.644616655140101746e-01,0.000000000000000000e+00
2.440000000000000000e+02,2.639969761540409965e-01,0.000000000000000000e+00
2.450000000000000000e+02,-2.955229271103672617e-01,0.000000000000000000e+00
2.460000000000000000e+02,6.157569432945628751e-01,0.000000000000000000e+00
2.470000000000000000e+02,-9.609744306218718224e-01,0.000000000000000000e+00
2.480000000000000000e+02,2.645398156210729379e+00,0.000000000000000000e+00
2.490000000000000000e+02,3.658329715828344764e+00,0.000000000000000000e+00
2.500000000000000000e+02,-2.474808667623468850e+00,1.000000000000000000e+00
2.510000000000000000e+02,-7.648468681520284029e-01,0.000000000000000000e+00
2.520000000000000000e+02,-4.430558788969046202e-01,0.000000000000000000e+00
2.530000000000000000e+02,1.156327399001243622e-01,0.000000000000000000e+00
2.540000000000000000e+02,-5.300336182669521112e-03,0.000000000000000000e+00
2.550000000000000000e+02,3.539904445447472070e-01,0.000000000000000000e+00
2.560000000000000000e+02,4.045287593234564438e-02,0.000000000000000000e+00
2.570000000000000000e+02,4.776482838773005168e-01,0.000000000000000000e+00
2.580000000000000000e+02,-1.123885493790347245e-01,0.000000000000000000e+00
2.590000000000000000e+02,5.672968906688866664e-01,0.000000000000000000e+00
2.600000000000000000e+02,2.203023438765629449e-01,0.000000000000000000e+00
2.610000000000000000e+02,5.490148147691817915e-01,0.000000000000000000e+00
2.620000000000000000e+02,7.115937510106502550e-01,0.000000000000000000e+00
2.630000000000000000e+02,8.388533182720574466e-01,0.000000000000000000e+00
2.640000000000000000e+02,1.387704116890020600e+00,0.000000000000000000e+00
2.650000000000000000e+02,1.599385760483369223e+00,0.000000000000000000e+00
2.660000000000000000e+02,1.365972625819191100e+00,0.000000000000000000e+00
2.670000000000000000e+02,1.175782603705273655e+00,0.000000000000000000e+00
2.680000000000000000e+02,-8.951680940425980892e-02,0.000000000000000000e+00
2.690000000000000000e+02,-6.811611136511325215e-01,0.000000000000000000e+00
2.700000000000000000e+02,-1.016122035653074462e+00,0.000000000000000000e+00
2.710000000000000000e+02,-1.386818259787917951e+00,0.000000000000000000e+00
2.720000000000000000e+02,-1.256511017100153005e+00,0.000000000000000000e+00
2.730000000000000000e+02,-1.331601902055947528e+00,0.000000000000000000e+00
2.740000000000000000e+02,-1.111752811745365888e+00,0.000000000000000000e+00
2.750000000000000000e+02,-1.119555724899539806e+00,0.000000000000000000e+00
2.760000000000000000e+02,-1.001453410406975442e+00,0.000000000000000000e+00
2.770000000000000000e+02,-8.046676128940898343e-01,0.000000000000000000e+00
2.780000000000000000e+02,-6.542590266310874814e-01,0.000000000000000000e+00
2.790000000000000000e+02,-6.317449130111313371e-01,0.000000000000000000e+00
2.800000000000000000e+02,-5.831133183281222987e-01,0.000000000000000000e+00
2.810000000000000000e+02,-5.328886257507206015e-01,0.000000000000000000e+00
2.820000000000000000e+02,-2.266768846692774064e-01,0.000000000000000000e+00
2.830000000000000000e+02,-4.669656451706795108e-01,0.000000000000000000e+00
2.840000000000000000e+02,-2.611626562744055469e-01,0.000000000000000000e+00
2.850000000000000000e+02,-4.342095815940905101e-01,0.000000000000000000e+00
2.860000000000000000e+02,4.897637272104043288e-02,0.000000000000000000e+00
2.870000000000000000e+02,-2.990732577972063377e-01,0.000000000000000000e+00
2.880000000000000000e+02,-4.193565585185318940e-04,0.000000000000000000e+00
2.890000000000000000e+02,6.806252179849309192e-02,0.000000000000000000e+00
2.900000000000000000e+02,-4.210983869626536841e-02,0.000000000000000000e+00
2.910000000000000000e+02,1.080298862886622108e-01,0.000000000000000000e+00
2.920000000000000000e+02,-1.507391456640239658e-01,0.000000000000000000e+00
2.930000000000000000e+02,1.416907440795489581e-01,0.000000000000000000e+00
2.940000000000000000e+02,2.670576753997335184e-01,0.000000000000000000e+00
2.950000000000000000e+02,1.437723028520780100e-01,0.000000000000000000e+00
2.960000000000000000e+02,5.389747424269475395e-01,0.000000000000000000e+00
2.970000000000000000e+02,4.326015449381441780e-01,0.000000000000000000e+00
2.980000000000000000e+02,7.148829327402541622e-01,0.000000000000000000e+00
2.990000000000000000e+02,7.120184621315702733e-01,0.000000000000000000e+00
3.000000000000000000e+02,5.323315277710849447e-01,0.000000000000000000e+00
3.010000000000000000e+02,4.366566736160071849e-01,0.000000000000000000e+00
3.020000000000000000e+02,-1.347794639661697123e-02,0.000000000000000000e+00
3.030000000000000000e+02,1.639032571866355092e-01,0.000000000000000000e+00
3.040000000000000000e+02,-1.497303578523608847e-01,0.000000000000000000e+00
3.050000000000000000e+02,1.766466073903770750e-01,0.000000000000000000e+00
3.060000000000000000e+02,6.778268240882058537e-02,0.000000000000000000e+00
3.070000000000000000e+02,1.336948353757867469e-01,0.000000000000000000e+00
3.080000000000000000e+02,-5.942406171608505261e-02,0.000000000000000000e+00
3.090000000000000000e+02,7.537915640099481784e-01,0.000000000000000000e+00
3.100000000000000000e+02,4.941781376243194579e+00,0.000000000000000000e+00
3.110000000000000000e+02,-9.863950115068437219e-01,1.000000000000000000e+00
3.120000000000000000e+02,-1.909960903969595503e+00,0.000000000000000000e+00
3.130000000000000000e+02,-2.059939426023962850e-01,0.000000000000000000e+00
3.140000000000000000e+02,-1.008766786290309601e-02,0.000000000000000000e+00
3.150000000000000000e+02,2.663125557167334567e-01,0.000000000000000000e+00
3.160000000000000000e+02,-4.411427893770338005e-03,0.000000000000000000e+00
3.170000000000000000e+02,2.836801766891831611e-01,0.000000000000000000e+00
3.180000000000000000e+02,2.014053316926890935e-01,0.000000000000000000e+00
3.190000000000000000e+02,3.546929457391544416e-01,0.000000000000000000e+00
3.200000000000000000e+02,2.327679891979066440e-01,0.000000000000000000e+00
3.210000000000000000e+02,4.005487450095059354e-01,0.000000000000000000e+00
3.220000000000000000e+02,3.204587773708194587e-01,0.000000000000000000e+00
3.230000000000000000e+02,4.718151372135315769e-01,0.000000000000000000e+00
3.240000000000000000e+02,8.885493697626848375e-01,0.000000000000000000e+00
3.250000000000000000e+02,1.356437409195480726e+00,0.000000000000000000e+00
3.260000000000000000e+02,1.327168736918710179e+00,0.000000000000000000e+00
3.270000000000000000e+02,1.592154028980391933e+00,0.000000000000000000e+00
3.280000000000000000e+02,1.083696179236470547e+00,0.000000000000000000e+00
3.290000000000000000e+02,2.826010442118089272e-01,0.000000000000000000e+00
3.300000000000000000e+02,-5.905611254499791851e-01,0.000000000000000000e+00
3.310000000000000000e+02,-1.194167399217124226e+00,0.000000000000000000e+00
3.320000000000000000e+02,-1.580720669638493447e+00,0.000000000000000000e+00
3.330000000000000000e+02,-1.460953148938604063e+00,0.000000000000000000e+00
3.340000000000000000e+02,-1.511743272631819623e+00,0.000000000000000000e+00
3.350000000000000000e+02,-1.305159330864902767e+00,0.000000000000000000e+00
3.360000000000000000e+02,-1.194843605738613368e+00,0.000000000000000000e+00
3.370000000000000000e+02,-1.265001719961547533e+00,0.000000000000000000e+00
3.380000000000000000e+02,-1.143198316466425890e+00,0.000000000000000000e+00
3.390000000000000000e+02,-8.993428746248823824e-01,0.000000000000000000e+00
3.400000000000000000e+02,-9.230745042538328615e-01,0.000000000000000000e+00
3.410000000000000000e+02,-7.653091494278337903e-01,0.000000000000000000e+00
3.420000000000000000e+02,-5.630645010533876782e-01,0.000000000000000000e+00
3.430000000000000000e+02,-6.944462961546580271e-01,0.000000000000000000e+00
3.440000000000000000e+02,-5.099796477666658223e-01,0.000000000000000000e+00
3.450000000000000000e+02,-5.989681884849357152e-01,0.000000000000000000e+00
3.460000000000000000e+02,-5.238557931420715352e-01,0.000000000000000000e+00
3.470000000000000000e+02,-3.925265031635151169e-01,0.000000000000000000e+00
3.480000000000000000e+02,-3.824601235508220398e-01,0.000000000000000000e+00
3.490000000000000000e+02,-3.144668693149132443e-01,0.000000000000000000e+00
3.500000000000000000e+02,-2.552204863892172937e-01,0.000000000000000000e+00
3.510000000000000000e+02,-1.680502514811865467e-01,0.000000000000000000e+00
3.520000000000000000e+02,-2.541773104088126956e-01,0.000000000000000000e+00
3.530000000000000000e+02,-2.066151725502198555e-01,0.000000000000000000e+00
3.540000000000000000e+02,-1.089381996470474984e-01,0.000000000000000000e+00
3.550000000000000000e+02,-6.639636237627001558e-02,0.000000000000000000e+00
3.560000000000000000e+02,-2.817763168487578615e-02,0.000000000000000000e+00
3.570000000000000000e+02,1.513475387193239374e-01,0.000000000000000000e+00
3.580000000000000000e+02,1.320984138898618869e-02,0.000000000000000000e+00
3.590000000000000000e+02,1.561407071942354785e-01,0.000000000000000000e+00
3.600000000000000000e+02,4.689039381843289056e-01,0.000000000000000000e+00
3.610000000000000000e+02,5.592322565010078295e-01,0.000000000000000000e+00
3.620000000000000000e+02,3.731572033365674890e-01,0.000000000000000000e+00
3.630000000000000000e+02,3.264451733292833002e-01,0.000000000000000000e+00
3.640000000000000000e+02,1.193976222206503401e-01,0.000000000000000000e+00
3.650000000000000000e+02,-8.378148902254543839e-02,0.000000000000000000e+00
3.660000000000000000e+02,-1.484726245694578672e-01,0.000000000000000000e+00
3.670000000000000000e+02,-1.329792923084434086e-01,0.000000000000000000e+00
3.680000000000000000e+02,5.429693797615508383e-02,0.000000000000000000e+00
3.690000000000000000e+02,-1.695161053734053069e-01,0.000000000000000000e+00
3.700000000000000000e+02,3.508042039090649156e-01,0.000000000000000000e+00
3.710000000000000000e+02,-5.725779314732444281e-01,0.000000000000000000e+00
3.720000000000000000e+02,3.059647136133415657e+00,0.000000000000000000e+00
3.730000000000000000e+02,3.925944625965502865e+00,0.000000000000000000e+00
3.740000000000000000e+02,-2.786096011015302132e+00,1.000000000000000000e+00
3.750000000000000000e+02,-1.102620872998046675e+00,0.000000000000000000e+00
3.760000000000000000e+02,-4.874727586184056105e-01,0.000000000000000000e+00
3.770000000000000000e+02,3.071460539358438213e-01,0.000000000000000000e+00
3.780000000000000000e+02,8.484376252812137614e-03,0.000000000000000000e+00
3.790000000000000000e+02,2.715766557571271944e-01,0.000000000000000000e+00
3.800000000000000000e+02,2.645258163923489558e-01,0.000000000000000000e+00
3.810000000000000000e+02,2.974958862326287923e-01,0.000000000000000000e+00
3.820000000000000000e+02,2.077437658014404109e-01,0.000000000000000000e+00
3.830000000000000000e+02,4.980104314082127726e-01,0.000000000000000000e+00
3.840000000000000000e+02,1.750714411855587571e-01,0.000000000000000000e+00
3.850000000000000000e+02,9.373413658470847176e-01,0.000000000000000000e+00
3.860000000000000000e+02,7.796165297984070097e-01,0.000000000000000000e+00
3.870000000000000000e+02,1.188880696691602123e+00,0.000000000000000000e+00
3.880000000000000000e+02,1.280754748500015916e+00,0.000000000000000000e+00
3.890000000000000000e+02,1.992190361656555053e+00,0.000000000000000000e+00
3.900000000000000000e+02,1.658970590912977272e+00,0.000000000000000000e+00
3.910000000000000000e+02,1.287267145072714225e+00,0.000000000000000000e+00
3.920000000000000000e+02,1.753453970779448451e-02,0.000000000000000000e+00
3.930000000000000000e+02,-7.512427973489442801e-01,0.000000000000000000e+00
3.940000000000000000e+02,-1.217309396187277626e+00,0.000000000000000000e+00
3.950000000000000000e+02,-1.046087667113445585e+00,0.000000000000000000e+00
3.960000000000000000e+02,-1.315278342114177823e+00,0.000000000000000000e+00
3.970000000000000000e+02,-1.201629916197600290e+00,0.000000000000000000e+00
3.980000000000000000e+02,-1.340591194104172157e+00,0.000000000000000000e+00
3.990000000000000000e+02,-8.598022246496394017e-01,0.000000000000000000e+00
4.000000000000000000e+02,-9.484326063441360644e-01,0.000000000000000000e+00
4.010000000000000000e+02,-6.228468716349337964e-01,0.000000000000000000e+00
4.020000000000000000e+02,-6.522953073162179871e-01,0.000000000000000000e+00
4.030000000000000000e+02,-4.952461231642557027e-01,0.000000000000000000e+00
4.040000000000000000e+02,-3.544164562188367174e-01,0.000000000000000000e+00
4.050000000000000000e+02,-3.292741224279542855e-01,0.000000000000000000e+00
4.060000000000000000e+02,-4.474045729588231324e-01,0.000000000000000000e+00
4.070000000000000000e+02,3.636458741498990645e-03,0.000000000000000000e+00
4.080000000000000000e+02,-2.432107184394965427e-01,0.000000000000000000e+00
4.090000000000000000e+02,-5.997155498262940476e-02,0.000000000000000000e+00
4.100000000000000000e+02,-9.299421254575533646e-02,0.000000000000000000e+00
4.110000000000000000e+02,-9.247258048240958317e-02,0.000000000000000000e+00
4.120000000000000000e+02,-6.624775694831731843e-02,0.000000000000000000e+00
4.130000000000000000e+02,2.294761494392154599e-01,0.000000000000000000e+00
4.140000000000000000e+02,8.894063999320429847e-02,0.000000000000000000e+00
4.150000000000000000e+02,1.679785416844693235e-01,0.000000000000000000e+00
4.160000000000000000e+02,-4.596228002244266697e-02,0.000000000000000000e+00
4.170000000000000000e+02,2.864300323447321883e-01,0.000000000000000000e+00
4.180000000000000000e+02,4.240015944849169216e-01,0.000000000000000000e+00
4.190000000000000000e+02,4.061421678787957013e-01,0.000000000000000000e+00
4.200000000000000000e+02,2.388701208016504041e-01,0.000000000000000000e+00
4.210000000000000000e+02,6.966851727923247806e-01,0.000000000000000000e+00
4.220000000000000000e+02,5.777639246175505505e-01,0.000000000000000000e+00
4.230000000000000000e+02,8.879281496202215962e-01,0.000000000000000000e+00
4.240000000000000000e+02,3.828999156432663642e-01,0.000000000000000000e+00
4.250000000000000000e+02,3.178191986440055961e-01,0.000000000000000000e+00
4.260000000000000000e+02,-2.728641762005392657e-01,0.000000000000000000e+00
4.270000000000000000e+02,2.893782150328986780e-01,0.000000000000000000e+00
4.280000000000000000e+02,-1.445451318289608100e-01,0.000000000000000000e+00
4.290000000000000000e+02,3.372888521965977104e-01,0.000000000000000000e+00
4.300000000000000000e+02,-1.481370769722894221e-01,0.000000000000000000e+00
4.310000000000000000e+02,5.738015355689086716e-01,0.000000000000000000e+00
4.320000000000000000e+02,-4.860384085542830412e-01,0.000000000000000000e+00
4.330000000000000000e+02,3.764593820297415405e+00,0.000000000000000000e+00
4.340000000000000000e+02,2.762034923011446264e+00,0.000000000000000000e+00
4.350000000000000000e+02,-3.119609261198784012e+00,1.000000000000000000e+00
4.360000000000000000e+02,-1.062641421667749109e+00,0.000000000000000000e+00
4.370000000000000000e+02,-1.154212648951741804e-01,0.000000000000000000e+00
4.380000000000000000e+02,3.137727609564203712e-01,0.000000000000000000e+00
4.390000000000000000e+02,2.092793581940057823e-01,0.000000000000000000e+00
4.400000000000000000e+02,2.826115498865389153e-01,0.000000000000000000e+00
4.410000000000000000e+02,2.945215479081055299e-01,0.000000000000000000e+00
4.420000000000000000e+02,3.395770469779849643e-01,0.000000000000000000e+00
4.430000000000000000e+02,2.143147759405515385e-01,0.000000000000000000e+00
4.440000000000000000e+02,3.192871309372253275e-01,0.000000000000000000e+00
4.450000000000000000e+02,4.897716255622037718e-01,0.000000000000000000e+00
4.460000000000000000e+02,5.330257796683253169e-01,0.000000000000000000e+00
4.470000000000000000e+02,9.160295373730976687e-01,0.000000000000000000e+00
4.480000000000000000e+02,1.115511494167210849e+00,0.000000000000000000e+00
4.490000000000000000e+02,1.445954669963083861e+00,0.000000000000000000e+00
4.500000000000000000e+02,1.557562762690967828e+00,0.000000000000000000e+00
4.510000000000000000e+02,1.392374006922695751e+00,0.000000000000000000e+00
4.520000000000000000e+02,7.308729624970393690e-01,0.000000000000000000e+00
4.530000000000000000e+02,-1.905462732049169328e-01,0.000000000000000000e+00
4.540000000000000000e+02,-9.645230086571368044e-01,0.000000000000000000e+00
4.550000000000000000e+02,-1.488838050535951973e+00,0.000000000000000000e+00
4.560000000000000000e+02,-1.461634462036400350e+00,0.000000000000000000e+00
4.570000000000000000e+02,-1.447244970691197175e+00,0.000000000000000000e+00
4.580000000000000000e+02,-1.551312858002750872e+00,0.000000000000000000e+00
4.590000000000000000e+02,-1.502985317725189951e+00,0.000000000000000000e+00
4.600000000000000000e+02,-1.015225907844245379e+00,0.000000000000000000e+00
4.610000000000000000e+02,-1.138745753897424606e+00,0.000000000000000000e+00
4.620000000000000000e+02,-7.167768584871795357e-01,0.000000000000000000e+00
4.630000000000000000e+02,-1.067434686215869233e+00,0.000000000000000000e+00
4.640000000000000000e+02,-5.978723145229892788e-01,0.000000000000000000e+00
4.650000000000000000e+02,-5.764733595156694701e-01,0.000000000000000000e+00
4.660000000000000000e+02,-5.410082696064176799e-01,0.000000000000000000e+00
4.670000000000000000e+02,-4.908604365849040807e-01,0.000000000000000000e+00
4.680000000000000000e+02,-5.316027220762920003e-01,0.000000000000000000e+00
4.690000000000000000e+02,-5.792443581252968432e-01,0.000000000000000000e+00
4.700000000000000000e+02,-2.170986917834026031e-01,0.000000000000000000e+00
4.710000000000000000e+02,-2.791041368127887834e-01,0.000000000000000000e+00
4.720000000000000000e+02,-2.143428680699684952e-01,0.000000000000000000e+00
4.730000000000000000e+02,-1.871450588805718407e-01,0.000000000000000000e+00
4.740000000000000000e+02,-3.447399751605492169e-01,0.000000000000000000e+00
4.750000000000000000e+02,5.274583225624765448e-02,0.000000000000000000e+00
4.760000000000000000e+02,-6.425219762352939179e-02,0.000000000000000000e+00
4.770000000000000000e+02,-5.263916256364322560e-02,0.000000000000000000e+00
4.780000000000000000e+02,1.965020899729048032e-01,0.000000000000000000e+00
4.790000000000000000e+02,9.496514041007497742e-02,0.000000000000000000e+00
4.800000000000000000e+02,4.733760180934341033e-01,0.000000000000000000e+00
4.810000000000000000e+02,4.216625711702461365e-01,0.000000000000000000e+00
4.820000000000000000e+02,5.797340874078938944e-01,0.000000000000000000e+00
4.830000000000000000e+02,2.424967179374587223e-01,0.000000000000000000e+00
4.840000000000000000e+02,1.637851023146762175e-01,0.000000000000000000e+00
4.850000000000000000e+02,-1.470173943530373173e-01,0.000000000000000000e+00
4.860000000000000000e+02,-2.784961456481355527e-02,0.000000000000000000e+00
4.870000000000000000e+02,-1.320226010285429075e-01,0.000000000000000000e+00
4.880000000000000000e+02,-3.710072026017155467e-02,0.000000000000000000e+00
4.890000000000000000e+02,-9.817298944167858477e-02,0.000000000000000000e+00
4.900000000000000000e+02,2.797640372639005335e-01,0.000000000000000000e+00
4.910000000000000000e+02,-5.819787907572151475e-01,0.000000000000000000e+00
4.920000000000000000e+02,2.022362956003816326e+00,0.000000000000000000e+00
4.930000000000000000e+02,4.307281635569961686e+00,0.000000000000000000e+00
4.940000000000000000e+02,-2.295813578377853048e+00,1.000000000000000000e+00
4.950000000000000000e+02,-1.530902993134798828e+00,0.000000000000000000e+00
4.960000000000000000e+02,-3.531064999735682441e-01,0.000000000000000000e+00
4.970000000000000000e+02,1.115931899311476683e-01,0.000000000000000000e+00
4.980000000000000000e+02,7.436086984737540206e-02,0.000000000000000000e+00
4.990000000000000000e+02,2.677445066057786427e-01,0.000000000000000000e+00
5.000000000000000000e+02,2.070386973632839800e-01,0.000000000000000000e+00
5.010000000000000000e+02,2.596558769009055245e-01,0.000000000000000000e+00
5.020000000000000000e+02,3.551234259955931005e-01,0.000000000000000000e+00
5.030000000000000000e+02,4.649589373047461338e-01,0.000000000000000000e+00
5.040000000000000000e+02,1.572150933295450859e-01,0.000000000000000000e+00
5.050000000000000000e+02,6.876871644487790869e-01,0.000000000000000000e+00
5.060000000000000000e+02,5.356266091012599206e-01,0.000000000000000000e+00
5.070000000000000000e+02,9.911705222497161349e-01,0.000000000000000000e+00
5.080000000000000000e+02,1.378501564273894697e+00,0.000000000000000000e+00
5.090000000000000000e+02,1.615564012199925736e+00,0.000000000000000000e+00
5.100000000000000000e+02,1.479572317524018299e+00,0.000000000000000000e+00
5.110000000000000000e+02,1.069043635112045365e+00,0.000000000000000000e+00
5.120000000000000000e+02,5.867395103239152199e-02,0.000000000000000000e+00
5.130000000000000000e+02,-5.602672703147986155e-01,0.000000000000000000e+00
5.140000000000000000e+02,-1.335362859534076296e+00,0.000000000000000000e+00
5.150000000000000000e+02,-1.207129777344892796e+00,0.000000000000000000e+00
5.160000000000000000e+02,-1.521482182055650556e+00,0.000000000000000000e+00
5.170000000000000000e+02,-1.081006769638498399e+00,0.000000000000000000e+00
5.180000000000000000e+02,-1.124435332844881064e+00,0.000000000000000000e+00
5.190000000000000000e+02,-1.228635426127686836e+00,0.000000000000000000e+00
5.200000000000000000e+02,-9.447090052020001849e-01,0.000000000000000000e+00
5.210000000000000000e+02,-9.273258200413460051e-01,0.000000000000000000e+00
5.220000000000000000e+02,-5.986929439756473181e-01,0.000000000000000000e+00
5.230000000000000000e+02,-5.271188779510118660e-01,0.000000000000000000e+00
5.240000000000000000e+02,-5.175049492988700317e-01,0.000000000000000000e+00
5.250000000000000000e+02,-3.741311991250881874e-01,0.000000000000000000e+00
5.260000000000000000e+02,-4.876036815373783750e-01,0.000000000000000000e+00
5.270000000000000000e+02,-2.477915585839243762e-01,0.000000000000000000e+00
5.280000000000000000e+02,-5.509414124921739875e-01,0.000000000000000000e+00
5.290000000000000000e+02,-2.118648140741119859e-02,0.000000000000000000e+00
5.300000000000000000e+02,-4.487359371652055451e-01,0.000000000000000000e+00
5.310000000000000000e+02,4.435740226291110672e-02,0.000000000000000000e+00
5.320000000000000000e+02,-2.741601696616602912e-01,0.000000000000000000e+00
5.330000000000000000e+02,1.579407422515716197e-01,0.000000000000000000e+00
5.340000000000000000e+02,2.683329200259084238e-02,0.000000000000000000e+00
5.350000000000000000e+02,-8.497392704894086990e-03,0.000000000000000000e+00
5.360000000000000000e+02,2.171838540853184008e-02,0.000000000000000000e+00
5.370000000000000000e+02,-2.533826152802099232e-02,0.000000000000000000e+00
5.380000000000000000e+02,1.569756006009664639e-01,0.000000000000000000e+00
5.390000000000000000e+02,3.872740763239657102e-01,0.000000000000000000e+00
5.400000000000000000e+02,2.771967384440027771e-01,0.000000000000000000e+00
5.410000000000000000e+02,7.830896870032153512e-01,0.000000000000000000e+00
5.420000000000000000e+02,4.808892631662244344e-01,0.000000000000000000e+00
5.430000000000000000e+02,6.948771046981563337e-01,0.000000000000000000e+00
5.440000000000000000e+02,2.872617122918830201e-01,0.000000000000000000e+00
5.450000000000000000e+02,1.375413205211073187e-01,0.000000000000000000e+00
5.460000000000000000e+02,-1.021536420181314159e-01,0.000000000000000000e+00
5.470000000000000000e+02,-1.898515474707501705e-02,0.000000000000000000e+00
5.480000000000000000e+02,4.240389183142884849e-02,0.000000000000000000e+00
5.490000000000000000e+02,6.106651104342266517e-02,0.000000000000000000e+00
5.500000000000000000e+02,4.228753809632179901e-03,0.000000000000000000e+00
5.510000000000000000e+02,2.222738203713842675e-01,0.000000000000000000e+00
5.520000000000000000e+02,-5.913231464103290147e-01,0.000000000000000000e+00
5.530000000000000000e+02,4.351599175183350710e+00,0.000000000000000000e+00
5.540000000000000000e+02,1.367262880406127756e+00,1.000000000000000000e+00
5.550000000000000000e+02,-2.721659260081172427e+00,0.000000000000000000e+00
5.560000000000000000e+02,-2.652468014878434643e-01,0.000000000000000000e+00
5.570000000000000000e+02,-3.054522453135268822e-01,0.000000000000000000e+00
5.580000000000000000e+02,2.105075648110728281e-01,0.000000000000000000e+00
5.590000000000000000e+02,-5.859545826152321585e-02,0.000000000000000000e+00
5.600000000000000000e+02,2.605497411960204235e-01,0.000000000000000000e+00
5.610000000000000000e+02,8.073234226160092009e-02,0.000000000000000000e+00
5.620000000000000000e+02,4.320304570051606285e-01,0.000000000000000000e+00
5.630000000000000000e+02,2.402784274546470450e-02,0.000000000000000000e+00
5.640000000000000000e+02,4.541321786956414308e-01,0.000000000000000000e+00
5.650000000000000000e+02,3.419774617238667824e-01,0.000000000000000000e+00
5.660000000000000000e+02,4.744859768881490858e-01,0.000000000000000000e+00
5.670000000000000000e+02,8.951842861264444062e-01,0.000000000000000000e+00
5.680000000000000000e+02,1.056089760981957504e+00,0.000000000000000000e+00
5.690000000000000000e+02,1.287441131745423295e+00,0.000000000000000000e+00
5.700000000000000000e+02,1.583824511491167319e+00,0.000000000000000000e+00
5.710000000000000000e+02,1.395452452003522081e+00,0.000000000000000000e+00
5.720000000000000000e+02,8.579392898099965636e-01,0.000000000000000000e+00
5.730000000000000000e+02,-3.649925183220911751e-01,0.000000000000000000e+00
5.740000000000000000e+02,-1.026949170945669065e+00,0.000000000000000000e+00
5.750000000000000000e+02,-1.298868163722912472e+00,0.000000000000000000e+00
5.760000000000000000e+02,-1.266946600062850203e+00,0.000000000000000000e+00
5.770000000000000000e+02,-1.239214100792846773e+00,0.000000000000000000e+00
5.780000000000000000e+02,-1.300831986193478729e+00,0.000000000000000000e+00
5.790000000000000000e+02,-1.123757549062097238e+00,0.000000000000000000e+00
5.800000000000000000e+02,-9.899684175078792281e-01,0.000000000000000000e+00
5.810000000000000000e+02,-1.001823237565521607e+00,0.000000000000000000e+00
5.820000000000000000e+02,-6.614495751855311578e-01,0.000000000000000000e+00
5.830000000000000000e+02,-8.236909911991261435e-01,0.000000000000000000e+00
5.840000000000000000e+02,-5.794474587771510921e-01,0.000000000000000000e+00
5.850000000000000000e+02,-6.974311774207875292e-01,0.000000000000000000e+00
5.860000000000000000e+02,-4.946259129826442447e-01,0.000000000000000000e+00
5.870000000000000000e+02,-3.402714086165773422e-01,0.000000000000000000e+00
5.880000000000000000e+02,-4.630626431400355902e-01,0.000000000000000000e+00
5.890000000000000000e+02,-1.520859613569013058e-01,0.000000000000000000e+00
5.900000000000000000e+02,-2.737158770897132332e-01,0.000000000000000000e+00
5.910000000000000000e+02,-2.100110368821415108e-01,0.000000000000000000e+00
5.920000000000000000e+02,-3.859282069705647911e-01,0.000000000000000000e+00
5.930000000000000000e+02,8.286548457375890117e-03,0.000000000000000000e+00
5.940000000000000000e+02,7.167796598449550916e-02,0.000000000000000000e+00
5.950000000000000000e+02,-1.021972644024118915e-01,0.000000000000000000e+00
5.960000000000000000e+02,9.132103077400030577e-02,0.000000000000000000e+00
5.970000000000000000e+02,6.343246325526216700e-02,0.000000000000000000e+00
5.980000000000000000e+02,8.655897557255987085e-02,0.000000000000000000e+00
5.990000000000000000e+02,-7.555145034051662621e-03,0.000000000000000000e+00
6.000000000000000000e+02,2.138092664828341871e-01,0.000000000000000000e+00
6.010000000000000000e+02,4.105313754681912397e-01,0.000000000000000000e+00
6.020000000000000000e+02,4.353520490187631764e-01,0.000000000000000000e+00
6.030000000000000000e+02,6.560940413918564529e-01,0.000000000000000000e+00
6.040000000000000000e+02,6.140735688749379140e-01,0.000000000000000000e+00
6.050000000000000000e+02,4.472057934748779329e-01,0.000000000000000000e+00
6.060000000000000000e+02,4.711953238332315941e-01,0.000000000000000000e+00
6.070000000000000000e+02,-1.983879777238672093e-01,0.000000000000000000e+00
6.080000000000000000e+02,3.121514602057770191e-02,0.000000000000000000e+00
6.090000000000000000e+02,-3.111922876902712895e-02,0.000000000000000000e+00
6.100000000000000000e+02,1.723710863869388488e-01,0.000000000000000000e+00
6.110000000000000000e+02,-1.691344569170724066e-01,0.000000000000000000e+00
6.120000000000000000e+02,2.184084883550702627e-01,0.000000000000000000e+00
6.130000000000000000e+02,-4.310168378245625709e-01,0.000000000000000000e+00
6.140000000000000000e+02,1.012973687105733323e+00,0.000000000000000000e+00
6.150000000000000000e+02,4.918002186168047629e+00,0.000000000000000000e+00
6.160000000000000000e+02,-1.184083891634204466e+00,1.000000000000000000e+00
6.170000000000000000e+02,-1.774255428211990226e+00,0.000000000000000000e+00
6.180000000000000000e+02,-2.931956842251544071e-01,0.000000000000000000e+00
6.190000000000000000e+02,-1.456901147475563596e-01,0.000000000000000000e+00
6.200000000000000000e+02,6.633221078974887303e-03,0.000000000000000000e+00
6.210000000000000000e+02,1.775326453071721933e-01,0.000000000000000000e+00
6.220000000000000000e+02,3.031785560874397101e-01,0.000000000000000000e+00
6.230000000000000000e+02,2.271696821749077388e-01,0.000000000000000000e+00
6.240000000000000000e+02,1.369047823620311577e-01,0.000000000000000000e+00
6.250000000000000000e+02,2.420884177520887526e-01,0.000000000000000000e+00
6.260000000000000000e+02,3.002685937638757685e-01,0.000000000000000000e+00
6.270000000000000000e+02,4.624869782565160237e-01,0.000000000000000000e+00
6.280000000000000000e+02,7.965340565178857801e-01,0.000000000000000000e+00
6.290000000000000000e+02,6.223188409097698548e-01,0.000000000000000000e+00
6.300000000000000000e+02,1.308538155057464847e+00,0.000000000000000000e+00
6.310000000000000000e+02,1.489874730481451914e+00,0.000000000000000000e+00
6.320000000000000000e+02,1.569014103386470849e+00,0.000000000000000000e+00
6.330000000000000000e+02,1.345637320297440320e+00,0.000000000000000000e+00
6.340000000000000000e+02,3.625959431165285407e-01,0.000000000000000000e+00
6.350000000000000000e+02,-6.631695446096731450e-01,0.000000000000000000e+00
6.360000000000000000e+02,-1.089499782949745477e+00,0.000000000000000000e+00
6.370000000000000000e+02,-1.463395916089305748e+00,0.000000000000000000e+00
6.380000000000000000e+02,-1.157226300135821173e+00,0.000000000000000000e+00
6.390000000000000000e+02,-1.422669391343932110e+00,0.000000000000000000e+00
6.400000000000000000e+02,-1.110037449130714338e+00,0.000000000000000000e+00
6.410000000000000000e+02,-1.219348854662499537e+00,0.000000000000000000e+00
6.420000000000000000e+02,-7.790793698364302244e-01,0.000000000000000000e+00
6.430000000000000000e+02,-1.033590935164717672e+00,0.000000000000000000e+00
6.440000000000000000e+02,-7.983938855023843262e-01,0.000000000000000000e+00
6.450000000000000000e+02,-5.931829427487131934e-01,0.000000000000000000e+00
6.460000000000000000e+02,-6.979644218314805526e-01,0.000000000000000000e+00
6.470000000000000000e+02,-4.524125611422232240e-01,0.000000000000000000e+00
6.480000000000000000e+02,-3.880678045384698405e-01,0.000000000000000000e+00
6.490000000000000000e+02,-5.312994818393192986e-01,0.000000000000000000e+00
6.500000000000000000e+02,-3.383978840495108220e-02,0.000000000000000000e+00
6.510000000000000000e+02,-4.883579667257225143e-01,0.000000000000000000e+00
6.520000000000000000e+02,-1.132751308247661459e-01,0.000000000000000000e+00
6.530000000000000000e+02,-2.920002589121635794e-01,0.000000000000000000e+00
6.540000000000000000e+02,-1.119492415479711178e-01,0.000000000000000000e+00
6.550000000000000000e+02,-1.244341410286250033e-01,0.000000000000000000e+00
6.560000000000000000e+02,-3.824758776573894403e-02,0.000000000000000000e+00
6.570000000000000000e+02,6.132574479699532538e-02,0.000000000000000000e+00
6.580000000000000000e+02,-3.890078610519442925e-02,0.000000000000000000e+00
6.590000000000000000e+02,4.366822433064585646e-02,0.000000000000000000e+00
6.600000000000000000e+02,2.470814417167571941e-01,0.000000000000000000e+00
6.610000000000000000e+02,1.079413263008588281e-01,0.000000000000000000e+00
6.620000000000000000e+02,2.190259271837974309e-02,0.000000000000000000e+00
6.630000000000000000e+02,3.626146570630873756e-01,0.000000000000000000e+00
6.640000000000000000e+02,4.793807278039782793e-01,0.000000000000000000e+00
6.650000000000000000e+02,7.933306738581313855e-01,0.000000000000000000e+00
6.660000000000000000e+02,5.179523665448755310e-01,0.000000000000000000e+00
6.670000000000000000e+02,3.882462374229530000e-01,0.000000000000000000e+00
6.680000000000000000e+02,2.604814878665742128e-01,0.000000000000000000e+00
6.690000000000000000e+02,-4.644914472097443764e-02,0.000000000000000000e+00
6.700000000000000000e+02,1.074316792574966407e-02,0.000000000000000000e+00
6.710000000000000000e+02,-3.467994554406330088e-01,0.000000000000000000e+00
6.720000000000000000e+02,1.133340321939292350e-01,0.000000000000000000e+00
6.730000000000000000e+02,-5.009109647626416167e-02,0.000000000000000000e+00
6.740000000000000000e+02,3.432553596810844487e-01,0.000000000000000000e+00
6.750000000000000000e+02,-5.595588452766406817e-01,0.000000000000000000e+00
6.760000000000000000e+02,2.230662200557061770e+00,0.000000000000000000e+00
6.770000000000000000e+02,4.335170626707170349e+00,0.000000000000000000e+00
6.780000000000000000e+02,-2.470076603194336418e+00,1.000000000000000000e+00
6.790000000000000000e+02,-1.199328727354004975e+00,0.000000000000000000e+00
6.800000000000000000e+02,-4.499352050901203603e-01,0.000000000000000000e+00
6.810000000000000000e+02,1.712947025355449904e-01,0.000000000000000000e+00
6.820000000000000000e+02,-1.413733287856292209e-01,0.000000000000000000e+00
6.830000000000000000e+02,1.702004428937953229e-01,0.000000000000000000e+00
6.840000000000000000e+02,8.991049660000580146e-02,0.000000000000000000e+00
6.850000000000000000e+02,2.125314584580197119e-01,0.000000000000000000e+00
6.860000000000000000e+02,2.134938811420607208e-01,0.000000000000000000e+00
6.870000000000000000e+02,2.177766300500352803e-01,0.000000000000000000e+00
6.880000000000000000e+02,3.895073928576324174e-01,0.000000000000000000e+00
6.890000000000000000e+02,4.867588534761388419e-01,0.000000000000000000e+00
6.900000000000000000e+02,6.727299242668612900e-01,0.000000000000000000e+00
6.910000000000000000e+02,9.615682251606152420e-01,0.000000000000000000e+00
6.920000000000000000e+02,1.244531861601548162e+00,0.000000000000000000e+00
6.930000000000000000e+02,1.854266136697598100e+00,0.000000000000000000e+00
6.940000000000000000e+02,1.576110962275916405e+00,0.000000000000000000e+00
6.950000000000000000e+02,1.036504143228285546e+00,0.000000000000000000e+00
6.960000000000000000e+02,-2.706302748644637615e-02,0.000000000000000000e+00
6.970000000000000000e+02,-8.247489861241071862e-01,0.000000000000000000e+00
6.980000000000000000e+02,-1.259339118606353614e+00,0.000000000000000000e+00
6.990000000000000000e+02,-1.301860835922877158e+00,0.000000000000000000e+00
7.000000000000000000e+02,-1.297874844039295539e+00,0.000000000000000000e+00
7.010000000000000000e+02,-1.323692661426437933e+00,0.000000000000000000e+00
7.020000000000000000e+02,-1.296982733142173050e+00,0.000000000000000000e+00
7.030000000000000000e+02,-1.198856964782350820e+00,0.000000000000000000e+00
7.040000000000000000e+02,-1.181376425281388975e+00,0.000000000000000000e+00
7.050000000000000000e+02,-8.085241359145172169e-01,0.000000000000000000e+00
7.060000000000000000e+02,-8.764197360547062443e-01,0.000000000000000000e+00
7.070000000000000000e+02,-6.164334732609787482e-01,0.000000000000000000e+00
7.080000000000000000e+02,-4.740311210389638319e-01,0.000000000000000000e+00
7.090000000000000000e+02,-5.042040576008581798e-01,0.000000000000000000e+00
7.100000000000000000e+02,-4.766258671660599244e-01,0.000000000000000000e+00
7.110000000000000000e+02,-3.707156867374789000e-01,0.000000000000000000e+00
7.120000000000000000e+02,-4.025735451536174292e-01,0.000000000000000000e+00
7.130000000000000000e+02,-2.663649573680496596e-01,0.000000000000000000e+00
7.140000000000000000e+02,-1.446729871352561148e-01,0.000000000000000000e+00
7.150000000000000000e+02,-1.357010305635182601e-01,0.000000000000000000e+00
7.160000000000000000e+02,-1.800008055240934490e-01,0.000000000000000000e+00
7.170000000000000000e+02,-3.039841906897741697e-02,0.000000000000000000e+00
7.180000000000000000e+02,-5.212810476564617296e-02,0.000000000000000000e+00
7.190000000000000000e+02,1.656268148370285964e-01,0.000000000000000000e+00
7.200000000000000000e+02,-1.101480756522078136e-01,0.000000000000000000e+00
7.210000000000000000e+02,2.081566544248646400e-01,0.000000000000000000e+00
7.220000000000000000e+02,1.201655810141824682e-01,0.000000000000000000e+00
7.230000000000000000e+02,1.691099805117123600e-01,0.000000000000000000e+00
7.240000000000000000e+02,5.125076301220109487e-01,0.000000000000000000e+00
7.250000000000000000e+02,3.877840934174551224e-01,0.000000000000000000e+00
7.260000000000000000e+02,6.449702147816025466e-01,0.000000000000000000e+00
7.270000000000000000e+02,6.691302267270354820e-01,0.000000000000000000e+00
7.280000000000000000e+02,3.863285477839123461e-01,0.000000000000000000e+00
7.290000000000000000e+02,4.184488532655781801e-01,0.000000000000000000e+00
7.300000000000000000e+02,-2.132600585946997085e-01,0.000000000000000000e+00
7.310000000000000000e+02,9.409988163134733186e-02,0.000000000000000000e+00
7.320000000000000000e+02,-7.588827612147630575e-02,0.000000000000000000e+00
7.330000000000000000e+02,1.247822658080939284e-01,0.000000000000000000e+00
7.340000000000000000e+02,8.594444275363158359e-02,0.000000000000000000e+00
7.350000000000000000e+02,4.597511129347955916e-01,0.000000000000000000e+00
7.360000000000000000e+02,-3.516014744409591275e-01,0.000000000000000000e+00
7.370000000000000000e+02,2.001182053967572205e+00,0.000000000000000000e+00
7.380000000000000000e+02,4.553496075745827376e+00,0.000000000000000000e+00
7.390000000000000000e+02,-2.341282551337769746e+00,1.000000000000000000e+00
7.400000000000000000e+02,-1.568255747399571520e+00,0.000000000000000000e+00
7.410000000000000000e+02,-3.076030029509175812e-01,0.000000000000000000e+00
7.420000000000000000e+02,2.825842103172874695e-02,0.000000000000000000e+00
7.430000000000000000e+02,3.093155712345226904e-01,0.000000000000000000e+00
7.440000000000000000e+02,2.665071153359143685e-01,0.000000000000000000e+00
7.450000000000000000e+02,3.235461435534585095e-01,0.000000000000000000e+00
7.460000000000000000e+02,2.391499139569099874e-01,0.000000000000000000e+00
7.470000000000000000e+02,2.140488974543692247e-01,0.000000000000000000e+00
7.480000000000000000e+02,3.745071902398912078e-01,0.000000000000000000e+00
7.490000000000000000e+02,5.270562772935218909e-01,0.000000000000000000e+00
7.500000000000000000e+02,6.148311056503908967e-01,0.000000000000000000e+00
7.510000000000000000e+02,6.537328247513833901e-01,0.000000000000000000e+00
7.520000000000000000e+02,9.247826783372494752e-01,0.000000000000000000e+00
7.530000000000000000e+02,1.484992371214255868e+00,0.000000000000000000e+00
7.540000000000000000e+02,1.605800865040756031e+00,0.000000000000000000e+00
7.550000000000000000e+02,1.884832463655766066e+00,0.000000000000000000e+00
7.560000000000000000e+02,9.173218917585849175e-01,0.000000000000000000e+00
7.570000000000000000e+02,1.254290207693361525e-01,0.000000000000000000e+00
7.580000000000000000e+02,-6.949891763779165732e-01,0.000000000000000000e+00
7.590000000000000000e+02,-1.299875010129864172e+00,0.000000000000000000e+00
7.600000000000000000e+02,-1.206970533706485771e+00,0.000000000000000000e+00
7.610000000000000000e+02,-1.730923862324092566e+00,0.000000000000000000e+00
7.620000000000000000e+02,-1.231887013606506764e+00,0.000000000000000000e+00
7.630000000000000000e+02,-1.356491299165006881e+00,0.000000000000000000e+00
7.640000000000000000e+02,-1.158296327538677728e+00,0.000000000000000000e+00
7.650000000000000000e+02,-9.926839886274693159e-01,0.000000000000000000e+00
7.660000000000000000e+02,-1.005068919608957057e+00,0.000000000000000000e+00
7.670000000000000000e+02,-6.989097234912980960e-01,0.000000000000000000e+00
7.680000000000000000e+02,-7.098504506075614673e-01,0.000000000000000000e+00
7.690000000000000000e+02,-6.573331232885467612e-01,0.000000000000000000e+00
7.700000000000000000e+02,-4.780538373264346386e-01,0.000000000000000000e+00
7.710000000000000000e+02,-3.035564029678989306e-01,0.000000000000000000e+00
7.720000000000000000e+02,-4.383202791571977341e-01,0.000000000000000000e+00
7.730000000000000000e+02,-3.961485875610831764e-01,0.000000000000000000e+00
7.740000000000000000e+02,-3.822527495233808970e-01,0.000000000000000000e+00
7.750000000000000000e+02,-2.777997353735627284e-01,0.000000000000000000e+00
7.760000000000000000e+02,-1.900964044940039455e-01,0.000000000000000000e+00
7.770000000000000000e+02,-4.354908321788932696e-02,0.000000000000000000e+00
7.780000000000000000e+02,-8.813732590588740923e-02,0.000000000000000000e+00
7.790000000000000000e+02,8.277843510968424523e-02,0.000000000000000000e+00
7.800000000000000000e+02,-5.978985584802052472e-02,0.000000000000000000e+00
7.810000000000000000e+02,-8.271641157547590661e-02,0.000000000000000000e+00
7.820000000000000000e+02,2.800734515734550900e-01,0.000000000000000000e+00
7.830000000000000000e+02,2.154275671325917851e-01,0.000000000000000000e+00
7.840000000000000000e+02,5.301202472135978505e-01,0.000000000000000000e+00
7.850000000000000000e+02,5.128476496185697675e-01,0.000000000000000000e+00
7.860000000000000000e+02,6.581510669341542608e-01,0.000000000000000000e+00
7.870000000000000000e+02,6.543200820596576373e-01,0.000000000000000000e+00
7.880000000000000000e+02,5.185753602208331703e-01,0.000000000000000000e+00
7.890000000000000000e+02,-1.997612632845035402e-02,0.000000000000000000e+00
7.900000000000000000e+02,1.155378040613881940e-01,0.000000000000000000e+00
7.910000000000000000e+02,-7.926190317734792268e-02,0.000000000000000000e+00
7.920000000000000000e+02,7.389625141173901401e-02,0.000000000000000000e+00
7.930000000000000000e+02,3.342733551603251363e-01,0.000000000000000000e+00
7.940000000000000000e+02,-5.696545008289761146e-03,0.000000000000000000e+00
7.950000000000000000e+02,4.025314030256011977e-01,0.000000000000000000e+00
7.960000000000000000e+02,1.108070987333665131e-01,0.000000000000000000e+00
7.970000000000000000e+02,4.718846399795013191e+00,0.000000000000000000e+00
7.980000000000000000e+02,8.105752676665128886e-01,1.000000000000000000e+00
7.990000000000000000e+02,-2.942250155821204860e+00,0.000000000000000000e+00
8.000000000000000000e+02,-2.671175783142515914e-01,0.000000000000000000e+00
8.010000000000000000e+02,-1.978508901108378681e-01,0.000000000000000000e+00
8.020000000000000000e+02,5.361080861879090609e-01,0.000000000000000000e+00
8.030000000000000000e+02,1.474403812795265223e-01,0.000000000000000000e+00
8.040000000000000000e+02,5.910417800846112790e-01,0.000000000000000000e+00
8.050000000000000000e+02,1.400793268671655656e-01,0.000000000000000000e+00
8.060000000000000000e+02,6.245026767887739139e-01,0.000000000000000000e+00
8.070000000000000000e+02,2.692866158769741114e-01,0.000000000000000000e+00
8.080000000000000000e+02,6.032668951375337318e-01,0.000000000000000000e+00
8.090000000000000000e+02,3.706577540187639408e-01,0.000000000000000000e+00
8.100000000000000000e+02,8.459156128049957202e-01,0.000000000000000000e+00
8.110000000000000000e+02,8.151618870655881199e-01,0.000000000000000000e+00
8.120000000000000000e+02,1.325592016803030848e+00,0.000000000000000000e+00
8.130000000000000000e+02,1.442186740563703884e+00,0.000000000000000000e+00
8.140000000000000000e+02,1.767235667604165172e+00,0.000000000000000000e+00
8.150000000000000000e+02,1.075074710577769599e+00,0.000000000000000000e+00
8.160000000000000000e+02,6.749890671884447579e-01,0.000000000000000000e+00
8.170000000000000000e+02,-6.040522728264563490e-01,0.000000000000000000e+00
8.180000000000000000e+02,-9.213458861774476150e-01,0.000000000000000000e+00
8.190000000000000000e+02,-1.627800557039069007e+00,0.000000000000000000e+00
8.200000000000000000e+02,-1.551369643780513119e+00,0.000000000000000000e+00
8.210000000000000000e+02,-1.664953715472990980e+00,0.000000000000000000e+00
8.220000000000000000e+02,-1.531114916153344385e+00,0.000000000000000000e+00
8.230000000000000000e+02,-1.331495960594979655e+00,0.000000000000000000e+00
8.240000000000000000e+02,-1.132352541536110424e+00,0.000000000000000000e+00
8.250000000000000000e+02,-1.288576774442309780e+00,0.000000000000000000e+00
8.260000000000000000e+02,-1.045663891390962608e+00,0.000000000000000000e+00
8.270000000000000000e+02,-1.105712442688394415e+00,0.000000000000000000e+00
8.280000000000000000e+02,-6.933532271115573353e-01,0.000000000000000000e+00
8.290000000000000000e+02,-8.028820152338870253e-01,0.000000000000000000e+00
8.300000000000000000e+02,-6.498111700202976460e-01,0.000000000000000000e+00
8.310000000000000000e+02,-1.066361093473261690e+00,0.000000000000000000e+00
8.320000000000000000e+02,-5.579800179712193220e-01,0.000000000000000000e+00
8.330000000000000000e+02,-5.782674825429806598e-01,0.000000000000000000e+00
8.340000000000000000e+02,-5.350334215457823728e-01,0.000000000000000000e+00
8.350000000000000000e+02,-6.209130303691569042e-01,0.000000000000000000e+00
8.360000000000000000e+02,-4.108267504846616069e-01,0.000000000000000000e+00
8.370000000000000000e+02,-7.440004155260573349e-01,0.000000000000000000e+00
8.380000000000000000e+02,-1.476525042312223091e-01,0.000000000000000000e+00
8.390000000000000000e+02,-4.739100428359451223e-01,0.000000000000000000e+00
8.400000000000000000e+02,-3.070174432051596680e-01,0.000000000000000000e+00
8.410000000000000000e+02,-2.375727853824631253e-01,0.000000000000000000e+00
8.420000000000000000e+02,-3.849344664281494910e-01,0.000000000000000000e+00
8.430000000000000000e+02,1.820441450413703630e-02,0.000000000000000000e+00
8.440000000000000000e+02,1.918555786337971907e-03,0.000000000000000000e+00
8.450000000000000000e+02,1.348359460641805618e-01,0.000000000000000000e+00
8.460000000000000000e+02,1.650285721103266490e-01,0.000000000000000000e+00
8.470000000000000000e+02,3.245264282954102852e-01,0.000000000000000000e+00
8.480000000000000000e+02,4.547910709348619296e-01,0.000000000000000000e+00
8.490000000000000000e+02,1.719763171178881056e-01,0.000000000000000000e+00
8.500000000000000000e+02,-3.263378590036671301e-01,0.000000000000000000e+00
8.510000000000000000e+02,-3.785536237721934261e-01,0.000000000000000000e+00
8.520000000000000000e+02,1.088536247690430475e-01,0.000000000000000000e+00
8.530000000000000000e+02,-1.551018315023622862e-01,0.000000000000000000e+00
8.540000000000000000e+02,-7.137952954118638449e-02,0.000000000000000000e+00
8.550000000000000000e+02,4.525748614732185197e-04,0.000000000000000000e+00
8.560000000000000000e+02,-7.706475565230394564e-02,0.000000000000000000e+00
8.570000000000000000e+02,-1.561548587138699394e-02,0.000000000000000000e+00
8.580000000000000000e+02,4.776656568578698803e+00,0.000000000000000000e+00
8.590000000000000000e+02,1.476347519913322193e-01,1.000000000000000000e+00
8.600000000000000000e+02,-2.540596199983337744e+00,0.000000000000000000e+00
8.610000000000000000e+02,-8.804024303710885138e-03,0.000000000000000000e+00
8.620000000000000000e+02,-1.250240549088858510e-01,0.000000000000000000e+00
8.630000000000000000e+02,2.830824962879898710e-01,0.000000000000000000e+00
8.640000000000000000e+02,-3.249581699192179152e-02,0.000000000000000000e+00
8.650000000000000000e+02,3.859144782791137374e-01,0.000000000000000000e+00
8.660000000000000000e+02,2.367767410852370524e-01,0.000000000000000000e+00
8.670000000000000000e+02,4.513298827763486676e-01,0.000000000000000000e+00
8.680000000000000000e+02,3.116350057116977212e-01,0.000000000000000000e+00
8.690000000000000000e+02,4.252210922076209432e-01,0.000000000000000000e+00
8.700000000000000000e+02,5.253613408122387307e-01,0.000000000000000000e+00
8.710000000000000000e+02,8.251048535018625785e-01,0.000000000000000000e+00
8.720000000000000000e+02,9.284995265359380356e-01,0.000000000000000000e+00
8.730000000000000000e+02,1.406105679248299989e+00,0.000000000000000000e+00
8.740000000000000000e+02,1.527775466977078000e+00,0.000000000000000000e+00
8.750000000000000000e+02,1.943058258210645484e+00,0.000000000000000000e+00
8.760000000000000000e+02,1.499518487550816959e+00,0.000000000000000000e+00
8.770000000000000000e+02,7.779229464308322628e-01,0.000000000000000000e+00
8.780000000000000000e+02,-9.430279511994382746e-02,0.000000000000000000e+00
8.790000000000000000e+02,-7.441290244595104575e-01,0.000000000000000000e+00
8.800000000000000000e+02,-1.025176915004824219e+00,0.000000000000000000e+00
8.810000000000000000e+02,-1.238425370197570485e+00,0.000000000000000000e+00
8.820000000000000000e+02,-9.120553194693854504e-01,0.000000000000000000e+00
8.830000000000000000e+02,-7.753656130105952560e-01,0.000000000000000000e+00
8.840000000000000000e+02,-8.597801967442935123e-01,0.000000000000000000e+00
8.850000000000000000e+02,-7.073481479978641628e-01,0.000000000000000000e+00
8.860000000000000000e+02,-6.633494178717851408e-01,0.000000000000000000e+00
8.870000000000000000e+02,-6.731659618983342197e-01,0.000000000000000000e+00
8.880000000000000000e+02,-3.318447650293343543e-01,0.000000000000000000e+00
8.890000000000000000e+02,-3.706596988122141667e-01,0.000000000000000000e+00
8.900000000000000000e+02,-2.919548756410224044e-01,0.000000000000000000e+00
8.910000000000000000e+02,-1.833536698139379417e-01,0.000000000000000000e+00
8.920000000000000000e+02,-4.863214753647299160e-02,0.000000000000000000e+00
8.930000000000000000e+02,-1.075525831684470551e-01,0.000000000000000000e+00
8.940000000000000000e+02,2.029117444411967716e-02,0.000000000000000000e+00
8.950000000000000000e+02,-4.337499918179824054e-02,0.000000000000000000e+00
8.960000000000000000e+02,3.654003562143522815e-02,0.000000000000000000e+00
8.970000000000000000e+02,2.341894785835795800e-01,0.000000000000000000e+00
8.980000000000000000e+02,1.382211361406193717e-01,0.000000000000000000e+00
8.990000000000000000e+02,2.756937143166715565e-01,0.000000000000000000e+00
9.000000000000000000e+02,1.051157698139469077e-01,0.000000000000000000e+00
9.010000000000000000e+02,4.063852098463882623e-01,0.000000000000000000e+00
9.020000000000000000e+02,2.694786305040544616e-01,0.000000000000000000e+00
9.030000000000000000e+02,3.370113364081717688e-01,0.000000000000000000e+00
9.040000000000000000e+02,1.639429764844768656e-01,0.000000000000000000e+00
9.050000000000000000e+02,5.759734434818324367e-01,0.000000000000000000e+00
9.060000000000000000e+02,4.449062507964147151e-01,0.000000000000000000e+00
9.070000000000000000e+02,9.291061857662801238e-01,0.000000000000000000e+00
9.080000000000000000e+02,7.259008399903272846e-01,0.000000000000000000e+00
9.090000000000000000e+02,5.352173137000428849e-01,0.000000000000000000e+00
9.100000000000000000e+02,4.480015665317204077e-01,0.000000000000000000e+00
9.110000000000000000e+02,3.859444690727653060e-01,0.000000000000000000e+00
9.120000000000000000e+02,5.247890770384947695e-02,0.000000000000000000e+00
9.130000000000000000e+02,1.442412740776151114e-01,0.000000000000000000e+00
9.140000000000000000e+02,-1.764113141678269048e-01,0.000000000000000000e+00
9.150000000000000000e+02,1.533839171900712173e-01,0.000000000000000000e+00
9.160000000000000000e+02,1.190456303884946665e-01,0.000000000000000000e+00
9.170000000000000000e+02,2.912689665740307299e-01,0.000000000000000000e+00
9.180000000000000000e+02,-4.303196697354807476e-01,0.000000000000000000e+00
9.190000000000000000e+02,4.194169667292657167e+00,0.000000000000000000e+00
9.200000000000000000e+02,1.820447014910111294e+00,1.000000000000000000e+00
9.210000000000000000e+02,-2.660569708121738763e+00,0.000000000000000000e+00
9.220000000000000000e+02,-2.198177036307720211e-01,0.000000000000000000e+00
9.230000000000000000e+02,-5.919934224758722774e-01,0.000000000000000000e+00
9.240000000000000000e+02,2.871050394557899121e-01,0.000000000000000000e+00
9.250000000000000000e+02,1.191752101811473785e-01,0.000000000000000000e+00
9.260000000000000000e+02,2.272351731770544669e-01,0.000000000000000000e+00
9.270000000000000000e+02,9.925228618792605872e-02,0.000000000000000000e+00
9.280000000000000000e+02,1.324904260958660318e-01,0.000000000000000000e+00
9.290000000000000000e+02,2.635167579183828601e-01,0.000000000000000000e+00
9.300000000000000000e+02,2.154274639239197320e-01,0.000000000000000000e+00
9.310000000000000000e+02,2.790470579464918721e-01,0.000000000000000000e+00
9.320000000000000000e+02,5.136067569182851678e-01,0.000000000000000000e+00
9.330000000000000000e+02,5.414211811213083259e-01,0.000000000000000000e+00
9.340000000000000000e+02,1.172535484635335301e+00,0.000000000000000000e+00
9.350000000000000000e+02,1.234497775652209972e+00,0.000000000000000000e+00
9.360000000000000000e+02,1.570899894077819159e+00,0.000000000000000000e+00
9.370000000000000000e+02,1.339650516896318644e+00,0.000000000000000000e+00
9.380000000000000000e+02,6.473308672251011364e-01,0.000000000000000000e+00
9.390000000000000000e+02,-5.183034335691670824e-01,0.000000000000000000e+00
9.400000000000000000e+02,-9.303812726866451666e-01,0.000000000000000000e+00
9.410000000000000000e+02,-1.456498460270706286e+00,0.000000000000000000e+00
9.420000000000000000e+02,-1.280207097621566259e+00,0.000000000000000000e+00
9.430000000000000000e+02,-1.508615004970774498e+00,0.000000000000000000e+00
9.440000000000000000e+02,-1.292044466659141078e+00,0.000000000000000000e+00
9.450000000000000000e+02,-1.233361181146429120e+00,0.000000000000000000e+00
9.460000000000000000e+02,-1.150508094091011513e+00,0.000000000000000000e+00
9.470000000000000000e+02,-1.058795585531811634e+00,0.000000000000000000e+00
9.480000000000000000e+02,-9.716708652296175419e-01,0.000000000000000000e+00
9.490000000000000000e+02,-1.011213977446884904e+00,0.000000000000000000e+00
9.500000000000000000e+02,-5.401549150410335232e-01,0.000000000000000000e+00
9.510000000000000000e+02,-7.884613612040640707e-01,0.000000000000000000e+00
9.520000000000000000e+02,-4.974501902916930729e-01,0.000000000000000000e+00
9.530000000000000000e+02,-5.928136940138929445e-01,0.000000000000000000e+00
9.540000000000000000e+02,-4.465894567619496658e-01,0.000000000000000000e+00
9.550000000000000000e+02,-5.570878826056337996e-01,0.000000000000000000e+00
9.560000000000000000e+02,-2.162097275688454889e-01,0.000000000000000000e+00
9.570000000000000000e+02,-4.724881679959643255e-01,0.000000000000000000e+00
9.580000000000000000e+02,-1.592544438736808732e-01,0.000000000000000000e+00
9.590000000000000000e+02,-2.964702719513220286e-01,0.000000000000000000e+00
9.600000000000000000e+02,-2.866662760950060007e-01,0.000000000000000000e+00
9.610000000000000000e+02,9.277880230649218629e-02,0.000000000000000000e+00
9.620000000000000000e+02,-1.613447539144463594e-01,0.000000000000000000e+00
9.630000000000000000e+02,4.938434734556852723e-02,0.000000000000000000e+00
9.640000000000000000e+02,-1.728246753078741538e-01,0.000000000000000000e+00
9.650000000000000000e+02,-6.446353264667863125e-02,0.000000000000000000e+00
9.660000000000000000e+02,3.835411104070820532e-01,0.000000000000000000e+00
9.670000000000000000e+02,-1.522106371934719808e-02,0.000000000000000000e+00
9.680000000000000000e+02,5.879443569851484641e-01,0.000000000000000000e+00
9.690000000000000000e+02,4.042868485372964615e-01,0.000000000000000000e+00
9.700000000000000000e+02,5.653745050502034797e-01,0.000000000000000000e+00
9.710000000000000000e+02,1.878115898472003387e-01,0.000000000000000000e+00
9.720000000000000000e+02,3.268299668795182078e-01,0.000000000000000000e+00
9.730000000000000000e+02,-2.128800654521908753e-01,0.000000000000000000e+00
9.740000000000000000e+02,1.729828456986144680e-02,0.000000000000000000e+00
9.750000000000000000e+02,-1.498532391656488272e-01,0.000000000000000000e+00
9.760000000000000000e+02,-6.592177054332620800e-02,0.000000000000000000e+00
9.770000000000000000e+02,-3.156365186408426893e-01,0.000000000000000000e+00
9.780000000000000000e+02,2.816433793028702559e-01,0.000000000000000000e+00
9.790000000000000000e+02,-4.964404641779721628e-01,0.000000000000000000e+00
9.800000000000000000e+02,1.217430944229638490e+00,0.000000000000000000e+00
9.810000000000000000e+02,4.640928157521760689e+00,0.000000000000000000e+00
9.820000000000000000e+02,-1.717542275405040897e+00,1.000000000000000000e+00
9.830000000000000000e+02,-1.539952542607314179e+00,0.000000000000000000e+00
9.840000000000000000e+02,-2.771526007086723697e-01,0.000000000000000000e+00
9.850000000000000000e+02,-7.013451292641756374e-02,0.000000000000000000e+00
9.860000000000000000e+02,-4.743199620665485700e-02,0.000000000000000000e+00
9.870000000000000000e+02,-4.300522030142103075e-02,0.000000000000000000e+00
9.880000000000000000e+02,3.544405653926282485e-01,0.000000000000000000e+00
9.890000000000000000e+02,-1.234176465282756374e-01,0.000000000000000000e+00
9.900000000000000000e+02,5.361457633972505077e-01,0.000000000000000000e+00
9.910000000000000000e+02,7.898102315590788125e-02,0.000000000000000000e+00
9.920000000000000000e+02,4.393237277302582955e-01,0.000000000000000000e+00
9.930000000000000000e+02,2.550872944412353460e-01,0.000000000000000000e+00
9.940000000000000000e+02,7.602355616353175805e-01,0.000000000000000000e+00
9.950000000000000000e+02,7.500577416328557678e-01,0.000000000000000000e+00
9.960000000000000000e+02,1.475416773932469061e+00,0.000000000000000000e+00
9.970000000000000000e+02,1.525593805053011787e+00,0.000000000000000000e+00
9.980000000000000000e+02,1.677012800954939875e+00,0.000000000000000000e+00
9.990000000000000000e+02,1.182943207978733202e+00,0.000000000000000000e+00
1.000000000000000000e+03,2.107721571369022551e-01,0.000000000000000000e+00
1.001000000000000000e+03,-5.597603890182919484e-01,0.000000000000000000e+00
1.002000000000000000e+03,-1.290206205044101218e+00,0.000000000000000000e+00
1.003000000000000000e+03,-1.113857439551925399e+00,0.000000000000000000e+00
1.004000000000000000e+03,-1.584797388075443791e+00,0.000000000000000000e+00
1.005000000000000000e+03,-1.351646230637199242e+00,0.000000000000000000e+00
1.006000000000000000e+03,-1.133916552318505078e+00,0.000000000000000000e+00
1.007000000000000000e+03,-1.261565983082816089e+00,0.000000000000000000e+00
1.008000000000000000e+03,-9.124649223069214443e-01,0.000000000000000000e+00
1.009000000000000000e+03,-9.136552822366058590e-01,0.000000000000000000e+00
1.010000000000000000e+03,-7.814906596610774470e-01,0.000000000000000000e+00
1.011000000000000000e+03,-8.271694617120939341e-01,0.000000000000000000e+00
1.012000000000000000e+03,-3.593139347126971250e-01,0.000000000000000000e+00
1.013000000000000000e+03,-6.146455960338059743e-01,0.000000000000000000e+00
1.014000000000000000e+03,-3.232012377493325150e-01,0.000000000000000000e+00
1.015000000000000000e+03,-4.111079887956609058e-01,0.000000000000000000e+00
1.016000000000000000e+03,-2.283634470461272936e-01,0.000000000000000000e+00
1.017000000000000000e+03,-3.449556183984201496e-01,0.000000000000000000e+00
1.018000000000000000e+03,-1.242292635474653018e-01,0.000000000000000000e+00
1.019000000000000000e+03,-3.011346398504748390e-01,0.000000000000000000e+00
1.020000000000000000e+03,7.459193468744546029e-02,0.000000000000000000e+00
1.021000000000000000e+03,-1.008718724248113541e-01,0.000000000000000000e+00
1.022000000000000000e+03,1.360390943003284003e-02,0.000000000000000000e+00
1.023000000000000000e+03,-1.970896115720043550e-03,0.000000000000000000e+00
1.024000000000000000e+03,1.513827863307318500e-01,0.000000000000000000e+00
1.025000000000000000e+03,4.129063341243727897e-02,0.000000000000000000e+00
1.026000000000000000e+03,1.658310408008096815e-01,0.000000000000000000e+00
1.027000000000000000e+03,1.759584037311317517e-01,0.000000000000000000e+00
1.028000000000000000e+03,1.836706816778198581e-01,0.000000000000000000e+00
1.029000000000000000e+03,4.072549837476497903e-01,0.000000000000000000e+00
1.030000000000000000e+03,5.715525329418168488e-01,0.000000000000000000e+00
1.031000000000000000e+03,6.628813865423993645e-01,0.000000000000000000e+00
1.032000000000000000e+03,6.301654172527558773e-01,0.000000000000000000e+00
1.033000000000000000e+03,3.558544554447184427e-01,0.000000000000000000e+00
1.034000000000000000e+03,2.054224835091597590e-01,0.000000000000000000e+00
1.035000000000000000e+03,-5.304842736812244441e-02,0.000000000000000000e+00
1.036000000000000000e+03,5.301132865150300078e-02,0.000000000000000000e+00
1.037000000000000000e+03,-4.089300852236749800e-02,0.000000000000000000e+00
1.038000000000000000e+03,5.858129293310296304e-02,0.000000000000000000e+00
1.039000000000000000e+03,2.024369436570835207e-02,0.000000000000000000e+00
1.040000000000000000e+03,4.368330425812579909e-01,0.000000000000000000e+00
1.041000000000000000e+03,-5.273276848358697810e-01,0.000000000000000000e+00
1.042000000000000000e+03,3.102593116935572493e+00,0.000000000000000000e+00
1.043000000000000000e+03,3.677259695867268086e+00,0.000000000000000000e+00
1.044000000000000000e+03,-2.990419249001372126e+00,1.000000000000000000e+00
1.045000000000000000e+03,-1.040138057307503638e+00,0.000000000000000000e+00
1.046000000000000000e+03,-4.709125225548515536e-01,0.000000000000000000e+00
1.047000000000000000e+03,2.845606173185781240e-01,0.000000000000000000e+00
1.048000000000000000e+03,-1.699661615924432864e-02,0.000000000000000000e+00
1.049000000000000000e+03,4.004308917902588139e-01,0.000000000000000000e+00
1.050000000000000000e+03,2.387090373460530324e-01,0.000000000000000000e+00
1.051000000000000000e+03,1.973427727235339824e-01,0.000000000000000000e+00
1.052000000000000000e+03,4.244644613597343130e-01,0.000000000000000000e+00
1.053000000000000000e+03,3.719586974698501636e-01,0.000000000000000000e+00
1.054000000000000000e+03,1.907900697682093638e-01,0.000000000000000000e+00
1.055000000000000000e+03,7.200287418266325679e-01,0.000000000000000000e+00
1.056000000000000000e+03,7.269861790534901669e-01,0.000000000000000000e+00
1.057000000000000000e+03,1.133632177976561906e+00,0.000000000000000000e+00
1.058000000000000000e+03,1.487520524450769432e+00,0.000000000000000000e+00
1.059000000000000000e+03,1.538093277793652902e+00,0.000000000000000000e+00
1.060000000000000000e+03,1.745473005716323689e+00,0.000000000000000000e+00
1.061000000000000000e+03,9.585729644994818166e-01,0.000000000000000000e+00
1.062000000000000000e+03,4.284219327489383056e-02,0.000000000000000000e+00
1.063000000000000000e+03,-9.502201117911536210e-01,0.000000000000000000e+00
1.064000000000000000e+03,-1.501917503263204612e+00,0.000000000000000000e+00
1.065000000000000000e+03,-1.301900424122586886e+00,0.000000000000000000e+00
1.066000000000000000e+03,-1.377975594072422982e+00,0.000000000000000000e+00
1.067000000000000000e+03,-1.447611707281441840e+00,0.000000000000000000e+00
1.068000000000000000e+03,-1.220514316693597667e+00,0.000000000000000000e+00
1.069000000000000000e+03,-1.181365849168441784e+00,0.000000000000000000e+00
1.070000000000000000e+03,-1.047468708859981223e+00,0.000000000000000000e+00
1.071000000000000000e+03,-7.495491790808050947e-01,0.000000000000000000e+00
1.072000000000000000e+03,-1.045470712511763711e+00,0.000000000000000000e+00
1.073000000000000000e+03,-4.050317975209077326e-01,0.000000000000000000e+00
1.074000000000000000e+03,-6.749667649387439683e-01,0.000000000000000000e+00
1.075000000000000000e+03,-5.268711728868662458e-01,0.000000000000000000e+00
1.076000000000000000e+03,-3.612810337635160018e-01,0.000000000000000000e+00
1.077000000000000000e+03,-5.424607912090747552e-01,0.000000000000000000e+00
1.078000000000000000e+03,-1.637792557215520528e-01,0.000000000000000000e+00
1.079000000000000000e+03,-3.817944094487210061e-01,0.000000000000000000e+00
1.080000000000000000e+03,-1.888688641823074166e-01,0.000000000000000000e+00
1.081000000000000000e+03,-2.571131532856007484e-01,0.000000000000000000e+00
1.082000000000000000e+03,-9.874785470167864176e-02,0.000000000000000000e+00
1.083000000000000000e+03,-2.281770021835266005e-01,0.000000000000000000e+00
1.084000000000000000e+03,1.300699775593626983e-01,0.000000000000000000e+00
1.085000000000000000e+03,-6.203751092369958614e-02,0.000000000000000000e+00
1.086000000000000000e+03,7.798150366904232911e-02,0.000000000000000000e+00
1.087000000000000000e+03,8.846715258087431422e-02,0.000000000000000000e+00
1.088000000000000000e+03,2.058165202146556017e-01,0.000000000000000000e+00
1.089000000000000000e+03,1.018073152518919749e-01,0.000000000000000000e+00
1.090000000000000000e+03,6.190006072726584874e-01,0.000000000000000000e+00
1.091000000000000000e+03,6.178351297255628705e-01,0.000000000000000000e+00
1.092000000000000000e+03,4.616183326842300816e-01,0.000000000000000000e+00
1.093000000000000000e+03,3.709659125032973015e-01,0.000000000000000000e+00
1.094000000000000000e+03,1.441067165255825455e-01,0.000000000000000000e+00
1.095000000000000000e+03,-2.917489640404383744e-01,0.000000000000000000e+00
1.096000000000000000e+03,2.158242753887235632e-01,0.000000000000000000e+00
1.097000000000000000e+03,-3.235760101050849658e-01,0.000000000000000000e+00
1.098000000000000000e+03,4.730227165816437429e-01,0.000000000000000000e+00
1.099000000000000000e+03,-2.879915736214689326e-01,0.000000000000000000e+00
1.100000000000000000e+03,5.428536602176849968e-01,0.000000000000000000e+00
1.101000000000000000e+03,-4.195229901781171722e-01,0.000000000000000000e+00
1.102000000000000000e+03,4.360802364360927719e+00,0.000000000000000000e+00
1.103000000000000000e+03,1.747312370198381926e+00,1.000000000000000000e+00
1.104000000000000000e+03,-3.333989515986492957e+00,0.000000000000000000e+00
1.105000000000000000e+03,-5.119388936272781798e-01,0.000000000000000000e+00
1.106000000000000000e+03,-1.634964271835125660e-01,0.000000000000000000e+00
1.107000000000000000e+03,3.880883167309058246e-01,0.000000000000000000e+00
1.108000000000000000e+03,1.838672150734478594e-01,0.000000000000000000e+00
1.109000000000000000e+03,3.120273882842299340e-01,0.000000000000000000e+00
1.110000000000000000e+03,7.636629008292376841e-02,0.000000000000000000e+00
1.111000000000000000e+03,5.542485960978096315e-01,0.000000000000000000e+00
1.112000000000000000e+03,3.492055900230036647e-01,0.000000000000000000e+00
1.113000000000000000e+03,4.890451356944423011e-01,0.000000000000000000e+00
1.114000000000000000e+03,3.800024462595678054e-01,0.000000000000000000e+00
1.115000000000000000e+03,6.742643304088199452e-01,0.000000000000000000e+00
1.116000000000000000e+03,7.629372285727696879e-01,0.000000000000000000e+00
1.117000000000000000e+03,1.307074416268550365e+00,0.000000000000000000e+00
1.118000000000000000e+03,1.509594414855018663e+00,0.000000000000000000e+00
1.119000000000000000e+03,1.713115200187500298e+00,0.000000000000000000e+00
1.120000000000000000e+03,1.383863761604877896e+00,0.000000000000000000e+00
1.121000000000000000e+03,8.062000366087513914e-01,0.000000000000000000e+00
1.122000000000000000e+03,-4.108081230879743195e-01,0.000000000000000000e+00
1.123000000000000000e+03,-9.414986588421246916e-01,0.000000000000000000e+00
1.124000000000000000e+03,-1.367340249181919321e+00,0.000000000000000000e+00
1.125000000000000000e+03,-1.388804491784168871e+00,0.000000000000000000e+00
1.126000000000000000e+03,-1.482166193712420643e+00,0.000000000000000000e+00
1.127000000000000000e+03,-1.417661813655955116e+00,0.000000000000000000e+00
1.128000000000000000e+03,-1.177980056317485813e+00,0.000000000000000000e+00
1.129000000000000000e+03,-1.113248727815042027e+00,0.000000000000000000e+00
1.130000000000000000e+03,-8.868591651753615634e-01,0.000000000000000000e+00
1.131000000000000000e+03,-9.149345894075885388e-01,0.000000000000000000e+00
1.132000000000000000e+03,-7.114951904814115213e-01,0.000000000000000000e+00
1.133000000000000000e+03,-7.462253961321512197e-01,0.000000000000000000e+00
1.134000000000000000e+03,-5.396030090229829712e-01,0.000000000000000000e+00
1.135000000000000000e+03,-5.064552205305541399e-01,0.000000000000000000e+00
1.136000000000000000e+03,-5.668428688104070190e-01,0.000000000000000000e+00
1.137000000000000000e+03,-3.615312860260792016e-01,0.000000000000000000e+00
1.138000000000000000e+03,-3.724862074817614221e-01,0.000000000000000000e+00
1.139000000000000000e+03,-3.420683705849177914e-01,0.000000000000000000e+00
1.140000000000000000e+03,-2.031848257731709573e-01,0.000000000000000000e+00
1.141000000000000000e+03,-2.452179099564240072e-01,0.000000000000000000e+00
1.142000000000000000e+03,-1.605418924376967871e-01,0.000000000000000000e+00
1.143000000000000000e+03,-2.343876033451123830e-01,0.000000000000000000e+00
1.144000000000000000e+03,1.167455753033814353e-01,0.000000000000000000e+00
1.145000000000000000e+03,4.833222230611023199e-03,0.000000000000000000e+00
1.146000000000000000e+03,5.320158026503512411e-02,0.000000000000000000e+00
1.147000000000000000e+03,1.218234635880343780e-01,0.000000000000000000e+00
1.148000000000000000e+03,3.013403349396553410e-01,0.000000000000000000e+00
1.149000000000000000e+03,-4.442284196482121361e-02,0.000000000000000000e+00
1.150000000000000000e+03,4.650101731182797460e-01,0.000000000000000000e+00
1.151000000000000000e+03,4.238783038925125757e-01,0.000000000000000000e+00
1.152000000000000000e+03,8.180323508129911936e-01,0.000000000000000000e+00
1.153000000000000000e+03,5.501517511773006408e-01,0.000000000000000000e+00
1.154000000000000000e+03,7.322659804924127602e-01,0.000000000000000000e+00
1.155000000000000000e+03,1.773664984387489374e-01,0.000000000000000000e+00
1.156000000000000000e+03,4.224091369340459701e-01,0.000000000000000000e+00
1.157000000000000000e+03,-1.209722947844906887e-01,0.000000000000000000e+00
1.158000000000000000e+03,2.308514142905771227e-01,0.000000000000000000e+00
1.159000000000000000e+03,-2.028696260122049289e-01,0.000000000000000000e+00
1.160000000000000000e+03,2.476561967206691028e-01,0.000000000000000000e+00
1.161000000000000000e+03,-1.830406565074685354e-01,0.000000000000000000e+00
1.162000000000000000e+03,3.663551518256522588e-01,0.000000000000000000e+00
1.163000000000000000e+03,-5.750915642873406508e-01,0.000000000000000000e+00
1.164000000000000000e+03,3.942502969866003681e+00,0.000000000000000000e+00
1.165000000000000000e+03,2.199254964653216682e+00,1.000000000000000000e+00
1.166000000000000000e+03,-2.779101957764341879e+00,0.000000000000000000e+00
1.167000000000000000e+03,-5.028762454259864123e-01,0.000000000000000000e+00
1.168000000000000000e+03,-3.994096268239419878e-01,0.000000000000000000e+00
1.169000000000000000e+03,2.876143113423672015e-01,0.000000000000000000e+00
1.170000000000000000e+03,1.218628190184510851e-01,0.000000000000000000e+00
1.171000000000000000e+03,3.438297025285172448e-01,0.000000000000000000e+00
1.172000000000000000e+03,1.327866285807975388e-01,0.000000000000000000e+00
1.173000000000000000e+03,1.833661490520104576e-01,0.000000000000000000e+00
1.174000000000000000e+03,2.465397177455130318e-01,0.000000000000000000e+00
1.175000000000000000e+03,4.977088562144900696e-01,0.000000000000000000e+00
1.176000000000000000e+03,1.884204118555304619e-01,0.000000000000000000e+00
1.177000000000000000e+03,5.732857538611931814e-01,0.000000000000000000e+00
1.178000000000000000e+03,6.532791436167362242e-01,0.000000000000000000e+00
1.179000000000000000e+03,1.082856974465278066e+00,0.000000000000000000e+00
1.180000000000000000e+03,1.365822437616410312e+00,0.000000000000000000e+00
1.181000000000000000e+03,1.502029014418381436e+00,0.000000000000000000e+00
1.182000000000000000e+03,1.465712248282319052e+00,0.000000000000000000e+00
1.183000000000000000e+03,7.904316129451049999e-01,0.000000000000000000e+00
1.184000000000000000e+03,-1.380130553257829240e-01,0.000000000000000000e+00
1.185000000000000000e+03,-8.755352050894803506e-01,0.000000000000000000e+00
1.186000000000000000e+03,-1.377401115608407389e+00,0.000000000000000000e+00
1.187000000000000000e+03,-1.307919184951356284e+00,0.000000000000000000e+00
1.188000000000000000e+03,-1.361996508229612823e+00,0.000000000000000000e+00
1.189000000000000000e+03,-1.285325221940966101e+00,0.000000000000000000e+00
1.190000000000000000e+03,-1.142000600902199237e+00,0.000000000000000000e+00
1.191000000000000000e+03,-1.121185680253808492e+00,0.000000000000000000e+00
1.192000000000000000e+03,-1.038115941099444495e+00,0.000000000000000000e+00
1.193000000000000000e+03,-6.129123121907998906e-01,0.000000000000000000e+00
1.194000000000000000e+03,-7.964421818094812311e-01,0.000000000000000000e+00
1.195000000000000000e+03,-6.694344922911195095e-01,0.000000000000000000e+00
1.196000000000000000e+03,-5.529280280300378214e-01,0.000000000000000000e+00
1.197000000000000000e+03,-4.380281335588978031e-01,0.000000000000000000e+00
1.198000000000000000e+03,-5.067415858688655295e-01,0.000000000000000000e+00
1.199000000000000000e+03,-2.094004378376930209e-01,0.000000000000000000e+00
1.200000000000000000e+03,-4.349551799270207630e-01,0.000000000000000000e+00
1.201000000000000000e+03,-2.178459614728928961e-01,0.000000000000000000e+00
1.202000000000000000e+03,-2.356210454032783563e-01,0.000000000000000000e+00
1.203000000000000000e+03,-1.996424592813146326e-01,0.000000000000000000e+00
1.204000000000000000e+03,-3.753516143673944067e-02,0.000000000000000000e+00
1.205000000000000000e+03,-7.001842280207175306e-02,0.000000000000000000e+00
1.206000000000000000e+03,-3.776810986704275813e-02,0.000000000000000000e+00
1.207000000000000000e+03,7.708338064553330038e-02,0.000000000000000000e+00
1.208000000000000000e+03,5.475073315952654757e-02,0.000000000000000000e+00
1.209000000000000000e+03,3.560566415138054913e-02,0.000000000000000000e+00
1.210000000000000000e+03,2.620508200504179652e-01,0.000000000000000000e+00
1.211000000000000000e+03,-1.345548429689998006e-03,0.000000000000000000e+00
1.212000000000000000e+03,3.364837874059863898e-01,0.000000000000000000e+00
1.213000000000000000e+03,2.021705098193587458e-01,0.000000000000000000e+00
1.214000000000000000e+03,6.681838755151526810e-01,0.000000000000000000e+00
1.215000000000000000e+03,5.042667267887479543e-01,0.000000000000000000e+00
1.216000000000000000e+03,7.129821614925833106e-01,0.000000000000000000e+00
1.217000000000000000e+03,1.405602768828373428e-01,0.000000000000000000e+00
1.218000000000000000e+03,4.841811889910984101e-01,0.000000000000000000e+00
1.219000000000000000e+03,-4.151206509393191024e-01,0.000000000000000000e+00
1.220000000000000000e+03,8.722438911262750394e-02,0.000000000000000000e+00
1.221000000000000000e+03,-2.345247172154356352e-01,0.000000000000000000e+00
1.222000000000000000e+03,5.499377828179764088e-02,0.000000000000000000e+00
1.223000000000000000e+03,-2.183530944585330980e-01,0.000000000000000000e+00
1.224000000000000000e+03,3.604714849122254705e-01,0.000000000000000000e+00
1.225000000000000000e+03,-7.919142047254524863e-01,0.000000000000000000e+00
1.226000000000000000e+03,3.051019799801804488e+00,0.000000000000000000e+00
1.227000000000000000e+03,3.289340052277299087e+00,0.000000000000000000e+00
1.228000000000000000e+03,-2.754668637581209278e+00,1.000000000000000000e+00
1.229000000000000000e+03,-6.596009370485013124e-01,0.000000000000000000e+00
1.230000000000000000e+03,-4.851956443046318013e-01,0.000000000000000000e+00
1.231000000000000000e+03,4.955278822967087993e-02,0.000000000000000000e+00
1.232000000000000000e+03,4.964848948089566755e-02,0.000000000000000000e+00
1.233000000000000000e+03,2.673523434241908414e-01,0.000000000000000000e+00
1.234000000000000000e+03,7.859430614271564752e-02,0.000000000000000000e+00
1.235000000000000000e+03,1.256998167515293863e-01,0.000000000000000000e+00
1.236000000000000000e+03,1.607427616830642281e-01,0.000000000000000000e+00
1.237000000000000000e+03,3.714410831842558380e-01,0.000000000000000000e+00
1.238000000000000000e+03,4.714763973318317203e-01,0.000000000000000000e+00
1.239000000000000000e+03,2.449417589425403607e-01,0.000000000000000000e+00
1.240000000000000000e+03,6.088453053908839951e-01,0.000000000000000000e+00
1.241000000000000000e+03,1.097573448152516562e+00,0.000000000000000000e+00
1.242000000000000000e+03,1.348358461066397007e+00,0.000000000000000000e+00
1.243000000000000000e+03,1.751317600350702719e+00,0.000000000000000000e+00
1.244000000000000000e+03,1.264726056651425345e+00,0.000000000000000000e+00
1.245000000000000000e+03,9.881481588909980518e-01,0.000000000000000000e+00
1.246000000000000000e+03,-1.554833635681529824e-01,0.000000000000000000e+00
1.247000000000000000e+03,-8.095001339003635721e-01,0.000000000000000000e+00
1.248000000000000000e+03,-1.081160777953696250e+00,0.000000000000000000e+00
1.249000000000000000e+03,-1.265477428375363367e+00,0.000000000000000000e+00
1.250000000000000000e+03,-1.440862456512718381e+00,0.000000000000000000e+00
1.251000000000000000e+03,-1.128582051161272526e+00,0.000000000000000000e+00
1.252000000000000000e+03,-1.156714360295305166e+00,0.000000000000000000e+00
1.253000000000000000e+03,-1.018875813932891727e+00,0.000000000000000000e+00
1.254000000000000000e+03,-1.013454191741774091e+00,0.000000000000000000e+00
1.255000000000000000e+03,-7.993713481750447380e-01,0.000000000000000000e+00
1.256000000000000000e+03,-7.636458448972870405e-01,0.000000000000000000e+00
1.257000000000000000e+03,-3.482820374184598666e-01,0.000000000000000000e+00
1.258000000000000000e+03,-7.489236326819199707e-01,0.000000000000000000e+00
1.259000000000000000e+03,-3.509061954539636763e-01,0.000000000000000000e+00
1.260000000000000000e+03,-4.165145702564881924e-01,0.000000000000000000e+00
1.261000000000000000e+03,-3.649657673325583107e-01,0.000000000000000000e+00
1.262000000000000000e+03,-1.280700979916375160e-01,0.000000000000000000e+00
1.263000000000000000e+03,-3.046317533718513881e-01,0.000000000000000000e+00
1.264000000000000000e+03,-1.253442564473851162e-01,0.000000000000000000e+00
1.265000000000000000e+03,-2.364113413851845757e-01,0.000000000000000000e+00
1.266000000000000000e+03,-3.262825152935099754e-02,0.000000000000000000e+00
1.267000000000000000e+03,-8.873273893932576151e-02,0.000000000000000000e+00
1.268000000000000000e+03,1.649916905264408110e-02,0.000000000000000000e+00
1.269000000000000000e+03,4.013330599395276144e-02,0.000000000000000000e+00
1.270000000000000000e+03,1.071646407346805024e-01,0.000000000000000000e+00
1.271000000000000000e+03,1.708165087278031569e-01,0.000000000000000000e+00
1.272000000000000000e+03,6.912783785821075347e-03,0.000000000000000000e+00
1.273000000000000000e+03,3.514325979987311666e-01,0.000000000000000000e+00
1.274000000000000000e+03,1.283316908279196200e-01,0.000000000000000000e+00
1.275000000000000000e+03,4.667058999308468237e-01,0.000000000000000000e+00
1.276000000000000000e+03,4.184719839194954716e-01,0.000000000000000000e+00
1.277000000000000000e+03,7.180791380239829325e-01,0.000000000000000000e+00
1.278000000000000000e+03,7.033232188827656106e-01,0.000000000000000000e+00
1.279000000000000000e+03,3.189649666476211398e-01,0.000000000000000000e+00
1.280000000000000000e+03,4.329678757385769239e-01,0.000000000000000000e+00
1.281000000000000000e+03,-2.579521173221978603e-01,0.000000000000000000e+00
1.282000000000000000e+03,1.608338056142659400e-01,0.000000000000000000e+00
1.283000000000000000e+03,-3.477419506693598672e-01,0.000000000000000000e+00
1.284000000000000000e+03,3.593691725019604322e-01,0.000000000000000000e+00
1.285000000000000000e+03,-2.932699709205190963e-01,0.000000000000000000e+00
1.286000000000000000e+03,4.097501315665471044e-01,0.000000000000000000e+00
1.287000000000000000e+03,-7.207241624784959111e-01,0.000000000000000000e+00
1.288000000000000000e+03,2.624921569937229027e+00,0.000000000000000000e+00
1.289000000000000000e+03,3.823453888667924350e+00,0.000000000000000000e+00
1.290000000000000000e+03,-2.607310913443415146e+00,1.000000000000000000e+00
1.291000000000000000e+03,-1.008332194780801716e+00,0.000000000000000000e+00
1.292000000000000000e+03,-3.787846824705020654e-01,0.000000000000000000e+00
1.293000000000000000e+03,3.603632451899264205e-02,0.000000000000000000e+00
1.294000000000000000e+03,-1.054508505505836330e-01,0.000000000000000000e+00
1.295000000000000000e+03,2.839231107769197848e-01,0.000000000000000000e+00
1.296000000000000000e+03,-1.573961873008858647e-01,0.000000000000000000e+00
1.297000000000000000e+03,3.281429098858446025e-01,0.000000000000000000e+00
1.298000000000000000e+03,2.652975436040805671e-02,0.000000000000000000e+00
1.299000000000000000e+03,4.021990689830293175e-01,0.000000000000000000e+00
1.300000000000000000e+03,1.875937251397014616e-01,0.000000000000000000e+00
1.301000000000000000e+03,4.889985664358407202e-01,0.000000000000000000e+00
1.302000000000000000e+03,4.516973877600796716e-01,0.000000000000000000e+00
1.303000000000000000e+03,1.183563060042305048e+00,0.000000000000000000e+00
1.304000000000000000e+03,1.159148432819415264e+00,0.000000000000000000e+00
1.305000000000000000e+03,1.785783525659506266e+00,0.000000000000000000e+00
1.306000000000000000e+03,1.379566799783676023e+00,0.000000000000000000e+00
1.307000000000000000e+03,1.003330821831489583e+00,0.000000000000000000e+00
1.308000000000000000e+03,-1.552334612831138827e-01,0.000000000000000000e+00
1.309000000000000000e+03,-6.815225185732619595e-01,0.000000000000000000e+00
1.310000000000000000e+03,-1.208382062638153398e+00,0.000000000000000000e+00
1.311000000000000000e+03,-1.388875142260594497e+00,0.000000000000000000e+00
1.312000000000000000e+03,-1.634439519209882175e+00,0.000000000000000000e+00
1.313000000000000000e+03,-1.204173206472866742e+00,0.000000000000000000e+00
1.314000000000000000e+03,-1.418643257602832053e+00,0.000000000000000000e+00
1.315000000000000000e+03,-1.023793065013178794e+00,0.000000000000000000e+00
1.316000000000000000e+03,-1.058443707902686937e+00,0.000000000000000000e+00
1.317000000000000000e+03,-9.380600456800978204e-01,0.000000000000000000e+00
1.318000000000000000e+03,-8.111334185149567944e-01,0.000000000000000000e+00
1.319000000000000000e+03,-8.195388306235833475e-01,0.000000000000000000e+00
1.320000000000000000e+03,-4.979867089695630411e-01,0.000000000000000000e+00
1.321000000000000000e+03,-3.632398484589555721e-01,0.000000000000000000e+00
1.322000000000000000e+03,-4.234484072924795672e-01,0.000000000000000000e+00
1.323000000000000000e+03,-3.555229947570405225e-01,0.000000000000000000e+00
1.324000000000000000e+03,-4.090759437101075813e-01,0.000000000000000000e+00
1.325000000000000000e+03,-3.012551609080857395e-01,0.000000000000000000e+00
1.326000000000000000e+03,-1.988334688075968082e-01,0.000000000000000000e+00
1.327000000000000000e+03,-1.322735675139899703e-01,0.000000000000000000e+00
1.328000000000000000e+03,-6.438626831126559313e-02,0.000000000000000000e+00
1.329000000000000000e+03,-2.287628740485989423e-02,0.000000000000000000e+00
1.330000000000000000e+03,-5.695691322458808215e-02,0.000000000000000000e+00
1.331000000000000000e+03,1.544561739401525413e-01,0.000000000000000000e+00
1.332000000000000000e+03,-9.749653999230971368e-02,0.000000000000000000e+00
1.333000000000000000e+03,1.295958703436723147e-01,0.000000000000000000e+00
1.334000000000000000e+03,1.712564625296876530e-01,0.000000000000000000e+00
1.335000000000000000e+03,2.084691563586498486e-01,0.000000000000000000e+00
1.336000000000000000e+03,3.359397171153699069e-01,0.000000000000000000e+00
1.337000000000000000e+03,3.288355471414952658e-01,0.000000000000000000e+00
1.338000000000000000e+03,6.751162991201324903e-01,0.000000000000000000e+00
1.339000000000000000e+03,6.422845837954156423e-01,0.000000000000000000e+00
1.340000000000000000e+03,6.352183767463266406e-01,0.000000000000000000e+00
1.341000000000000000e+03,3.648727535325435589e-01,0.000000000000000000e+00
1.342000000000000000e+03,1.764967767960693157e-01,0.000000000000000000e+00
1.343000000000000000e+03,-1.925153084065936715e-01,0.000000000000000000e+00
1.344000000000000000e+03,1.379984619188605877e-01,0.000000000000000000e+00
1.345000000000000000e+03,-5.593003463847406875e-02,0.000000000000000000e+00
1.346000000000000000e+03,9.038332311470387292e-02,0.000000000000000000e+00
1.347000000000000000e+03,3.680546658606820287e-02,0.000000000000000000e+00
1.348000000000000000e+03,2.734825523469510133e-01,0.000000000000000000e+00
1.349000000000000000e+03,-1.908562614778445132e-01,0.000000000000000000e+00
1.350000000000000000e+03,4.785904613241257266e+00,0.000000000000000000e+00
1.351000000000000000e+03,1.301476651147738473e+00,1.000000000000000000e+00
1.352000000000000000e+03,-2.962802963472350726e+00,0.000000000000000000e+00
1.353000000000000000e+03,-6.049457419336874420e-01,0.000000000000000000e+00
1.354000000000000000e+03,-2.832571862376623839e-01,0.000000000000000000e+00
1.355000000000000000e+03,5.418234114587169303e-01,0.000000000000000000e+00
1.356000000000000000e+03,-2.830825973748681348e-02,0.000000000000000000e+00
1.357000000000000000e+03,2.604365442214565673e-01,0.000000000000000000e+00
1.358000000000000000e+03,1.195719769173176072e-01,0.000000000000000000e+00
1.359000000000000000e+03,3.949762865676672563e-01,0.000000000000000000e+00
1.360000000000000000e+03,3.129366524801006078e-01,0.000000000000000000e+00
1.361000000000000000e+03,4.219352254884940479e-01,0.000000000000000000e+00
1.362000000000000000e+03,3.995779316853317886e-01,0.000000000000000000e+00
1.363000000000000000e+03,7.048914213298040909e-01,0.000000000000000000e+00
1.364000000000000000e+03,7.834640382700419625e-01,0.000000000000000000e+00
1.365000000000000000e+03,1.342700832949483836e+00,0.000000000000000000e+00
1.366000000000000000e+03,1.481042219601805154e+00,0.000000000000000000e+00
1.367000000000000000e+03,1.663500406609350168e+00,0.000000000000000000e+00
1.368000000000000000e+03,1.392169622253682348e+00,0.000000000000000000e+00
1.369000000000000000e+03,7.041744993640451922e-01,0.000000000000000000e+00
1.370000000000000000e+03,-4.022227449320069925e-01,0.000000000000000000e+00
1.371000000000000000e+03,-7.106702475351510673e-01,0.000000000000000000e+00
1.372000000000000000e+03,-1.505720294722535435e+00,0.000000000000000000e+00
1.373000000000000000e+03,-1.457339116223028253e+00,0.000000000000000000e+00
1.374000000000000000e+03,-1.473905144763657304e+00,0.000000000000000000e+00
1.375000000000000000e+03,-1.268970961650261797e+00,0.000000000000000000e+00
1.376000000000000000e+03,-1.357792106286564549e+00,0.000000000000000000e+00
1.377000000000000000e+03,-8.965452941734366465e-01,0.000000000000000000e+00
1.378000000000000000e+03,-1.117848352203000939e+00,0.000000000000000000e+00
1.379000000000000000e+03,-7.311733797948756219e-01,0.000000000000000000e+00
1.380000000000000000e+03,-7.520550932610966521e-01,0.000000000000000000e+00
1.381000000000000000e+03,-4.465339305440135242e-01,0.000000000000000000e+00
1.382000000000000000e+03,-5.069310291952521252e-01,0.000000000000000000e+00
1.383000000000000000e+03,-4.597396582166259349e-01,0.000000000000000000e+00
1.384000000000000000e+03,-5.304562602518245740e-01,0.000000000000000000e+00
1.385000000000000000e+03,-3.666286457266511589e-01,0.000000000000000000e+00
1.386000000000000000e+03,-1.139634043791473011e-01,0.000000000000000000e+00
1.387000000000000000e+03,-3.267271150140640956e-01,0.000000000000000000e+00
1.388000000000000000e+03,-1.918103735644635099e-01,0.000000000000000000e+00
1.389000000000000000e+03,-9.243532175548241359e-02,0.000000000000000000e+00
1.390000000000000000e+03,-3.136258258476525285e-01,0.000000000000000000e+00
1.391000000000000000e+03,1.349022101668198581e-01,0.000000000000000000e+00
1.392000000000000000e+03,-7.716962282422071273e-02,0.000000000000000000e+00
1.393000000000000000e+03,4.172147855443379683e-02,0.000000000000000000e+00
1.394000000000000000e+03,-1.633966698216040431e-02,0.000000000000000000e+00
1.395000000000000000e+03,2.131889479484728456e-01,0.000000000000000000e+00
1.396000000000000000e+03,2.352411900406460588e-01,0.000000000000000000e+00
1.397000000000000000e+03,3.645949264170556536e-01,0.000000000000000000e+00
1.398000000000000000e+03,2.845548757979027288e-01,0.000000000000000000e+00
1.399000000000000000e+03,7.217961492961145753e-01,0.000000000000000000e+00
1.400000000000000000e+03,5.135449658941589890e-01,0.000000000000000000e+00
1.401000000000000000e+03,4.397990194207432313e-01,0.000000000000000000e+00
1.402000000000000000e+03,2.416153858429206658e-01,0.000000000000000000e+00
1.403000000000000000e+03,-1.657094662418742703e-01,0.000000000000000000e+00
1.404000000000000000e+03,-2.766475826989309855e-02,0.000000000000000000e+00
1.405000000000000000e+03,-1.021665865907972828e-02,0.000000000000000000e+00
1.406000000000000000e+03,4.263968796288817448e-02,0.000000000000000000e+00
1.407000000000000000e+03,-1.017953546407271426e-01,0.000000000000000000e+00
1.408000000000000000e+03,3.363784367256414387e-01,0.000000000000000000e+00
1.409000000000000000e+03,-4.042967610625288200e-01,0.000000000000000000e+00
1.410000000000000000e+03,2.191349848141630474e+00,0.000000000000000000e+00
1.411000000000000000e+03,4.211476157272459275e+00,0.000000000000000000e+00
1.412000000000000000e+03,-2.669855906671307011e+00,1.000000000000000000e+00
1.413000000000000000e+03,-1.570457510069456886e+00,0.000000000000000000e+00
1.414000000000000000e+03,-1.828122575947541406e-01,0.000000000000000000e+00
1.415000000000000000e+03,1.019064116295222422e-01,0.000000000000000000e+00
1.416000000000000000e+03,8.065055490751230072e-02,0.000000000000000000e+00
1.417000000000000000e+03,4.659261166537816412e-01,0.000000000000000000e+00
1.418000000000000000e+03,7.226680850794382728e-04,0.000000000000000000e+00
1.419000000000000000e+03,5.099177350893043803e-01,0.000000000000000000e+00
1.420000000000000000e+03,2.243047725120709823e-01,0.000000000000000000e+00
1.421000000000000000e+03,2.773798237525285093e-01,0.000000000000000000e+00
1.422000000000000000e+03,4.740547312103713384e-01,0.000000000000000000e+00
1.423000000000000000e+03,4.793578454485182827e-01,0.000000000000000000e+00
1.424000000000000000e+03,7.078226264181362026e-01,0.000000000000000000e+00
1.425000000000000000e+03,1.143842357143944888e+00,0.000000000000000000e+00
1.426000000000000000e+03,1.250966950127399002e+00,0.000000000000000000e+00
1.427000000000000000e+03,1.614937767371740440e+00,0.000000000000000000e+00
1.428000000000000000e+03,1.488443009785025195e+00,0.000000000000000000e+00
1.429000000000000000e+03,1.161389480625362403e+00,0.000000000000000000e+00
1.430000000000000000e+03,-4.213583344221091820e-02,0.000000000000000000e+00
1.431000000000000000e+03,-6.241703160826215235e-01,0.000000000000000000e+00
1.432000000000000000e+03,-1.384820796993739611e+00,0.000000000000000000e+00
1.433000000000000000e+03,-1.384010003749369666e+00,0.000000000000000000e+00
1.434000000000000000e+03,-1.644264457073881580e+00,0.000000000000000000e+00
1.435000000000000000e+03,-1.196673207729153976e+00,0.000000000000000000e+00
1.436000000000000000e+03,-1.540544226020762908e+00,0.000000000000000000e+00
1.437000000000000000e+03,-1.021601791874337417e+00,0.000000000000000000e+00
1.438000000000000000e+03,-1.266513954530631647e+00,0.000000000000000000e+00
1.439000000000000000e+03,-7.305822590320728560e-01,0.000000000000000000e+00
1.440000000000000000e+03,-8.494101222290721953e-01,0.000000000000000000e+00
1.441000000000000000e+03,-6.190383077758228048e-01,0.000000000000000000e+00
1.442000000000000000e+03,-6.183030801685390765e-01,0.000000000000000000e+00
1.443000000000000000e+03,-6.241218011005421618e-01,0.000000000000000000e+00
1.444000000000000000e+03,-3.543619765987505166e-01,0.000000000000000000e+00
1.445000000000000000e+03,-3.875344333015401932e-01,0.000000000000000000e+00
1.446000000000000000e+03,-4.751622223792444366e-01,0.000000000000000000e+00
1.447000000000000000e+03,-5.391570109419268064e-01,0.000000000000000000e+00
1.448000000000000000e+03,-1.910338723851234266e-01,0.000000000000000000e+00
1.449000000000000000e+03,-1.733898996053793440e-01,0.000000000000000000e+00
1.450000000000000000e+03,-1.825069165472325006e-01,0.000000000000000000e+00
1.451000000000000000e+03,-5.532469348547684740e-02,0.000000000000000000e+00
1.452000000000000000e+03,-1.808507434869931207e-01,0.000000000000000000e+00
1.453000000000000000e+03,1.125732012621047246e-01,0.000000000000000000e+00
1.454000000000000000e+03,-1.693140940304693476e-01,0.000000000000000000e+00
1.455000000000000000e+03,2.348434366514132454e-01,0.000000000000000000e+00
1.456000000000000000e+03,2.145403551993426208e-02,0.000000000000000000e+00
1.457000000000000000e+03,1.919196065965817488e-01,0.000000000000000000e+00
1.458000000000000000e+03,1.874564609148990924e-01,0.000000000000000000e+00
1.459000000000000000e+03,5.391969263593149320e-01,0.000000000000000000e+00
1.460000000000000000e+03,6.047227020039454004e-01,0.000000000000000000e+00
1.461000000000000000e+03,6.769642611743663663e-01,0.000000000000000000e+00
1.462000000000000000e+03,3.322617125007399919e-01,0.000000000000000000e+00
1.463000000000000000e+03,4.304708129542551553e-01,0.000000000000000000e+00
1.464000000000000000e+03,-1.979248777023915884e-01,0.000000000000000000e+00
1.465000000000000000e+03,-2.077911417044436826e-02,0.000000000000000000e+00
1.466000000000000000e+03,-1.290625198815399111e-01,0.000000000000000000e+00
1.467000000000000000e+03,2.606430256968708115e-01,0.000000000000000000e+00
1.468000000000000000e+03,-9.482834031261573593e-02,0.000000000000000000e+00
1.469000000000000000e+03,3.791517091242903037e-01,0.000000000000000000e+00
1.470000000000000000e+03,-6.190396093757642992e-01,0.000000000000000000e+00
1.471000000000000000e+03,2.224016148175393504e+00,0.000000000000000000e+00
1.472000000000000000e+03,4.034844561933931040e+00,0.000000000000000000e+00
1.473000000000000000e+03,-2.424410037337732415e+00,1.000000000000000000e+00
1.474000000000000000e+03,-1.083394064437261495e+00,0.000000000000000000e+00
1.475000000000000000e+03,-2.959947115319286892e-01,0.000000000000000000e+00
1.476000000000000000e+03,-2.043780869621117380e-02,0.000000000000000000e+00
1.477000000000000000e+03,2.446958986991299434e-01,0.000000000000000000e+00
1.478000000000000000e+03,1.750228501982631357e-01,0.000000000000000000e+00
1.479000000000000000e+03,2.283108384961304860e-01,0.000000000000000000e+00
1.480000000000000000e+03,1.729401585175976697e-01,0.000000000000000000e+00
1.481000000000000000e+03,3.981629733874115784e-01,0.000000000000000000e+00
1.482000000000000000e+03,3.475347257093936992e-01,0.000000000000000000e+00
1.483000000000000000e+03,2.431798568996426102e-01,0.000000000000000000e+00
1.484000000000000000e+03,4.714127773028654045e-01,0.000000000000000000e+00
1.485000000000000000e+03,7.190572878237996290e-01,0.000000000000000000e+00
1.486000000000000000e+03,9.636228481956448100e-01,0.000000000000000000e+00
1.487000000000000000e+03,1.377907402624122479e+00,0.000000000000000000e+00
1.488000000000000000e+03,1.502636960052234238e+00,0.000000000000000000e+00
1.489000000000000000e+03,1.691453614335071576e+00,0.000000000000000000e+00
1.490000000000000000e+03,9.654448114310153484e-01,0.000000000000000000e+00
1.491000000000000000e+03,1.786057993484004847e-01,0.000000000000000000e+00
1.492000000000000000e+03,-7.787755439542509706e-01,0.000000000000000000e+00
1.493000000000000000e+03,-1.121893287425540287e+00,0.000000000000000000e+00
1.494000000000000000e+03,-1.248094573183543332e+00,0.000000000000000000e+00
1.495000000000000000e+03,-1.117351335208072172e+00,0.000000000000000000e+00
1.496000000000000000e+03,-1.386217101162890764e+00,0.000000000000000000e+00
1.497000000000000000e+03,-1.228560425391564737e+00,0.000000000000000000e+00
1.498000000000000000e+03,-9.273677563100836130e-01,0.000000000000000000e+00
1.499000000000000000e+03,-8.753240932496457738e-01,0.000000000000000000e+00
1.500000000000000000e+03,-9.402681104564756254e-01,0.000000000000000000e+00
1.501000000000000000e+03,-6.071446775290413322e-01,0.000000000000000000e+00
1.502000000000000000e+03,-7.189397707761933098e-01,0.000000000000000000e+00
1.503000000000000000e+03,-2.551730579964660017e-01,0.000000000000000000e+00
1.504000000000000000e+03,-7.202148314642298210e-01,0.000000000000000000e+00
1.505000000000000000e+03,-2.407828741577741627e-01,0.000000000000000000e+00
1.506000000000000000e+03,-3.785293002458283707e-01,0.000000000000000000e+00
1.507000000000000000e+03,-4.032598596611784436e-01,0.000000000000000000e+00
1.508000000000000000e+03,-5.195771899636802277e-02,0.000000000000000000e+00
1.509000000000000000e+03,-1.320623871327227528e-01,0.000000000000000000e+00
1.510000000000000000e+03,-2.428159920602689092e-01,0.000000000000000000e+00
1.511000000000000000e+03,-1.482892637542100045e-01,0.000000000000000000e+00
1.512000000000000000e+03,-1.324807374376497371e-01,0.000000000000000000e+00
1.513000000000000000e+03,1.812664809565948665e-01,0.000000000000000000e+00
1.514000000000000000e+03,-1.209652715320832517e-01,0.000000000000000000e+00
1.515000000000000000e+03,1.708931407136115022e-01,0.000000000000000000e+00
1.516000000000000000e+03,3.825974917477144993e-02,0.000000000000000000e+00
1.517000000000000000e+03,3.990645858116606548e-01,0.000000000000000000e+00
1.518000000000000000e+03,-5.956958078154465236e-02,0.000000000000000000e+00
1.519000000000000000e+03,4.746292006718609846e-01,0.000000000000000000e+00
1.520000000000000000e+03,2.523574138815489754e-01,0.000000000000000000e+00
1.521000000000000000e+03,7.823382195766236391e-01,0.000000000000000000e+00
1.522000000000000000e+03,5.957169864704435769e-01,0.000000000000000000e+00
1.523000000000000000e+03,5.485819809992550367e-01,0.000000000000000000e+00
1.524000000000000000e+03,4.240775986108169526e-01,0.000000000000000000e+00
1.525000000000000000e+03,5.375190592858383742e-02,0.000000000000000000e+00
1.526000000000000000e+03,-7.075049977405951929e-02,0.000000000000000000e+00
1.527000000000000000e+03,1.124564798342185673e-01,0.000000000000000000e+00
1.528000000000000000e+03,-2.040466028148087418e-01,0.000000000000000000e+00
1.529000000000000000e+03,8.951085512596396176e-02,0.000000000000000000e+00
1.530000000000000000e+03,-2.583504545366020408e-02,0.000000000000000000e+00
1.531000000000000000e+03,9.307223951784994453e-03,0.000000000000000000e+00
1.532000000000000000e+03,-2.810367443396470377e-01,0.000000000000000000e+00
1.533000000000000000e+03,4.809395725205950711e+00,0.000000000000000000e+00
1.534000000000000000e+03,8.535975815083757245e-01,1.000000000000000000e+00
1.535000000000000000e+03,-2.564957069507869836e+00,0.000000000000000000e+00
1.536000000000000000e+03,-2.649364063061079855e-01,0.000000000000000000e+00
1.537000000000000000e+03,-4.176927767589310725e-01,0.000000000000000000e+00
1.538000000000000000e+03,3.829991635076393508e-01,0.000000000000000000e+00
1.539000000000000000e+03,-1.444006092843875821e-01,0.000000000000000000e+00
1.540000000000000000e+03,1.667440244519571291e-01,0.000000000000000000e+00
1.541000000000000000e+03,3.846918914473768658e-01,0.000000000000000000e+00
1.542000000000000000e+03,-7.113847281005310219e-02,0.000000000000000000e+00
1.543000000000000000e+03,5.505984924774119937e-01,0.000000000000000000e+00
1.544000000000000000e+03,3.869044960324252019e-02,0.000000000000000000e+00
1.545000000000000000e+03,5.181242824319957085e-01,0.000000000000000000e+00
1.546000000000000000e+03,6.658322915431849065e-01,0.000000000000000000e+00
1.547000000000000000e+03,3.602782837670021610e-01,0.000000000000000000e+00
1.548000000000000000e+03,1.480522487660806075e+00,0.000000000000000000e+00
1.549000000000000000e+03,1.432349702791012369e+00,0.000000000000000000e+00
1.550000000000000000e+03,1.422963035060479386e+00,0.000000000000000000e+00
1.551000000000000000e+03,1.669168501117148429e+00,0.000000000000000000e+00
1.552000000000000000e+03,2.987258617355324497e-01,0.000000000000000000e+00
1.553000000000000000e+03,-4.174646868223643725e-01,0.000000000000000000e+00
1.554000000000000000e+03,-7.185356417122457096e-01,0.000000000000000000e+00
1.555000000000000000e+03,-1.533128801814105602e+00,0.000000000000000000e+00
1.556000000000000000e+03,-1.186304938300016598e+00,0.000000000000000000e+00
1.557000000000000000e+03,-1.470277921648574182e+00,0.000000000000000000e+00
1.558000000000000000e+03,-1.130498690698101383e+00,0.000000000000000000e+00
1.559000000000000000e+03,-1.141990846103863699e+00,0.000000000000000000e+00
1.560000000000000000e+03,-1.167188958446235603e+00,0.000000000000000000e+00
1.561000000000000000e+03,-8.176686555961872882e-01,0.000000000000000000e+00
1.562000000000000000e+03,-1.076191081677029038e+00,0.000000000000000000e+00
1.563000000000000000e+03,-6.194435523776956609e-01,0.000000000000000000e+00
1.564000000000000000e+03,-7.091287762367236569e-01,0.000000000000000000e+00
1.565000000000000000e+03,-6.164985400857384557e-01,0.000000000000000000e+00
1.566000000000000000e+03,-4.753679568461928184e-01,0.000000000000000000e+00
1.567000000000000000e+03,-2.811736410240792128e-01,0.000000000000000000e+00
1.568000000000000000e+03,-4.400775217008944251e-01,0.000000000000000000e+00
1.569000000000000000e+03,-3.894230841734329651e-01,0.000000000000000000e+00
1.570000000000000000e+03,-2.523568381518672132e-01,0.000000000000000000e+00
1.571000000000000000e+03,-1.178083562921540539e-01,0.000000000000000000e+00
1.572000000000000000e+03,-3.020799167561700194e-01,0.000000000000000000e+00
1.573000000000000000e+03,-9.756877106702982472e-02,0.000000000000000000e+00
1.574000000000000000e+03,-2.149285779222971648e-01,0.000000000000000000e+00
1.575000000000000000e+03,6.513029176494244954e-02,0.000000000000000000e+00
1.576000000000000000e+03,3.962018073614563540e-02,0.000000000000000000e+00
1.577000000000000000e+03,1.065994928989894286e-01,0.000000000000000000e+00
1.578000000000000000e+03,-1.127767147949960275e-01,0.000000000000000000e+00
1.579000000000000000e+03,2.142665047521418731e-01,0.000000000000000000e+00
1.580000000000000000e+03,-3.479439337271201388e-02,0.000000000000000000e+00
1.581000000000000000e+03,3.734555207706035662e-01,0.000000000000000000e+00
1.582000000000000000e+03,4.764667267669457917e-01,0.000000000000000000e+00
1.583000000000000000e+03,7.189086924603260709e-01,0.000000000000000000e+00
1.584000000000000000e+03,4.016140487766904910e-01,0.000000000000000000e+00
1.585000000000000000e+03,4.803281354276971449e-01,0.000000000000000000e+00
1.586000000000000000e+03,3.295273814849087879e-01,0.000000000000000000e+00
1.587000000000000000e+03,-7.186640804692694118e-02,0.000000000000000000e+00
