timestamp,ecg_measurement,qrs_detected
0.000000000000000000e+00,6.130034815827412054e-01,0.000000000000000000e+00
1.000000000000000000e+00,8.534269293158351921e-01,0.000000000000000000e+00
2.000000000000000000e+00,1.233744525003966919e+00,0.000000000000000000e+00
3.000000000000000000e+00,1.557367517682496372e+00,0.000000000000000000e+00
4.000000000000000000e+00,1.807036995125790746e+00,0.000000000000000000e+00
5.000000000000000000e+00,1.426197288623243020e+00,0.000000000000000000e+00
6.000000000000000000e+00,5.839023226910393660e-01,0.000000000000000000e+00
7.000000000000000000e+00,-2.485335995529787123e-01,1.000000000000000000e+00
8.000000000000000000e+00,-8.968520177523410242e-01,0.000000000000000000e+00
9.000000000000000000e+00,-1.226020248020038172e+00,0.000000000000000000e+00
1.000000000000000000e+01,-1.295997457040080958e+00,0.000000000000000000e+00
1.100000000000000000e+01,-1.406815215270459385e+00,0.000000000000000000e+00
1.200000000000000000e+01,-1.201488199658554468e+00,0.000000000000000000e+00
1.300000000000000000e+01,-1.197210429798502895e+00,0.000000000000000000e+00
1.400000000000000000e+01,-1.144629751713031052e+00,0.000000000000000000e+00
1.500000000000000000e+01,-1.032693438823373722e+00,0.000000000000000000e+00
1.600000000000000000e+01,-7.144271923164110527e-01,0.000000000000000000e+00
1.700000000000000000e+01,-8.653384664023057171e-01,0.000000000000000000e+00
1.800000000000000000e+01,-6.384897189257454642e-01,0.000000000000000000e+00
1.900000000000000000e+01,-5.778548515995403090e-01,0.000000000000000000e+00
2.000000000000000000e+01,-3.760064335239022282e-01,0.000000000000000000e+00
2.100000000000000000e+01,-3.780102542672309496e-01,0.000000000000000000e+00
2.200000000000000000e+01,-3.617496686509835691e-01,0.000000000000000000e+00
2.300000000000000000e+01,-3.662145214284926453e-01,0.000000000000000000e+00
2.400000000000000000e+01,-2.430851578250467215e-01,0.000000000000000000e+00
2.500000000000000000e+01,-2.823815959741379222e-01,0.000000000000000000e+00
2.600000000000000000e+01,-6.989240027657145360e-02,0.000000000000000000e+00
2.700000000000000000e+01,-1.885278144174454551e-01,0.000000000000000000e+00
2.800000000000000000e+01,-3.885447262904738464e-02,0.000000000000000000e+00
2.900000000000000000e+01,-7.550721509430279900e-03,0.000000000000000000e+00
3.000000000000000000e+01,-1.079536085386102184e-01,0.000000000000000000e+00
3.100000000000000000e+01,-3.851212933099710471e-03,0.000000000000000000e+00
3.200000000000000000e+01,1.160337542092137741e-01,0.000000000000000000e+00
3.300000000000000000e+01,5.745725109145877196e-02,0.000000000000000000e+00
3.400000000000000000e+01,1.602804424420215257e-01,0.000000000000000000e+00
3.500000000000000000e+01,1.102151564137446166e-01,0.000000000000000000e+00
3.600000000000000000e+01,3.709496082529195049e-01,0.000000000000000000e+00
3.700000000000000000e+01,6.479113307602299976e-01,0.000000000000000000e+00
3.800000000000000000e+01,5.153702099730583797e-01,0.000000000000000000e+00
3.900000000000000000e+01,3.301896667307890332e-01,0.000000000000000000e+00
4.000000000000000000e+01,3.973543847890671499e-01,0.000000000000000000e+00
4.100000000000000000e+01,6.828959490845208646e-02,0.000000000000000000e+00
4.200000000000000000e+01,-2.030778026088932708e-01,0.000000000000000000e+00
4.300000000000000000e+01,-8.661545426612658749e-02,0.000000000000000000e+00
4.400000000000000000e+01,-1.882001863302086575e-01,0.000000000000000000e+00
4.500000000000000000e+01,2.004256979600438637e-01,0.000000000000000000e+00
4.600000000000000000e+01,-1.928536968385565487e-01,0.000000000000000000e+00
4.700000000000000000e+01,3.490528266988265349e-01,0.000000000000000000e+00
4.800000000000000000e+01,-7.978117235517180328e-01,0.000000000000000000e+00
4.900000000000000000e+01,3.288104875443441877e+00,0.000000000000000000e+00
5.000000000000000000e+01,3.128044656974379834e+00,0.000000000000000000e+00
5.100000000000000000e+01,-3.104156130603812791e+00,1.000000000000000000e+00
5.200000000000000000e+01,-8.003479763668358560e-01,0.000000000000000000e+00
5.300000000000000000e+01,-4.542153286806691614e-01,0.000000000000000000e+00
5.400000000000000000e+01,4.024749653966975815e-01,0.000000000000000000e+00
5.500000000000000000e+01,-2.533105287758116719e-03,0.000000000000000000e+00
5.600000000000000000e+01,7.117320546473344944e-02,0.000000000000000000e+00
5.700000000000000000e+01,1.039489906787426782e-01,0.000000000000000000e+00
5.800000000000000000e+01,2.184114846131986198e-01,0.000000000000000000e+00
5.900000000000000000e+01,1.687098780136611909e-01,0.000000000000000000e+00
6.000000000000000000e+01,3.955107678069880173e-01,0.000000000000000000e+00
6.100000000000000000e+01,2.210009249436688805e-01,0.000000000000000000e+00
6.200000000000000000e+01,5.718236985597133781e-01,0.000000000000000000e+00
6.300000000000000000e+01,5.771457154597195993e-01,0.000000000000000000e+00
6.400000000000000000e+01,1.166538649817303153e+00,0.000000000000000000e+00
6.500000000000000000e+01,1.225358552716727889e+00,0.000000000000000000e+00
6.600000000000000000e+01,1.908983868300500264e+00,0.000000000000000000e+00
6.700000000000000000e+01,1.260467002393411029e+00,0.000000000000000000e+00
6.800000000000000000e+01,1.146944966900605767e+00,0.000000000000000000e+00
6.900000000000000000e+01,6.489305951800085348e-02,0.000000000000000000e+00
7.000000000000000000e+01,-6.104649291757627827e-01,0.000000000000000000e+00
7.100000000000000000e+01,-1.160970742882541540e+00,0.000000000000000000e+00
7.200000000000000000e+01,-1.346027167895502918e+00,0.000000000000000000e+00
7.300000000000000000e+01,-1.382041919399862318e+00,0.000000000000000000e+00
7.400000000000000000e+01,-1.198545353805299918e+00,0.000000000000000000e+00
7.500000000000000000e+01,-1.279229773656569424e+00,0.000000000000000000e+00
7.600000000000000000e+01,-8.549777145190878835e-01,0.000000000000000000e+00
7.700000000000000000e+01,-1.088723970386199946e+00,0.000000000000000000e+00
7.800000000000000000e+01,-6.194278344458432617e-01,0.000000000000000000e+00
7.900000000000000000e+01,-9.357519237580391724e-01,0.000000000000000000e+00
8.000000000000000000e+01,-5.593439609737119733e-01,0.000000000000000000e+00
8.100000000000000000e+01,-5.407210650042265643e-01,0.000000000000000000e+00
8.200000000000000000e+01,-4.605632486917175528e-01,0.000000000000000000e+00
8.300000000000000000e+01,-1.716356202040698331e-01,0.000000000000000000e+00
8.400000000000000000e+01,-4.073522207487189073e-01,0.000000000000000000e+00
8.500000000000000000e+01,-3.598668078760625666e-01,0.000000000000000000e+00
8.600000000000000000e+01,-6.736262052079453055e-02,0.000000000000000000e+00
8.700000000000000000e+01,-3.700679836786490706e-01,0.000000000000000000e+00
8.800000000000000000e+01,7.239004662719533689e-02,0.000000000000000000e+00
8.900000000000000000e+01,-1.108222641540420605e-01,0.000000000000000000e+00
9.000000000000000000e+01,-8.755028882648889510e-02,0.000000000000000000e+00
9.100000000000000000e+01,6.912266985174337318e-03,0.000000000000000000e+00
9.200000000000000000e+01,1.167677209202717947e-01,0.000000000000000000e+00
9.300000000000000000e+01,3.746524341865218460e-02,0.000000000000000000e+00
9.400000000000000000e+01,2.262773048107650231e-01,0.000000000000000000e+00
9.500000000000000000e+01,-1.603437665582152505e-02,0.000000000000000000e+00
9.600000000000000000e+01,3.178701944684442227e-01,0.000000000000000000e+00
9.700000000000000000e+01,2.038049128900650264e-01,0.000000000000000000e+00
9.800000000000000000e+01,3.417502659652506547e-01,0.000000000000000000e+00
9.900000000000000000e+01,5.954128767212937268e-01,0.000000000000000000e+00
1.000000000000000000e+02,7.094619378986196656e-01,0.000000000000000000e+00
1.010000000000000000e+02,5.939675076973833789e-01,0.000000000000000000e+00
1.020000000000000000e+02,5.823457739066594252e-01,0.000000000000000000e+00
1.030000000000000000e+02,2.075322062198398099e-01,0.000000000000000000e+00
1.040000000000000000e+02,-3.664160080468353842e-02,0.000000000000000000e+00
1.050000000000000000e+02,-3.245731873938896839e-01,0.000000000000000000e+00
1.060000000000000000e+02,1.090528437536492923e-01,0.000000000000000000e+00
1.070000000000000000e+02,9.203216910406882001e-02,0.000000000000000000e+00
1.080000000000000000e+02,-1.380470817313026732e-01,0.000000000000000000e+00
1.090000000000000000e+02,1.721170537575090337e-02,0.000000000000000000e+00
1.100000000000000000e+02,-1.239922412184190845e-02,0.000000000000000000e+00
1.110000000000000000e+02,5.237283375726327073e-01,0.000000000000000000e+00
1.120000000000000000e+02,4.863179715096463518e+00,0.000000000000000000e+00
1.130000000000000000e+02,-1.021791200926190246e+00,1.000000000000000000e+00
1.140000000000000000e+02,-2.000287443538433685e+00,0.000000000000000000e+00
1.150000000000000000e+02,-4.170552362335637198e-01,0.000000000000000000e+00
1.160000000000000000e+02,-4.092610944604493234e-02,0.000000000000000000e+00
1.170000000000000000e+02,8.562209586889626967e-02,0.000000000000000000e+00
1.180000000000000000e+02,3.576376699002116466e-02,0.000000000000000000e+00
1.190000000000000000e+02,2.339041170881654419e-01,0.000000000000000000e+00
1.200000000000000000e+02,9.324204297705435129e-02,0.000000000000000000e+00
1.210000000000000000e+02,3.406098947642502428e-02,0.000000000000000000e+00
1.220000000000000000e+02,4.313389272285369502e-01,0.000000000000000000e+00
1.230000000000000000e+02,3.254948984336798468e-01,0.000000000000000000e+00
1.240000000000000000e+02,4.105129539087422619e-01,0.000000000000000000e+00
1.250000000000000000e+02,5.007637627953991366e-01,0.000000000000000000e+00
1.260000000000000000e+02,8.531391609228079487e-01,0.000000000000000000e+00
1.270000000000000000e+02,1.247230535118341699e+00,0.000000000000000000e+00
1.280000000000000000e+02,1.569458784097446546e+00,0.000000000000000000e+00
1.290000000000000000e+02,1.483402172067209257e+00,0.000000000000000000e+00
1.300000000000000000e+02,1.550541054271151520e+00,0.000000000000000000e+00
1.310000000000000000e+02,4.720493803985298942e-01,0.000000000000000000e+00
1.320000000000000000e+02,-4.620915823635745046e-01,0.000000000000000000e+00
1.330000000000000000e+02,-1.263146185602729066e+00,0.000000000000000000e+00
1.340000000000000000e+02,-1.300786668517965650e+00,0.000000000000000000e+00
1.350000000000000000e+02,-1.319102799657340341e+00,0.000000000000000000e+00
1.360000000000000000e+02,-1.275897631305867641e+00,0.000000000000000000e+00
1.370000000000000000e+02,-1.474722282058922529e+00,0.000000000000000000e+00
1.380000000000000000e+02,-1.184821313131220633e+00,0.000000000000000000e+00
1.390000000000000000e+02,-1.258262389558335359e+00,0.000000000000000000e+00
1.400000000000000000e+02,-8.640908740640012020e-01,0.000000000000000000e+00
1.410000000000000000e+02,-8.420365641110683086e-01,0.000000000000000000e+00
1.420000000000000000e+02,-7.213330662820708339e-01,0.000000000000000000e+00
1.430000000000000000e+02,-6.396003152637395051e-01,0.000000000000000000e+00
1.440000000000000000e+02,-6.615463593340115134e-01,0.000000000000000000e+00
1.450000000000000000e+02,-4.981243945133747020e-01,0.000000000000000000e+00
1.460000000000000000e+02,-2.129230303760745180e-01,0.000000000000000000e+00
1.470000000000000000e+02,-4.866562854711843356e-01,0.000000000000000000e+00
1.480000000000000000e+02,-2.459069151386154561e-01,0.000000000000000000e+00
1.490000000000000000e+02,-2.714695052450708523e-01,0.000000000000000000e+00
1.500000000000000000e+02,-2.240913028447143740e-01,0.000000000000000000e+00
1.510000000000000000e+02,-1.962162360187669763e-01,0.000000000000000000e+00
1.520000000000000000e+02,2.355402286821795671e-02,0.000000000000000000e+00
1.530000000000000000e+02,-2.684650844752203280e-01,0.000000000000000000e+00
1.540000000000000000e+02,3.914214151842123485e-02,0.000000000000000000e+00
1.550000000000000000e+02,5.561095532730762209e-02,0.000000000000000000e+00
1.560000000000000000e+02,1.296349885053297291e-01,0.000000000000000000e+00
1.570000000000000000e+02,1.668238444792220776e-01,0.000000000000000000e+00
1.580000000000000000e+02,1.369909570188481904e-02,0.000000000000000000e+00
1.590000000000000000e+02,1.265095196586059623e-01,0.000000000000000000e+00
1.600000000000000000e+02,3.238858649232597697e-01,0.000000000000000000e+00
1.610000000000000000e+02,3.808651503470684152e-01,0.000000000000000000e+00
1.620000000000000000e+02,6.739133905254409695e-01,0.000000000000000000e+00
1.630000000000000000e+02,7.079102309486909883e-01,0.000000000000000000e+00
1.640000000000000000e+02,5.207882545753906856e-01,0.000000000000000000e+00
1.650000000000000000e+02,3.411260849036287790e-01,0.000000000000000000e+00
1.660000000000000000e+02,1.842677659352051356e-01,0.000000000000000000e+00
1.670000000000000000e+02,-1.175171522486628539e-01,0.000000000000000000e+00
1.680000000000000000e+02,5.434428447906944348e-02,0.000000000000000000e+00
1.690000000000000000e+02,-2.160274398703690424e-01,0.000000000000000000e+00
1.700000000000000000e+02,2.535239548715771951e-01,0.000000000000000000e+00
1.710000000000000000e+02,-3.802865890447908459e-01,0.000000000000000000e+00
1.720000000000000000e+02,4.849310936969419839e-01,0.000000000000000000e+00
1.730000000000000000e+02,-5.990753997530491315e-01,0.000000000000000000e+00
1.740000000000000000e+02,2.317123545011677166e+00,0.000000000000000000e+00
1.750000000000000000e+02,4.716468432754170159e+00,0.000000000000000000e+00
1.760000000000000000e+02,-2.849065705119894876e+00,1.000000000000000000e+00
1.770000000000000000e+02,-1.456801517465928342e+00,0.000000000000000000e+00
1.780000000000000000e+02,-5.297321358232524036e-01,0.000000000000000000e+00
1.790000000000000000e+02,2.176108329802639574e-01,0.000000000000000000e+00
1.800000000000000000e+02,5.092752569767557830e-02,0.000000000000000000e+00
1.810000000000000000e+02,9.799882538869228443e-02,0.000000000000000000e+00
1.820000000000000000e+02,2.678006884675286359e-01,0.000000000000000000e+00
1.830000000000000000e+02,2.035809928335775842e-01,0.000000000000000000e+00
1.840000000000000000e+02,2.409065657922218884e-01,0.000000000000000000e+00
1.850000000000000000e+02,2.806565761892274580e-01,0.000000000000000000e+00
1.860000000000000000e+02,4.333516782169005155e-01,0.000000000000000000e+00
1.870000000000000000e+02,5.576510583760661000e-01,0.000000000000000000e+00
1.880000000000000000e+02,8.629783258224843490e-01,0.000000000000000000e+00
1.890000000000000000e+02,8.797449181318452993e-01,0.000000000000000000e+00
1.900000000000000000e+02,1.351781204557329641e+00,0.000000000000000000e+00
1.910000000000000000e+02,1.884930212553483253e+00,0.000000000000000000e+00
1.920000000000000000e+02,1.804396772807266736e+00,0.000000000000000000e+00
1.930000000000000000e+02,1.134650448123409872e+00,0.000000000000000000e+00
1.940000000000000000e+02,-4.042214324736841807e-02,0.000000000000000000e+00
1.950000000000000000e+02,-6.462980232597879127e-01,0.000000000000000000e+00
1.960000000000000000e+02,-1.151130244566975325e+00,0.000000000000000000e+00
1.970000000000000000e+02,-1.511605387728992334e+00,0.000000000000000000e+00
1.980000000000000000e+02,-1.321038025288914008e+00,0.000000000000000000e+00
1.990000000000000000e+02,-1.597687336072191933e+00,0.000000000000000000e+00
2.000000000000000000e+02,-1.216670482634720774e+00,0.000000000000000000e+00
2.010000000000000000e+02,-1.353523843645572544e+00,0.000000000000000000e+00
2.020000000000000000e+02,-1.014473158465546421e+00,0.000000000000000000e+00
2.030000000000000000e+02,-9.688132344608832991e-01,0.000000000000000000e+00
2.040000000000000000e+02,-7.471995956002961403e-01,0.000000000000000000e+00
2.050000000000000000e+02,-7.932946522386126187e-01,0.000000000000000000e+00
2.060000000000000000e+02,-5.392034628159946275e-01,0.000000000000000000e+00
2.070000000000000000e+02,-5.826651192159353343e-01,0.000000000000000000e+00
2.080000000000000000e+02,-3.485882386586807158e-01,0.000000000000000000e+00
2.090000000000000000e+02,-3.295056207612507282e-01,0.000000000000000000e+00
2.100000000000000000e+02,-4.028375480163201572e-01,0.000000000000000000e+00
2.110000000000000000e+02,-2.491774824280211242e-01,0.000000000000000000e+00
2.120000000000000000e+02,-2.198192841733412617e-01,0.000000000000000000e+00
2.130000000000000000e+02,-2.750909971511030228e-01,0.000000000000000000e+00
2.140000000000000000e+02,4.352606067348299690e-02,0.000000000000000000e+00
2.150000000000000000e+02,-1.425529843059793744e-01,0.000000000000000000e+00
2.160000000000000000e+02,1.142039142174479244e-01,0.000000000000000000e+00
2.170000000000000000e+02,-1.335896030609013416e-03,0.000000000000000000e+00
2.180000000000000000e+02,1.850581537547552058e-02,0.000000000000000000e+00
2.190000000000000000e+02,4.568234243736942618e-02,0.000000000000000000e+00
2.200000000000000000e+02,2.441705002705120142e-01,0.000000000000000000e+00
2.210000000000000000e+02,2.842722487223786065e-01,0.000000000000000000e+00
2.220000000000000000e+02,5.261318167831360304e-01,0.000000000000000000e+00
2.230000000000000000e+02,3.967602399365716126e-01,0.000000000000000000e+00
2.240000000000000000e+02,8.340335813278179078e-01,0.000000000000000000e+00
2.250000000000000000e+02,4.545572008305939771e-01,0.000000000000000000e+00
2.260000000000000000e+02,4.994086443958062893e-01,0.000000000000000000e+00
2.270000000000000000e+02,3.408592221374722175e-01,0.000000000000000000e+00
2.280000000000000000e+02,-1.090535407448944318e-02,0.000000000000000000e+00
2.290000000000000000e+02,-7.143159359259761143e-02,0.000000000000000000e+00
2.300000000000000000e+02,5.692270061787200325e-02,0.000000000000000000e+00
2.310000000000000000e+02,-2.219169969756391164e-02,0.000000000000000000e+00
2.320000000000000000e+02,2.544024262510725110e-01,0.000000000000000000e+00
2.330000000000000000e+02,-6.601526292214907055e-02,0.000000000000000000e+00
2.340000000000000000e+02,-1.064526687215075137e-02,0.000000000000000000e+00
2.350000000000000000e+02,9.487182732128490725e-01,0.000000000000000000e+00
2.360000000000000000e+02,4.964472442656806983e+00,0.000000000000000000e+00
2.370000000000000000e+02,-1.468858421828979299e+00,1.000000000000000000e+00
2.380000000000000000e+02,-2.464837934150795995e+00,0.000000000000000000e+00
2.390000000000000000e+02,-2.309172240212710170e-01,0.000000000000000000e+00
2.400000000000000000e+02,-1.087446787936803549e-01,0.000000000000000000e+00
2.410000000000000000e+02,3.020025124555055229e-01,0.000000000000000000e+00
2.420000000000000000e+02,1.390768315618335915e-01,0.000000000000000000e+00
2.430000000000000000e+02,4.359544801937448866e-01,0.000000000000000000e+00
2.440000000000000000e+02,3.921975911910464685e-01,0.000000000000000000e+00
2.450000000000000000e+02,4.368690354508886209e-02,0.000000000000000000e+00
2.460000000000000000e+02,4.634491385516809059e-01,0.000000000000000000e+00
2.470000000000000000e+02,3.719477578789048833e-01,0.000000000000000000e+00
2.480000000000000000e+02,6.695367140679141515e-01,0.000000000000000000e+00
2.490000000000000000e+02,7.859545726395762433e-01,0.000000000000000000e+00
2.500000000000000000e+02,7.745377344739328151e-01,0.000000000000000000e+00
2.510000000000000000e+02,1.439008505921879566e+00,0.000000000000000000e+00
2.520000000000000000e+02,1.614485379063759440e+00,0.000000000000000000e+00
2.530000000000000000e+02,1.596656082411104238e+00,0.000000000000000000e+00
2.540000000000000000e+02,1.462808288338933727e+00,0.000000000000000000e+00
2.550000000000000000e+02,3.220991579321287324e-01,0.000000000000000000e+00
2.560000000000000000e+02,-5.365667625417162023e-01,0.000000000000000000e+00
2.570000000000000000e+02,-1.267712650412113673e+00,0.000000000000000000e+00
2.580000000000000000e+02,-1.458464940059841064e+00,0.000000000000000000e+00
2.590000000000000000e+02,-1.588754647112174734e+00,0.000000000000000000e+00
2.600000000000000000e+02,-1.433950255974944854e+00,0.000000000000000000e+00
2.610000000000000000e+02,-1.330130514105197781e+00,0.000000000000000000e+00
2.620000000000000000e+02,-1.470610135835084264e+00,0.000000000000000000e+00
2.630000000000000000e+02,-1.027218419852209852e+00,0.000000000000000000e+00
2.640000000000000000e+02,-9.667967319233402579e-01,0.000000000000000000e+00
2.650000000000000000e+02,-9.782582276541840205e-01,0.000000000000000000e+00
2.660000000000000000e+02,-5.303213379140063743e-01,0.000000000000000000e+00
2.670000000000000000e+02,-7.214869599782239851e-01,0.000000000000000000e+00
2.680000000000000000e+02,-4.860906151376447326e-01,0.000000000000000000e+00
2.690000000000000000e+02,-4.802466318376937271e-01,0.000000000000000000e+00
2.700000000000000000e+02,-4.906052052377210537e-01,0.000000000000000000e+00
2.710000000000000000e+02,-4.397223314969679886e-01,0.000000000000000000e+00
2.720000000000000000e+02,-2.812823279157596890e-01,0.000000000000000000e+00
2.730000000000000000e+02,-4.064047166910469411e-01,0.000000000000000000e+00
2.740000000000000000e+02,-1.781206537423097036e-01,0.000000000000000000e+00
2.750000000000000000e+02,-1.802881015357841732e-01,0.000000000000000000e+00
2.760000000000000000e+02,-1.386392326965728838e-01,0.000000000000000000e+00
2.770000000000000000e+02,-6.991938068749670165e-02,0.000000000000000000e+00
2.780000000000000000e+02,4.679944274064740117e-02,0.000000000000000000e+00
2.790000000000000000e+02,-1.927288689678698375e-01,0.000000000000000000e+00
2.800000000000000000e+02,2.335183575287280433e-01,0.000000000000000000e+00
2.810000000000000000e+02,6.406238516184221965e-02,0.000000000000000000e+00
2.820000000000000000e+02,8.544497183850838229e-02,0.000000000000000000e+00
2.830000000000000000e+02,4.006274287723144978e-01,0.000000000000000000e+00
2.840000000000000000e+02,4.421490365205569262e-01,0.000000000000000000e+00
2.850000000000000000e+02,6.956495392188351001e-01,0.000000000000000000e+00
2.860000000000000000e+02,6.684051043599843478e-01,0.000000000000000000e+00
2.870000000000000000e+02,3.569902752848130301e-01,0.000000000000000000e+00
2.880000000000000000e+02,2.042941862652682683e-01,0.000000000000000000e+00
2.890000000000000000e+02,-1.262605004483185675e-02,0.000000000000000000e+00
2.900000000000000000e+02,-1.564312152344647378e-01,0.000000000000000000e+00
2.910000000000000000e+02,1.351731755614951347e-01,0.000000000000000000e+00
2.920000000000000000e+02,-2.775582041962537660e-02,0.000000000000000000e+00
2.930000000000000000e+02,6.744369116365640793e-02,0.000000000000000000e+00
2.940000000000000000e+02,-7.288142007705437908e-02,0.000000000000000000e+00
2.950000000000000000e+02,1.429831999643591325e-02,0.000000000000000000e+00
2.960000000000000000e+02,7.277486468166302069e-01,0.000000000000000000e+00
2.970000000000000000e+02,4.877516413228216052e+00,0.000000000000000000e+00
2.980000000000000000e+02,-1.456855287184229075e+00,1.000000000000000000e+00
2.990000000000000000e+02,-2.013057054750516439e+00,0.000000000000000000e+00
3.000000000000000000e+02,-3.957840766137498689e-01,0.000000000000000000e+00
3.010000000000000000e+02,-6.564567017468685151e-02,0.000000000000000000e+00
3.020000000000000000e+02,3.150253946293506413e-01,0.000000000000000000e+00
3.030000000000000000e+02,1.923062757117424693e-01,0.000000000000000000e+00
3.040000000000000000e+02,1.687368767407862458e-01,0.000000000000000000e+00
3.050000000000000000e+02,3.407310559963905305e-01,0.000000000000000000e+00
3.060000000000000000e+02,2.559481736073708213e-01,0.000000000000000000e+00
3.070000000000000000e+02,5.612445737189289963e-01,0.000000000000000000e+00
3.080000000000000000e+02,2.811992532042323356e-01,0.000000000000000000e+00
3.090000000000000000e+02,5.034481811397250040e-01,0.000000000000000000e+00
3.100000000000000000e+02,7.447956800281295697e-01,0.000000000000000000e+00
3.110000000000000000e+02,8.827955103410159987e-01,0.000000000000000000e+00
3.120000000000000000e+02,1.615769981829920710e+00,0.000000000000000000e+00
3.130000000000000000e+02,1.615568896602227911e+00,0.000000000000000000e+00
3.140000000000000000e+02,1.794705130264778958e+00,0.000000000000000000e+00
3.150000000000000000e+02,1.476920699040050078e+00,0.000000000000000000e+00
3.160000000000000000e+02,4.959764404247212766e-01,0.000000000000000000e+00
3.170000000000000000e+02,-4.326624720393796308e-01,0.000000000000000000e+00
3.180000000000000000e+02,-9.005185595759619410e-01,0.000000000000000000e+00
3.190000000000000000e+02,-1.273237531556439484e+00,0.000000000000000000e+00
3.200000000000000000e+02,-1.168836832003993909e+00,0.000000000000000000e+00
3.210000000000000000e+02,-1.328221802185600486e+00,0.000000000000000000e+00
3.220000000000000000e+02,-1.106829578850025309e+00,0.000000000000000000e+00
3.230000000000000000e+02,-1.267080908033683784e+00,0.000000000000000000e+00
3.240000000000000000e+02,-9.667534239510301441e-01,0.000000000000000000e+00
3.250000000000000000e+02,-8.111944384981992773e-01,0.000000000000000000e+00
3.260000000000000000e+02,-1.015857915617308427e+00,0.000000000000000000e+00
3.270000000000000000e+02,-2.744672113903159349e-01,0.000000000000000000e+00
3.280000000000000000e+02,-9.538425187445029874e-01,0.000000000000000000e+00
3.290000000000000000e+02,-1.541235778588210537e-01,0.000000000000000000e+00
3.300000000000000000e+02,-7.424724520579564224e-01,0.000000000000000000e+00
3.310000000000000000e+02,-2.058236376239603316e-01,0.000000000000000000e+00
3.320000000000000000e+02,-3.747443047354738210e-01,0.000000000000000000e+00
3.330000000000000000e+02,-5.905813763965631069e-02,0.000000000000000000e+00
3.340000000000000000e+02,-3.755850947231049730e-01,0.000000000000000000e+00
3.350000000000000000e+02,-6.135725568579925016e-02,0.000000000000000000e+00
3.360000000000000000e+02,-1.497258506192475913e-01,0.000000000000000000e+00
3.370000000000000000e+02,-1.447093571202986151e-01,0.000000000000000000e+00
3.380000000000000000e+02,3.845921556058493757e-02,0.000000000000000000e+00
3.390000000000000000e+02,-1.322115490548609607e-01,0.000000000000000000e+00
3.400000000000000000e+02,3.369526092931730554e-01,0.000000000000000000e+00
3.410000000000000000e+02,-1.643010427325319600e-01,0.000000000000000000e+00
3.420000000000000000e+02,2.770530221824827333e-01,0.000000000000000000e+00
3.430000000000000000e+02,-6.765189539245017314e-02,0.000000000000000000e+00
3.440000000000000000e+02,2.667741448669287974e-01,0.000000000000000000e+00
3.450000000000000000e+02,1.755770447293098779e-01,0.000000000000000000e+00
3.460000000000000000e+02,6.186078445997951203e-01,0.000000000000000000e+00
3.470000000000000000e+02,6.681087836891177467e-01,0.000000000000000000e+00
3.480000000000000000e+02,4.945160647362323858e-01,0.000000000000000000e+00
3.490000000000000000e+02,2.713615634640379470e-01,0.000000000000000000e+00
3.500000000000000000e+02,1.370366951353950702e-01,0.000000000000000000e+00
3.510000000000000000e+02,-2.614642195144057379e-01,0.000000000000000000e+00
3.520000000000000000e+02,8.638627987339426995e-02,0.000000000000000000e+00
3.530000000000000000e+02,-4.005901446693002077e-01,0.000000000000000000e+00
3.540000000000000000e+02,2.497057553642429706e-01,0.000000000000000000e+00
3.550000000000000000e+02,-3.909316428614830197e-01,0.000000000000000000e+00
3.560000000000000000e+02,3.834050240323030878e-01,0.000000000000000000e+00
3.570000000000000000e+02,-6.004629601455644394e-01,0.000000000000000000e+00
3.580000000000000000e+02,2.714346007511429182e+00,0.000000000000000000e+00
3.590000000000000000e+02,3.512299550829320438e+00,0.000000000000000000e+00
3.600000000000000000e+02,-2.876652585128260053e+00,1.000000000000000000e+00
3.610000000000000000e+02,-9.880190683697340770e-01,0.000000000000000000e+00
3.620000000000000000e+02,-2.988366136298630793e-01,0.000000000000000000e+00
3.630000000000000000e+02,-8.353103811424457403e-02,0.000000000000000000e+00
3.640000000000000000e+02,2.436714154013794320e-01,0.000000000000000000e+00
3.650000000000000000e+02,1.654899979651041353e-01,0.000000000000000000e+00
3.660000000000000000e+02,1.723938645404497760e-01,0.000000000000000000e+00
3.670000000000000000e+02,3.336206404004802839e-01,0.000000000000000000e+00
3.680000000000000000e+02,-1.066808759626086400e-01,0.000000000000000000e+00
3.690000000000000000e+02,5.727663020259894378e-01,0.000000000000000000e+00
3.700000000000000000e+02,1.569720291992510730e-01,0.000000000000000000e+00
3.710000000000000000e+02,5.723718173707097456e-01,0.000000000000000000e+00
3.720000000000000000e+02,5.266308595991291419e-01,0.000000000000000000e+00
3.730000000000000000e+02,1.120431725841703807e+00,0.000000000000000000e+00
3.740000000000000000e+02,1.301317233185096622e+00,0.000000000000000000e+00
3.750000000000000000e+02,1.525146839793317444e+00,0.000000000000000000e+00
3.760000000000000000e+02,1.642338909796788649e+00,0.000000000000000000e+00
3.770000000000000000e+02,1.018757024985303294e+00,0.000000000000000000e+00
3.780000000000000000e+02,6.557327302702272267e-04,0.000000000000000000e+00
3.790000000000000000e+02,-6.468515365526610328e-01,0.000000000000000000e+00
3.800000000000000000e+02,-1.330739161177945107e+00,0.000000000000000000e+00
3.810000000000000000e+02,-1.255849750912048757e+00,0.000000000000000000e+00
3.820000000000000000e+02,-1.566196580562566831e+00,0.000000000000000000e+00
3.830000000000000000e+02,-1.345063825635383292e+00,0.000000000000000000e+00
3.840000000000000000e+02,-1.193675606903926045e+00,0.000000000000000000e+00
3.850000000000000000e+02,-1.351395805006808226e+00,0.000000000000000000e+00
3.860000000000000000e+02,-8.899472755106000443e-01,0.000000000000000000e+00
3.870000000000000000e+02,-9.499889054931365262e-01,0.000000000000000000e+00
3.880000000000000000e+02,-8.703920439999731640e-01,0.000000000000000000e+00
3.890000000000000000e+02,-6.392893611108517726e-01,0.000000000000000000e+00
3.900000000000000000e+02,-6.481146560224879671e-01,0.000000000000000000e+00
3.910000000000000000e+02,-5.621657059506661724e-01,0.000000000000000000e+00
3.920000000000000000e+02,-4.643039742275477666e-01,0.000000000000000000e+00
3.930000000000000000e+02,-4.307697484058521376e-01,0.000000000000000000e+00
3.940000000000000000e+02,-2.223664670689582123e-01,0.000000000000000000e+00
3.950000000000000000e+02,-3.165968736110475468e-01,0.000000000000000000e+00
3.960000000000000000e+02,-2.953844067904125570e-01,0.000000000000000000e+00
3.970000000000000000e+02,-1.081993617206763042e-01,0.000000000000000000e+00
3.980000000000000000e+02,-3.769379295767044669e-01,0.000000000000000000e+00
3.990000000000000000e+02,9.832350192447877890e-02,0.000000000000000000e+00
4.000000000000000000e+02,-2.323812339562053575e-01,0.000000000000000000e+00
4.010000000000000000e+02,-2.916272508694793889e-02,0.000000000000000000e+00
4.020000000000000000e+02,2.602487623736125799e-02,0.000000000000000000e+00
4.030000000000000000e+02,3.712112463938345430e-02,0.000000000000000000e+00
4.040000000000000000e+02,4.285957407506310601e-02,0.000000000000000000e+00
4.050000000000000000e+02,1.761174406341313448e-02,0.000000000000000000e+00
4.060000000000000000e+02,3.804731100899264584e-01,0.000000000000000000e+00
4.070000000000000000e+02,-2.044679320494080521e-02,0.000000000000000000e+00
4.080000000000000000e+02,9.085110734956798328e-01,0.000000000000000000e+00
4.090000000000000000e+02,4.992638467837579030e-01,0.000000000000000000e+00
4.100000000000000000e+02,5.775193981017597844e-01,0.000000000000000000e+00
4.110000000000000000e+02,1.854002372702303614e-01,0.000000000000000000e+00
4.120000000000000000e+02,2.880163278787477299e-02,0.000000000000000000e+00
4.130000000000000000e+02,-3.306666376531790241e-02,0.000000000000000000e+00
4.140000000000000000e+02,-1.174306452873108975e-01,0.000000000000000000e+00
4.150000000000000000e+02,1.515285953309894462e-02,0.000000000000000000e+00
4.160000000000000000e+02,-2.023636488690416443e-02,0.000000000000000000e+00
4.170000000000000000e+02,-4.321727852864980235e-02,0.000000000000000000e+00
4.180000000000000000e+02,3.075190434345699275e-01,0.000000000000000000e+00
4.190000000000000000e+02,-1.295216186393843005e-01,0.000000000000000000e+00
4.200000000000000000e+02,5.090462984093286458e+00,0.000000000000000000e+00
4.210000000000000000e+02,7.148410808197313004e-01,1.000000000000000000e+00
4.220000000000000000e+02,-3.226807100325997713e+00,0.000000000000000000e+00
4.230000000000000000e+02,-2.281727537444404874e-01,0.000000000000000000e+00
4.240000000000000000e+02,-3.036502947957070431e-01,0.000000000000000000e+00
4.250000000000000000e+02,4.373667525481780283e-01,0.000000000000000000e+00
4.260000000000000000e+02,-1.677391275023792094e-01,0.000000000000000000e+00
4.270000000000000000e+02,4.399087202327549573e-01,0.000000000000000000e+00
4.280000000000000000e+02,2.661078852290663654e-01,0.000000000000000000e+00
4.290000000000000000e+02,2.905798379528966580e-01,0.000000000000000000e+00
4.300000000000000000e+02,1.710266244328596530e-01,0.000000000000000000e+00
4.310000000000000000e+02,4.999728644798926980e-01,0.000000000000000000e+00
4.320000000000000000e+02,3.846532324451371609e-01,0.000000000000000000e+00
4.330000000000000000e+02,8.816311875763728212e-01,0.000000000000000000e+00
4.340000000000000000e+02,7.328819416675594889e-01,0.000000000000000000e+00
4.350000000000000000e+02,1.407223217428718032e+00,0.000000000000000000e+00
4.360000000000000000e+02,1.576818100279125279e+00,0.000000000000000000e+00
4.370000000000000000e+02,1.821340473777188773e+00,0.000000000000000000e+00
4.380000000000000000e+02,1.728690245443494256e+00,0.000000000000000000e+00
4.390000000000000000e+02,6.587888752585966401e-01,0.000000000000000000e+00
4.400000000000000000e+02,-2.564263530554561354e-01,0.000000000000000000e+00
4.410000000000000000e+02,-1.030720962829654086e+00,0.000000000000000000e+00
4.420000000000000000e+02,-1.122590980395318905e+00,0.000000000000000000e+00
4.430000000000000000e+02,-1.324871346031093244e+00,0.000000000000000000e+00
4.440000000000000000e+02,-1.610420608233346762e+00,0.000000000000000000e+00
4.450000000000000000e+02,-1.154102664678430257e+00,0.000000000000000000e+00
4.460000000000000000e+02,-1.252346566162860109e+00,0.000000000000000000e+00
4.470000000000000000e+02,-1.108297079582688527e+00,0.000000000000000000e+00
4.480000000000000000e+02,-9.567498244147141229e-01,0.000000000000000000e+00
4.490000000000000000e+02,-7.953505814602566115e-01,0.000000000000000000e+00
4.500000000000000000e+02,-7.283682639780721946e-01,0.000000000000000000e+00
4.510000000000000000e+02,-6.016584222514789193e-01,0.000000000000000000e+00
4.520000000000000000e+02,-5.334479681096625514e-01,0.000000000000000000e+00
4.530000000000000000e+02,-4.189081421460600363e-01,0.000000000000000000e+00
4.540000000000000000e+02,-3.077155046260093840e-01,0.000000000000000000e+00
4.550000000000000000e+02,-3.771436898892859824e-01,0.000000000000000000e+00
4.560000000000000000e+02,-2.191946690345482063e-01,0.000000000000000000e+00
4.570000000000000000e+02,-2.359369627851095885e-01,0.000000000000000000e+00
4.580000000000000000e+02,-1.397604176405049248e-01,0.000000000000000000e+00
4.590000000000000000e+02,-1.311924471415500115e-01,0.000000000000000000e+00
4.600000000000000000e+02,-1.582147072740906768e-01,0.000000000000000000e+00
4.610000000000000000e+02,2.641865577659169295e-02,0.000000000000000000e+00
4.620000000000000000e+02,-1.041687756556402139e-01,0.000000000000000000e+00
4.630000000000000000e+02,4.014846183555426107e-02,0.000000000000000000e+00
4.640000000000000000e+02,7.487112750391416993e-02,0.000000000000000000e+00
4.650000000000000000e+02,-4.805224199466343743e-02,0.000000000000000000e+00
4.660000000000000000e+02,2.913756027107787250e-01,0.000000000000000000e+00
4.670000000000000000e+02,4.236988799445430276e-01,0.000000000000000000e+00
4.680000000000000000e+02,5.370312165799876469e-01,0.000000000000000000e+00
4.690000000000000000e+02,6.222605482228455998e-01,0.000000000000000000e+00
4.700000000000000000e+02,5.621346612406179499e-01,0.000000000000000000e+00
4.710000000000000000e+02,2.540464647020480582e-01,0.000000000000000000e+00
4.720000000000000000e+02,2.588031718288107963e-01,0.000000000000000000e+00
4.730000000000000000e+02,-1.606188169662438048e-01,0.000000000000000000e+00
4.740000000000000000e+02,-4.769883790916844973e-02,0.000000000000000000e+00
4.750000000000000000e+02,-2.878063084686192236e-02,0.000000000000000000e+00
4.760000000000000000e+02,1.768682093155729829e-01,0.000000000000000000e+00
4.770000000000000000e+02,1.150672304885218267e-02,0.000000000000000000e+00
4.780000000000000000e+02,2.478050745814987799e-01,0.000000000000000000e+00
4.790000000000000000e+02,-4.726060647388067859e-01,0.000000000000000000e+00
4.800000000000000000e+02,3.171436233454351772e+00,0.000000000000000000e+00
4.810000000000000000e+02,3.385026382531667988e+00,0.000000000000000000e+00
4.820000000000000000e+02,-3.113434701751797817e+00,1.000000000000000000e+00
4.830000000000000000e+02,-1.093349126136741178e+00,0.000000000000000000e+00
4.840000000000000000e+02,-5.219008962720927958e-01,0.000000000000000000e+00
4.850000000000000000e+02,3.371610478120450338e-01,0.000000000000000000e+00
4.860000000000000000e+02,3.113440346588596808e-01,0.000000000000000000e+00
4.870000000000000000e+02,2.991869864056158623e-01,0.000000000000000000e+00
4.880000000000000000e+02,2.298749889697627169e-01,0.000000000000000000e+00
4.890000000000000000e+02,4.440791544701100935e-01,0.000000000000000000e+00
4.900000000000000000e+02,2.128129638645287758e-01,0.000000000000000000e+00
4.910000000000000000e+02,5.122824180456532206e-01,0.000000000000000000e+00
4.920000000000000000e+02,4.341350659928058242e-01,0.000000000000000000e+00
4.930000000000000000e+02,5.705049090878014928e-01,0.000000000000000000e+00
4.940000000000000000e+02,7.728550516678355242e-01,0.000000000000000000e+00
4.950000000000000000e+02,1.304109370633246057e+00,0.000000000000000000e+00
4.960000000000000000e+02,1.471696513646392424e+00,0.000000000000000000e+00
4.970000000000000000e+02,1.603138256279000862e+00,0.000000000000000000e+00
4.980000000000000000e+02,1.603270778318424350e+00,0.000000000000000000e+00
4.990000000000000000e+02,1.182399539197788840e+00,0.000000000000000000e+00
5.000000000000000000e+02,-1.322075984031251816e-01,0.000000000000000000e+00
5.010000000000000000e+02,-7.232096854830865063e-01,0.000000000000000000e+00
5.020000000000000000e+02,-1.454200628764791281e+00,0.000000000000000000e+00
5.030000000000000000e+02,-1.491804546296086720e+00,0.000000000000000000e+00
5.040000000000000000e+02,-1.631244769459125887e+00,0.000000000000000000e+00
5.050000000000000000e+02,-1.298821076688710496e+00,0.000000000000000000e+00
5.060000000000000000e+02,-1.331064220933555697e+00,0.000000000000000000e+00
5.070000000000000000e+02,-1.197467904750118661e+00,0.000000000000000000e+00
5.080000000000000000e+02,-1.126242207105397242e+00,0.000000000000000000e+00
5.090000000000000000e+02,-9.171886570834478780e-01,0.000000000000000000e+00
5.100000000000000000e+02,-8.206284666890819590e-01,0.000000000000000000e+00
5.110000000000000000e+02,-5.916537257330803934e-01,0.000000000000000000e+00
5.120000000000000000e+02,-6.312536765117671145e-01,0.000000000000000000e+00
5.130000000000000000e+02,-3.939755922417383927e-01,0.000000000000000000e+00
5.140000000000000000e+02,-6.089575882807751750e-01,0.000000000000000000e+00
5.150000000000000000e+02,-4.250963713822615841e-01,0.000000000000000000e+00
5.160000000000000000e+02,-2.953078724223315299e-01,0.000000000000000000e+00
5.170000000000000000e+02,-4.169006714425939064e-01,0.000000000000000000e+00
5.180000000000000000e+02,-2.282875553488074305e-01,0.000000000000000000e+00
5.190000000000000000e+02,-1.252793132308414048e-01,0.000000000000000000e+00
5.200000000000000000e+02,-1.063794982115931903e-01,0.000000000000000000e+00
5.210000000000000000e+02,-2.007192524436625658e-01,0.000000000000000000e+00
5.220000000000000000e+02,-1.352184247903573666e-01,0.000000000000000000e+00
5.230000000000000000e+02,1.042731593203429369e-01,0.000000000000000000e+00
5.240000000000000000e+02,-1.822578938020060282e-02,0.000000000000000000e+00
5.250000000000000000e+02,-1.873942535196825368e-02,0.000000000000000000e+00
5.260000000000000000e+02,2.417267261062584216e-01,0.000000000000000000e+00
5.270000000000000000e+02,2.508783503499944501e-01,0.000000000000000000e+00
5.280000000000000000e+02,2.382760223340371353e-01,0.000000000000000000e+00
5.290000000000000000e+02,7.840526352451998582e-01,0.000000000000000000e+00
5.300000000000000000e+02,5.189088588235111210e-01,0.000000000000000000e+00
5.310000000000000000e+02,4.809285276469161818e-01,0.000000000000000000e+00
5.320000000000000000e+02,2.706770163947359586e-01,0.000000000000000000e+00
5.330000000000000000e+02,3.057860378667626722e-01,0.000000000000000000e+00
5.340000000000000000e+02,-5.511676352094114772e-01,0.000000000000000000e+00
5.350000000000000000e+02,1.323501487038150348e-01,0.000000000000000000e+00
5.360000000000000000e+02,-4.097562949489290396e-02,0.000000000000000000e+00
5.370000000000000000e+02,2.630052404336556404e-01,0.000000000000000000e+00
5.380000000000000000e+02,-1.880295875751544221e-01,0.000000000000000000e+00
5.390000000000000000e+02,2.359695677974188166e-01,0.000000000000000000e+00
5.400000000000000000e+02,-5.546507043523891678e-01,0.000000000000000000e+00
5.410000000000000000e+02,4.245081558037938407e+00,0.000000000000000000e+00
5.420000000000000000e+02,1.803869091848365747e+00,1.000000000000000000e+00
5.430000000000000000e+02,-2.940560089050277881e+00,0.000000000000000000e+00
5.440000000000000000e+02,-5.383560360983429272e-01,0.000000000000000000e+00
5.450000000000000000e+02,-3.643483114974238046e-01,0.000000000000000000e+00
5.460000000000000000e+02,3.515857018128373257e-01,0.000000000000000000e+00
5.470000000000000000e+02,5.220128991484616898e-02,0.000000000000000000e+00
5.480000000000000000e+02,5.203240377407297723e-01,0.000000000000000000e+00
5.490000000000000000e+02,1.859674525887870106e-02,0.000000000000000000e+00
5.500000000000000000e+02,5.056946240323875186e-01,0.000000000000000000e+00
5.510000000000000000e+02,2.169877085588536869e-01,0.000000000000000000e+00
5.520000000000000000e+02,5.267996144243225487e-01,0.000000000000000000e+00
5.530000000000000000e+02,1.776889842949865572e-01,0.000000000000000000e+00
5.540000000000000000e+02,7.078924652803941786e-01,0.000000000000000000e+00
5.550000000000000000e+02,9.363094201552193407e-01,0.000000000000000000e+00
5.560000000000000000e+02,9.579578362371066191e-01,0.000000000000000000e+00
5.570000000000000000e+02,1.570228567346120707e+00,0.000000000000000000e+00
5.580000000000000000e+02,1.702115654293531843e+00,0.000000000000000000e+00
5.590000000000000000e+02,1.737112313889821902e+00,0.000000000000000000e+00
5.600000000000000000e+02,6.447562589547284340e-01,0.000000000000000000e+00
5.610000000000000000e+02,-7.516521587252969483e-02,0.000000000000000000e+00
5.620000000000000000e+02,-9.129618369346339524e-01,0.000000000000000000e+00
5.630000000000000000e+02,-1.251652566869145389e+00,0.000000000000000000e+00
5.640000000000000000e+02,-1.140817783642018801e+00,0.000000000000000000e+00
5.650000000000000000e+02,-1.315032099000788213e+00,0.000000000000000000e+00
5.660000000000000000e+02,-1.383958132131799745e+00,0.000000000000000000e+00
5.670000000000000000e+02,-1.112978126928964695e+00,0.000000000000000000e+00
5.680000000000000000e+02,-1.136912024163219570e+00,0.000000000000000000e+00
5.690000000000000000e+02,-8.664354170898251883e-01,0.000000000000000000e+00
5.700000000000000000e+02,-8.532419526526348053e-01,0.000000000000000000e+00
5.710000000000000000e+02,-7.792463318773125147e-01,0.000000000000000000e+00
5.720000000000000000e+02,-6.162460294334577426e-01,0.000000000000000000e+00
5.730000000000000000e+02,-4.212922928210360296e-01,0.000000000000000000e+00
5.740000000000000000e+02,-6.219158500098415088e-01,0.000000000000000000e+00
5.750000000000000000e+02,-3.462151781480645174e-01,0.000000000000000000e+00
5.760000000000000000e+02,-4.827476089872481668e-01,0.000000000000000000e+00
5.770000000000000000e+02,-1.221651299545725433e-01,0.000000000000000000e+00
5.780000000000000000e+02,-3.435142754191734538e-01,0.000000000000000000e+00
5.790000000000000000e+02,-8.486176458845512416e-02,0.000000000000000000e+00
5.800000000000000000e+02,-2.567804563134936657e-01,0.000000000000000000e+00
5.810000000000000000e+02,8.253726743650954822e-02,0.000000000000000000e+00
5.820000000000000000e+02,-2.132299032888543278e-01,0.000000000000000000e+00
5.830000000000000000e+02,-4.163836107422168309e-02,0.000000000000000000e+00
5.840000000000000000e+02,7.232143908571497803e-02,0.000000000000000000e+00
5.850000000000000000e+02,-1.270527607630240474e-01,0.000000000000000000e+00
5.860000000000000000e+02,7.453143287622733537e-02,0.000000000000000000e+00
5.870000000000000000e+02,2.616417396544939988e-01,0.000000000000000000e+00
5.880000000000000000e+02,1.074883958355616898e-01,0.000000000000000000e+00
5.890000000000000000e+02,3.014777034768587050e-01,0.000000000000000000e+00
5.900000000000000000e+02,4.209789996277029656e-01,0.000000000000000000e+00
5.910000000000000000e+02,6.266863864604594880e-01,0.000000000000000000e+00
5.920000000000000000e+02,5.671547382811815696e-01,0.000000000000000000e+00
5.930000000000000000e+02,4.352205692095164058e-01,0.000000000000000000e+00
5.940000000000000000e+02,3.575990132325052584e-01,0.000000000000000000e+00
5.950000000000000000e+02,-5.756617471096358435e-02,0.000000000000000000e+00
5.960000000000000000e+02,-2.688003504770782315e-01,0.000000000000000000e+00
5.970000000000000000e+02,5.176655838231169343e-02,0.000000000000000000e+00
5.980000000000000000e+02,-2.185144908198599634e-01,0.000000000000000000e+00
5.990000000000000000e+02,3.331324936224028255e-02,0.000000000000000000e+00
6.000000000000000000e+02,-2.445290767229795284e-02,0.000000000000000000e+00
6.010000000000000000e+02,1.826791227607325180e-02,0.000000000000000000e+00
6.020000000000000000e+02,1.538464229436754260e-01,0.000000000000000000e+00
6.030000000000000000e+02,4.857424305904868511e+00,0.000000000000000000e+00
6.040000000000000000e+02,-2.417697163489898049e-01,1.000000000000000000e+00
6.050000000000000000e+02,-2.405447578806485076e+00,0.000000000000000000e+00
6.060000000000000000e+02,-4.022942902912408081e-01,0.000000000000000000e+00
6.070000000000000000e+02,-1.493130275552947972e-01,0.000000000000000000e+00
6.080000000000000000e+02,2.666361676057256783e-02,0.000000000000000000e+00
6.090000000000000000e+02,1.378000086624726339e-01,0.000000000000000000e+00
6.100000000000000000e+02,2.200801137592473256e-01,0.000000000000000000e+00
6.110000000000000000e+02,1.514207295222353145e-01,0.000000000000000000e+00
6.120000000000000000e+02,2.648398355494641088e-01,0.000000000000000000e+00
6.130000000000000000e+02,2.464610657619069056e-01,0.000000000000000000e+00
6.140000000000000000e+02,2.756208150599848139e-01,0.000000000000000000e+00
6.150000000000000000e+02,2.095692745958266101e-01,0.000000000000000000e+00
6.160000000000000000e+02,6.414725126902113272e-01,0.000000000000000000e+00
6.170000000000000000e+02,8.324170705869439191e-01,0.000000000000000000e+00
6.180000000000000000e+02,1.182199203810387234e+00,0.000000000000000000e+00
6.190000000000000000e+02,1.660744531170595506e+00,0.000000000000000000e+00
6.200000000000000000e+02,1.742469478046623221e+00,0.000000000000000000e+00
6.210000000000000000e+02,1.479653587836964546e+00,0.000000000000000000e+00
6.220000000000000000e+02,5.808920145351168518e-01,0.000000000000000000e+00
6.230000000000000000e+02,-4.919400818174707313e-01,0.000000000000000000e+00
6.240000000000000000e+02,-9.891516229885027878e-01,0.000000000000000000e+00
6.250000000000000000e+02,-1.174575551585745226e+00,0.000000000000000000e+00
6.260000000000000000e+02,-1.351794289131178495e+00,0.000000000000000000e+00
6.270000000000000000e+02,-1.166579285679357536e+00,0.000000000000000000e+00
6.280000000000000000e+02,-1.336251705872115725e+00,0.000000000000000000e+00
6.290000000000000000e+02,-1.040551419363949792e+00,0.000000000000000000e+00
6.300000000000000000e+02,-9.318109222495204458e-01,0.000000000000000000e+00
6.310000000000000000e+02,-9.633230431367478808e-01,0.000000000000000000e+00
6.320000000000000000e+02,-8.349123437330655539e-01,0.000000000000000000e+00
6.330000000000000000e+02,-8.426830413225738781e-01,0.000000000000000000e+00
6.340000000000000000e+02,-3.321759893744926084e-01,0.000000000000000000e+00
6.350000000000000000e+02,-5.908885359817970251e-01,0.000000000000000000e+00
6.360000000000000000e+02,-3.380734731884317834e-01,0.000000000000000000e+00
6.370000000000000000e+02,-3.465277667279231810e-01,0.000000000000000000e+00
6.380000000000000000e+02,-3.194931921495828830e-01,0.000000000000000000e+00
6.390000000000000000e+02,-3.344643900829845085e-01,0.000000000000000000e+00
6.400000000000000000e+02,-7.536282936076538208e-02,0.000000000000000000e+00
6.410000000000000000e+02,-1.368541244466450479e-01,0.000000000000000000e+00
6.420000000000000000e+02,3.874839046286696759e-02,0.000000000000000000e+00
6.430000000000000000e+02,-2.000486836770141441e-01,0.000000000000000000e+00
6.440000000000000000e+02,4.384061733959871907e-03,0.000000000000000000e+00
6.450000000000000000e+02,4.748900075499779515e-03,0.000000000000000000e+00
6.460000000000000000e+02,1.129821021922186308e-01,0.000000000000000000e+00
6.470000000000000000e+02,-4.718184628688750631e-02,0.000000000000000000e+00
6.480000000000000000e+02,2.189230423750972432e-01,0.000000000000000000e+00
6.490000000000000000e+02,1.059362445186623064e-01,0.000000000000000000e+00
6.500000000000000000e+02,1.348153508576671877e-01,0.000000000000000000e+00
6.510000000000000000e+02,2.880139882584583644e-01,0.000000000000000000e+00
6.520000000000000000e+02,3.230263921621828183e-01,0.000000000000000000e+00
6.530000000000000000e+02,6.243891186399008753e-01,0.000000000000000000e+00
6.540000000000000000e+02,6.824801841917272904e-01,0.000000000000000000e+00
6.550000000000000000e+02,4.402707711624745945e-01,0.000000000000000000e+00
6.560000000000000000e+02,3.487204324330428484e-01,0.000000000000000000e+00
6.570000000000000000e+02,-4.940243868086014074e-03,0.000000000000000000e+00
6.580000000000000000e+02,-2.059648735077494186e-01,0.000000000000000000e+00
6.590000000000000000e+02,1.049110987277050572e-01,0.000000000000000000e+00
6.600000000000000000e+02,-3.727658812922785003e-01,0.000000000000000000e+00
6.610000000000000000e+02,3.254321526385499652e-01,0.000000000000000000e+00
6.620000000000000000e+02,-4.030788687759250255e-01,0.000000000000000000e+00
6.630000000000000000e+02,2.042440374545108628e-01,0.000000000000000000e+00
6.640000000000000000e+02,-1.009256759938415904e+00,0.000000000000000000e+00
6.650000000000000000e+02,3.653360796028906954e+00,0.000000000000000000e+00
6.660000000000000000e+02,2.900592408657824972e+00,0.000000000000000000e+00
6.670000000000000000e+02,-3.124350407900676529e+00,1.000000000000000000e+00
6.680000000000000000e+02,-7.611219426031241575e-01,0.000000000000000000e+00
6.690000000000000000e+02,-6.198657309402150206e-01,0.000000000000000000e+00
6.700000000000000000e+02,1.556657327434215199e-01,0.000000000000000000e+00
6.710000000000000000e+02,-1.257779555816271044e-01,0.000000000000000000e+00
6.720000000000000000e+02,1.491020379284545283e-01,0.000000000000000000e+00
6.730000000000000000e+02,-5.917369183013954786e-02,0.000000000000000000e+00
6.740000000000000000e+02,2.157814524042558635e-01,0.000000000000000000e+00
6.750000000000000000e+02,3.052485711705784158e-02,0.000000000000000000e+00
6.760000000000000000e+02,2.759049442644373462e-01,0.000000000000000000e+00
6.770000000000000000e+02,2.380058315589774209e-01,0.000000000000000000e+00
6.780000000000000000e+02,3.716507740527022485e-01,0.000000000000000000e+00
6.790000000000000000e+02,5.696248312639902167e-01,0.000000000000000000e+00
6.800000000000000000e+02,1.015118652806210386e+00,0.000000000000000000e+00
6.810000000000000000e+02,1.257991633937309173e+00,0.000000000000000000e+00
6.820000000000000000e+02,1.766330594005351973e+00,0.000000000000000000e+00
6.830000000000000000e+02,1.435238238413642842e+00,0.000000000000000000e+00
6.840000000000000000e+02,1.033469635667400688e+00,0.000000000000000000e+00
6.850000000000000000e+02,-1.152437369369366665e-01,0.000000000000000000e+00
6.860000000000000000e+02,-9.812458265398297241e-01,0.000000000000000000e+00
6.870000000000000000e+02,-1.305792754882816542e+00,0.000000000000000000e+00
6.880000000000000000e+02,-1.428247209501380732e+00,0.000000000000000000e+00
6.890000000000000000e+02,-1.558137612226313751e+00,0.000000000000000000e+00
6.900000000000000000e+02,-1.165492656316550191e+00,0.000000000000000000e+00
6.910000000000000000e+02,-1.305975652279148802e+00,0.000000000000000000e+00
6.920000000000000000e+02,-1.166204135153223742e+00,0.000000000000000000e+00
6.930000000000000000e+02,-1.234443741150387686e+00,0.000000000000000000e+00
6.940000000000000000e+02,-7.382465435420711986e-01,0.000000000000000000e+00
6.950000000000000000e+02,-8.938429064963677728e-01,0.000000000000000000e+00
6.960000000000000000e+02,-6.135609691792855980e-01,0.000000000000000000e+00
6.970000000000000000e+02,-7.409969271941918567e-01,0.000000000000000000e+00
6.980000000000000000e+02,-4.998088783314261763e-01,0.000000000000000000e+00
6.990000000000000000e+02,-4.393803685403895876e-01,0.000000000000000000e+00
7.000000000000000000e+02,-2.506791980817211218e-01,0.000000000000000000e+00
7.010000000000000000e+02,-3.924478682027187637e-01,0.000000000000000000e+00
7.020000000000000000e+02,-1.374122033617329042e-01,0.000000000000000000e+00
7.030000000000000000e+02,-2.738833985091942425e-01,0.000000000000000000e+00
7.040000000000000000e+02,2.769747146233648982e-02,0.000000000000000000e+00
7.050000000000000000e+02,-1.787508865071060216e-01,0.000000000000000000e+00
7.060000000000000000e+02,-3.123782589861085965e-02,0.000000000000000000e+00
7.070000000000000000e+02,-2.945602602412794591e-02,0.000000000000000000e+00
7.080000000000000000e+02,-1.105622430363375173e-02,0.000000000000000000e+00
7.090000000000000000e+02,1.073331673345250536e-01,0.000000000000000000e+00
7.100000000000000000e+02,1.937456339943703643e-01,0.000000000000000000e+00
7.110000000000000000e+02,8.290521884821941759e-03,0.000000000000000000e+00
7.120000000000000000e+02,3.239108203005754971e-01,0.000000000000000000e+00
7.130000000000000000e+02,2.508546633236394818e-01,0.000000000000000000e+00
7.140000000000000000e+02,2.932189362086601303e-01,0.000000000000000000e+00
7.150000000000000000e+02,4.489559041431059883e-01,0.000000000000000000e+00
7.160000000000000000e+02,6.426437802490133633e-01,0.000000000000000000e+00
7.170000000000000000e+02,8.163609359396932774e-01,0.000000000000000000e+00
7.180000000000000000e+02,5.276150873745208969e-01,0.000000000000000000e+00
7.190000000000000000e+02,6.110500594842753763e-01,0.000000000000000000e+00
7.200000000000000000e+02,1.486588018507530307e-01,0.000000000000000000e+00
7.210000000000000000e+02,-7.785507049961838677e-02,0.000000000000000000e+00
7.220000000000000000e+02,7.053107003327821478e-02,0.000000000000000000e+00
7.230000000000000000e+02,4.279040874779777015e-02,0.000000000000000000e+00
7.240000000000000000e+02,2.710706835700604778e-01,0.000000000000000000e+00
7.250000000000000000e+02,-1.674885394573549097e-02,0.000000000000000000e+00
7.260000000000000000e+02,3.721340358586788244e-01,0.000000000000000000e+00
7.270000000000000000e+02,-3.552025759916190295e-01,0.000000000000000000e+00
7.280000000000000000e+02,1.940256788350230188e+00,0.000000000000000000e+00
7.290000000000000000e+02,4.999623526429576081e+00,0.000000000000000000e+00
7.300000000000000000e+02,-2.367948160713765571e+00,1.000000000000000000e+00
7.310000000000000000e+02,-1.283608828582508909e+00,0.000000000000000000e+00
7.320000000000000000e+02,-2.625765137177553110e-01,0.000000000000000000e+00
7.330000000000000000e+02,1.200652289581767701e-01,0.000000000000000000e+00
7.340000000000000000e+02,-1.024388823315762649e-02,0.000000000000000000e+00
7.350000000000000000e+02,3.487761994529532950e-01,0.000000000000000000e+00
7.360000000000000000e+02,9.905227093824656159e-02,0.000000000000000000e+00
7.370000000000000000e+02,3.443217338100722502e-01,0.000000000000000000e+00
7.380000000000000000e+02,1.975878204304049590e-01,0.000000000000000000e+00
7.390000000000000000e+02,4.046231953427348316e-01,0.000000000000000000e+00
7.400000000000000000e+02,4.022854135162465261e-01,0.000000000000000000e+00
7.410000000000000000e+02,5.969211152745448334e-01,0.000000000000000000e+00
7.420000000000000000e+02,5.726002635196570933e-01,0.000000000000000000e+00
7.430000000000000000e+02,1.086937718694931165e+00,0.000000000000000000e+00
7.440000000000000000e+02,1.446750187655101660e+00,0.000000000000000000e+00
7.450000000000000000e+02,1.871230112684805658e+00,0.000000000000000000e+00
7.460000000000000000e+02,1.882887405217512633e+00,0.000000000000000000e+00
7.470000000000000000e+02,1.224938395227687993e+00,0.000000000000000000e+00
7.480000000000000000e+02,1.657952624866022295e-01,0.000000000000000000e+00
7.490000000000000000e+02,-7.458747627408319758e-01,0.000000000000000000e+00
7.500000000000000000e+02,-1.219078680248862012e+00,0.000000000000000000e+00
7.510000000000000000e+02,-1.390413913267842805e+00,0.000000000000000000e+00
7.520000000000000000e+02,-1.412619289264143152e+00,0.000000000000000000e+00
7.530000000000000000e+02,-1.447945376559510278e+00,0.000000000000000000e+00
7.540000000000000000e+02,-1.239687732579688673e+00,0.000000000000000000e+00
7.550000000000000000e+02,-1.133143897132688149e+00,0.000000000000000000e+00
7.560000000000000000e+02,-1.085060860705893804e+00,0.000000000000000000e+00
7.570000000000000000e+02,-1.002547150848264179e+00,0.000000000000000000e+00
7.580000000000000000e+02,-9.750555819748628616e-01,0.000000000000000000e+00
7.590000000000000000e+02,-7.856828329320849624e-01,0.000000000000000000e+00
7.600000000000000000e+02,-4.418634198162271209e-01,0.000000000000000000e+00
7.610000000000000000e+02,-4.276187122715378597e-01,0.000000000000000000e+00
7.620000000000000000e+02,-5.815219894750522922e-01,0.000000000000000000e+00
7.630000000000000000e+02,-1.217064731352607981e-01,0.000000000000000000e+00
7.640000000000000000e+02,-3.862396866122400074e-01,0.000000000000000000e+00
7.650000000000000000e+02,-2.312531242379594620e-01,0.000000000000000000e+00
7.660000000000000000e+02,-2.143756026606015996e-01,0.000000000000000000e+00
7.670000000000000000e+02,-7.100908147882956101e-02,0.000000000000000000e+00
7.680000000000000000e+02,-5.116276662249535923e-02,0.000000000000000000e+00
7.690000000000000000e+02,-4.063635524031384595e-03,0.000000000000000000e+00
7.700000000000000000e+02,-3.722090219217619872e-02,0.000000000000000000e+00
7.710000000000000000e+02,4.204785250780173483e-03,0.000000000000000000e+00
7.720000000000000000e+02,1.000379241169047223e-01,0.000000000000000000e+00
7.730000000000000000e+02,1.438731850766583886e-01,0.000000000000000000e+00
7.740000000000000000e+02,2.357997224869021746e-01,0.000000000000000000e+00
7.750000000000000000e+02,2.171127682847195928e-01,0.000000000000000000e+00
7.760000000000000000e+02,1.224464959536001041e-01,0.000000000000000000e+00
7.770000000000000000e+02,6.192802993521049348e-01,0.000000000000000000e+00
7.780000000000000000e+02,2.205977368742514655e-01,0.000000000000000000e+00
7.790000000000000000e+02,7.841459210977543837e-01,0.000000000000000000e+00
7.800000000000000000e+02,6.449091381949121349e-01,0.000000000000000000e+00
7.810000000000000000e+02,5.556835986767265645e-01,0.000000000000000000e+00
7.820000000000000000e+02,4.016243871141781940e-01,0.000000000000000000e+00
7.830000000000000000e+02,1.286542275478776143e-02,0.000000000000000000e+00
7.840000000000000000e+02,-7.792340579991721694e-02,0.000000000000000000e+00
7.850000000000000000e+02,-1.061385600722622446e-02,0.000000000000000000e+00
7.860000000000000000e+02,-1.117614069969480733e-01,0.000000000000000000e+00
7.870000000000000000e+02,1.106878595147409855e-01,0.000000000000000000e+00
7.880000000000000000e+02,1.200413361302819261e-02,0.000000000000000000e+00
7.890000000000000000e+02,2.188981553073651443e-01,0.000000000000000000e+00
7.900000000000000000e+02,-3.613212689279545198e-01,0.000000000000000000e+00
7.910000000000000000e+02,4.483655152917231490e+00,0.000000000000000000e+00
7.920000000000000000e+02,1.461310329450028700e+00,1.000000000000000000e+00
7.930000000000000000e+02,-3.374175803007073426e+00,0.000000000000000000e+00
7.940000000000000000e+02,-4.160813357248328015e-01,0.000000000000000000e+00
7.950000000000000000e+02,-6.230645037240812867e-01,0.000000000000000000e+00
7.960000000000000000e+02,3.685639067201139096e-01,0.000000000000000000e+00
7.970000000000000000e+02,4.118683149518975739e-02,0.000000000000000000e+00
7.980000000000000000e+02,2.889957963696706544e-01,0.000000000000000000e+00
7.990000000000000000e+02,1.716253514693215076e-01,0.000000000000000000e+00
8.000000000000000000e+02,3.218331569013047067e-01,0.000000000000000000e+00
8.010000000000000000e+02,2.276746270014510798e-01,0.000000000000000000e+00
8.020000000000000000e+02,3.720133780780966459e-01,0.000000000000000000e+00
8.030000000000000000e+02,3.875907590521025514e-01,0.000000000000000000e+00
8.040000000000000000e+02,7.372724178630358782e-01,0.000000000000000000e+00
8.050000000000000000e+02,6.359064607006265080e-01,0.000000000000000000e+00
8.060000000000000000e+02,1.365748195616995897e+00,0.000000000000000000e+00
8.070000000000000000e+02,1.302127424828049662e+00,0.000000000000000000e+00
8.080000000000000000e+02,1.800984318056723765e+00,0.000000000000000000e+00
8.090000000000000000e+02,1.578558681533946961e+00,0.000000000000000000e+00
8.100000000000000000e+02,6.306763293075497989e-01,0.000000000000000000e+00
8.110000000000000000e+02,-2.399261278900055028e-01,0.000000000000000000e+00
8.120000000000000000e+02,-1.044848839139231877e+00,0.000000000000000000e+00
8.130000000000000000e+02,-1.490824641556347530e+00,0.000000000000000000e+00
8.140000000000000000e+02,-1.473115008903757905e+00,0.000000000000000000e+00
8.150000000000000000e+02,-1.623945546750487967e+00,0.000000000000000000e+00
8.160000000000000000e+02,-1.318329073247129557e+00,0.000000000000000000e+00
8.170000000000000000e+02,-1.402016007446393209e+00,0.000000000000000000e+00
8.180000000000000000e+02,-1.139760495052478451e+00,0.000000000000000000e+00
8.190000000000000000e+02,-1.255769973049993826e+00,0.000000000000000000e+00
8.200000000000000000e+02,-9.074379225278109695e-01,0.000000000000000000e+00
8.210000000000000000e+02,-7.577242131609527309e-01,0.000000000000000000e+00
8.220000000000000000e+02,-7.325730408771908841e-01,0.000000000000000000e+00
8.230000000000000000e+02,-6.441674814203079968e-01,0.000000000000000000e+00
8.240000000000000000e+02,-5.774863301015544792e-01,0.000000000000000000e+00
8.250000000000000000e+02,-4.326724906448612407e-01,0.000000000000000000e+00
8.260000000000000000e+02,-5.569260765147280301e-01,0.000000000000000000e+00
8.270000000000000000e+02,-2.951196873335535376e-01,0.000000000000000000e+00
8.280000000000000000e+02,-3.163854577094762366e-01,0.000000000000000000e+00
8.290000000000000000e+02,-3.236480643695723858e-01,0.000000000000000000e+00
8.300000000000000000e+02,-2.225966992893052276e-01,0.000000000000000000e+00
8.310000000000000000e+02,-3.646939696261113917e-01,0.000000000000000000e+00
8.320000000000000000e+02,-4.223646054944903139e-02,0.000000000000000000e+00
8.330000000000000000e+02,-6.754446377687610241e-03,0.000000000000000000e+00
8.340000000000000000e+02,-3.278638881668397530e-03,0.000000000000000000e+00
8.350000000000000000e+02,-2.081727967851890182e-01,0.000000000000000000e+00
8.360000000000000000e+02,1.344563949540290848e-01,0.000000000000000000e+00
8.370000000000000000e+02,1.146553069178434803e-01,0.000000000000000000e+00
8.380000000000000000e+02,2.307154472253409860e-01,0.000000000000000000e+00
8.390000000000000000e+02,2.522421962102508464e-01,0.000000000000000000e+00
8.400000000000000000e+02,5.886539378862052363e-01,0.000000000000000000e+00
8.410000000000000000e+02,4.740045798143056044e-01,0.000000000000000000e+00
8.420000000000000000e+02,5.270011261892649790e-01,0.000000000000000000e+00
8.430000000000000000e+02,3.390615216564945578e-01,0.000000000000000000e+00
8.440000000000000000e+02,5.504617004719818130e-02,0.000000000000000000e+00
8.450000000000000000e+02,-2.708201341439867016e-01,0.000000000000000000e+00
8.460000000000000000e+02,1.600050261898084136e-01,0.000000000000000000e+00
8.470000000000000000e+02,-9.783368900978481678e-03,0.000000000000000000e+00
8.480000000000000000e+02,1.172159248842973150e-01,0.000000000000000000e+00
8.490000000000000000e+02,-2.248792252104674372e-01,0.000000000000000000e+00
8.500000000000000000e+02,3.784974509537198939e-01,0.000000000000000000e+00
8.510000000000000000e+02,-5.542648988979144153e-01,0.000000000000000000e+00
8.520000000000000000e+02,3.406406365056434460e+00,0.000000000000000000e+00
8.530000000000000000e+02,3.160224211925266591e+00,0.000000000000000000e+00
8.540000000000000000e+02,-3.289593118146525885e+00,1.000000000000000000e+00
8.550000000000000000e+02,-1.038185483734629599e+00,0.000000000000000000e+00
8.560000000000000000e+02,-4.775134268398453230e-01,0.000000000000000000e+00
8.570000000000000000e+02,4.922173444476564685e-01,0.000000000000000000e+00
8.580000000000000000e+02,4.990729224409706094e-02,0.000000000000000000e+00
8.590000000000000000e+02,4.254842983540676471e-01,0.000000000000000000e+00
8.600000000000000000e+02,2.016490290039793243e-01,0.000000000000000000e+00
8.610000000000000000e+02,4.415732915868620934e-01,0.000000000000000000e+00
8.620000000000000000e+02,2.439015761612464417e-01,0.000000000000000000e+00
8.630000000000000000e+02,4.813684209225024269e-01,0.000000000000000000e+00
8.640000000000000000e+02,3.671905286424784753e-01,0.000000000000000000e+00
8.650000000000000000e+02,5.585881650164351564e-01,0.000000000000000000e+00
8.660000000000000000e+02,6.628018741225177868e-01,0.000000000000000000e+00
8.670000000000000000e+02,1.198941701149468964e+00,0.000000000000000000e+00
8.680000000000000000e+02,1.521004355877917602e+00,0.000000000000000000e+00
8.690000000000000000e+02,1.821645487387837603e+00,0.000000000000000000e+00
8.700000000000000000e+02,1.583954047135939236e+00,0.000000000000000000e+00
8.710000000000000000e+02,1.110306497273570336e+00,0.000000000000000000e+00
8.720000000000000000e+02,-4.072130477038754526e-02,0.000000000000000000e+00
8.730000000000000000e+02,-7.021921551834153785e-01,0.000000000000000000e+00
8.740000000000000000e+02,-1.225805168663273381e+00,0.000000000000000000e+00
8.750000000000000000e+02,-1.287523797674334336e+00,0.000000000000000000e+00
8.760000000000000000e+02,-1.389671394514788938e+00,0.000000000000000000e+00
8.770000000000000000e+02,-1.285433556213827488e+00,0.000000000000000000e+00
8.780000000000000000e+02,-1.092383132898574249e+00,0.000000000000000000e+00
8.790000000000000000e+02,-1.142579846163333857e+00,0.000000000000000000e+00
8.800000000000000000e+02,-8.736245820176956611e-01,0.000000000000000000e+00
8.810000000000000000e+02,-9.884214342533083064e-01,0.000000000000000000e+00
8.820000000000000000e+02,-6.867986532368063335e-01,0.000000000000000000e+00
8.830000000000000000e+02,-7.161818386984715179e-01,0.000000000000000000e+00
8.840000000000000000e+02,-3.659132062373675609e-01,0.000000000000000000e+00
8.850000000000000000e+02,-2.628489964929148215e-01,0.000000000000000000e+00
8.860000000000000000e+02,-4.629428428999061707e-01,0.000000000000000000e+00
8.870000000000000000e+02,-2.075994938940073364e-01,0.000000000000000000e+00
8.880000000000000000e+02,-4.026348900076598958e-01,0.000000000000000000e+00
8.890000000000000000e+02,-1.212626455868967140e-01,0.000000000000000000e+00
8.900000000000000000e+02,-2.213945264551848979e-01,0.000000000000000000e+00
8.910000000000000000e+02,-1.559519445720534414e-01,0.000000000000000000e+00
8.920000000000000000e+02,9.813589333100071130e-03,0.000000000000000000e+00
8.930000000000000000e+02,4.389674065216858656e-02,0.000000000000000000e+00
8.940000000000000000e+02,-2.906344033105911356e-02,0.000000000000000000e+00
8.950000000000000000e+02,2.370444322639781928e-02,0.000000000000000000e+00
8.960000000000000000e+02,7.267165619505143448e-02,0.000000000000000000e+00
8.970000000000000000e+02,1.019587378304105119e-01,0.000000000000000000e+00
8.980000000000000000e+02,1.325962688161455294e-01,0.000000000000000000e+00
8.990000000000000000e+02,2.115493582705343656e-01,0.000000000000000000e+00
9.000000000000000000e+02,2.838924290021121455e-01,0.000000000000000000e+00
9.010000000000000000e+02,2.873011677722345225e-01,0.000000000000000000e+00
9.020000000000000000e+02,4.600778381937981054e-01,0.000000000000000000e+00
9.030000000000000000e+02,6.785160831175844898e-01,0.000000000000000000e+00
9.040000000000000000e+02,6.310018849654751572e-01,0.000000000000000000e+00
9.050000000000000000e+02,5.604253619236655437e-01,0.000000000000000000e+00
9.060000000000000000e+02,4.945400653794297940e-01,0.000000000000000000e+00
9.070000000000000000e+02,2.026700645622287605e-02,0.000000000000000000e+00
9.080000000000000000e+02,-1.028914882615975385e-01,0.000000000000000000e+00
9.090000000000000000e+02,1.006469808745212302e-01,0.000000000000000000e+00
9.100000000000000000e+02,-1.286781106827166177e-01,0.000000000000000000e+00
9.110000000000000000e+02,2.308504421921330763e-01,0.000000000000000000e+00
9.120000000000000000e+02,-4.350996904010548394e-02,0.000000000000000000e+00
9.130000000000000000e+02,1.904873977443018451e-01,0.000000000000000000e+00
9.140000000000000000e+02,-6.844508843470402670e-01,0.000000000000000000e+00
9.150000000000000000e+02,3.402231573188356784e+00,0.000000000000000000e+00
9.160000000000000000e+02,2.876699125316577454e+00,0.000000000000000000e+00
9.170000000000000000e+02,-2.948174833438951037e+00,1.000000000000000000e+00
9.180000000000000000e+02,-6.933919731403865860e-01,0.000000000000000000e+00
9.190000000000000000e+02,-3.861926514971583679e-01,0.000000000000000000e+00
9.200000000000000000e+02,1.862464891128353117e-01,0.000000000000000000e+00
9.210000000000000000e+02,-7.828263131421689391e-02,0.000000000000000000e+00
9.220000000000000000e+02,3.261872006328211948e-01,0.000000000000000000e+00
9.230000000000000000e+02,-6.693360887092000833e-02,0.000000000000000000e+00
9.240000000000000000e+02,3.105989186352003384e-01,0.000000000000000000e+00
9.250000000000000000e+02,1.643498181969900163e-01,0.000000000000000000e+00
9.260000000000000000e+02,3.827318540852378548e-02,0.000000000000000000e+00
9.270000000000000000e+02,4.083586665625213441e-01,0.000000000000000000e+00
9.280000000000000000e+02,4.902854006804915343e-01,0.000000000000000000e+00
9.290000000000000000e+02,5.959232454552635394e-01,0.000000000000000000e+00
9.300000000000000000e+02,9.073440853350726032e-01,0.000000000000000000e+00
9.310000000000000000e+02,1.086008006748396815e+00,0.000000000000000000e+00
9.320000000000000000e+02,1.536618780575591092e+00,0.000000000000000000e+00
9.330000000000000000e+02,1.570299233049347265e+00,0.000000000000000000e+00
9.340000000000000000e+02,9.314110034436020591e-01,0.000000000000000000e+00
9.350000000000000000e+02,6.962217350153267204e-02,0.000000000000000000e+00
9.360000000000000000e+02,-9.379175842115857753e-01,0.000000000000000000e+00
9.370000000000000000e+02,-1.305649798445413623e+00,0.000000000000000000e+00
9.380000000000000000e+02,-1.559185397476069657e+00,0.000000000000000000e+00
9.390000000000000000e+02,-1.398382528585033313e+00,0.000000000000000000e+00
9.400000000000000000e+02,-1.252485673747702810e+00,0.000000000000000000e+00
9.410000000000000000e+02,-1.346532643743287183e+00,0.000000000000000000e+00
9.420000000000000000e+02,-1.197616752176921429e+00,0.000000000000000000e+00
9.430000000000000000e+02,-1.246601840067013356e+00,0.000000000000000000e+00
9.440000000000000000e+02,-9.569328729504034126e-01,0.000000000000000000e+00
9.450000000000000000e+02,-1.029068808839904925e+00,0.000000000000000000e+00
9.460000000000000000e+02,-6.452267182878220764e-01,0.000000000000000000e+00
9.470000000000000000e+02,-7.652577387439681855e-01,0.000000000000000000e+00
9.480000000000000000e+02,-5.887295444919991017e-01,0.000000000000000000e+00
9.490000000000000000e+02,-5.311869079926930803e-01,0.000000000000000000e+00
9.500000000000000000e+02,-5.710775921323757442e-01,0.000000000000000000e+00
9.510000000000000000e+02,-3.134888748567183359e-01,0.000000000000000000e+00
9.520000000000000000e+02,-3.363484563356930468e-01,0.000000000000000000e+00
9.530000000000000000e+02,-3.404902930647217274e-01,0.000000000000000000e+00
9.540000000000000000e+02,-3.337218106859490829e-01,0.000000000000000000e+00
9.550000000000000000e+02,2.010351785735363384e-02,0.000000000000000000e+00
9.560000000000000000e+02,-2.048684839653109324e-01,0.000000000000000000e+00
9.570000000000000000e+02,1.022443457149757422e-02,0.000000000000000000e+00
9.580000000000000000e+02,-3.373176242997206337e-02,0.000000000000000000e+00
9.590000000000000000e+02,7.509606782889821641e-02,0.000000000000000000e+00
9.600000000000000000e+02,-6.289034919254601896e-02,0.000000000000000000e+00
9.610000000000000000e+02,-7.344766143979018780e-02,0.000000000000000000e+00
9.620000000000000000e+02,1.933132773114778491e-01,0.000000000000000000e+00
9.630000000000000000e+02,-2.124639383127037429e-02,0.000000000000000000e+00
9.640000000000000000e+02,4.153534048323740957e-01,0.000000000000000000e+00
9.650000000000000000e+02,5.519326094132814831e-01,0.000000000000000000e+00
9.660000000000000000e+02,6.820586816571494460e-01,0.000000000000000000e+00
9.670000000000000000e+02,3.836423049539688934e-01,0.000000000000000000e+00
9.680000000000000000e+02,3.570211235343447864e-01,0.000000000000000000e+00
9.690000000000000000e+02,2.047999495073704046e-01,0.000000000000000000e+00
9.700000000000000000e+02,-1.813753816206456759e-01,0.000000000000000000e+00
9.710000000000000000e+02,6.623310422939042430e-02,0.000000000000000000e+00
9.720000000000000000e+02,-2.820277217982536389e-01,0.000000000000000000e+00
9.730000000000000000e+02,-1.425405840660249994e-02,0.000000000000000000e+00
9.740000000000000000e+02,-2.373576487810296065e-01,0.000000000000000000e+00
9.750000000000000000e+02,2.307979629509630259e-01,0.000000000000000000e+00
9.760000000000000000e+02,-3.466121120182935056e-01,0.000000000000000000e+00
9.770000000000000000e+02,1.516118802876969873e+00,0.000000000000000000e+00
9.780000000000000000e+02,4.548829593317573305e+00,0.000000000000000000e+00
9.790000000000000000e+02,-2.161322842325080984e+00,1.000000000000000000e+00
9.800000000000000000e+02,-1.437589298238307833e+00,0.000000000000000000e+00
9.810000000000000000e+02,-4.000297039303544744e-01,0.000000000000000000e+00
9.820000000000000000e+02,2.106337777979010450e-01,0.000000000000000000e+00
9.830000000000000000e+02,1.039582595914401025e-01,0.000000000000000000e+00
9.840000000000000000e+02,3.177395452778248308e-01,0.000000000000000000e+00
9.850000000000000000e+02,1.502128341025312785e-01,0.000000000000000000e+00
9.860000000000000000e+02,3.593297069838114477e-01,0.000000000000000000e+00
9.870000000000000000e+02,3.156604122692531766e-01,0.000000000000000000e+00
9.880000000000000000e+02,2.610166951766452192e-01,0.000000000000000000e+00
9.890000000000000000e+02,5.640154393354049889e-01,0.000000000000000000e+00
9.900000000000000000e+02,5.202192748029107472e-01,0.000000000000000000e+00
9.910000000000000000e+02,6.422072772901582516e-01,0.000000000000000000e+00
9.920000000000000000e+02,1.215911998157394702e+00,0.000000000000000000e+00
9.930000000000000000e+02,1.253007201880692811e+00,0.000000000000000000e+00
9.940000000000000000e+02,1.838105245129547205e+00,0.000000000000000000e+00
9.950000000000000000e+02,1.620860777389448781e+00,0.000000000000000000e+00
9.960000000000000000e+02,1.470755020580532646e+00,0.000000000000000000e+00
9.970000000000000000e+02,4.532100732612519556e-01,0.000000000000000000e+00
9.980000000000000000e+02,-4.607062210846071260e-01,0.000000000000000000e+00
9.990000000000000000e+02,-9.106265479147171993e-01,0.000000000000000000e+00
1.000000000000000000e+03,-1.282504326941054096e+00,0.000000000000000000e+00
1.001000000000000000e+03,-1.288420249602043821e+00,0.000000000000000000e+00
1.002000000000000000e+03,-1.043129244500737851e+00,0.000000000000000000e+00
1.003000000000000000e+03,-1.001653437520588996e+00,0.000000000000000000e+00
1.004000000000000000e+03,-1.147344412083070697e+00,0.000000000000000000e+00
1.005000000000000000e+03,-8.358984394907688076e-01,0.000000000000000000e+00
1.006000000000000000e+03,-8.858540414960416332e-01,0.000000000000000000e+00
1.007000000000000000e+03,-6.441518944879983666e-01,0.000000000000000000e+00
1.008000000000000000e+03,-6.253414440436048105e-01,0.000000000000000000e+00
1.009000000000000000e+03,-3.336330828633599088e-01,0.000000000000000000e+00
1.010000000000000000e+03,-5.327258526278880746e-01,0.000000000000000000e+00
1.011000000000000000e+03,-1.580120593473851032e-01,0.000000000000000000e+00
1.012000000000000000e+03,-3.831395036274335975e-01,0.000000000000000000e+00
1.013000000000000000e+03,-2.396252690066876523e-01,0.000000000000000000e+00
1.014000000000000000e+03,-1.792430155499940003e-01,0.000000000000000000e+00
1.015000000000000000e+03,-3.361557543480149512e-02,0.000000000000000000e+00
1.016000000000000000e+03,-1.556487086788397589e-01,0.000000000000000000e+00
1.017000000000000000e+03,-1.031868582602206708e-01,0.000000000000000000e+00
1.018000000000000000e+03,-5.371653588344896257e-02,0.000000000000000000e+00
1.019000000000000000e+03,-6.308127814201943025e-03,0.000000000000000000e+00
1.020000000000000000e+03,2.798576964745515538e-01,0.000000000000000000e+00
1.021000000000000000e+03,9.113807331712259208e-02,0.000000000000000000e+00
1.022000000000000000e+03,8.278125735929910134e-02,0.000000000000000000e+00
1.023000000000000000e+03,2.307600936801009750e-01,0.000000000000000000e+00
1.024000000000000000e+03,1.568217725481518832e-01,0.000000000000000000e+00
1.025000000000000000e+03,1.527183065902721626e-01,0.000000000000000000e+00
1.026000000000000000e+03,4.063021231315066539e-01,0.000000000000000000e+00
1.027000000000000000e+03,4.557657500010946494e-01,0.000000000000000000e+00
1.028000000000000000e+03,5.607495139289268016e-01,0.000000000000000000e+00
1.029000000000000000e+03,7.347163924377707600e-01,0.000000000000000000e+00
1.030000000000000000e+03,6.682784152610597994e-01,0.000000000000000000e+00
1.031000000000000000e+03,4.321518557286766482e-01,0.000000000000000000e+00
1.032000000000000000e+03,3.210444184084301766e-01,0.000000000000000000e+00
1.033000000000000000e+03,1.529313928259349309e-01,0.000000000000000000e+00
1.034000000000000000e+03,-2.833325371340509463e-02,0.000000000000000000e+00
1.035000000000000000e+03,7.731710326994015170e-02,0.000000000000000000e+00
1.036000000000000000e+03,5.289193714015929040e-03,0.000000000000000000e+00
1.037000000000000000e+03,-2.254004979204188297e-01,0.000000000000000000e+00
1.038000000000000000e+03,2.728027513933301007e-01,0.000000000000000000e+00
1.039000000000000000e+03,-1.815358810552658575e-01,0.000000000000000000e+00
1.040000000000000000e+03,8.926357658493917491e-01,0.000000000000000000e+00
1.041000000000000000e+03,4.934306422162454631e+00,0.000000000000000000e+00
1.042000000000000000e+03,-1.568417013531548498e+00,1.000000000000000000e+00
1.043000000000000000e+03,-1.891921384888163526e+00,0.000000000000000000e+00
1.044000000000000000e+03,-3.708372835211164453e-01,0.000000000000000000e+00
1.045000000000000000e+03,-1.056362177592207324e-01,0.000000000000000000e+00
1.046000000000000000e+03,1.525393826471670433e-01,0.000000000000000000e+00
1.047000000000000000e+03,-4.133826146608366586e-02,0.000000000000000000e+00
1.048000000000000000e+03,8.110509187085826466e-02,0.000000000000000000e+00
1.049000000000000000e+03,8.729519599127454066e-02,0.000000000000000000e+00
1.050000000000000000e+03,1.353423617125151246e-01,0.000000000000000000e+00
1.051000000000000000e+03,1.261535677763223617e-01,0.000000000000000000e+00
1.052000000000000000e+03,2.681199335877273993e-01,0.000000000000000000e+00
1.053000000000000000e+03,3.049341250483607602e-01,0.000000000000000000e+00
1.054000000000000000e+03,5.508977767210988530e-01,0.000000000000000000e+00
1.055000000000000000e+03,8.316832340105331234e-01,0.000000000000000000e+00
1.056000000000000000e+03,1.211365363374613091e+00,0.000000000000000000e+00
1.057000000000000000e+03,1.647362029218803370e+00,0.000000000000000000e+00
1.058000000000000000e+03,1.573198084890319093e+00,0.000000000000000000e+00
1.059000000000000000e+03,1.323088486505588746e+00,0.000000000000000000e+00
1.060000000000000000e+03,3.923939756834242676e-01,0.000000000000000000e+00
1.061000000000000000e+03,-6.111835403200172046e-01,0.000000000000000000e+00
1.062000000000000000e+03,-1.211224924295224215e+00,0.000000000000000000e+00
1.063000000000000000e+03,-1.265632121426622181e+00,0.000000000000000000e+00
1.064000000000000000e+03,-1.479362277162313832e+00,0.000000000000000000e+00
1.065000000000000000e+03,-1.374783365355749742e+00,0.000000000000000000e+00
1.066000000000000000e+03,-1.297124485763195390e+00,0.000000000000000000e+00
1.067000000000000000e+03,-1.429445096594949227e+00,0.000000000000000000e+00
1.068000000000000000e+03,-1.097326236265036004e+00,0.000000000000000000e+00
1.069000000000000000e+03,-9.941204630870965619e-01,0.000000000000000000e+00
1.070000000000000000e+03,-9.034392199424896575e-01,0.000000000000000000e+00
1.071000000000000000e+03,-7.659849289638250847e-01,0.000000000000000000e+00
1.072000000000000000e+03,-7.259760042134912883e-01,0.000000000000000000e+00
1.073000000000000000e+03,-5.311327151871511054e-01,0.000000000000000000e+00
1.074000000000000000e+03,-3.912663290388923576e-01,0.000000000000000000e+00
1.075000000000000000e+03,-4.693494988696446102e-01,0.000000000000000000e+00
1.076000000000000000e+03,-5.654035151012906102e-01,0.000000000000000000e+00
1.077000000000000000e+03,-1.502793013067196537e-01,0.000000000000000000e+00
1.078000000000000000e+03,-3.017784312603685737e-01,0.000000000000000000e+00
1.079000000000000000e+03,-4.203367445456996920e-01,0.000000000000000000e+00
1.080000000000000000e+03,7.856704101157800657e-02,0.000000000000000000e+00
1.081000000000000000e+03,-2.153933538244727219e-01,0.000000000000000000e+00
1.082000000000000000e+03,-2.284054135929931006e-01,0.000000000000000000e+00
1.083000000000000000e+03,1.446175976073367231e-01,0.000000000000000000e+00
1.084000000000000000e+03,1.210486049706255285e-02,0.000000000000000000e+00
1.085000000000000000e+03,-4.259779442069350913e-02,0.000000000000000000e+00
1.086000000000000000e+03,9.778840870975855082e-02,0.000000000000000000e+00
1.087000000000000000e+03,5.047907796845802625e-02,0.000000000000000000e+00
1.088000000000000000e+03,1.511136196817387811e-01,0.000000000000000000e+00
1.089000000000000000e+03,1.786100027954923564e-01,0.000000000000000000e+00
1.090000000000000000e+03,3.265887826797392313e-01,0.000000000000000000e+00
1.091000000000000000e+03,5.327588471707788154e-01,0.000000000000000000e+00
1.092000000000000000e+03,5.194336399071319832e-01,0.000000000000000000e+00
1.093000000000000000e+03,7.495040710292352193e-01,0.000000000000000000e+00
1.094000000000000000e+03,3.232244359401335032e-01,0.000000000000000000e+00
1.095000000000000000e+03,3.018082211882143762e-01,0.000000000000000000e+00
1.096000000000000000e+03,-3.060969754370993501e-01,0.000000000000000000e+00
1.097000000000000000e+03,-1.160613961092983766e-02,0.000000000000000000e+00
1.098000000000000000e+03,-2.077076261590146342e-02,0.000000000000000000e+00
1.099000000000000000e+03,1.262380344794693243e-01,0.000000000000000000e+00
1.100000000000000000e+03,-4.165503663821572972e-02,0.000000000000000000e+00
1.101000000000000000e+03,2.512059513883289075e-01,0.000000000000000000e+00
1.102000000000000000e+03,-5.259182980635578319e-01,0.000000000000000000e+00
1.103000000000000000e+03,2.039676132945035913e+00,0.000000000000000000e+00
1.104000000000000000e+03,4.900336977247127912e+00,0.000000000000000000e+00
1.105000000000000000e+03,-2.571167069778885761e+00,1.000000000000000000e+00
1.106000000000000000e+03,-1.706443334443543458e+00,0.000000000000000000e+00
1.107000000000000000e+03,-4.802039457914631937e-01,0.000000000000000000e+00
1.108000000000000000e+03,1.302791021405589056e-01,0.000000000000000000e+00
1.109000000000000000e+03,-2.606840876329489728e-02,0.000000000000000000e+00
1.110000000000000000e+03,3.207132535563302356e-01,0.000000000000000000e+00
1.111000000000000000e+03,1.622229420901428465e-01,0.000000000000000000e+00
1.112000000000000000e+03,2.494728201522758426e-01,0.000000000000000000e+00
1.113000000000000000e+03,2.453045118743116537e-01,0.000000000000000000e+00
1.114000000000000000e+03,3.464633168578477584e-01,0.000000000000000000e+00
1.115000000000000000e+03,3.654240413440598134e-01,0.000000000000000000e+00
1.116000000000000000e+03,5.554997627354612000e-01,0.000000000000000000e+00
1.117000000000000000e+03,4.945886000950386885e-01,0.000000000000000000e+00
1.118000000000000000e+03,1.172579809867479783e+00,0.000000000000000000e+00
1.119000000000000000e+03,1.193670208168438718e+00,0.000000000000000000e+00
1.120000000000000000e+03,1.833420538014234991e+00,0.000000000000000000e+00
1.121000000000000000e+03,1.599247093523995966e+00,0.000000000000000000e+00
1.122000000000000000e+03,1.181107633217558739e+00,0.000000000000000000e+00
1.123000000000000000e+03,3.851481779385012572e-01,0.000000000000000000e+00
1.124000000000000000e+03,-8.119109015822026931e-01,0.000000000000000000e+00
1.125000000000000000e+03,-1.244662610359135613e+00,0.000000000000000000e+00
1.126000000000000000e+03,-1.478525005677881143e+00,0.000000000000000000e+00
1.127000000000000000e+03,-1.521153499677835974e+00,0.000000000000000000e+00
1.128000000000000000e+03,-1.407920932760613253e+00,0.000000000000000000e+00
1.129000000000000000e+03,-1.317130805346348410e+00,0.000000000000000000e+00
1.130000000000000000e+03,-1.291726472863321984e+00,0.000000000000000000e+00
1.131000000000000000e+03,-1.135397021102195092e+00,0.000000000000000000e+00
1.132000000000000000e+03,-8.592407916960994596e-01,0.000000000000000000e+00
1.133000000000000000e+03,-1.045721044882558681e+00,0.000000000000000000e+00
1.134000000000000000e+03,-4.561321728540464471e-01,0.000000000000000000e+00
1.135000000000000000e+03,-6.179708702360825479e-01,0.000000000000000000e+00
1.136000000000000000e+03,-4.593527233664880804e-01,0.000000000000000000e+00
1.137000000000000000e+03,-3.940382521711734420e-01,0.000000000000000000e+00
1.138000000000000000e+03,-3.666238100632437380e-01,0.000000000000000000e+00
1.139000000000000000e+03,-3.104882394800710377e-01,0.000000000000000000e+00
1.140000000000000000e+03,-2.712610937838798586e-01,0.000000000000000000e+00
1.141000000000000000e+03,-2.458086827736601920e-01,0.000000000000000000e+00
1.142000000000000000e+03,-1.586762472937348623e-01,0.000000000000000000e+00
1.143000000000000000e+03,-1.839711620051923124e-01,0.000000000000000000e+00
1.144000000000000000e+03,1.983691353727494097e-02,0.000000000000000000e+00
1.145000000000000000e+03,-1.439723868650620575e-01,0.000000000000000000e+00
1.146000000000000000e+03,9.237307761994432986e-02,0.000000000000000000e+00
1.147000000000000000e+03,-5.855862746699233568e-02,0.000000000000000000e+00
1.148000000000000000e+03,6.327639046122734978e-02,0.000000000000000000e+00
1.149000000000000000e+03,1.257569405646283278e-01,0.000000000000000000e+00
1.150000000000000000e+03,3.207567569573879229e-01,0.000000000000000000e+00
1.151000000000000000e+03,3.708485219076563810e-01,0.000000000000000000e+00
1.152000000000000000e+03,6.685158729603487560e-01,0.000000000000000000e+00
1.153000000000000000e+03,3.715014207970085414e-01,0.000000000000000000e+00
1.154000000000000000e+03,7.365472880207555306e-01,0.000000000000000000e+00
1.155000000000000000e+03,1.850095321491748990e-01,0.000000000000000000e+00
1.156000000000000000e+03,3.557050291310692169e-01,0.000000000000000000e+00
1.157000000000000000e+03,-2.459169643228283075e-01,0.000000000000000000e+00
1.158000000000000000e+03,2.658232265388986160e-01,0.000000000000000000e+00
1.159000000000000000e+03,-1.837932091164705961e-01,0.000000000000000000e+00
1.160000000000000000e+03,3.617028568053275439e-01,0.000000000000000000e+00
1.161000000000000000e+03,-1.323060081216460016e-01,0.000000000000000000e+00
1.162000000000000000e+03,3.240153423216957651e-01,0.000000000000000000e+00
1.163000000000000000e+03,-2.263099559142136008e-01,0.000000000000000000e+00
1.164000000000000000e+03,3.348694716503258562e+00,0.000000000000000000e+00
1.165000000000000000e+03,2.853385284180276482e+00,0.000000000000000000e+00
1.166000000000000000e+03,-3.287690905165459032e+00,1.000000000000000000e+00
1.167000000000000000e+03,-9.955071477022002790e-01,0.000000000000000000e+00
1.168000000000000000e+03,-3.044521467740662901e-01,0.000000000000000000e+00
1.169000000000000000e+03,3.628951611214399908e-01,0.000000000000000000e+00
1.170000000000000000e+03,2.292612082574100596e-01,0.000000000000000000e+00
1.171000000000000000e+03,4.373580878472685396e-01,0.000000000000000000e+00
1.172000000000000000e+03,2.874460462235933211e-01,0.000000000000000000e+00
1.173000000000000000e+03,5.329449069168105124e-01,0.000000000000000000e+00
1.174000000000000000e+03,3.146266963866388711e-01,0.000000000000000000e+00
1.175000000000000000e+03,5.534435033651954328e-01,0.000000000000000000e+00
1.176000000000000000e+03,4.700692938704688073e-01,0.000000000000000000e+00
1.177000000000000000e+03,6.742342185924948827e-01,0.000000000000000000e+00
1.178000000000000000e+03,7.693427405184212198e-01,0.000000000000000000e+00
1.179000000000000000e+03,1.277177614022228846e+00,0.000000000000000000e+00
1.180000000000000000e+03,1.567353045758335561e+00,0.000000000000000000e+00
1.181000000000000000e+03,1.731340687897095387e+00,0.000000000000000000e+00
1.182000000000000000e+03,1.685993107495730170e+00,0.000000000000000000e+00
1.183000000000000000e+03,9.455561599736692635e-01,0.000000000000000000e+00
1.184000000000000000e+03,5.173020988300209427e-02,0.000000000000000000e+00
1.185000000000000000e+03,-9.476857475665576569e-01,0.000000000000000000e+00
1.186000000000000000e+03,-1.319471718485817568e+00,0.000000000000000000e+00
1.187000000000000000e+03,-1.596712434722832530e+00,0.000000000000000000e+00
1.188000000000000000e+03,-1.553598231120626005e+00,0.000000000000000000e+00
1.189000000000000000e+03,-1.398599260610561279e+00,0.000000000000000000e+00
1.190000000000000000e+03,-1.314243051053925804e+00,0.000000000000000000e+00
1.191000000000000000e+03,-1.119184803538290973e+00,0.000000000000000000e+00
1.192000000000000000e+03,-1.181251830724335816e+00,0.000000000000000000e+00
1.193000000000000000e+03,-9.212711190156793739e-01,0.000000000000000000e+00
1.194000000000000000e+03,-6.535852312819789844e-01,0.000000000000000000e+00
1.195000000000000000e+03,-6.518812651252567925e-01,0.000000000000000000e+00
1.196000000000000000e+03,-6.732435618648930920e-01,0.000000000000000000e+00
1.197000000000000000e+03,-4.628563406571056804e-01,0.000000000000000000e+00
1.198000000000000000e+03,-4.416441327327922384e-01,0.000000000000000000e+00
1.199000000000000000e+03,-6.538634258840855251e-01,0.000000000000000000e+00
1.200000000000000000e+03,-1.050439948186318861e-01,0.000000000000000000e+00
1.201000000000000000e+03,-4.191436880106474971e-01,0.000000000000000000e+00
1.202000000000000000e+03,-2.330039456620183747e-01,0.000000000000000000e+00
1.203000000000000000e+03,-1.373140421164276426e-01,0.000000000000000000e+00
1.204000000000000000e+03,-1.753443850326314168e-01,0.000000000000000000e+00
1.205000000000000000e+03,-1.546358856573632201e-01,0.000000000000000000e+00
1.206000000000000000e+03,5.539512939905510969e-03,0.000000000000000000e+00
1.207000000000000000e+03,-1.103544142651056298e-02,0.000000000000000000e+00
1.208000000000000000e+03,-3.734863855771871494e-02,0.000000000000000000e+00
1.209000000000000000e+03,2.039633745820025046e-01,0.000000000000000000e+00
1.210000000000000000e+03,1.132817397729622283e-01,0.000000000000000000e+00
1.211000000000000000e+03,1.251323562847083404e-01,0.000000000000000000e+00
1.212000000000000000e+03,3.509526236466804505e-01,0.000000000000000000e+00
1.213000000000000000e+03,2.727027602209159407e-01,0.000000000000000000e+00
1.214000000000000000e+03,8.017009607534894000e-01,0.000000000000000000e+00
1.215000000000000000e+03,5.586589416610578951e-01,0.000000000000000000e+00
1.216000000000000000e+03,5.342328654791261844e-01,0.000000000000000000e+00
1.217000000000000000e+03,2.980702545970639883e-01,0.000000000000000000e+00
1.218000000000000000e+03,1.785744099828882880e-02,0.000000000000000000e+00
1.219000000000000000e+03,-2.519972956661195584e-01,0.000000000000000000e+00
1.220000000000000000e+03,1.863584116350917308e-01,0.000000000000000000e+00
1.221000000000000000e+03,-5.838858213411080716e-02,0.000000000000000000e+00
1.222000000000000000e+03,2.615004075603535316e-01,0.000000000000000000e+00
1.223000000000000000e+03,-1.328640580609846689e-01,0.000000000000000000e+00
1.224000000000000000e+03,2.248838852763529739e-01,0.000000000000000000e+00
1.225000000000000000e+03,-2.398800439250064753e-01,0.000000000000000000e+00
1.226000000000000000e+03,4.347813727579245224e+00,0.000000000000000000e+00
1.227000000000000000e+03,1.194638484403448997e+00,1.000000000000000000e+00
1.228000000000000000e+03,-3.047442191306292347e+00,0.000000000000000000e+00
1.229000000000000000e+03,-2.432451593603191520e-01,0.000000000000000000e+00
1.230000000000000000e+03,-3.316841103911627453e-01,0.000000000000000000e+00
1.231000000000000000e+03,3.666071266766879333e-01,0.000000000000000000e+00
1.232000000000000000e+03,4.827392947860258826e-03,0.000000000000000000e+00
1.233000000000000000e+03,2.534562445430877387e-01,0.000000000000000000e+00
1.234000000000000000e+03,-2.197712277719598289e-02,0.000000000000000000e+00
1.235000000000000000e+03,4.048551201182714054e-01,0.000000000000000000e+00
1.236000000000000000e+03,1.632338178191124478e-01,0.000000000000000000e+00
1.237000000000000000e+03,4.473530815607586475e-01,0.000000000000000000e+00
1.238000000000000000e+03,2.862561088983915925e-01,0.000000000000000000e+00
1.239000000000000000e+03,5.536863107733067668e-01,0.000000000000000000e+00
1.240000000000000000e+03,7.845423056558888941e-01,0.000000000000000000e+00
1.241000000000000000e+03,1.088231471818727814e+00,0.000000000000000000e+00
1.242000000000000000e+03,1.465035509685406412e+00,0.000000000000000000e+00
1.243000000000000000e+03,1.540147895919599330e+00,0.000000000000000000e+00
1.244000000000000000e+03,1.457507550001884589e+00,0.000000000000000000e+00
1.245000000000000000e+03,8.543880179223289906e-01,0.000000000000000000e+00
1.246000000000000000e+03,-2.857961067846838676e-01,0.000000000000000000e+00
1.247000000000000000e+03,-8.970918777970877667e-01,0.000000000000000000e+00
1.248000000000000000e+03,-1.279354786292882684e+00,0.000000000000000000e+00
1.249000000000000000e+03,-1.306630472666799880e+00,0.000000000000000000e+00
1.250000000000000000e+03,-1.431736851159353785e+00,0.000000000000000000e+00
1.251000000000000000e+03,-1.078416633521845691e+00,0.000000000000000000e+00
1.252000000000000000e+03,-1.383134719866297546e+00,0.000000000000000000e+00
1.253000000000000000e+03,-9.881838817089303451e-01,0.000000000000000000e+00
1.254000000000000000e+03,-1.117747981586411976e+00,0.000000000000000000e+00
1.255000000000000000e+03,-7.079396910712980606e-01,0.000000000000000000e+00
1.256000000000000000e+03,-8.387204181289964477e-01,0.000000000000000000e+00
1.257000000000000000e+03,-6.187517423425765717e-01,0.000000000000000000e+00
1.258000000000000000e+03,-6.057427302322627716e-01,0.000000000000000000e+00
1.259000000000000000e+03,-4.784720949263728818e-01,0.000000000000000000e+00
1.260000000000000000e+03,-5.016848243696797605e-01,0.000000000000000000e+00
1.261000000000000000e+03,-3.652626770585863381e-01,0.000000000000000000e+00
1.262000000000000000e+03,-1.892345377390160233e-01,0.000000000000000000e+00
1.263000000000000000e+03,-3.014593699241509550e-01,0.000000000000000000e+00
1.264000000000000000e+03,-2.320531318671226195e-01,0.000000000000000000e+00
1.265000000000000000e+03,-3.641028216770727521e-01,0.000000000000000000e+00
1.266000000000000000e+03,8.233586668174151801e-02,0.000000000000000000e+00
1.267000000000000000e+03,-6.517869031285533632e-02,0.000000000000000000e+00
1.268000000000000000e+03,4.614193011200450056e-02,0.000000000000000000e+00
1.269000000000000000e+03,-1.919876095630327906e-01,0.000000000000000000e+00
1.270000000000000000e+03,1.346775725469385732e-01,0.000000000000000000e+00
1.271000000000000000e+03,-6.263345859818911232e-02,0.000000000000000000e+00
1.272000000000000000e+03,1.864756084056115037e-01,0.000000000000000000e+00
1.273000000000000000e+03,2.372110401344909580e-01,0.000000000000000000e+00
1.274000000000000000e+03,2.313467735335220099e-01,0.000000000000000000e+00
1.275000000000000000e+03,4.390570174805725201e-01,0.000000000000000000e+00
1.276000000000000000e+03,6.150182479993880902e-01,0.000000000000000000e+00
1.277000000000000000e+03,4.748260861853405013e-01,0.000000000000000000e+00
1.278000000000000000e+03,5.741329068862696117e-01,0.000000000000000000e+00
1.279000000000000000e+03,3.748441069702997397e-01,0.000000000000000000e+00
1.280000000000000000e+03,2.845895138114520884e-01,0.000000000000000000e+00
1.281000000000000000e+03,-3.448992345119189507e-01,0.000000000000000000e+00
1.282000000000000000e+03,5.279840100482958987e-02,0.000000000000000000e+00
1.283000000000000000e+03,-2.170255747375477995e-01,0.000000000000000000e+00
1.284000000000000000e+03,1.908402859432927201e-01,0.000000000000000000e+00
1.285000000000000000e+03,-6.813402951534903995e-02,0.000000000000000000e+00
1.286000000000000000e+03,7.134089441500647555e-02,0.000000000000000000e+00
1.287000000000000000e+03,-2.174999716499109170e-01,0.000000000000000000e+00
1.288000000000000000e+03,4.560768404340177717e+00,0.000000000000000000e+00
1.289000000000000000e+03,1.021658578962420849e+00,1.000000000000000000e+00
1.290000000000000000e+03,-2.900776526498356489e+00,0.000000000000000000e+00
1.291000000000000000e+03,-4.256977037545479625e-01,0.000000000000000000e+00
1.292000000000000000e+03,-3.012374172010215401e-01,0.000000000000000000e+00
1.293000000000000000e+03,3.644926044512731833e-01,0.000000000000000000e+00
1.294000000000000000e+03,2.005057488395818877e-01,0.000000000000000000e+00
1.295000000000000000e+03,1.197330232616395096e-01,0.000000000000000000e+00
1.296000000000000000e+03,1.162707153794859810e-01,0.000000000000000000e+00
1.297000000000000000e+03,2.763197372182300549e-01,0.000000000000000000e+00
1.298000000000000000e+03,2.378348037963527450e-01,0.000000000000000000e+00
1.299000000000000000e+03,3.848400713957398356e-01,0.000000000000000000e+00
1.300000000000000000e+03,3.864389491156236534e-01,0.000000000000000000e+00
1.301000000000000000e+03,6.000986458665359402e-01,0.000000000000000000e+00
1.302000000000000000e+03,5.707074514722997316e-01,0.000000000000000000e+00
1.303000000000000000e+03,1.331014484672747855e+00,0.000000000000000000e+00
1.304000000000000000e+03,1.480574289498981067e+00,0.000000000000000000e+00
1.305000000000000000e+03,1.734375623235702157e+00,0.000000000000000000e+00
1.306000000000000000e+03,1.473172869569301824e+00,0.000000000000000000e+00
1.307000000000000000e+03,7.284051008198741961e-01,0.000000000000000000e+00
1.308000000000000000e+03,-1.736827831964605495e-01,0.000000000000000000e+00
1.309000000000000000e+03,-8.155429058869515524e-01,0.000000000000000000e+00
1.310000000000000000e+03,-1.204964726144180931e+00,0.000000000000000000e+00
1.311000000000000000e+03,-1.198730129194866656e+00,0.000000000000000000e+00
1.312000000000000000e+03,-1.512372955262560881e+00,0.000000000000000000e+00
1.313000000000000000e+03,-1.094939256346963097e+00,0.000000000000000000e+00
1.314000000000000000e+03,-1.331756167366115129e+00,0.000000000000000000e+00
1.315000000000000000e+03,-9.061407862063250995e-01,0.000000000000000000e+00
1.316000000000000000e+03,-9.085381846965926433e-01,0.000000000000000000e+00
1.317000000000000000e+03,-9.114689402824015518e-01,0.000000000000000000e+00
1.318000000000000000e+03,-8.180204773396678730e-01,0.000000000000000000e+00
1.319000000000000000e+03,-6.356221821549162820e-01,0.000000000000000000e+00
1.320000000000000000e+03,-5.311465750553964194e-01,0.000000000000000000e+00
1.321000000000000000e+03,-3.422053873519255163e-01,0.000000000000000000e+00
1.322000000000000000e+03,-5.020481708472898097e-01,0.000000000000000000e+00
1.323000000000000000e+03,-3.567564535620540433e-01,0.000000000000000000e+00
1.324000000000000000e+03,-2.574405666338876464e-01,0.000000000000000000e+00
1.325000000000000000e+03,-2.291943339129201007e-01,0.000000000000000000e+00
1.326000000000000000e+03,-3.338964126969029556e-01,0.000000000000000000e+00
1.327000000000000000e+03,-1.045987960208125539e-01,0.000000000000000000e+00
1.328000000000000000e+03,-8.129045915877407269e-02,0.000000000000000000e+00
1.329000000000000000e+03,7.535667192340281262e-02,0.000000000000000000e+00
1.330000000000000000e+03,-5.786052372479405514e-02,0.000000000000000000e+00
1.331000000000000000e+03,5.194225651621816459e-02,0.000000000000000000e+00
1.332000000000000000e+03,-2.477430883701149944e-01,0.000000000000000000e+00
1.333000000000000000e+03,-1.410000486817827338e-02,0.000000000000000000e+00
1.334000000000000000e+03,2.467413894577128453e-01,0.000000000000000000e+00
1.335000000000000000e+03,7.911162645368015334e-02,0.000000000000000000e+00
1.336000000000000000e+03,4.335564599324183144e-01,0.000000000000000000e+00
1.337000000000000000e+03,-6.874545468145829008e-02,0.000000000000000000e+00
1.338000000000000000e+03,1.057143200229220259e+00,0.000000000000000000e+00
1.339000000000000000e+03,4.211133481058210171e-01,0.000000000000000000e+00
1.340000000000000000e+03,4.580383796969539900e-01,0.000000000000000000e+00
1.341000000000000000e+03,5.754822245225446053e-01,0.000000000000000000e+00
1.342000000000000000e+03,7.229486470104617979e-02,0.000000000000000000e+00
1.343000000000000000e+03,-1.968733599716836202e-01,0.000000000000000000e+00
1.344000000000000000e+03,-7.337290221231652920e-02,0.000000000000000000e+00
1.345000000000000000e+03,-1.660274559914466930e-01,0.000000000000000000e+00
1.346000000000000000e+03,2.533236752043396267e-01,0.000000000000000000e+00
1.347000000000000000e+03,-5.428490255401683395e-01,0.000000000000000000e+00
1.348000000000000000e+03,5.547505534152370466e-01,0.000000000000000000e+00
1.349000000000000000e+03,-8.343033259859246042e-01,0.000000000000000000e+00
1.350000000000000000e+03,3.385242444003400131e+00,0.000000000000000000e+00
1.351000000000000000e+03,3.283955415636710118e+00,0.000000000000000000e+00
1.352000000000000000e+03,-3.078197814760164075e+00,1.000000000000000000e+00
1.353000000000000000e+03,-7.976227391404334677e-01,0.000000000000000000e+00
1.354000000000000000e+03,-3.974782194192584273e-01,0.000000000000000000e+00
1.355000000000000000e+03,1.478489659865430128e-01,0.000000000000000000e+00
1.356000000000000000e+03,-1.019014752551840319e-01,0.000000000000000000e+00
1.357000000000000000e+03,2.583846690705235427e-01,0.000000000000000000e+00
1.358000000000000000e+03,5.200457674714077660e-02,0.000000000000000000e+00
1.359000000000000000e+03,2.110522099279776298e-01,0.000000000000000000e+00
1.360000000000000000e+03,1.802220759413030240e-02,0.000000000000000000e+00
1.361000000000000000e+03,5.790442364562119471e-01,0.000000000000000000e+00
1.362000000000000000e+03,2.437579123832940287e-01,0.000000000000000000e+00
1.363000000000000000e+03,5.599338423139736953e-01,0.000000000000000000e+00
1.364000000000000000e+03,6.183750329092126963e-01,0.000000000000000000e+00
1.365000000000000000e+03,1.040697809405739083e+00,0.000000000000000000e+00
1.366000000000000000e+03,1.365422597263247884e+00,0.000000000000000000e+00
1.367000000000000000e+03,1.777183185804398269e+00,0.000000000000000000e+00
1.368000000000000000e+03,1.745679076113947570e+00,0.000000000000000000e+00
1.369000000000000000e+03,1.055287242202423981e+00,0.000000000000000000e+00
1.370000000000000000e+03,-7.076884641085713634e-02,0.000000000000000000e+00
1.371000000000000000e+03,-8.831477755350534142e-01,0.000000000000000000e+00
1.372000000000000000e+03,-1.194093950822331385e+00,0.000000000000000000e+00
1.373000000000000000e+03,-1.515252273412996953e+00,0.000000000000000000e+00
1.374000000000000000e+03,-1.396485292440087012e+00,0.000000000000000000e+00
1.375000000000000000e+03,-1.324618005242652163e+00,0.000000000000000000e+00
1.376000000000000000e+03,-1.257798909264098652e+00,0.000000000000000000e+00
1.377000000000000000e+03,-1.065878350320097256e+00,0.000000000000000000e+00
1.378000000000000000e+03,-1.195198858621477234e+00,0.000000000000000000e+00
1.379000000000000000e+03,-6.826571924856834617e-01,0.000000000000000000e+00
1.380000000000000000e+03,-8.429924842632152693e-01,0.000000000000000000e+00
1.381000000000000000e+03,-7.268638997921942346e-01,0.000000000000000000e+00
1.382000000000000000e+03,-5.126984833832074484e-01,0.000000000000000000e+00
1.383000000000000000e+03,-4.223264115745242187e-01,0.000000000000000000e+00
1.384000000000000000e+03,-5.289921348556364533e-01,0.000000000000000000e+00
1.385000000000000000e+03,-2.354583970968886497e-01,0.000000000000000000e+00
1.386000000000000000e+03,-3.235263888220837880e-01,0.000000000000000000e+00
1.387000000000000000e+03,-2.007464905792015752e-01,0.000000000000000000e+00
1.388000000000000000e+03,-1.110571431919457619e-01,0.000000000000000000e+00
1.389000000000000000e+03,-2.300123791295300979e-01,0.000000000000000000e+00
1.390000000000000000e+03,-7.286848788287247913e-02,0.000000000000000000e+00
1.391000000000000000e+03,2.530745124046427166e-02,0.000000000000000000e+00
1.392000000000000000e+03,-3.872690349238549351e-02,0.000000000000000000e+00
1.393000000000000000e+03,2.487925813316944346e-01,0.000000000000000000e+00
1.394000000000000000e+03,-1.089883666677260790e-02,0.000000000000000000e+00
1.395000000000000000e+03,1.938859576057674061e-01,0.000000000000000000e+00
1.396000000000000000e+03,1.446034597459412430e-01,0.000000000000000000e+00
1.397000000000000000e+03,1.403301884706622260e-01,0.000000000000000000e+00
1.398000000000000000e+03,5.398013788489194331e-01,0.000000000000000000e+00
1.399000000000000000e+03,3.886687682592068760e-01,0.000000000000000000e+00
1.400000000000000000e+03,6.667795806589896790e-01,0.000000000000000000e+00
1.401000000000000000e+03,6.906749680668511360e-01,0.000000000000000000e+00
1.402000000000000000e+03,5.826066271587858614e-01,0.000000000000000000e+00
1.403000000000000000e+03,5.226948843244610954e-01,0.000000000000000000e+00
1.404000000000000000e+03,2.056370947844331221e-01,0.000000000000000000e+00
1.405000000000000000e+03,8.328263773967697903e-02,0.000000000000000000e+00
1.406000000000000000e+03,-6.949633630350235403e-02,0.000000000000000000e+00
1.407000000000000000e+03,9.689447925518208937e-02,0.000000000000000000e+00
1.408000000000000000e+03,-4.242591627240382274e-02,0.000000000000000000e+00
1.409000000000000000e+03,1.642445707148715295e-01,0.000000000000000000e+00
1.410000000000000000e+03,3.445087187209102675e-01,0.000000000000000000e+00
1.411000000000000000e+03,-4.045949359097523179e-01,0.000000000000000000e+00
1.412000000000000000e+03,2.970760256646967523e+00,0.000000000000000000e+00
1.413000000000000000e+03,3.878067182178068339e+00,0.000000000000000000e+00
1.414000000000000000e+03,-3.282612000742317182e+00,1.000000000000000000e+00
1.415000000000000000e+03,-1.039773575490637203e+00,0.000000000000000000e+00
1.416000000000000000e+03,-5.821637616556287753e-01,0.000000000000000000e+00
1.417000000000000000e+03,2.916928464132071963e-01,0.000000000000000000e+00
1.418000000000000000e+03,3.282169066073601510e-02,0.000000000000000000e+00
1.419000000000000000e+03,5.160041077268687770e-01,0.000000000000000000e+00
1.420000000000000000e+03,1.620928915004428150e-01,0.000000000000000000e+00
1.421000000000000000e+03,2.331773616541965854e-01,0.000000000000000000e+00
1.422000000000000000e+03,1.548048918406056407e-01,0.000000000000000000e+00
1.423000000000000000e+03,5.116241899081070965e-01,0.000000000000000000e+00
1.424000000000000000e+03,1.995055755395832020e-01,0.000000000000000000e+00
1.425000000000000000e+03,8.868666453466019783e-01,0.000000000000000000e+00
1.426000000000000000e+03,5.390461811196654018e-01,0.000000000000000000e+00
1.427000000000000000e+03,1.161389936671274770e+00,0.000000000000000000e+00
1.428000000000000000e+03,1.345652298519811163e+00,0.000000000000000000e+00
1.429000000000000000e+03,1.817072410341081579e+00,0.000000000000000000e+00
1.430000000000000000e+03,1.551289333659967795e+00,0.000000000000000000e+00
1.431000000000000000e+03,1.156172041056720667e+00,0.000000000000000000e+00
1.432000000000000000e+03,-2.200690136052071630e-02,0.000000000000000000e+00
1.433000000000000000e+03,-7.239522809892813271e-01,0.000000000000000000e+00
1.434000000000000000e+03,-1.539952891052985162e+00,0.000000000000000000e+00
1.435000000000000000e+03,-1.310621312875235756e+00,0.000000000000000000e+00
1.436000000000000000e+03,-1.557118878963542619e+00,0.000000000000000000e+00
1.437000000000000000e+03,-1.213616553213063165e+00,0.000000000000000000e+00
1.438000000000000000e+03,-1.623634307864598725e+00,0.000000000000000000e+00
1.439000000000000000e+03,-1.097283734707370284e+00,0.000000000000000000e+00
1.440000000000000000e+03,-1.266989892004902529e+00,0.000000000000000000e+00
1.441000000000000000e+03,-9.100511193448104219e-01,0.000000000000000000e+00
1.442000000000000000e+03,-9.741576072918995965e-01,0.000000000000000000e+00
1.443000000000000000e+03,-5.676248646351792493e-01,0.000000000000000000e+00
1.444000000000000000e+03,-8.585129450754367397e-01,0.000000000000000000e+00
1.445000000000000000e+03,-5.092832205185503502e-01,0.000000000000000000e+00
1.446000000000000000e+03,-8.142063613154623125e-01,0.000000000000000000e+00
1.447000000000000000e+03,-1.708329725706723978e-01,0.000000000000000000e+00
1.448000000000000000e+03,-6.095537387823405373e-01,0.000000000000000000e+00
1.449000000000000000e+03,-7.377792386658198198e-02,0.000000000000000000e+00
1.450000000000000000e+03,-5.991098079042892488e-01,0.000000000000000000e+00
1.451000000000000000e+03,-1.898881241852561907e-01,0.000000000000000000e+00
1.452000000000000000e+03,-6.661312642673608564e-02,0.000000000000000000e+00
1.453000000000000000e+03,-1.814424266559433729e-01,0.000000000000000000e+00
1.454000000000000000e+03,1.329837218773214334e-03,0.000000000000000000e+00
1.455000000000000000e+03,-1.641995771347958821e-01,0.000000000000000000e+00
1.456000000000000000e+03,1.192959292256647319e-01,0.000000000000000000e+00
1.457000000000000000e+03,1.866593182277320739e-01,0.000000000000000000e+00
1.458000000000000000e+03,4.693437465902480787e-02,0.000000000000000000e+00
1.459000000000000000e+03,3.233569195559700682e-01,0.000000000000000000e+00
1.460000000000000000e+03,1.160048158980432481e-01,0.000000000000000000e+00
1.461000000000000000e+03,7.463702817842795545e-01,0.000000000000000000e+00
1.462000000000000000e+03,6.523248212665773149e-01,0.000000000000000000e+00
1.463000000000000000e+03,7.347467427827488740e-01,0.000000000000000000e+00
1.464000000000000000e+03,1.156281850427435393e-01,0.000000000000000000e+00
1.465000000000000000e+03,3.361885930090489083e-01,0.000000000000000000e+00
1.466000000000000000e+03,-1.155191384879293015e-01,0.000000000000000000e+00
1.467000000000000000e+03,5.270957881472147083e-02,0.000000000000000000e+00
1.468000000000000000e+03,-5.612869815745788124e-03,0.000000000000000000e+00
1.469000000000000000e+03,1.727825872773500748e-01,0.000000000000000000e+00
1.470000000000000000e+03,-2.568672464548450371e-02,0.000000000000000000e+00
1.471000000000000000e+03,3.918477905198478051e-01,0.000000000000000000e+00
1.472000000000000000e+03,-4.492609341362697184e-01,0.000000000000000000e+00
1.473000000000000000e+03,3.342630152901133744e+00,0.000000000000000000e+00
1.474000000000000000e+03,3.203131553903720175e+00,0.000000000000000000e+00
1.475000000000000000e+03,-3.298713031595246203e+00,1.000000000000000000e+00
1.476000000000000000e+03,-1.074857987367435541e+00,0.000000000000000000e+00
1.477000000000000000e+03,-1.717292546282810639e-01,0.000000000000000000e+00
1.478000000000000000e+03,2.978867459165528975e-01,0.000000000000000000e+00
1.479000000000000000e+03,2.049372138807065979e-01,0.000000000000000000e+00
1.480000000000000000e+03,2.398938122867182998e-01,0.000000000000000000e+00
1.481000000000000000e+03,3.904382337221587451e-01,0.000000000000000000e+00
1.482000000000000000e+03,4.059634841883877909e-01,0.000000000000000000e+00
1.483000000000000000e+03,1.856020719747118464e-01,0.000000000000000000e+00
1.484000000000000000e+03,5.117222723847979493e-01,0.000000000000000000e+00
1.485000000000000000e+03,3.099401156099674814e-01,0.000000000000000000e+00
1.486000000000000000e+03,6.511050904275095252e-01,0.000000000000000000e+00
1.487000000000000000e+03,7.080669470049248959e-01,0.000000000000000000e+00
1.488000000000000000e+03,1.161361436872099029e+00,0.000000000000000000e+00
1.489000000000000000e+03,1.493970247574129662e+00,0.000000000000000000e+00
1.490000000000000000e+03,1.516852338097275377e+00,0.000000000000000000e+00
1.491000000000000000e+03,1.764112844316714890e+00,0.000000000000000000e+00
1.492000000000000000e+03,9.815800917395050007e-01,0.000000000000000000e+00
1.493000000000000000e+03,-9.300107123070765203e-02,0.000000000000000000e+00
1.494000000000000000e+03,-8.447687063411891684e-01,0.000000000000000000e+00
1.495000000000000000e+03,-1.346818875642351365e+00,0.000000000000000000e+00
1.496000000000000000e+03,-1.379467088188929047e+00,0.000000000000000000e+00
1.497000000000000000e+03,-1.670223690938212435e+00,0.000000000000000000e+00
1.498000000000000000e+03,-1.269869930533247038e+00,0.000000000000000000e+00
1.499000000000000000e+03,-1.331185518151090985e+00,0.000000000000000000e+00
1.500000000000000000e+03,-1.296293317627631225e+00,0.000000000000000000e+00
1.501000000000000000e+03,-1.061098394629310659e+00,0.000000000000000000e+00
1.502000000000000000e+03,-8.075887209410970158e-01,0.000000000000000000e+00
1.503000000000000000e+03,-7.357261401657256839e-01,0.000000000000000000e+00
1.504000000000000000e+03,-7.105175102965757272e-01,0.000000000000000000e+00
1.505000000000000000e+03,-4.996782836668584027e-01,0.000000000000000000e+00
1.506000000000000000e+03,-7.725111997005069675e-01,0.000000000000000000e+00
1.507000000000000000e+03,-2.288154211455394604e-01,0.000000000000000000e+00
1.508000000000000000e+03,-4.226146515806157855e-01,0.000000000000000000e+00
1.509000000000000000e+03,-2.126636494009566392e-01,0.000000000000000000e+00
1.510000000000000000e+03,-4.962136587664583431e-01,0.000000000000000000e+00
1.511000000000000000e+03,-1.471892249229929672e-01,0.000000000000000000e+00
1.512000000000000000e+03,-2.784181499727329534e-01,0.000000000000000000e+00
1.513000000000000000e+03,-1.514473813262125386e-02,0.000000000000000000e+00
1.514000000000000000e+03,-3.195880613374635359e-01,0.000000000000000000e+00
1.515000000000000000e+03,2.103616267054742028e-01,0.000000000000000000e+00
1.516000000000000000e+03,-7.941943153983568870e-02,0.000000000000000000e+00
1.517000000000000000e+03,-9.579188398092194912e-02,0.000000000000000000e+00
1.518000000000000000e+03,7.318270587948581818e-02,0.000000000000000000e+00
1.519000000000000000e+03,1.166143795990158410e-01,0.000000000000000000e+00
1.520000000000000000e+03,2.109829182245074042e-01,0.000000000000000000e+00
1.521000000000000000e+03,2.991689259021688696e-01,0.000000000000000000e+00
1.522000000000000000e+03,2.501778544097151280e-01,0.000000000000000000e+00
1.523000000000000000e+03,7.565291500298895189e-01,0.000000000000000000e+00
1.524000000000000000e+03,5.718217599332510170e-01,0.000000000000000000e+00
1.525000000000000000e+03,5.935700284890127465e-01,0.000000000000000000e+00
1.526000000000000000e+03,2.401361144154431082e-01,0.000000000000000000e+00
1.527000000000000000e+03,2.533638805716296183e-01,0.000000000000000000e+00
1.528000000000000000e+03,-1.885770552324981530e-01,0.000000000000000000e+00
1.529000000000000000e+03,2.323503452353540832e-01,0.000000000000000000e+00
1.530000000000000000e+03,-1.826511569262520840e-01,0.000000000000000000e+00
1.531000000000000000e+03,1.774930074326343532e-01,0.000000000000000000e+00
1.532000000000000000e+03,-9.474300051697308322e-02,0.000000000000000000e+00
1.533000000000000000e+03,3.232140242941998198e-01,0.000000000000000000e+00
1.534000000000000000e+03,-4.733916406894253526e-01,0.000000000000000000e+00
1.535000000000000000e+03,4.027143067866974846e+00,0.000000000000000000e+00
1.536000000000000000e+03,1.790954560818545538e+00,1.000000000000000000e+00
1.537000000000000000e+03,-2.891892452138714820e+00,0.000000000000000000e+00
1.538000000000000000e+03,-5.593431926091128048e-01,0.000000000000000000e+00
1.539000000000000000e+03,-1.814231128082146316e-01,0.000000000000000000e+00
1.540000000000000000e+03,2.894893576041478456e-01,0.000000000000000000e+00
1.541000000000000000e+03,1.146484300326194028e-01,0.000000000000000000e+00
1.542000000000000000e+03,4.440743198669562242e-01,0.000000000000000000e+00
1.543000000000000000e+03,7.578045590882336036e-02,0.000000000000000000e+00
1.544000000000000000e+03,4.054409975891479223e-01,0.000000000000000000e+00
1.545000000000000000e+03,2.037534728752357360e-01,0.000000000000000000e+00
1.546000000000000000e+03,5.264648923060284424e-01,0.000000000000000000e+00
1.547000000000000000e+03,3.888248711883626196e-01,0.000000000000000000e+00
1.548000000000000000e+03,5.443246770359256859e-01,0.000000000000000000e+00
1.549000000000000000e+03,6.960242103295609661e-01,0.000000000000000000e+00
1.550000000000000000e+03,1.125783003459117637e+00,0.000000000000000000e+00
1.551000000000000000e+03,1.490625013116899211e+00,0.000000000000000000e+00
1.552000000000000000e+03,1.614089089102723307e+00,0.000000000000000000e+00
1.553000000000000000e+03,1.507959481249105949e+00,0.000000000000000000e+00
1.554000000000000000e+03,9.022762549725136250e-01,0.000000000000000000e+00
1.555000000000000000e+03,-1.180455155362465369e-01,0.000000000000000000e+00
1.556000000000000000e+03,-8.129726545506668067e-01,0.000000000000000000e+00
1.557000000000000000e+03,-1.313039579048486782e+00,0.000000000000000000e+00
1.558000000000000000e+03,-1.543030852954045296e+00,0.000000000000000000e+00
1.559000000000000000e+03,-1.267179768931143924e+00,0.000000000000000000e+00
1.560000000000000000e+03,-1.421986537646276583e+00,0.000000000000000000e+00
1.561000000000000000e+03,-1.164797440630640946e+00,0.000000000000000000e+00
1.562000000000000000e+03,-1.183970835666588339e+00,0.000000000000000000e+00
1.563000000000000000e+03,-1.030488867760411820e+00,0.000000000000000000e+00
1.564000000000000000e+03,-9.904372695025926987e-01,0.000000000000000000e+00
1.565000000000000000e+03,-9.310038353701316494e-01,0.000000000000000000e+00
1.566000000000000000e+03,-5.368921354013658220e-01,0.000000000000000000e+00
1.567000000000000000e+03,-7.385734406647436190e-01,0.000000000000000000e+00
1.568000000000000000e+03,-2.826067093360876692e-01,0.000000000000000000e+00
1.569000000000000000e+03,-6.373337040948734433e-01,0.000000000000000000e+00
1.570000000000000000e+03,-3.209586754860336288e-01,0.000000000000000000e+00
1.571000000000000000e+03,-3.230578883920806610e-01,0.000000000000000000e+00
1.572000000000000000e+03,-4.213215683527370969e-01,0.000000000000000000e+00
1.573000000000000000e+03,-2.323770571226671522e-01,0.000000000000000000e+00
1.574000000000000000e+03,-2.628991257515178592e-01,0.000000000000000000e+00
1.575000000000000000e+03,-1.302772189702008920e-01,0.000000000000000000e+00
1.576000000000000000e+03,-8.664369122669686452e-02,0.000000000000000000e+00
1.577000000000000000e+03,-3.354179996435358718e-02,0.000000000000000000e+00
1.578000000000000000e+03,-6.136601468591952775e-03,0.000000000000000000e+00
1.579000000000000000e+03,-1.955368752492319187e-02,0.000000000000000000e+00
1.580000000000000000e+03,6.599446267646533193e-02,0.000000000000000000e+00
1.581000000000000000e+03,1.517000420465344779e-01,0.000000000000000000e+00
1.582000000000000000e+03,-3.307181881739141432e-02,0.000000000000000000e+00
1.583000000000000000e+03,1.766125891464800091e-01,0.000000000000000000e+00
1.584000000000000000e+03,4.061210734215782159e-01,0.000000000000000000e+00
1.585000000000000000e+03,7.732924673658440051e-01,0.000000000000000000e+00
1.586000000000000000e+03,4.641320240856272594e-01,0.000000000000000000e+00
1.587000000000000000e+03,7.065475547640358567e-01,0.000000000000000000e+00
